Data from test_V78500241_3021.txt Node
Date: Fri Mar 25 14:54:45 CST 2022
User: usil
Spectrometer: V785-0024
Trigger mode: 0
Integration Time (sec): 4.000000E-1
Scans to average: 1
Nonlinearity correction enabled: false
Boxcar width: 0
Storing dark spectrum: false
XAxis mode: Wavelengths
Number of Pixels in Spectrum: 1024
>>>>>Begin Spectral Data<<<<<
801.071	22067
801.214	21960
801.356	21686
801.499	21614
801.641	21507
801.783	21420
801.926	21469
802.068	21500
802.211	21294
802.353	21279
802.496	20990
802.638	21005
802.78	20929
802.923	20910
803.065	20731
803.208	20724
803.35	20902
803.492	20982
803.635	20868
803.777	20842
803.919	20883
804.061	21055
804.204	20796
804.346	20785
804.488	20636
804.63	20727
804.773	20648
804.915	20731
805.057	20804
805.199	20712
805.341	20724
805.483	20781
805.626	20804
805.768	20617
805.91	20716
806.052	20724
806.194	20648
806.336	20910
806.478	20689
806.62	20651
806.762	20724
806.904	20811
807.046	21142
807.188	21043
807.33	21005
807.472	21131
807.614	20982
807.756	20864
807.898	20811
808.04	20804
808.182	20830
808.324	20758
808.465	20910
808.607	20929
808.749	21131
808.891	21184
809.033	21180
809.174	21138
809.316	21009
809.458	21127
809.6	21005
809.741	21173
809.883	21116
810.025	21287
810.166	21256
810.308	21138
810.45	21230
810.591	21077
810.733	20937
810.875	20914
811.016	20724
811.158	20807
811.299	20868
811.441	21055
811.582	21032
811.724	20887
811.865	20720
812.007	20895
812.148	20895
812.29	20861
812.431	21020
812.573	21230
812.714	21370
812.855	21359
812.997	21401
813.138	21583
813.279	21504
813.421	21374
813.562	21260
813.703	21096
813.845	20990
813.986	20693
814.127	20541
814.268	20457
814.41	20461
814.551	20328
814.692	20465
814.833	20282
814.974	20431
815.115	20320
815.256	20298
815.397	20252
815.539	20252
815.68	20210
815.821	20016
815.962	20218
816.103	20092
816.244	19814
816.385	19894
816.526	19814
816.666	19734
816.807	19510
816.948	19651
817.089	19624
817.23	19643
817.371	19506
817.512	19483
817.653	19537
817.793	19453
817.934	19457
818.075	19578
818.216	19525
818.356	19506
818.497	19308
818.638	19194
818.778	19236
818.919	19259
819.06	19266
819.2	19324
819.341	19403
819.481	19354
819.622	19571
819.762	19681
819.903	19643
820.043	19552
820.184	19548
820.324	19495
820.465	19635
820.605	19540
820.746	19464
820.886	19396
821.026	19453
821.167	19396
821.307	19632
821.447	19415
821.588	19282
821.728	19236
821.868	19046
822.008	18867
822.149	18951
822.289	18852
822.429	18779
822.569	18722
822.709	18601
822.849	18300
822.99	18327
823.13	18334
823.27	18311
823.41	18194
823.55	18216
823.69	18235
823.83	18247
823.97	18213
824.11	17931
824.25	17863
824.389	17939
824.529	18022
824.669	17996
824.809	18045
824.949	18053
825.089	18064
825.228	17946
825.368	17851
825.508	17718
825.648	17779
825.787	17794
825.927	17714
826.067	17779
826.206	17653
826.346	17733
826.485	17775
826.625	17573
826.765	17786
826.904	17893
827.044	17543
827.183	17455
827.323	17360
827.462	17589
827.601	17391
827.741	17341
827.88	17398
828.02	17368
828.159	17395
828.298	17467
828.437	17455
828.577	17395
828.716	17566
828.855	17292
828.994	17227
829.134	17200
829.273	17220
829.412	17067
829.551	17151
829.69	17067
829.829	17143
829.968	17246
830.107	17239
830.246	17159
830.385	17105
830.524	17090
830.663	16911
830.802	16869
830.941	16805
831.08	16653
831.219	16793
831.357	16866
831.496	16965
831.635	16763
831.774	16717
831.913	16554
832.051	16512
832.19	16546
832.329	16550
832.467	16466
832.606	16371
832.744	16310
832.883	16352
833.022	16348
833.16	16447
833.299	16459
833.437	16504
833.576	16573
833.714	16459
833.852	16546
833.991	16584
834.129	16622
834.267	16580
834.406	16421
834.544	16455
834.682	16481
834.821	16398
834.959	16702
835.097	16500
835.235	16523
835.373	16504
835.511	16493
835.65	16436
835.788	16352
835.926	16280
836.064	16230
836.202	16303
836.34	16310
836.478	16481
836.615	16291
836.753	16379
836.891	16523
837.029	16451
837.167	16276
837.305	16333
837.443	16276
837.58	16211
837.718	16325
837.856	16238
837.993	16253
838.131	16223
838.269	16246
838.406	16207
838.544	16116
838.681	16021
838.819	16017
838.956	15804
839.094	15892
839.231	15888
839.369	15922
839.506	16265
839.643	16074
839.781	15926
839.918	15827
840.055	15911
840.193	15755
840.33	15778
840.467	15770
840.604	15835
840.742	16169
840.879	15717
841.016	15728
841.153	15743
841.29	15816
841.427	15789
841.564	15918
841.701	15793
841.838	15762
841.975	15561
842.112	15732
842.249	15557
842.385	15603
842.522	15713
842.659	15523
842.796	15629
842.933	15644
843.069	15496
843.206	15500
843.343	15641
843.479	15580
843.616	15603
843.752	15370
843.889	15386
844.025	15450
844.162	15359
844.298	15450
844.435	15336
844.571	15325
844.708	15443
844.844	15542
844.98	15481
845.117	15534
845.253	15306
845.389	15211
845.525	15348
845.661	15279
845.798	15131
845.934	15188
846.07	15112
846.206	15184
846.342	15275
846.478	15207
846.614	14941
846.75	14937
846.886	14895
847.022	15093
847.158	14975
847.294	14872
847.429	15024
847.565	14918
847.701	15199
847.837	14731
847.972	14705
848.108	14845
848.244	14697
848.379	14549
848.515	14465
848.65	14549
848.786	14552
848.921	14598
849.057	14621
849.192	14613
849.328	14686
849.463	14625
849.598	14427
849.734	14484
849.869	14355
850.004	14332
850.14	14381
850.275	14358
850.41	14142
850.545	14183
850.68	14240
850.815	14301
850.95	14271
851.085	14568
851.22	14370
851.355	14355
851.49	14305
851.625	14324
851.76	14305
851.895	14221
852.03	14168
852.165	14298
852.299	14301
852.434	14286
852.569	14275
852.703	14351
852.838	14366
852.973	14438
853.107	14457
853.242	14233
853.376	14092
853.511	14077
853.645	14119
853.78	14343
853.914	14244
854.048	14100
854.183	14206
854.317	14294
854.451	14332
854.585	14191
854.72	14046
854.854	14252
854.988	14081
855.122	14054
855.256	14111
855.39	14191
855.524	14229
855.658	14183
855.792	14161
855.926	14278
856.06	14298
856.194	14305
856.327	14206
856.461	14130
856.595	14199
856.729	14164
856.862	14336
856.996	14244
857.13	14267
857.263	14195
857.397	14309
857.53	14134
857.664	14191
857.797	14248
857.931	14256
858.064	14157
858.197	14313
858.331	14161
858.464	14115
858.597	14016
858.731	14077
858.864	14172
858.997	14195
859.13	14229
859.263	14180
859.396	14252
859.529	14119
859.662	14157
859.795	14126
859.928	14145
860.061	14347
860.194	14434
860.327	14210
860.46	14153
860.592	14252
860.725	14366
860.858	14187
860.99	14157
861.123	14054
861.256	14123
861.388	14149
861.521	14849
861.653	14062
861.786	14073
861.918	13940
862.05	14001
862.183	14145
862.315	14046
862.447	14206
862.58	14069
862.712	14031
862.844	13940
862.976	14050
863.108	14008
863.24	14457
863.372	13913
863.504	14024
863.636	13909
863.768	14001
863.9	14031
864.032	13864
864.164	14012
864.296	13978
864.428	13989
864.559	13944
864.691	14115
864.823	14024
864.954	14077
865.086	13986
865.217	13921
865.349	13898
865.48	13986
865.612	13906
865.743	14027
865.875	13936
866.006	13902
866.137	13909
866.269	13978
866.4	13921
866.531	13936
866.662	13974
866.793	13780
866.924	13963
867.055	13913
867.186	13921
867.317	13928
867.448	13811
867.579	13822
867.71	13814
867.841	13868
867.972	13978
868.103	13959
868.233	13925
868.364	13921
868.495	14058
868.625	14123
868.756	14267
868.886	14126
869.017	14206
869.147	14278
869.278	14278
869.408	14263
869.539	14115
869.669	14298
869.799	14077
869.929	14358
870.06	14278
870.19	14484
870.32	14438
870.45	14590
870.58	14610
870.71	14708
870.84	14777
870.97	14598
871.1	14602
871.23	14743
871.36	14823
871.489	14613
871.619	14861
871.749	14800
871.879	14781
872.008	14861
872.138	14689
872.267	14720
872.397	14625
872.526	14598
872.656	14564
872.785	14560
872.915	14777
873.044	14933
873.173	14807
873.303	14823
873.432	14853
873.561	15001
873.69	14830
873.819	14785
873.948	14937
874.077	14864
874.206	14811
874.335	14857
874.464	14975
874.593	15108
874.722	15089
874.851	15256
874.979	15123
875.108	15207
875.237	15055
875.365	15085
875.494	15051
875.623	15142
875.751	15173
875.88	15165
876.008	15241
876.136	15348
876.265	15652
876.393	15709
876.521	15728
876.65	15637
876.778	15500
876.906	15485
877.034	15606
877.162	15595
877.29	15595
877.418	15557
877.546	15633
877.674	15530
877.802	15610
877.93	15519
878.058	15564
878.185	15450
878.313	15561
878.441	15561
878.568	15397
878.696	15424
878.824	15526
878.951	15644
879.079	15819
879.206	15857
879.333	15717
879.461	15637
879.588	15625
879.715	15755
879.842	15918
879.97	15633
880.097	15428
880.224	15443
880.351	15443
880.478	15348
880.605	15397
880.732	15370
880.859	15660
880.986	15408
881.112	15488
881.239	15211
881.366	15169
881.493	15112
881.619	15055
881.746	15081
881.872	15013
881.999	15058
882.125	15058
882.252	15062
882.378	15100
882.505	15252
882.631	14986
882.757	14902
882.883	14910
883.01	15001
883.136	14815
883.262	14750
883.388	14727
883.514	14842
883.64	14975
883.766	14906
883.892	14750
884.018	14735
884.143	14864
884.269	14990
884.395	14731
884.52	14549
884.646	14568
884.772	14579
884.897	14457
885.023	14632
885.148	14678
885.274	14777
885.399	14590
885.524	14655
885.65	14644
885.775	14594
885.9	14640
886.025	14693
886.15	14701
886.275	14514
886.4	14526
886.525	14484
886.65	14457
886.775	14503
886.9	14769
887.025	14842
887.149	14613
887.274	14476
887.399	14404
887.523	14412
887.648	14469
887.773	14374
887.897	14571
888.021	14495
888.146	14358
888.27	14450
888.395	14522
888.519	14469
888.643	14438
888.767	14511
888.891	14385
889.015	14233
889.139	14271
889.263	14290
889.387	14450
889.511	14655
889.635	14457
889.759	14324
889.883	14233
890.006	14446
890.13	14355
890.254	14237
890.377	14187
890.501	14111
890.624	14115
890.748	14145
890.871	14073
890.995	14016
891.118	13982
891.241	14027
891.364	13970
891.488	14069
891.611	13909
891.734	14027
891.857	14069
891.98	14005
892.103	14183
892.226	14107
892.349	13986
892.471	13906
892.594	13928
892.717	14008
892.839	14012
892.962	14008
893.085	14084
893.207	13955
893.33	13860
893.452	13898
893.575	13986
893.697	13890
893.819	14134
893.941	14199
894.064	14271
894.186	14024
894.308	14031
894.43	14157
894.552	14195
894.674	14126
894.796	14130
894.918	14005
895.04	13986
895.161	14149
895.283	14081
895.405	13997
895.526	14153
895.648	14153
895.769	14123
895.891	14142
896.012	14313
896.134	14187
896.255	14103
896.376	14096
896.498	14195
896.619	14259
896.74	14012
896.861	14225
896.982	14385
897.103	14674
897.224	14434
897.345	14324
897.466	14298
897.587	14446
897.708	14594
897.828	14469
897.949	14381
898.07	14408
898.19	14366
898.311	14587
898.431	14469
898.552	14610
898.672	14606
898.792	14663
898.913	14556
899.033	14446
899.153	14320
899.273	14240
899.393	14393
899.513	14396
899.633	14358
899.753	14389
899.873	14400
899.993	14374
900.113	14522
900.232	14389
900.352	14301
900.472	14317
900.591	14233
900.711	14385
900.83	14282
900.95	14324
901.069	14381
901.189	14229
901.308	14046
901.427	13967
901.546	13879
901.665	13967
901.784	14001
901.904	13814
902.023	13780
902.141	13563
902.26	13506
902.379	13632
902.498	13491
902.617	13499
902.735	13495
902.854	13582
902.973	13499
903.091	13179
903.21	13278
903.328	13278
903.446	13072
903.565	13008
903.683	13107
903.801	13046
903.919	13004
904.038	13057
904.156	12954
904.274	12977
904.392	12954
904.51	12962
904.627	12825
904.745	12943
904.863	13046
904.981	12635
905.098	12582
905.216	12559
905.334	12589
905.451	12589
905.569	12593
905.686	12559
905.803	12559
905.921	12369
906.038	12494
906.155	12388
906.272	12289
906.389	12319
906.506	12228
906.623	12235
906.74	12144
906.857	12034
906.974	12098
907.091	12110
907.208	12342
907.324	12190
907.441	12045
907.557	11984
907.674	11870
907.79	11893
907.907	11813
908.023	11904
908.139	11996
908.256	11878
908.372	11889
908.488	11836
908.604	11745
908.72	11596
908.836	11722
908.952	11672
909.068	11680
909.184	11805
909.3	11691
909.415	11665
909.531	11589
909.647	11486
909.762	11471
909.878	11398
909.993	11448
910.108	11429
910.224	11425
910.339	11440
910.454	11296
910.57	11250
910.685	11280
910.8	11501
910.915	11376
911.03	11292
911.145	11124
911.259	11147
911.374	11143
911.489	11071
911.604	11041
911.718	10828
911.833	10927
911.947	10797
912.062	10790
912.176	10869
912.291	10976
912.405	10858
912.519	11037
912.633	11132
912.748	10965
912.862	10927
912.976	10714
913.09	10618
913.204	10786
913.318	10812
913.431	10965
913.545	10904
913.659	10938
913.772	10809
913.886	10672
914	10637
914.113	10778
914.226	10771
914.34	10786
914.453	10584
914.566	10729
914.68	10542
914.793	10637
914.906	10451
915.019	10322
915.132	10337
915.245	10402
915.358	10405
915.47	10432
915.583	10363
915.696	10478
915.809	10485
915.921	10592
916.034	10424
916.146	10314
916.259	10413
916.371	10413
916.483	10417
916.595	10379
916.708	10382
916.82	10344
916.932	10375
917.044	10337
917.156	10363
917.268	10169
917.38	10215
917.491	10158
917.603	10287
917.715	10333
917.826	10341
917.938	10223
918.049	10154
918.161	10261
918.272	10356
918.384	10455
918.495	10276
918.606	10090
918.717	9972
918.828	10093
918.939	10128
919.05	10048
919.161	10048
919.272	9846
919.383	10067
919.494	10230
919.604	10257
919.715	10200
919.826	10029
919.936	10154
920.047	10230
920.157	10162
920.267	10428
920.378	10150
920.488	10227
920.598	10352
920.708	10436
920.818	10382
920.928	10352
921.038	10573
921.148	10440
921.258	10181
921.368	10067
921.477	10074
921.587	9972
921.697	9972
921.806	10051
921.916	9930
922.025	9770
922.134	9682
922.244	9660
922.353	9751
922.462	9644
922.571	9568
922.68	9450
922.789	9408
922.898	9332
923.007	9355
923.116	9416
923.224	9382
923.333	9466
923.442	9260
923.55	9256
923.659	9298
923.767	9401
923.876	9298
923.984	9378
924.092	9161
924.201	9241
924.309	9264
924.417	9253
924.525	9142
924.633	9241
924.741	10048
924.849	9028
924.956	9180
925.064	9039
925.172	8960
925.279	9043
925.387	9062
925.494	9093
925.602	9176
925.709	9154
925.816	8990
925.924	9036
926.031	9074
926.138	9062
926.245	9097
926.352	9024
926.459	9173
926.566	9131
926.673	8982
926.779	8914
926.886	8925
926.993	8815
927.099	8800
927.206	8754
927.312	8788
927.419	8811
927.525	8773
927.631	8819
927.737	8766
927.843	8689
927.95	8560
928.056	8769
928.162	8670
928.267	8727
928.373	9272
928.479	8804
928.585	8564
928.69	8667
928.796	8636
928.901	8556
929.007	8450
929.112	8636
929.218	8560
929.323	8564
929.428	8518
929.533	8678
929.638	8480
929.743	8541
929.848	8518
929.953	8492
930.058	8415
930.163	8294
930.267	8279
930.372	8442
930.477	8275
930.581	8503
930.685	8362
930.79	8267
930.894	8271
930.998	8256
931.103	8385
931.207	8115
931.311	8020
931.415	7951
931.519	7742
931.623	7772
