Data from test_V78500241_3431.txt Node
Date: Fri Mar 25 14:57:36 CST 2022
User: usil
Spectrometer: V785-0024
Trigger mode: 0
Integration Time (sec): 4.000000E-1
Scans to average: 1
Nonlinearity correction enabled: false
Boxcar width: 0
Storing dark spectrum: false
XAxis mode: Wavelengths
Number of Pixels in Spectrum: 1024
>>>>>Begin Spectral Data<<<<<
801.071	21861
801.214	21835
801.356	21553
801.499	21450
801.641	21401
801.783	21359
801.926	21355
802.068	21355
802.211	21245
802.353	21096
802.496	20921
802.638	20769
802.78	20853
802.923	20739
803.065	20590
803.208	20511
803.35	20579
803.492	20712
803.635	20769
803.777	20625
803.919	20750
804.061	20967
804.204	20724
804.346	20514
804.488	20434
804.63	20644
804.773	20454
804.915	20541
805.057	20712
805.199	20393
805.341	20613
805.483	20720
805.626	20743
805.768	20575
805.91	20530
806.052	20579
806.194	20488
806.336	20674
806.478	20488
806.62	20556
806.762	20655
806.904	20842
807.046	20971
807.188	20910
807.33	20796
807.472	20849
807.614	20689
807.756	20842
807.898	20613
808.04	20530
808.182	20587
808.324	20568
808.465	20667
808.607	20689
808.749	20891
808.891	20899
809.033	20910
809.174	20929
809.316	20845
809.458	20845
809.6	20720
809.741	20853
809.883	20952
810.025	21131
810.166	20994
810.308	20944
810.45	21009
810.591	20849
810.733	20693
810.875	20739
811.016	20541
811.158	20644
811.299	20705
811.441	20811
811.582	20758
811.724	20693
811.865	20686
812.007	20583
812.148	20651
812.29	20735
812.431	20842
812.573	20918
812.714	20967
812.855	21077
812.997	21321
813.138	21447
813.279	21249
813.421	21154
813.562	21055
813.703	20986
813.845	20773
813.986	20537
814.127	20415
814.268	20210
814.41	20317
814.551	20164
814.692	20240
814.833	20115
814.974	20172
815.115	20096
815.256	19993
815.397	20081
815.539	20088
815.68	19967
815.821	19875
815.962	19852
816.103	19982
816.244	19803
816.385	19693
816.526	19635
816.666	19563
816.807	19301
816.948	19308
817.089	19411
817.23	19441
817.371	19304
817.512	19346
817.653	19251
817.793	19194
817.934	19331
818.075	19369
818.216	19304
818.356	19278
818.497	19160
818.638	18939
818.778	19053
818.919	19042
819.06	19065
819.2	19187
819.341	19209
819.481	19228
819.622	19441
819.762	19499
819.903	19441
820.043	19388
820.184	19400
820.324	19392
820.465	19289
820.605	19316
820.746	19297
820.886	19110
821.026	19198
821.167	19312
821.307	19343
821.447	19232
821.588	19099
821.728	18966
821.868	18871
822.008	18677
822.149	18681
822.289	18555
822.429	18429
822.569	18433
822.709	18544
822.849	18171
822.99	18281
823.13	18178
823.27	18304
823.41	17961
823.55	18068
823.69	18019
823.83	17996
823.97	18011
824.11	17798
824.25	17824
824.389	17855
824.529	17927
824.669	17767
824.809	17874
824.949	17870
825.089	17859
825.228	17802
825.368	17707
825.508	17642
825.648	17661
825.787	17589
825.927	17684
826.067	17436
826.206	17440
826.346	17646
826.485	17657
826.625	17573
826.765	17718
826.904	17585
827.044	17482
827.183	17322
827.323	17311
827.462	17337
827.601	17265
827.741	17277
827.88	17307
828.02	17216
828.159	17216
828.298	17318
828.437	17303
828.577	17166
828.716	17349
828.855	17250
828.994	17113
829.134	17109
829.273	17037
829.412	16987
829.551	16999
829.69	17029
829.829	17041
829.968	17090
830.107	17090
830.246	17048
830.385	16965
830.524	16915
830.663	16839
830.802	16839
830.941	16797
831.08	16599
831.219	16660
831.357	16774
831.496	16908
831.635	16596
831.774	16634
831.913	16447
832.051	16493
832.19	16409
832.329	16554
832.467	16440
832.606	16291
832.744	16394
832.883	16318
833.022	16318
833.16	16424
833.299	16402
833.437	16291
833.576	16371
833.714	16394
833.852	16394
833.991	16485
834.129	16485
834.267	16516
834.406	16382
834.544	16409
834.682	16493
834.821	16417
834.959	16550
835.097	16363
835.235	16504
835.373	16523
835.511	16489
835.65	16360
835.788	16196
835.926	16276
836.064	16116
836.202	16257
836.34	16432
836.478	16424
836.615	16314
836.753	16348
836.891	16348
837.029	16333
837.167	16234
837.305	16234
837.443	16230
837.58	16120
837.718	16261
837.856	16166
837.993	16204
838.131	16238
838.269	16147
838.406	16116
838.544	16036
838.681	15972
838.819	15899
838.956	15778
839.094	15774
839.231	15781
839.369	15941
839.506	16249
839.643	15884
839.781	15759
839.918	15732
840.055	15755
840.193	15816
840.33	15728
840.467	15789
840.604	15827
840.742	15926
840.879	15614
841.016	15671
841.153	15652
841.29	15861
841.427	15778
841.564	15922
841.701	15774
841.838	15762
841.975	15713
842.112	15732
842.249	15629
842.385	15469
842.522	15816
842.659	15568
842.796	15496
842.933	15538
843.069	15511
843.206	15507
843.343	15686
843.479	15549
843.616	15701
843.752	15363
843.889	15317
844.025	15526
844.162	15359
844.298	15443
844.435	15287
844.571	15428
844.708	15401
844.844	15511
844.98	15534
845.117	15450
845.253	15252
845.389	15195
845.525	15195
845.661	15214
845.798	15131
845.934	15127
846.07	15146
846.206	15093
846.342	15275
846.478	15085
846.614	14910
846.75	14838
846.886	14914
847.022	14933
847.158	14842
847.294	14937
847.429	14963
847.565	14880
847.701	15047
847.837	14636
847.972	14568
848.108	14750
848.244	14769
848.379	14545
848.515	14571
848.65	14423
848.786	14446
848.921	14526
849.057	14629
849.192	14617
849.328	14560
849.463	14545
849.598	14507
849.734	14465
849.869	14431
850.004	14248
850.14	14267
850.275	14290
850.41	14313
850.545	14176
850.68	14286
850.815	14294
850.95	14187
851.085	14541
851.22	14434
851.355	14259
851.49	14271
851.625	14164
851.76	14328
851.895	14199
852.03	14161
852.165	14259
852.299	14278
852.434	14267
852.569	14336
852.703	14210
852.838	14336
852.973	14469
853.107	14434
853.242	14263
853.376	14199
853.511	14058
853.645	14164
853.78	14180
853.914	14168
854.048	14202
854.183	13993
854.317	14206
854.451	14237
854.585	14145
854.72	14183
854.854	14278
854.988	14027
855.122	14107
855.256	14069
855.39	14050
855.524	14206
855.658	14259
855.792	14183
855.926	14164
856.06	14168
856.194	14271
856.327	14126
856.461	14039
856.595	14031
856.729	14081
856.862	14328
856.996	14221
857.13	14195
857.263	14301
857.397	14206
857.53	14149
857.664	14305
857.797	14313
857.931	14267
858.064	14199
858.197	14237
858.331	14164
858.464	14138
858.597	13986
858.731	14157
858.864	14088
858.997	14119
859.13	14134
859.263	14161
859.396	14199
859.529	14069
859.662	14164
859.795	14183
859.928	14176
860.061	14214
860.194	14301
860.327	14218
860.46	14092
860.592	14320
860.725	14275
860.858	14240
860.99	14145
861.123	14119
861.256	14103
861.388	14157
861.521	14819
861.653	14065
861.786	13974
861.918	13963
862.05	14073
862.183	14176
862.315	14195
862.447	14183
862.58	14096
862.712	13837
862.844	13887
862.976	13982
863.108	13936
863.24	14336
863.372	13909
863.504	13860
863.636	13883
863.768	13906
863.9	13967
864.032	13841
864.164	13898
864.296	13932
864.428	13986
864.559	14107
864.691	14016
864.823	14107
864.954	13928
865.086	14001
865.217	13860
865.349	13803
865.48	13906
865.612	13860
865.743	14058
865.875	13944
866.006	13925
866.137	13906
866.269	13944
866.4	13883
866.531	13864
866.662	13803
866.793	13864
866.924	13921
867.055	13906
867.186	13879
867.317	13860
867.448	13795
867.579	13822
867.71	13925
867.841	13807
867.972	13879
868.103	13955
868.233	13913
868.364	13928
868.495	13925
868.625	14202
868.756	14248
868.886	14149
869.017	14187
869.147	14214
869.278	14263
869.408	14180
869.539	14142
869.669	14206
869.799	14119
869.929	14221
870.06	14263
870.19	14533
870.32	14514
870.45	14492
870.58	14636
870.71	14670
870.84	14636
870.97	14629
871.1	14499
871.23	14811
871.36	14758
871.489	14617
871.619	14621
871.749	14701
871.879	14815
872.008	14857
872.138	14708
872.267	14811
872.397	14705
872.526	14602
872.656	14598
872.785	14610
872.915	14788
873.044	14853
873.173	14815
873.303	14823
873.432	14769
873.561	14731
873.69	14902
873.819	14807
873.948	14868
874.077	14830
874.206	14830
874.335	14853
874.464	14952
874.593	15127
874.722	15112
874.851	15169
874.979	15146
875.108	15249
875.237	15131
875.365	15055
875.494	15157
875.623	15241
875.751	15055
875.88	15226
876.008	15321
876.136	15275
876.265	15595
876.393	15671
876.521	15622
876.65	15641
876.778	15648
876.906	15526
877.034	15466
877.162	15462
877.29	15485
877.418	15580
877.546	15568
877.674	15519
877.802	15530
877.93	15523
878.058	15545
878.185	15405
878.313	15492
878.441	15610
878.568	15367
878.696	15389
878.824	15462
878.951	15618
879.079	15690
879.206	15800
879.333	15724
879.461	15496
879.588	15701
879.715	15724
879.842	15850
879.97	15724
880.097	15378
880.224	15351
880.351	15393
880.478	15447
880.605	15412
880.732	15359
880.859	15618
880.986	15447
881.112	15439
881.239	15336
881.366	15230
881.493	15123
881.619	14994
881.746	15085
881.872	15051
881.999	15009
882.125	15058
882.252	15108
882.378	15093
882.505	15161
882.631	15066
882.757	14807
882.883	14975
883.01	14857
883.136	14750
883.262	14868
883.388	14617
883.514	14868
883.64	14921
883.766	14834
883.892	14632
884.018	14625
884.143	14868
884.269	14990
884.395	14705
884.52	14560
884.646	14579
884.772	14454
884.897	14522
885.023	14545
885.148	14735
885.274	14686
885.399	14785
885.524	14552
885.65	14590
885.775	14537
885.9	14606
886.025	14655
886.15	14686
886.275	14514
886.4	14454
886.525	14511
886.65	14450
886.775	14526
886.9	14716
887.025	14819
887.149	14560
887.274	14495
887.399	14400
887.523	14446
887.648	14419
887.773	14317
887.897	14423
888.021	14347
888.146	14240
888.27	14461
888.395	14632
888.519	14381
888.643	14499
888.767	14530
888.891	14309
889.015	14396
889.139	14263
889.263	14252
889.387	14320
889.511	14476
889.635	14469
889.759	14286
889.883	14294
890.006	14317
890.13	14336
890.254	14244
890.377	14225
890.501	14111
890.624	14107
890.748	14123
890.871	13986
890.995	14043
891.118	13860
891.241	13951
891.364	14016
891.488	14084
891.611	14012
891.734	13902
891.857	14046
891.98	13997
892.103	14092
892.226	14005
892.349	13898
892.471	13795
892.594	14012
892.717	14012
892.839	13913
892.962	13982
893.085	14077
893.207	13894
893.33	13887
893.452	13913
893.575	14058
893.697	13868
893.819	14229
893.941	14233
894.064	14149
894.186	13921
894.308	14001
894.43	14069
894.552	14225
894.674	14111
894.796	14020
894.918	14088
895.04	14065
895.161	14092
895.283	14119
895.405	13997
895.526	14103
895.648	14065
895.769	14062
895.891	14092
896.012	14115
896.134	14195
896.255	14183
896.376	14210
896.498	14259
896.619	14233
896.74	14168
896.861	14256
896.982	14537
897.103	14632
897.224	14465
897.345	14396
897.466	14343
897.587	14469
897.708	14518
897.828	14442
897.949	14457
898.07	14233
898.19	14415
898.311	14530
898.431	14450
898.552	14526
898.672	14583
898.792	14590
898.913	14552
899.033	14434
899.153	14377
899.273	14278
899.393	14313
899.513	14431
899.633	14522
899.753	14423
899.873	14324
899.993	14358
900.113	14370
900.232	14366
900.352	14351
900.472	14267
900.591	14256
900.711	14221
900.83	14084
900.95	14339
901.069	14465
901.189	14145
901.308	13936
901.427	13841
901.546	13879
901.665	13906
901.784	13887
901.904	13780
902.023	13715
902.141	13586
902.26	13521
902.379	13483
902.498	13460
902.617	13449
902.735	13521
902.854	13449
902.973	13441
903.091	13171
903.21	13194
903.328	13156
903.446	13168
903.565	13072
903.683	13107
903.801	12996
903.919	13072
904.038	13004
904.156	12844
904.274	12943
904.392	12882
904.51	12787
904.627	12924
904.745	12852
904.863	12985
904.981	12700
905.098	12616
905.216	12578
905.334	12616
905.451	12532
905.569	12597
905.686	12585
905.803	12574
905.921	12369
906.038	12391
906.155	12399
906.272	12251
906.389	12262
906.506	12178
906.623	12102
906.74	12133
906.857	12083
906.974	12030
907.091	12213
907.208	12273
907.324	12133
907.441	12167
907.557	11942
907.674	11866
907.79	11824
907.907	11889
908.023	11885
908.139	11775
908.256	11847
908.372	11710
908.488	11786
908.604	11672
908.72	11592
908.836	11657
908.952	11562
909.068	11653
909.184	11767
909.3	11668
909.415	11741
909.531	11676
909.647	11425
909.762	11452
909.878	11379
909.993	11425
910.108	11395
910.224	11421
910.339	11444
910.454	11311
910.57	11269
910.685	11250
910.8	11474
910.915	11376
911.03	11315
911.145	11197
911.259	11174
911.374	11140
911.489	11102
911.604	11033
911.718	10949
911.833	10942
911.947	10812
912.062	10702
912.176	10896
912.291	10953
912.405	10885
912.519	11086
912.633	11098
912.748	10999
912.862	10953
912.976	10835
913.09	10691
913.204	10721
913.318	10778
913.431	10896
913.545	10820
913.659	10892
913.772	10752
913.886	10721
914	10607
914.113	10748
914.226	10809
914.34	10729
914.453	10516
914.566	10717
914.68	10630
914.793	10641
914.906	10436
915.019	10417
915.132	10234
915.245	10390
915.358	10481
915.47	10424
915.583	10489
915.696	10432
915.809	10428
915.921	10592
916.034	10360
916.146	10341
916.259	10306
916.371	10421
916.483	10421
916.595	10352
916.708	10409
916.82	10333
916.932	10394
917.044	10371
917.156	10284
917.268	10185
917.38	10238
917.491	10177
917.603	10135
917.715	10280
917.826	10348
917.938	10200
918.049	10135
918.161	10257
918.272	10284
918.384	10417
918.495	10261
918.606	10162
918.717	10013
918.828	10135
918.939	10158
919.05	10067
919.161	10071
919.272	9972
919.383	9937
919.494	10166
919.604	10421
919.715	10124
919.826	10040
919.936	10131
920.047	10196
920.157	10112
920.267	10333
920.378	10196
920.488	10116
920.598	10318
920.708	10455
920.818	10303
920.928	10360
921.038	10485
921.148	10436
921.258	10215
921.368	10090
921.477	9979
921.587	9979
921.697	9785
921.806	9941
921.916	9888
922.025	9663
922.134	9747
922.244	9603
922.353	9740
922.462	9660
922.571	9534
922.68	9374
922.789	9370
922.898	9412
923.007	9325
923.116	9439
923.224	9370
923.333	9317
923.442	9321
923.55	9317
923.659	9370
923.767	9397
923.876	9192
923.984	9317
924.092	9253
924.201	9218
924.309	9298
924.417	9245
924.525	9203
924.633	9256
924.741	10093
924.849	9135
924.956	9157
925.064	9032
925.172	9013
925.279	8967
925.387	9074
925.494	9039
925.602	9154
925.709	9074
925.816	8960
925.924	9108
926.031	9097
926.138	9062
926.245	9032
926.352	8941
926.459	9157
926.566	9142
926.673	8990
926.779	8899
926.886	8975
926.993	8758
927.099	8823
927.206	8693
927.312	8655
927.419	8781
927.525	8720
927.631	8724
927.737	8678
927.843	8629
927.95	8530
928.056	8590
928.162	8606
928.267	8724
928.373	9363
928.479	8769
928.585	8488
928.69	8655
928.796	8655
928.901	8533
929.007	8389
929.112	8587
929.218	8621
929.323	8545
929.428	8442
929.533	8693
929.638	8480
929.743	8374
929.848	8598
929.953	8507
930.058	8465
930.163	8237
930.267	8210
930.372	8419
930.477	8225
930.581	8473
930.685	8377
930.79	8126
930.894	8248
930.998	8187
931.103	8275
931.207	8016
931.311	7989
931.415	7925
931.519	7738
931.623	7738
