Data from test_V78500241_2726.txt Node
Date: Fri Mar 25 14:52:41 CST 2022
User: usil
Spectrometer: V785-0024
Trigger mode: 0
Integration Time (sec): 4.000000E-1
Scans to average: 1
Nonlinearity correction enabled: false
Boxcar width: 0
Storing dark spectrum: false
XAxis mode: Wavelengths
Number of Pixels in Spectrum: 1024
>>>>>Begin Spectral Data<<<<<
801.071	22154
801.214	22090
801.356	21644
801.499	21648
801.641	21435
801.783	21336
801.926	21408
802.068	21237
802.211	21184
802.353	21138
802.496	21032
802.638	20933
802.78	20876
802.923	20724
803.065	20693
803.208	20788
803.35	20689
803.492	20849
803.635	20883
803.777	20739
803.919	20815
804.061	21108
804.204	20807
804.346	20807
804.488	20613
804.63	20807
804.773	20575
804.915	20632
805.057	20632
805.199	20636
805.341	20750
805.483	20750
805.626	20697
805.768	20545
805.91	20689
806.052	20499
806.194	20621
806.336	20792
806.478	20526
806.62	20537
806.762	20678
806.904	20758
807.046	20948
807.188	20994
807.33	20929
807.472	21066
807.614	20868
807.756	20876
807.898	20659
808.04	20613
808.182	20731
808.324	20705
808.465	20655
808.607	20998
808.749	20979
808.891	21089
809.033	21226
809.174	21081
809.316	21005
809.458	21077
809.6	20956
809.741	20975
809.883	21055
810.025	21055
810.166	21161
810.308	21135
810.45	21119
810.591	21005
810.733	20792
810.875	20857
811.016	20746
811.158	20613
811.299	20838
811.441	20918
811.582	20845
811.724	20708
811.865	20697
812.007	20708
812.148	20769
812.29	20804
812.431	20826
812.573	20956
812.714	21245
812.855	21241
812.997	21283
813.138	21519
813.279	21454
813.421	21260
813.562	21123
813.703	21081
813.845	20944
813.986	20556
814.127	20415
814.268	20290
814.41	20396
814.551	20267
814.692	20332
814.833	20240
814.974	20233
815.115	20294
815.256	20092
815.397	20138
815.539	20149
815.68	20046
815.821	20046
815.962	20115
816.103	19993
816.244	19963
816.385	19746
816.526	19677
816.666	19620
816.807	19449
816.948	19521
817.089	19483
817.23	19476
817.371	19430
817.512	19369
817.653	19445
817.793	19377
817.934	19400
818.075	19335
818.216	19396
818.356	19388
818.497	19156
818.638	19110
818.778	19133
818.919	19148
819.06	19152
819.2	19266
819.341	19358
819.481	19259
819.622	19441
819.762	19605
819.903	19639
820.043	19499
820.184	19457
820.324	19396
820.465	19487
820.605	19460
820.746	19316
820.886	19187
821.026	19388
821.167	19259
821.307	19308
821.447	19392
821.588	19209
821.728	19031
821.868	18924
822.008	18848
822.149	18897
822.289	18829
822.429	18544
822.569	18445
822.709	18627
822.849	18338
822.99	18350
823.13	18311
823.27	18197
823.41	18125
823.55	18091
823.69	18041
823.83	18136
823.97	18038
824.11	17931
824.25	17798
824.389	17847
824.529	17977
824.669	17946
824.809	17961
824.949	17973
825.089	18019
825.228	17870
825.368	17783
825.508	17630
825.648	17699
825.787	17741
825.927	17741
826.067	17615
826.206	17543
826.346	17722
826.485	17611
826.625	17718
826.765	17729
826.904	17604
827.044	17478
827.183	17482
827.323	17383
827.462	17455
827.601	17379
827.741	17429
827.88	17421
828.02	17318
828.159	17307
828.298	17444
828.437	17429
828.577	17337
828.716	17429
828.855	17277
828.994	17280
829.134	17136
829.273	17227
829.412	16957
829.551	17136
829.69	17029
829.829	17143
829.968	17299
830.107	17128
830.246	17143
830.385	17079
830.524	17033
830.663	16858
830.802	16759
830.941	16774
831.08	16740
831.219	16744
831.357	16793
831.496	17010
831.635	16725
831.774	16706
831.913	16603
832.051	16489
832.19	16554
832.329	16542
832.467	16443
832.606	16424
832.744	16466
832.883	16478
833.022	16405
833.16	16485
833.299	16466
833.437	16561
833.576	16424
833.714	16493
833.852	16538
833.991	16580
834.129	16417
834.267	16462
834.406	16356
834.544	16519
834.682	16481
834.821	16432
834.959	16778
835.097	16489
835.235	16599
835.373	16596
835.511	16531
835.65	16447
835.788	16375
835.926	16276
836.064	16207
836.202	16219
836.34	16417
836.478	16561
836.615	16538
836.753	16413
836.891	16443
837.029	16417
837.167	16310
837.305	16386
837.443	16234
837.58	16276
837.718	16386
837.856	16337
837.993	16299
838.131	16299
838.269	16162
838.406	16329
838.544	16169
838.681	15991
838.819	16006
838.956	15915
839.094	15827
839.231	15915
839.369	15975
839.506	16291
839.643	16105
839.781	15865
839.918	15876
840.055	15823
840.193	15739
840.33	15797
840.467	15838
840.604	15869
840.742	16120
840.879	15690
841.016	15778
841.153	15751
841.29	15922
841.427	15857
841.564	15846
841.701	15911
841.838	15800
841.975	15720
842.112	15739
842.249	15713
842.385	15603
842.522	15861
842.659	15603
842.796	15663
842.933	15618
843.069	15568
843.206	15507
843.343	15663
843.479	15580
843.616	15698
843.752	15545
843.889	15469
844.025	15584
844.162	15370
844.298	15511
844.435	15443
844.571	15355
844.708	15458
844.844	15561
844.98	15606
845.117	15500
845.253	15477
845.389	15294
845.525	15302
845.661	15374
845.798	15192
845.934	15203
846.07	15135
846.206	15272
846.342	15279
846.478	15211
846.614	15017
846.75	14872
846.886	14899
847.022	15108
847.158	15009
847.294	14910
847.429	15055
847.565	14933
847.701	15252
847.837	14727
847.972	14678
848.108	14902
848.244	14819
848.379	14636
848.515	14686
848.65	14648
848.786	14594
848.921	14621
849.057	14750
849.192	14716
849.328	14667
849.463	14617
849.598	14503
849.734	14492
849.869	14476
850.004	14320
850.14	14381
850.275	14370
850.41	14290
850.545	14328
850.68	14374
850.815	14473
850.95	14374
851.085	14476
851.22	14412
851.355	14336
851.49	14317
851.625	14301
851.76	14324
851.895	14206
852.03	14221
852.165	14320
852.299	14347
852.434	14381
852.569	14305
852.703	14393
852.838	14381
852.973	14476
853.107	14530
853.242	14393
853.376	14210
853.511	14103
853.645	14081
853.78	14339
853.914	14206
854.048	14183
854.183	14210
854.317	14191
854.451	14313
854.585	14172
854.72	14130
854.854	14248
854.988	14145
855.122	14210
855.256	14039
855.39	14130
855.524	14309
855.658	14237
855.792	14332
855.926	14305
856.06	14252
856.194	14362
856.327	14202
856.461	14206
856.595	14199
856.729	14229
856.862	14290
856.996	14256
857.13	14381
857.263	14290
857.397	14404
857.53	14210
857.664	14286
857.797	14294
857.931	14324
858.064	14275
858.197	14301
858.331	14214
858.464	14180
858.597	14172
858.731	14153
858.864	14199
858.997	14134
859.13	14271
859.263	14298
859.396	14252
859.529	14195
859.662	14187
859.795	14149
859.928	14237
860.061	14415
860.194	14473
860.327	14252
860.46	14164
860.592	14328
860.725	14290
860.858	14393
860.99	14233
861.123	14081
861.256	14195
861.388	14202
861.521	14960
861.653	14153
861.786	13963
861.918	14050
862.05	14081
862.183	14088
862.315	14199
862.447	14202
862.58	14123
862.712	14027
862.844	13940
862.976	13997
863.108	14043
863.24	14389
863.372	13830
863.504	14001
863.636	14027
863.768	14012
863.9	14065
864.032	13871
864.164	13898
864.296	14020
864.428	14126
864.559	14092
864.691	14115
864.823	14024
864.954	14062
865.086	14088
865.217	13944
865.349	13940
865.48	13940
865.612	13955
865.743	14115
865.875	13974
866.006	14069
866.137	14005
866.269	14024
866.4	13936
866.531	13993
866.662	13898
866.793	13845
866.924	13986
867.055	13871
867.186	13875
867.317	13928
867.448	13856
867.579	13883
867.71	13978
867.841	13818
867.972	13967
868.103	13967
868.233	14035
868.364	13986
868.495	14031
868.625	14221
868.756	14259
868.886	14199
869.017	14320
869.147	14355
869.278	14385
869.408	14305
869.539	14286
869.669	14362
869.799	14248
869.929	14465
870.06	14240
870.19	14503
870.32	14476
870.45	14495
870.58	14583
870.71	14678
870.84	14701
870.97	14613
871.1	14705
871.23	14750
871.36	14815
871.489	14838
871.619	14807
871.749	14746
871.879	14914
872.008	14956
872.138	14796
872.267	14777
872.397	14743
872.526	14610
872.656	14648
872.785	14773
872.915	14834
873.044	14937
873.173	14963
873.303	14941
873.432	14891
873.561	14853
873.69	14864
873.819	14853
873.948	14960
874.077	14883
874.206	14758
874.335	14853
874.464	14979
874.593	15233
874.722	15180
874.851	15127
874.979	15127
875.108	15291
875.237	15157
875.365	15070
875.494	15150
875.623	15264
875.751	15100
875.88	15218
876.008	15348
876.136	15416
876.265	15549
876.393	15789
876.521	15732
876.65	15660
876.778	15610
876.906	15561
877.034	15584
877.162	15568
877.29	15530
877.418	15663
877.546	15720
877.674	15622
877.802	15625
877.93	15641
878.058	15488
878.185	15507
878.313	15603
878.441	15576
878.568	15439
878.696	15614
878.824	15660
878.951	15766
879.079	15770
879.206	15892
879.333	15778
879.461	15648
879.588	15759
879.715	15724
879.842	15899
879.97	15595
880.097	15386
880.224	15469
880.351	15500
880.478	15466
880.605	15477
880.732	15523
880.859	15717
880.986	15473
881.112	15504
881.239	15321
881.366	15245
881.493	15203
881.619	15127
881.746	15146
881.872	15127
881.999	15100
882.125	15047
882.252	15184
882.378	15192
882.505	15302
882.631	15093
882.757	14933
882.883	14994
883.01	14914
883.136	14925
883.262	14815
883.388	14773
883.514	14925
883.64	14937
883.766	14861
883.892	14724
884.018	14868
884.143	14906
884.269	15108
884.395	14773
884.52	14625
884.646	14678
884.772	14560
884.897	14541
885.023	14663
885.148	14785
885.274	14842
885.399	14651
885.524	14762
885.65	14610
885.775	14743
885.9	14613
886.025	14754
886.15	14663
886.275	14590
886.4	14503
886.525	14648
886.65	14537
886.775	14629
886.9	14754
887.025	14785
887.149	14697
887.274	14446
887.399	14290
887.523	14507
887.648	14442
887.773	14298
887.897	14522
888.021	14522
888.146	14537
888.27	14560
888.395	14522
888.519	14549
888.643	14511
888.767	14537
888.891	14358
889.015	14313
889.139	14355
889.263	14393
889.387	14484
889.511	14533
889.635	14492
889.759	14199
889.883	14282
890.006	14431
890.13	14480
890.254	14233
890.377	14301
890.501	14088
890.624	14142
890.748	14233
890.871	14115
890.995	14126
891.118	13887
891.241	14084
891.364	14096
891.488	14153
891.611	14043
891.734	14096
891.857	14050
891.98	14111
892.103	14168
892.226	14050
892.349	13974
892.471	13811
892.594	14065
892.717	14020
892.839	14020
892.962	14092
893.085	14096
893.207	14088
893.33	13845
893.452	13894
893.575	14130
893.697	13963
893.819	14149
893.941	14237
894.064	14256
894.186	13978
894.308	14012
894.43	14202
894.552	14202
894.674	14145
894.796	13959
894.918	14180
895.04	14005
895.161	14233
895.283	14092
895.405	14005
895.526	14043
895.648	14050
895.769	14157
895.891	14199
896.012	14142
896.134	14233
896.255	14210
896.376	14100
896.498	14286
896.619	14275
896.74	14191
896.861	14263
896.982	14602
897.103	14712
897.224	14488
897.345	14488
897.466	14374
897.587	14594
897.708	14579
897.828	14571
897.949	14465
898.07	14313
898.19	14423
898.311	14613
898.431	14442
898.552	14507
898.672	14754
898.792	14602
898.913	14655
899.033	14541
899.153	14419
899.273	14275
899.393	14309
899.513	14358
899.633	14434
899.753	14381
899.873	14366
899.993	14396
900.113	14374
900.232	14320
900.352	14419
900.472	14298
900.591	14259
900.711	14320
900.83	14294
900.95	14366
901.069	14351
901.189	14278
901.308	14043
901.427	13852
901.546	13894
901.665	13833
901.784	13993
901.904	13814
902.023	13738
902.141	13575
902.26	13491
902.379	13647
902.498	13537
902.617	13434
902.735	13628
902.854	13411
902.973	13472
903.091	13221
903.21	13217
903.328	13217
903.446	13160
903.565	13069
903.683	13152
903.801	13004
903.919	13038
904.038	13076
904.156	12901
904.274	12985
904.392	12875
904.51	12852
904.627	12863
904.745	12958
904.863	13004
904.981	12703
905.098	12612
905.216	12627
905.334	12604
905.451	12654
905.569	12574
905.686	12604
905.803	12589
905.921	12391
906.038	12521
906.155	12433
906.272	12323
906.389	12376
906.506	12197
906.623	12277
906.74	12201
906.857	12102
906.974	12144
907.091	12224
907.208	12365
907.324	12167
907.441	12114
907.557	12026
907.674	11977
907.79	11935
907.907	11893
908.023	11988
908.139	12007
908.256	11843
908.372	11874
908.488	11832
908.604	11745
908.72	11714
908.836	11718
908.952	11688
909.068	11729
909.184	11836
909.3	11684
909.415	11710
909.531	11688
909.647	11467
909.762	11512
909.878	11440
909.993	11372
910.108	11520
910.224	11421
910.339	11467
910.454	11478
910.57	11326
910.685	11326
910.8	11543
910.915	11410
911.03	11280
911.145	11162
911.259	11121
911.374	11197
911.489	11143
911.604	11079
911.718	11006
911.833	10915
911.947	10858
912.062	10805
912.176	10866
912.291	10946
912.405	10892
912.519	11037
912.633	11113
912.748	10911
912.862	10961
912.976	10831
913.09	10569
913.204	10771
913.318	10824
913.431	10877
913.545	10847
913.659	10927
913.772	10843
913.886	10634
914	10759
914.113	10820
914.226	10843
914.34	10782
914.453	10561
914.566	10812
914.68	10615
914.793	10508
914.906	10500
915.019	10474
915.132	10417
915.245	10363
915.358	10459
915.47	10443
915.583	10497
915.696	10584
915.809	10558
915.921	10626
916.034	10356
916.146	10390
916.259	10287
916.371	10504
916.483	10413
916.595	10371
916.708	10386
916.82	10371
916.932	10386
917.044	10337
917.156	10333
917.268	10234
917.38	10268
917.491	10295
917.603	10249
917.715	10375
917.826	10367
917.938	10215
918.049	10211
918.161	10325
918.272	10424
918.384	10459
918.495	10341
918.606	10154
918.717	10063
918.828	10143
918.939	10192
919.05	10029
919.161	10078
919.272	9949
919.383	9956
919.494	10207
919.604	10318
919.715	10097
919.826	10090
919.936	10166
920.047	10230
920.157	10158
920.267	10440
920.378	10124
920.488	10200
920.598	10325
920.708	10470
920.818	10413
920.928	10341
921.038	10561
921.148	10546
921.258	10173
921.368	10055
921.477	10086
921.587	10067
921.697	9918
921.806	10082
921.916	9873
922.025	9743
922.134	9740
922.244	9694
922.353	9770
922.462	9622
922.571	9519
922.68	9454
922.789	9462
922.898	9469
923.007	9355
923.116	9428
923.224	9416
923.333	9447
923.442	9249
923.55	9340
923.659	9283
923.767	9431
923.876	9211
923.984	9370
924.092	9253
924.201	9325
924.309	9302
924.417	9321
924.525	9256
924.633	9283
924.741	10006
924.849	9039
924.956	9222
925.064	9024
925.172	8975
925.279	9051
925.387	9097
925.494	9074
925.602	9249
925.709	9146
925.816	9017
925.924	9070
926.031	9142
926.138	9005
926.245	9066
926.352	9032
926.459	9176
926.566	9116
926.673	9062
926.779	8883
926.886	8929
926.993	8785
927.099	8804
927.206	8743
927.312	8644
927.419	8807
927.525	8804
927.631	8914
927.737	8781
927.843	8735
927.95	8606
928.056	8659
928.162	8674
928.267	8731
928.373	9348
928.479	8819
928.585	8629
928.69	8693
928.796	8807
928.901	8549
929.007	8495
929.112	8670
929.218	8613
929.323	8511
929.428	8518
929.533	8686
929.638	8434
929.743	8503
929.848	8632
929.953	8476
930.058	8438
930.163	8282
930.267	8229
930.372	8400
930.477	8309
930.581	8530
930.685	8324
930.79	8225
930.894	8210
930.998	8214
931.103	8358
931.207	8054
931.311	7978
931.415	7841
931.519	7742
931.623	7719
