Data from test_V78500241_1580.txt Node
Date: Fri Mar 25 14:44:42 CST 2022
User: usil
Spectrometer: V785-0024
Trigger mode: 0
Integration Time (sec): 4.000000E-1
Scans to average: 1
Nonlinearity correction enabled: false
Boxcar width: 0
Storing dark spectrum: false
XAxis mode: Wavelengths
Number of Pixels in Spectrum: 1024
>>>>>Begin Spectral Data<<<<<
801.071	22348
801.214	22363
801.356	22086
801.499	21941
801.641	21842
801.783	21603
801.926	21751
802.068	21747
802.211	21599
802.353	21511
802.496	21294
802.638	21237
802.78	21211
802.923	21165
803.065	21024
803.208	21077
803.35	21119
803.492	21195
803.635	21188
803.777	21222
803.919	21214
804.061	21431
804.204	21066
804.346	20998
804.488	20967
804.63	21081
804.773	20887
804.915	21055
805.057	21176
805.199	21085
805.341	21211
805.483	21195
805.626	21100
805.768	21036
805.91	21077
806.052	21009
806.194	20994
806.336	21146
806.478	21051
806.62	21066
806.762	21108
806.904	21298
807.046	21382
807.188	21302
807.33	21393
807.472	21469
807.614	21237
807.756	21298
807.898	21260
808.04	21214
808.182	21135
808.324	21146
808.465	21264
808.607	21511
808.749	21462
808.891	21553
809.033	21622
809.174	21610
809.316	21580
809.458	21488
809.6	21443
809.741	21454
809.883	21618
810.025	21580
810.166	21644
810.308	21618
810.45	21587
810.591	21469
810.733	21329
810.875	21230
811.016	21089
811.158	21108
811.299	21176
811.441	21370
811.582	21298
811.724	21192
811.865	21154
812.007	21222
812.148	21146
812.29	21256
812.431	21329
812.573	21545
812.714	21583
812.855	21785
812.997	21823
813.138	21907
813.279	21873
813.421	21800
813.562	21743
813.703	21424
813.845	21325
813.986	21062
814.127	20963
814.268	20716
814.41	20773
814.551	20819
814.692	20819
814.833	20819
814.974	20689
815.115	20716
815.256	20648
815.397	20560
815.539	20571
815.68	20503
815.821	20454
815.962	20503
816.103	20503
816.244	20343
816.385	20210
816.526	20248
816.666	20035
816.807	19913
816.948	19974
817.089	20073
817.23	20043
817.371	19845
817.512	19932
817.653	19833
817.793	19811
817.934	19803
818.075	19887
818.216	19845
818.356	19807
818.497	19655
818.638	19582
818.778	19582
818.919	19571
819.06	19582
819.2	19677
819.341	19769
819.481	19776
819.622	19974
819.762	20138
819.903	20145
820.043	19852
820.184	19856
820.324	19841
820.465	19967
820.605	19936
820.746	19894
820.886	19742
821.026	19761
821.167	19807
821.307	19852
821.447	19795
821.588	19719
821.728	19559
821.868	19464
822.008	19240
822.149	19304
822.289	19263
822.429	19118
822.569	19053
822.709	18939
822.849	18779
822.99	18719
823.13	18817
823.27	18635
823.41	18642
823.55	18498
823.69	18578
823.83	18604
823.97	18509
824.11	18502
824.25	18300
824.389	18365
824.529	18422
824.669	18395
824.809	18536
824.949	18471
825.089	18460
825.228	18361
825.368	18205
825.508	18205
825.648	18178
825.787	18167
825.927	18194
826.067	18155
826.206	18121
826.346	18102
826.485	18117
826.625	18152
826.765	18254
826.904	18178
827.044	17923
827.183	17828
827.323	17748
827.462	17843
827.601	17760
827.741	17813
827.88	17824
828.02	17687
828.159	17836
828.298	17851
828.437	17923
828.577	17657
828.716	17904
828.855	17684
828.994	17581
829.134	17634
829.273	17528
829.412	17589
829.551	17486
829.69	17505
829.829	17600
829.968	17691
830.107	17653
830.246	17653
830.385	17486
830.524	17444
830.663	17406
830.802	17395
830.941	17102
831.08	17159
831.219	17318
831.357	17197
831.496	17341
831.635	17197
831.774	17128
831.913	17083
832.051	16976
832.19	16965
832.329	16987
832.467	16877
832.606	16771
832.744	16953
832.883	16885
833.022	16839
833.16	16885
833.299	16965
833.437	16968
833.576	16991
833.714	16843
833.852	16873
833.991	16953
834.129	16980
834.267	16946
834.406	16896
834.544	17037
834.682	16885
834.821	16850
834.959	17064
835.097	16915
835.235	16961
835.373	16938
835.511	16896
835.65	16828
835.788	16889
835.926	16721
836.064	16565
836.202	16736
836.34	16854
836.478	16900
836.615	16816
836.753	16797
836.891	16908
837.029	16869
837.167	16774
837.305	16721
837.443	16797
837.58	16649
837.718	16786
837.856	16687
837.993	16485
838.131	16599
838.269	16592
838.406	16687
838.544	16527
838.681	16424
838.819	16356
838.956	16185
839.094	16276
839.231	16234
839.369	16318
839.506	16702
839.643	16455
839.781	16314
839.918	16139
840.055	16284
840.193	16200
840.33	16147
840.467	16219
840.604	16226
840.742	16291
840.879	16067
841.016	16090
841.153	16063
841.29	16268
841.427	16211
841.564	16253
841.701	16230
841.838	16158
841.975	16112
842.112	16128
842.249	15979
842.385	15972
842.522	16071
842.659	16048
842.796	15907
842.933	15888
843.069	15937
843.206	15903
843.343	15991
843.479	15956
843.616	15998
843.752	15739
843.889	15717
844.025	15857
844.162	15819
844.298	15842
844.435	15728
844.571	15690
844.708	15804
844.844	15926
844.98	15903
845.117	15964
845.253	15728
845.389	15671
845.525	15755
845.661	15671
845.798	15682
845.934	15709
846.07	15603
846.206	15603
846.342	15816
846.478	15610
846.614	15405
846.75	15393
846.886	15340
847.022	15363
847.158	15306
847.294	15348
847.429	15317
847.565	15272
847.701	15603
847.837	15005
847.972	15001
848.108	15157
848.244	15169
848.379	14941
848.515	14998
848.65	14899
848.786	14914
848.921	14895
849.057	14933
849.192	14967
849.328	14941
849.463	14967
849.598	14838
849.734	14823
849.869	14849
850.004	14758
850.14	14693
850.275	14587
850.41	14613
850.545	14720
850.68	14571
850.815	14712
850.95	14720
851.085	14937
851.22	14800
851.355	14746
851.49	14556
851.625	14598
851.76	14545
851.895	14526
852.03	14590
852.165	14724
852.299	14667
852.434	14686
852.569	14705
852.703	14648
852.838	14712
852.973	14773
853.107	14861
853.242	14621
853.376	14606
853.511	14499
853.645	14598
853.78	14590
853.914	14560
854.048	14461
854.183	14488
854.317	14590
854.451	14693
854.585	14507
854.72	14480
854.854	14640
854.988	14568
855.122	14514
855.256	14404
855.39	14518
855.524	14663
855.658	14575
855.792	14613
855.926	14545
856.06	14571
856.194	14625
856.327	14575
856.461	14465
856.595	14514
856.729	14541
856.862	14571
856.996	14610
857.13	14545
857.263	14556
857.397	14720
857.53	14469
857.664	14625
857.797	14552
857.931	14678
858.064	14560
858.197	14800
858.331	14454
858.464	14492
858.597	14434
858.731	14556
858.864	14507
858.997	14484
859.13	14560
859.263	14533
859.396	14663
859.529	14533
859.662	14560
859.795	14438
859.928	14526
860.061	14632
860.194	14621
860.327	14606
860.46	14587
860.592	14640
860.725	14632
860.858	14686
860.99	14454
861.123	14488
861.256	14530
861.388	14518
861.521	15397
861.653	14480
861.786	14385
861.918	14389
862.05	14526
862.183	14480
862.315	14575
862.447	14629
862.58	14556
862.712	14210
862.844	14301
862.976	14446
863.108	14457
863.24	14765
863.372	14336
863.504	14320
863.636	14275
863.768	14324
863.9	14225
864.032	14275
864.164	14282
864.296	14408
864.428	14419
864.559	14442
864.691	14374
864.823	14480
864.954	14370
865.086	14324
865.217	14343
865.349	14221
865.48	14278
865.612	14355
865.743	14480
865.875	14347
866.006	14161
866.137	14294
866.269	14381
866.4	14259
866.531	14259
866.662	14195
866.793	14233
866.924	14271
867.055	14221
867.186	14301
867.317	14176
867.448	14138
867.579	14214
867.71	14176
867.841	14172
867.972	14362
868.103	14328
868.233	14381
868.364	14412
868.495	14358
868.625	14560
868.756	14640
868.886	14533
869.017	14461
869.147	14724
869.278	14621
869.408	14552
869.539	14549
869.669	14564
869.799	14648
869.929	14701
870.06	14693
870.19	14960
870.32	14785
870.45	14807
870.58	14994
870.71	14982
870.84	15020
870.97	14826
871.1	14906
871.23	15138
871.36	15077
871.489	14998
871.619	15093
871.749	15138
871.879	15142
872.008	15188
872.138	15135
872.267	15070
872.397	14937
872.526	15104
872.656	15047
872.785	14986
872.915	15184
873.044	15173
873.173	15222
873.303	15123
873.432	15154
873.561	15340
873.69	15119
873.819	15150
873.948	15389
874.077	15203
874.206	15150
874.335	15028
874.464	15264
874.593	15450
874.722	15378
874.851	15435
874.979	15530
875.108	15530
875.237	15458
875.365	15458
875.494	15447
875.623	15553
875.751	15378
875.88	15488
876.008	15675
876.136	15709
876.265	15907
876.393	15998
876.521	15998
876.65	16105
876.778	15949
876.906	15823
877.034	15972
877.162	15850
877.29	15797
877.418	15915
877.546	15918
877.674	15949
877.802	15937
877.93	15880
878.058	15949
878.185	15854
878.313	15926
878.441	15812
878.568	15781
878.696	15835
878.824	16013
878.951	16036
879.079	16086
879.206	16234
879.333	16154
879.461	15945
879.588	16071
879.715	16200
879.842	16242
879.97	16032
880.097	15819
880.224	15736
880.351	15732
880.478	15785
880.605	15724
880.732	15812
880.859	16067
880.986	15850
881.112	15713
881.239	15694
881.366	15595
881.493	15485
881.619	15363
881.746	15420
881.872	15462
881.999	15488
882.125	15359
882.252	15454
882.378	15428
882.505	15564
882.631	15420
882.757	15260
882.883	15230
883.01	15279
883.136	15214
883.262	15192
883.388	15100
883.514	15207
883.64	15443
883.766	15135
883.892	14975
884.018	15100
884.143	15207
884.269	15298
884.395	15093
884.52	14941
884.646	15032
884.772	14796
884.897	14838
885.023	14982
885.148	14986
885.274	15055
885.399	15017
885.524	14921
885.65	14944
885.775	14948
885.9	14861
886.025	15093
886.15	15032
886.275	14868
886.4	14853
886.525	14864
886.65	14845
886.775	14914
886.9	15055
887.025	15116
887.149	14902
887.274	14800
887.399	14746
887.523	14796
887.648	14651
887.773	14648
887.897	14899
888.021	14792
888.146	14731
888.27	14750
888.395	14956
888.519	14777
888.643	14857
888.767	14838
888.891	14674
889.015	14621
889.139	14678
889.263	14571
889.387	14678
889.511	14887
889.635	14811
889.759	14648
889.883	14488
890.006	14655
890.13	14727
890.254	14514
890.377	14575
890.501	14434
890.624	14400
890.748	14549
890.871	14351
890.995	14214
891.118	14248
891.241	14336
891.364	14313
891.488	14381
891.611	14309
891.734	14259
891.857	14358
891.98	14248
892.103	14396
892.226	14256
892.349	14214
892.471	14248
892.594	14214
892.717	14218
892.839	14298
892.962	14339
893.085	14328
893.207	14256
893.33	14259
893.452	14221
893.575	14286
893.697	14313
893.819	14499
893.941	14499
894.064	14400
894.186	14381
894.308	14202
894.43	14434
894.552	14465
894.674	14393
894.796	14183
894.918	14385
895.04	14301
895.161	14404
895.283	14484
895.405	14358
895.526	14465
895.648	14389
895.769	14438
895.891	14393
896.012	14480
896.134	14552
896.255	14396
896.376	14415
896.498	14511
896.619	14568
896.74	14495
896.861	14484
896.982	14765
897.103	14918
897.224	14693
897.345	14895
897.466	14610
897.587	14720
897.708	14838
897.828	14754
897.949	14739
898.07	14632
898.19	14712
898.311	14883
898.431	14891
898.552	14857
898.672	14849
898.792	14880
898.913	14944
899.033	14720
899.153	14682
899.273	14625
899.393	14640
899.513	14705
899.633	14667
899.753	14678
899.873	14686
899.993	14739
900.113	14720
900.232	14678
900.352	14640
900.472	14598
900.591	14552
900.711	14564
900.83	14564
900.95	14625
901.069	14602
901.189	14503
901.308	14233
901.427	14267
901.546	14183
901.665	14176
901.784	14214
901.904	14123
902.023	13963
902.141	13772
902.26	13772
902.379	13932
902.498	13750
902.617	13795
902.735	13898
902.854	13757
902.973	13712
903.091	13525
903.21	13502
903.328	13472
903.446	13525
903.565	13339
903.683	13411
903.801	13122
903.919	13396
904.038	13293
904.156	13110
904.274	13244
904.392	13187
904.51	13042
904.627	13118
904.745	13122
904.863	13091
904.981	13027
905.098	12821
905.216	12871
905.334	12825
905.451	12772
905.569	12814
905.686	12802
905.803	12844
905.921	12650
906.038	12726
906.155	12703
906.272	12547
906.389	12601
906.506	12551
906.623	12445
906.74	12388
906.857	12365
906.974	12361
907.091	12509
907.208	12585
907.324	12429
907.441	12308
907.557	12175
907.674	12175
907.79	12152
907.907	12129
908.023	12155
908.139	12186
908.256	12110
908.372	12022
908.488	12072
908.604	11965
908.72	11866
908.836	11901
908.952	11851
909.068	11954
909.184	12110
909.3	11866
909.415	11904
909.531	11939
909.647	11798
909.762	11703
909.878	11676
909.993	11661
910.108	11691
910.224	11733
910.339	11745
910.454	11581
910.57	11520
910.685	11558
910.8	11756
910.915	11790
911.03	11501
911.145	11349
911.259	11341
911.374	11254
911.489	11364
911.604	11269
911.718	11117
911.833	11204
911.947	11075
912.062	11025
912.176	11113
912.291	11109
912.405	11147
912.519	11391
912.633	11341
912.748	11193
912.862	11060
912.976	11041
913.09	10961
913.204	11037
913.318	10972
913.431	11098
913.545	11121
913.659	11162
913.772	11041
913.886	10877
914	10850
914.113	10976
914.226	11041
914.34	10965
914.453	10812
914.566	10976
914.68	10828
914.793	10801
914.906	10656
915.019	10645
915.132	10660
915.245	10592
915.358	10717
915.47	10694
915.583	10626
915.696	10721
915.809	10755
915.921	10774
916.034	10603
916.146	10558
916.259	10519
916.371	10706
916.483	10569
916.595	10561
916.708	10584
916.82	10538
916.932	10584
917.044	10558
917.156	10531
917.268	10424
917.38	10459
917.491	10417
917.603	10512
917.715	10554
917.826	10596
917.938	10382
918.049	10329
918.161	10470
918.272	10603
918.384	10584
918.495	10455
918.606	10318
918.717	10295
918.828	10371
918.939	10455
919.05	10253
919.161	10329
919.272	10093
919.383	10207
919.494	10432
919.604	10580
919.715	10386
919.826	10249
919.936	10306
920.047	10409
920.157	10379
920.267	10565
920.378	10405
920.488	10390
920.598	10489
920.708	10733
920.818	10508
920.928	10497
921.038	10733
921.148	10691
921.258	10386
921.368	10325
921.477	10196
921.587	10188
921.697	10067
921.806	10223
921.916	10090
922.025	9911
922.134	9895
922.244	9884
922.353	9949
922.462	9800
922.571	9751
922.68	9652
922.789	9553
922.898	9614
923.007	9557
923.116	9625
923.224	9606
923.333	9614
923.442	9534
923.55	9439
923.659	9424
923.767	9580
923.876	9466
923.984	9477
924.092	9382
924.201	9412
924.309	9439
924.417	9538
924.525	9393
924.633	9428
924.741	10314
924.849	9256
924.956	9386
925.064	9268
925.172	9169
925.279	9253
925.387	9241
925.494	9302
925.602	9351
925.709	9294
925.816	9233
925.924	9287
926.031	9313
926.138	9294
926.245	9313
926.352	9230
926.459	9348
926.566	9355
926.673	9203
926.779	9104
926.886	9131
926.993	9028
927.099	8971
927.206	8960
927.312	8861
927.419	8994
927.525	9001
927.631	9020
927.737	8906
927.843	8819
927.95	8766
928.056	8773
928.162	8834
928.267	8868
928.373	9447
928.479	8944
928.585	8754
928.69	8876
928.796	8845
928.901	8670
929.007	8632
929.112	8823
929.218	8804
929.323	8648
929.428	8651
929.533	8750
929.638	8621
929.743	8659
929.848	8735
929.953	8686
930.058	8556
930.163	8389
930.267	8427
930.372	8602
930.477	8457
930.581	8670
930.685	8545
930.79	8389
930.894	8408
930.998	8423
931.103	8507
931.207	8103
931.311	8126
931.415	8012
931.519	7890
931.623	7894
