Data from test_V78500241_723.txt Node
Date: Fri Mar 25 14:38:45 CST 2022
User: usil
Spectrometer: V785-0024
Trigger mode: 0
Integration Time (sec): 4.000000E-1
Scans to average: 1
Nonlinearity correction enabled: false
Boxcar width: 0
Storing dark spectrum: false
XAxis mode: Wavelengths
Number of Pixels in Spectrum: 1024
>>>>>Begin Spectral Data<<<<<
801.071	27534
801.214	27439
801.356	27329
801.499	27055
801.641	26971
801.783	26937
801.926	26781
802.068	26891
802.211	26857
802.353	26674
802.496	26606
802.638	26393
802.78	26393
802.923	26404
803.065	26256
803.208	26381
803.35	26453
803.492	26453
803.635	26598
803.777	26511
803.919	26545
804.061	26853
804.204	26655
804.346	26663
804.488	26590
804.63	26644
804.773	26556
804.915	26819
805.057	27062
805.199	26876
805.341	26967
805.483	27150
805.626	27108
805.768	27218
805.91	27249
806.052	27526
806.194	27412
806.336	27869
806.478	27876
806.62	28036
806.762	28303
806.904	28797
807.046	29337
807.188	29661
807.33	30095
807.472	30749
807.614	31263
807.756	32275
807.898	33564
808.04	35029
808.182	37114
808.324	39751
808.465	42867
808.607	46280
808.749	49278
808.891	50864
809.033	51340
809.174	49339
809.316	46599
809.458	43088
809.6	39427
809.741	36627
809.883	34386
810.025	32910
810.166	31742
810.308	30894
810.45	30285
810.591	29809
810.733	29083
810.875	28854
811.016	28390
811.158	28067
811.299	28249
811.441	28120
811.582	27907
811.724	27530
811.865	27553
812.007	27370
812.148	27310
812.29	27264
812.431	27317
812.573	27450
812.714	27458
812.855	27553
812.997	27500
813.138	27587
813.279	27408
813.421	27325
813.562	27321
813.703	27146
813.845	26868
813.986	26537
814.127	26526
814.268	26286
814.41	26282
814.551	25997
814.692	26081
814.833	26084
814.974	26084
815.115	26008
815.256	25750
815.397	25841
815.539	25890
815.68	25647
815.821	25594
815.962	25841
816.103	25525
816.244	25597
816.385	25403
816.526	25327
816.666	25118
816.807	24973
816.948	24989
817.089	25118
817.23	25031
817.371	24905
817.512	25015
817.653	24871
817.793	24798
817.934	24905
818.075	24882
818.216	24825
818.356	24715
818.497	24665
818.638	24566
818.778	24563
818.919	24418
819.06	24551
819.2	24654
819.341	24913
819.481	24730
819.622	24890
819.762	24954
819.903	24878
820.043	24863
820.184	24753
820.324	24779
820.465	24783
820.605	24661
820.746	24734
820.886	24665
821.026	24692
821.167	24521
821.307	24692
821.447	24532
821.588	24452
821.728	24353
821.868	24079
822.008	23942
822.149	23885
822.289	23805
822.429	23611
822.569	23604
822.709	23615
822.849	23330
822.99	23474
823.13	23296
823.27	23497
823.41	23151
823.55	23140
823.69	23124
823.83	23185
823.97	23071
824.11	23056
824.25	22896
824.389	23006
824.529	22961
824.669	22949
824.809	23003
824.949	23083
825.089	22968
825.228	22908
825.368	22793
825.508	22626
825.648	22828
825.787	22721
825.927	22904
826.067	22668
826.206	22641
826.346	22717
826.485	22729
826.625	22694
826.765	22774
826.904	22656
827.044	22478
827.183	22367
827.323	22371
827.462	22409
827.601	22478
827.741	22337
827.88	22375
828.02	22204
828.159	22341
828.298	22303
828.437	22344
828.577	22147
828.716	22379
828.855	22287
828.994	22051
829.134	22002
829.273	22246
829.412	22006
829.551	21994
829.69	22002
829.829	22078
829.968	22036
830.107	22063
830.246	22055
830.385	22021
830.524	21994
830.663	21876
830.802	21797
830.941	21526
831.08	21663
831.219	21713
831.357	21720
831.496	21804
831.635	21622
831.774	21549
831.913	21591
832.051	21759
832.19	21382
832.329	21553
832.467	21507
832.606	21485
832.744	21447
832.883	21701
833.022	21717
833.16	21671
833.299	21876
833.437	22101
833.576	22101
833.714	22363
833.852	22432
833.991	22603
834.129	22615
834.267	22706
834.406	22569
834.544	22615
834.682	22390
834.821	22306
834.959	22188
835.097	21953
835.235	21956
835.373	21873
835.511	21774
835.65	21492
835.788	21534
835.926	21340
836.064	21195
836.202	21161
836.34	21386
836.478	21424
836.615	21211
836.753	21310
836.891	21249
837.029	21268
837.167	21119
837.305	21077
837.443	20895
837.58	21058
837.718	21020
837.856	21116
837.993	20925
838.131	21017
838.269	20982
838.406	20895
838.544	20815
838.681	20651
838.819	20568
838.956	20526
839.094	20351
839.231	20541
839.369	20598
839.506	20864
839.643	20724
839.781	20408
839.918	20317
840.055	20556
840.193	20393
840.33	20370
840.467	20408
840.604	20332
840.742	20716
840.879	20278
841.016	20294
841.153	20214
841.29	20377
841.427	20438
841.564	20446
841.701	20476
841.838	20343
841.975	20111
842.112	20290
842.249	20336
842.385	20096
842.522	20507
842.659	20256
842.796	20176
842.933	20336
843.069	20286
843.206	20252
843.343	20362
843.479	20469
843.616	20492
843.752	20210
843.889	20301
844.025	20495
844.162	20351
844.298	20549
844.435	20705
844.571	20880
844.708	21150
844.844	21671
844.98	22021
845.117	22774
845.253	23653
845.389	25609
845.525	29501
845.661	35524
845.798	42498
845.934	47824
846.07	49613
846.206	48129
846.342	43190
846.478	36243
846.614	30190
846.75	26161
846.886	23847
847.022	22573
847.158	21580
847.294	21081
847.429	20495
847.565	20271
847.701	20377
847.837	19742
847.972	19750
848.108	19635
848.244	19632
848.379	19369
848.515	19373
848.65	19160
848.786	19244
848.921	19141
849.057	19240
849.192	19263
849.328	19232
849.463	19145
849.598	19046
849.734	19004
849.869	18935
850.004	18802
850.14	18932
850.275	18890
850.41	18840
850.545	18817
850.68	18901
850.815	18798
850.95	18897
851.085	19004
851.22	18977
851.355	18798
851.49	18764
851.625	18753
851.76	18696
851.895	18829
852.03	18734
852.165	18791
852.299	18943
852.434	18859
852.569	18848
852.703	18821
852.838	19019
852.973	19194
853.107	19103
853.242	18943
853.376	18875
853.511	18726
853.645	18825
853.78	19069
853.914	19072
854.048	18962
854.183	18973
854.317	18985
854.451	19244
854.585	19004
854.72	19034
854.854	19050
854.988	18913
855.122	18886
855.256	18654
855.39	18852
855.524	18859
855.658	18947
855.792	18768
855.926	18776
856.06	18757
856.194	18768
856.327	18570
856.461	18665
856.595	18627
856.729	18604
856.862	18711
856.996	18612
857.13	18692
857.263	18722
857.397	18654
857.53	18578
857.664	18684
857.797	18631
857.931	18631
858.064	18490
858.197	18639
858.331	18452
858.464	18376
858.597	18357
858.731	18460
858.864	18467
858.997	18452
859.13	18494
859.263	18525
859.396	18741
859.529	18460
859.662	18483
859.795	18536
859.928	18570
860.061	18635
860.194	18585
860.327	18422
860.46	18467
860.592	18669
860.725	18456
860.858	18475
860.99	18460
861.123	18277
861.256	18308
861.388	18426
861.521	19228
861.653	18243
861.786	18251
861.918	18224
862.05	18300
862.183	18372
862.315	18391
862.447	18460
862.58	18365
862.712	18194
862.844	18133
862.976	18190
863.108	18251
863.24	18658
863.372	18003
863.504	18129
863.636	18064
863.768	18174
863.9	18083
864.032	18087
864.164	18038
864.296	18057
864.428	18110
864.559	18091
864.691	18060
864.823	18095
864.954	18026
865.086	18083
865.217	18022
865.349	18045
865.48	18053
865.612	18129
865.743	18083
865.875	18022
866.006	17863
866.137	18068
866.269	18003
866.4	17988
866.531	18045
866.662	18064
866.793	17821
866.924	18041
867.055	18060
867.186	17908
867.317	17916
867.448	17855
867.579	17969
867.71	17874
867.841	17923
867.972	17961
868.103	17980
868.233	18106
868.364	18129
868.495	18019
868.625	18209
868.756	18376
868.886	18171
869.017	18209
869.147	18281
869.278	18327
869.408	18224
869.539	18106
869.669	18300
869.799	18289
869.929	18338
870.06	18338
870.19	18631
870.32	18566
870.45	18703
870.58	18673
870.71	18753
870.84	18840
870.97	18722
871.1	18749
871.23	18871
871.36	18863
871.489	18787
871.619	19076
871.749	19023
871.879	19118
872.008	19000
872.138	19080
872.267	19038
872.397	18943
872.526	18989
872.656	18905
872.785	18844
872.915	19095
873.044	19190
873.173	19027
873.303	19217
873.432	19217
873.561	19293
873.69	19255
873.819	19244
873.948	19331
874.077	19263
874.206	19255
874.335	19232
874.464	19540
874.593	19666
874.722	19662
874.851	19681
874.979	19837
875.108	19875
875.237	19826
875.365	19719
875.494	19875
875.623	20058
875.751	19955
875.88	20024
876.008	20119
876.136	20259
876.265	20465
876.393	20743
876.521	20697
876.65	20716
876.778	20773
876.906	20754
877.034	20872
877.162	20929
877.29	20975
877.418	21028
877.546	21199
877.674	21298
877.802	21439
877.93	21542
878.058	21736
878.185	21857
878.313	22204
878.441	22527
878.568	22809
878.696	23589
878.824	24361
878.951	25491
879.079	27241
879.206	29379
879.333	31381
879.461	33165
879.588	34242
879.715	34375
879.842	33359
879.97	31487
880.097	29349
880.224	27519
880.351	26381
880.478	25407
880.605	24875
880.732	24418
880.859	24369
880.986	23996
881.112	23843
881.239	23665
881.366	23539
881.493	23554
881.619	23398
881.746	23520
881.872	23543
881.999	23440
882.125	23665
882.252	23661
882.378	23604
882.505	23935
882.631	23661
882.757	23455
882.883	23554
883.01	23573
883.136	23471
883.262	23387
883.388	23429
883.514	23524
883.64	23543
883.766	23330
883.892	23204
884.018	23318
884.143	23402
884.269	23452
884.395	23353
884.52	23064
884.646	23223
884.772	23174
884.897	23212
885.023	23166
885.148	23307
885.274	23345
885.399	23170
885.524	22908
885.65	22869
885.775	22793
885.9	22599
886.025	22554
886.15	22432
886.275	22074
886.4	21861
886.525	21812
886.65	21724
886.775	21481
886.9	21553
887.025	21637
887.149	21241
887.274	20960
887.399	20929
887.523	20796
887.648	20556
887.773	20537
887.897	20587
888.021	20450
888.146	20400
888.27	20442
888.395	20381
888.519	20400
888.643	20172
888.767	20305
888.891	20149
889.015	19959
889.139	19879
889.263	19761
889.387	19928
889.511	19955
889.635	19784
889.759	19666
889.883	19594
890.006	19662
890.13	19616
890.254	19460
890.377	19483
890.501	19327
890.624	19244
890.748	19297
890.871	19057
890.995	19023
891.118	18886
891.241	18973
891.364	18894
891.488	18962
891.611	18779
891.734	18791
891.857	18863
891.98	18909
892.103	18707
892.226	18722
892.349	18616
892.471	18467
892.594	18597
892.717	18658
892.839	18445
892.962	18350
893.085	18448
893.207	18486
893.33	18296
893.452	18323
893.575	18494
893.697	18350
893.819	18399
893.941	18475
894.064	18441
894.186	18281
894.308	18095
894.43	18361
894.552	18220
894.674	18110
894.796	18053
894.918	18041
895.04	18178
895.161	18152
895.283	18114
895.405	18079
895.526	18030
895.648	18068
895.769	17973
895.891	18125
896.012	18129
896.134	18003
896.255	17965
896.376	17942
896.498	17999
896.619	18003
896.74	17927
896.861	18019
896.982	18315
897.103	18471
897.224	18266
897.345	18247
897.466	18019
897.587	18201
897.708	18239
897.828	18079
897.949	18041
898.07	17878
898.19	18129
898.311	18102
898.431	18079
898.552	18121
898.672	18270
898.792	18228
898.913	18144
899.033	18136
899.153	18003
899.273	17767
899.393	17813
899.513	17942
899.633	17897
899.753	17988
899.873	17855
899.993	17908
900.113	17920
900.232	17927
900.352	17946
900.472	17813
900.591	17554
900.711	17703
900.83	17554
900.95	17851
901.069	17779
901.189	17596
901.308	17364
901.427	17341
901.546	17239
901.665	17307
901.784	17383
901.904	17113
902.023	17033
902.141	16869
902.26	16839
902.379	16892
902.498	16820
902.617	16599
902.735	16653
902.854	16717
902.973	16630
903.091	16341
903.21	16375
903.328	16348
903.446	16230
903.565	16284
903.683	16135
903.801	16086
903.919	16173
904.038	16032
904.156	15956
904.274	16002
904.392	15953
904.51	15922
904.627	15888
904.745	15934
904.863	15960
904.981	15705
905.098	15561
905.216	15595
905.334	15637
905.451	15625
905.569	15564
905.686	15572
905.803	15450
905.921	15416
906.038	15416
906.155	15351
906.272	15336
906.389	15195
906.506	15123
906.623	15074
906.74	15085
906.857	14963
906.974	14998
907.091	15157
907.208	15192
907.324	15150
907.441	14990
907.557	14823
907.674	14758
907.79	14777
907.907	14785
908.023	14929
908.139	14857
908.256	14743
908.372	14727
908.488	14705
908.604	14594
908.72	14484
908.836	14579
908.952	14606
909.068	14587
909.184	14617
909.3	14598
909.415	14575
909.531	14552
909.647	14332
909.762	14233
909.878	14252
909.993	14225
910.108	14210
910.224	14240
910.339	14275
910.454	14126
910.57	14096
910.685	14100
910.8	14290
910.915	14237
911.03	14054
911.145	13909
911.259	13856
911.374	13940
911.489	13830
911.604	13818
911.718	13636
911.833	13651
911.947	13537
912.062	13403
912.176	13601
912.291	13670
912.405	13616
912.519	13723
912.633	13875
912.748	13731
912.862	13658
912.976	13472
913.09	13350
913.204	13434
913.318	13525
913.431	13556
913.545	13578
913.659	13586
913.772	13426
913.886	13331
914	13289
914.113	13460
914.226	13407
914.34	13384
914.453	13183
914.566	13457
914.68	13206
914.793	13221
914.906	13061
915.019	12947
915.132	13000
915.245	12977
915.358	13008
915.47	13091
915.583	12981
915.696	13095
915.809	13145
915.921	13213
916.034	13015
916.146	12958
916.259	12970
916.371	13103
916.483	13038
916.595	13038
916.708	12989
916.82	13053
916.932	12958
917.044	12886
917.156	12852
917.268	12844
917.38	12783
917.491	12730
917.603	12745
917.715	12897
917.826	12875
917.938	12707
918.049	12635
918.161	12646
918.272	12951
918.384	12840
918.495	12738
918.606	12612
918.717	12517
918.828	12650
918.939	12665
919.05	12350
919.161	12528
919.272	12327
919.383	12357
919.494	12536
919.604	12707
919.715	12570
919.826	12433
919.936	12460
920.047	12563
920.157	12494
920.267	12696
920.378	12551
920.488	12517
920.598	12806
920.708	12802
920.818	12730
920.928	12700
921.038	12730
921.148	12719
921.258	12494
921.368	12433
921.477	12300
921.587	12376
921.697	12144
921.806	12201
921.916	12190
922.025	12015
922.134	11973
922.244	11866
922.353	11984
922.462	11889
922.571	11786
922.68	11570
922.789	11589
922.898	11570
923.007	11497
923.116	11653
923.224	11505
923.333	11520
923.442	11429
923.55	11455
923.659	11478
923.767	11543
923.876	11414
923.984	11501
924.092	11341
924.201	11356
924.309	11414
924.417	11402
924.525	11391
924.633	11311
924.741	12270
924.849	11204
924.956	11292
925.064	11151
925.172	11075
925.279	11132
925.387	11204
925.494	11151
925.602	11189
925.709	11098
925.816	11052
925.924	11056
926.031	11220
926.138	11159
926.245	11140
926.352	11083
926.459	11181
926.566	11136
926.673	11052
926.779	10930
926.886	10908
926.993	10790
927.099	10733
927.206	10744
927.312	10733
927.419	10858
927.525	10793
927.631	10755
927.737	10729
927.843	10634
927.95	10523
928.056	10634
928.162	10573
928.267	10710
928.373	11239
928.479	10683
928.585	10489
928.69	10588
928.796	10653
928.901	10497
929.007	10447
929.112	10538
929.218	10504
929.323	10344
929.428	10428
929.533	10622
929.638	10306
929.743	10405
929.848	10428
929.953	10344
930.058	10238
930.163	10093
930.267	10158
930.372	10246
930.477	10139
930.581	10306
930.685	10223
930.79	10021
930.894	10010
930.998	9941
931.103	10257
931.207	9804
931.311	9789
931.415	9713
931.519	9466
931.623	9504
