Data from test_V78500241_2549.txt Node
Date: Fri Mar 25 14:51:27 CST 2022
User: usil
Spectrometer: V785-0024
Trigger mode: 0
Integration Time (sec): 4.000000E-1
Scans to average: 1
Nonlinearity correction enabled: false
Boxcar width: 0
Storing dark spectrum: false
XAxis mode: Wavelengths
Number of Pixels in Spectrum: 1024
>>>>>Begin Spectral Data<<<<<
801.071	22097
801.214	21972
801.356	21724
801.499	21618
801.641	21477
801.783	21458
801.926	21431
802.068	21336
802.211	21321
802.353	21180
802.496	21017
802.638	20895
802.78	20861
802.923	20864
803.065	20762
803.208	20918
803.35	20845
803.492	20944
803.635	20891
803.777	20765
803.919	20804
804.061	21089
804.204	20754
804.346	20727
804.488	20708
804.63	20712
804.773	20644
804.915	20705
805.057	20834
805.199	20788
805.341	20804
805.483	20823
805.626	20667
805.768	20682
805.91	20583
806.052	20659
806.194	20537
806.336	20830
806.478	20640
806.62	20667
806.762	20777
806.904	20902
807.046	21058
807.188	20990
807.33	20986
807.472	21013
807.614	20918
807.756	20918
807.898	20815
808.04	20678
808.182	20716
808.324	20800
808.465	20838
808.607	20902
808.749	21020
808.891	21169
809.033	21077
809.174	21051
809.316	20967
809.458	21058
809.6	20937
809.741	21074
809.883	21104
810.025	21237
810.166	21135
810.308	21252
810.45	21112
810.591	21100
810.733	20921
810.875	20762
811.016	20682
811.158	20781
811.299	20906
811.441	20979
811.582	20967
811.724	20781
811.865	20800
812.007	20819
812.148	20804
812.29	20842
812.431	21024
812.573	20982
812.714	21199
812.855	21173
812.997	21302
813.138	21504
813.279	21336
813.421	21325
813.562	21279
813.703	20975
813.845	20929
813.986	20674
814.127	20499
814.268	20385
814.41	20434
814.551	20278
814.692	20370
814.833	20286
814.974	20389
815.115	20259
815.256	20153
815.397	20202
815.539	20164
815.68	20062
815.821	20008
815.962	20126
816.103	20100
816.244	19921
816.385	19936
816.526	19757
816.666	19765
816.807	19559
816.948	19590
817.089	19674
817.23	19563
817.371	19468
817.512	19392
817.653	19403
817.793	19499
817.934	19483
818.075	19483
818.216	19487
818.356	19384
818.497	19369
818.638	19194
818.778	19236
818.919	19122
819.06	19278
819.2	19320
819.341	19346
819.481	19354
819.622	19499
819.762	19651
819.903	19529
820.043	19518
820.184	19430
820.324	19453
820.465	19464
820.605	19487
820.746	19438
820.886	19320
821.026	19400
821.167	19441
821.307	19521
821.447	19346
821.588	19304
821.728	19145
821.868	19042
822.008	18905
822.149	18837
822.289	18749
822.429	18627
822.569	18585
822.709	18566
822.849	18277
822.99	18319
823.13	18327
823.27	18350
823.41	18144
823.55	18060
823.69	18167
823.83	18197
823.97	18041
824.11	17912
824.25	17935
824.389	17901
824.529	17961
824.669	18030
824.809	18064
824.949	17980
825.089	17908
825.228	17942
825.368	17798
825.508	17699
825.648	17878
825.787	17745
825.927	17904
826.067	17691
826.206	17710
826.346	17790
826.485	17805
826.625	17817
826.765	17843
826.904	17786
827.044	17604
827.183	17516
827.323	17337
827.462	17566
827.601	17471
827.741	17478
827.88	17433
828.02	17280
828.159	17452
828.298	17364
828.437	17570
828.577	17395
828.716	17486
828.855	17299
828.994	17140
829.134	17136
829.273	17185
829.412	17159
829.551	17109
829.69	17079
829.829	17147
829.968	17223
830.107	17284
830.246	17208
830.385	17060
830.524	17048
830.663	17075
830.802	16881
830.941	16820
831.08	16717
831.219	16885
831.357	16904
831.496	16923
831.635	16805
831.774	16733
831.913	16584
832.051	16558
832.19	16569
832.329	16733
832.467	16542
832.606	16546
832.744	16504
832.883	16573
833.022	16424
833.16	16470
833.299	16607
833.437	16470
833.576	16470
833.714	16519
833.852	16679
833.991	16527
834.129	16649
834.267	16599
834.406	16504
834.544	16596
834.682	16580
834.821	16561
834.959	16660
835.097	16550
835.235	16626
835.373	16660
835.511	16546
835.65	16443
835.788	16455
835.926	16276
836.064	16226
836.202	16329
836.34	16409
836.478	16599
836.615	16375
836.753	16554
836.891	16527
837.029	16436
837.167	16451
837.305	16360
837.443	16352
837.58	16226
837.718	16478
837.856	16329
837.993	16253
838.131	16246
838.269	16257
838.406	16204
838.544	16234
838.681	16025
838.819	16055
838.956	15960
839.094	15823
839.231	15968
839.369	16051
839.506	16268
839.643	16059
839.781	15838
839.918	15823
840.055	15873
840.193	15755
840.33	15865
840.467	15857
840.604	15869
840.742	16139
840.879	15652
841.016	15789
841.153	15694
841.29	15964
841.427	15937
841.564	15956
841.701	15937
841.838	15770
841.975	15808
842.112	15736
842.249	15599
842.385	15633
842.522	15823
842.659	15625
842.796	15591
842.933	15629
843.069	15572
843.206	15591
843.343	15743
843.479	15553
843.616	15656
843.752	15462
843.889	15420
844.025	15504
844.162	15428
844.298	15557
844.435	15393
844.571	15351
844.708	15515
844.844	15542
844.98	15553
845.117	15603
845.253	15431
845.389	15294
845.525	15389
845.661	15329
845.798	15154
845.934	15321
846.07	15146
846.206	15298
846.342	15359
846.478	15230
846.614	15017
846.75	14887
846.886	15066
847.022	15077
847.158	15074
847.294	15066
847.429	15001
847.565	14944
847.701	15135
847.837	14701
847.972	14735
848.108	14902
848.244	14864
848.379	14651
848.515	14613
848.65	14476
848.786	14629
848.921	14602
849.057	14705
849.192	14594
849.328	14762
849.463	14705
849.598	14434
849.734	14541
849.869	14465
850.004	14385
850.14	14362
850.275	14377
850.41	14305
850.545	14339
850.68	14370
850.815	14423
850.95	14256
851.085	14583
851.22	14495
851.355	14381
851.49	14347
851.625	14366
851.76	14191
851.895	14317
852.03	14355
852.165	14400
852.299	14385
852.434	14469
852.569	14374
852.703	14457
852.838	14385
852.973	14568
853.107	14454
853.242	14400
853.376	14161
853.511	14039
853.645	14123
853.78	14450
853.914	14161
854.048	14252
854.183	14225
854.317	14339
854.451	14366
854.585	14290
854.72	14210
854.854	14221
854.988	14202
855.122	14252
855.256	13989
855.39	14214
855.524	14240
855.658	14301
855.792	14336
855.926	14278
856.06	14282
856.194	14393
856.327	14282
856.461	14233
856.595	14157
856.729	14229
856.862	14385
856.996	14309
857.13	14343
857.263	14301
857.397	14336
857.53	14275
857.664	14301
857.797	14336
857.931	14393
858.064	14301
858.197	14347
858.331	14111
858.464	14252
858.597	14107
858.731	14199
858.864	14153
858.997	14206
859.13	14214
859.263	14252
859.396	14343
859.529	14229
859.662	14206
859.795	14187
859.928	14336
860.061	14400
860.194	14317
860.327	14214
860.46	14149
860.592	14294
860.725	14377
860.858	14347
860.99	14286
861.123	14134
861.256	14161
861.388	14309
861.521	14792
861.653	14164
861.786	14008
861.918	14107
862.05	14130
862.183	14187
862.315	14157
862.447	14252
862.58	14096
862.712	14031
862.844	13974
862.976	14058
863.108	13997
863.24	14537
863.372	13830
863.504	13959
863.636	14035
863.768	14031
863.9	13993
864.032	14027
864.164	14058
864.296	14027
864.428	14126
864.559	14119
864.691	14130
864.823	14073
864.954	14100
865.086	14062
865.217	14069
865.349	13925
865.48	13978
865.612	14016
865.743	14111
865.875	13940
866.006	13967
866.137	14005
866.269	13974
866.4	13986
866.531	13940
866.662	13974
866.793	13974
866.924	13944
867.055	13951
867.186	14031
867.317	13951
867.448	13879
867.579	13864
867.71	13982
867.841	13875
867.972	14058
868.103	13928
868.233	13906
868.364	14054
868.495	14111
868.625	14240
868.756	14301
868.886	14183
869.017	14199
869.147	14336
869.278	14332
869.408	14271
869.539	14263
869.669	14282
869.799	14294
869.929	14412
870.06	14347
870.19	14621
870.32	14606
870.45	14625
870.58	14686
870.71	14727
870.84	14712
870.97	14708
871.1	14640
871.23	14842
871.36	14864
871.489	14670
871.619	14819
871.749	14857
871.879	14910
872.008	14830
872.138	14826
872.267	14910
872.397	14655
872.526	14689
872.656	14617
872.785	14640
872.915	14861
873.044	14929
873.173	14804
873.303	14944
873.432	15009
873.561	14994
873.69	14918
873.819	14868
873.948	15028
874.077	14891
874.206	14842
874.335	14895
874.464	15028
874.593	15211
874.722	15154
874.851	15272
874.979	15218
875.108	15256
875.237	15116
875.365	15161
875.494	15241
875.623	15245
875.751	15184
875.88	15268
876.008	15268
876.136	15496
876.265	15641
876.393	15785
876.521	15739
876.65	15785
876.778	15679
876.906	15568
877.034	15538
877.162	15545
877.29	15641
877.418	15648
877.546	15610
877.674	15675
877.802	15618
877.93	15568
878.058	15652
878.185	15435
878.313	15584
878.441	15523
878.568	15439
878.696	15587
878.824	15549
878.951	15637
879.079	15739
879.206	15964
879.333	15846
879.461	15675
879.588	15778
879.715	15857
879.842	16006
879.97	15789
880.097	15515
880.224	15469
880.351	15462
880.478	15511
880.605	15469
880.732	15500
880.859	15736
880.986	15545
881.112	15519
881.239	15393
881.366	15150
881.493	15188
881.619	15127
881.746	15188
881.872	15214
881.999	15077
882.125	15135
882.252	15306
882.378	15116
882.505	15298
882.631	15062
882.757	14899
882.883	14967
883.01	14960
883.136	14960
883.262	14773
883.388	14735
883.514	15009
883.64	15005
883.766	14952
883.892	14758
884.018	14815
884.143	14838
884.269	15005
884.395	14724
884.52	14667
884.646	14708
884.772	14648
884.897	14549
885.023	14689
885.148	14743
885.274	14960
885.399	14899
885.524	14663
885.65	14697
885.775	14765
885.9	14731
886.025	14765
886.15	14796
886.275	14716
886.4	14583
886.525	14670
886.65	14632
886.775	14530
886.9	14800
887.025	14849
887.149	14636
887.274	14434
887.399	14427
887.523	14492
887.648	14377
887.773	14336
887.897	14514
888.021	14571
888.146	14400
888.27	14659
888.395	14610
888.519	14507
888.643	14610
888.767	14610
888.891	14404
889.015	14324
889.139	14431
889.263	14240
889.387	14412
889.511	14518
889.635	14408
889.759	14450
889.883	14431
890.006	14412
890.13	14495
890.254	14355
890.377	14374
890.501	14130
890.624	14123
890.748	14210
890.871	14039
890.995	14024
891.118	13974
891.241	14096
891.364	13959
891.488	14183
891.611	14088
891.734	14031
891.857	14233
891.98	14092
892.103	14191
892.226	14180
892.349	14084
892.471	14020
892.594	14077
892.717	14062
892.839	13967
892.962	13970
893.085	14126
893.207	14088
893.33	13944
893.452	14039
893.575	14100
893.697	14058
893.819	14248
893.941	14301
894.064	14195
894.186	14073
894.308	14107
894.43	14263
894.552	14282
894.674	14263
894.796	14077
894.918	14142
895.04	14084
895.161	14275
895.283	14123
895.405	14142
895.526	14119
895.648	14039
895.769	14256
895.891	14187
896.012	14263
896.134	14256
896.255	14309
896.376	14244
896.498	14199
896.619	14324
896.74	14172
896.861	14404
896.982	14571
897.103	14735
897.224	14625
897.345	14446
897.466	14461
897.587	14522
897.708	14632
897.828	14568
897.949	14530
898.07	14408
898.19	14450
898.311	14632
898.431	14549
898.552	14610
898.672	14735
898.792	14667
898.913	14701
899.033	14473
899.153	14469
899.273	14427
899.393	14423
899.513	14457
899.633	14549
899.753	14465
899.873	14454
899.993	14533
900.113	14419
900.232	14438
900.352	14404
900.472	14366
900.591	14423
900.711	14366
900.83	14362
900.95	14473
901.069	14385
901.189	14301
901.308	14176
901.427	13959
901.546	14050
901.665	14100
901.784	14065
901.904	13883
902.023	13807
902.141	13696
902.26	13594
902.379	13601
902.498	13616
902.617	13571
902.735	13693
902.854	13616
902.973	13480
903.091	13346
903.21	13251
903.328	13354
903.446	13259
903.565	13190
903.683	13175
903.801	13065
903.919	13076
904.038	13164
904.156	12989
904.274	13057
904.392	12905
904.51	12951
904.627	13012
904.745	13000
904.863	13107
904.981	12753
905.098	12635
905.216	12650
905.334	12677
905.451	12734
905.569	12658
905.686	12692
905.803	12741
905.921	12509
906.038	12616
906.155	12517
906.272	12376
906.389	12369
906.506	12277
906.623	12273
906.74	12167
906.857	12117
906.974	12201
907.091	12391
907.208	12369
907.324	12308
907.441	12186
907.557	12003
907.674	11980
907.79	11961
907.907	11927
908.023	12007
908.139	11969
908.256	11882
908.372	11965
908.488	11920
908.604	11771
908.72	11695
908.836	11832
908.952	11775
909.068	11684
909.184	11870
909.3	11843
909.415	11752
909.531	11729
909.647	11566
909.762	11535
909.878	11547
909.993	11573
910.108	11532
910.224	11471
910.339	11395
910.454	11387
910.57	11406
910.685	11254
910.8	11474
910.915	11532
911.03	11402
911.145	11197
911.259	11227
911.374	11223
911.489	11181
911.604	11178
911.718	10984
911.833	10976
911.947	10828
912.062	10816
912.176	10942
912.291	11048
912.405	10995
912.519	11136
912.633	11242
912.748	11041
912.862	10927
912.976	10862
913.09	10755
913.204	10797
913.318	10847
913.431	10984
913.545	10812
913.659	10987
913.772	10828
913.886	10729
914	10687
914.113	10828
914.226	10831
914.34	10873
914.453	10649
914.566	10866
914.68	10641
914.793	10733
914.906	10504
915.019	10451
915.132	10402
915.245	10443
915.358	10497
915.47	10470
915.583	10489
915.696	10599
915.809	10554
915.921	10626
916.034	10462
916.146	10432
916.259	10367
916.371	10531
916.483	10497
916.595	10413
916.708	10360
916.82	10447
916.932	10432
917.044	10440
917.156	10409
917.268	10223
917.38	10306
917.491	10272
917.603	10409
917.715	10428
917.826	10474
917.938	10329
918.049	10223
918.161	10310
918.272	10561
918.384	10523
918.495	10398
918.606	10230
918.717	10158
918.828	10272
918.939	10268
919.05	10154
919.161	10215
919.272	9983
919.383	10097
919.494	10344
919.604	10394
919.715	10284
919.826	10158
919.936	10257
920.047	10329
920.157	10200
920.267	10413
920.378	10253
920.488	10249
920.598	10443
920.708	10596
920.818	10428
920.928	10436
921.038	10493
921.148	10504
921.258	10249
921.368	10188
921.477	10090
921.587	10082
921.697	9953
921.806	10109
921.916	9968
922.025	9835
922.134	9720
922.244	9740
922.353	9838
922.462	9740
922.571	9648
922.68	9488
922.789	9462
922.898	9526
923.007	9424
923.116	9515
923.224	9458
923.333	9496
923.442	9363
923.55	9279
923.659	9374
923.767	9405
923.876	9329
923.984	9374
924.092	9344
924.201	9332
924.309	9321
924.417	9393
924.525	9260
924.633	9340
924.741	10230
924.849	9085
924.956	9230
925.064	9119
925.172	9089
925.279	9104
925.387	9142
925.494	9195
925.602	9241
925.709	9195
925.816	9108
925.924	9097
926.031	9199
926.138	9192
926.245	9135
926.352	9043
926.459	9256
926.566	9218
926.673	9135
926.779	8956
926.886	8971
926.993	8845
927.099	8952
927.206	8773
927.312	8796
927.419	8883
927.525	8864
927.631	8838
927.737	8785
927.843	8724
927.95	8617
928.056	8708
928.162	8762
928.267	8777
928.373	9382
928.479	8876
928.585	8621
928.69	8682
928.796	8758
928.901	8697
929.007	8503
929.112	8693
929.218	8651
929.323	8587
929.428	8556
929.533	8727
929.638	8530
929.743	8492
929.848	8579
929.953	8617
930.058	8461
930.163	8324
930.267	8347
930.372	8404
930.477	8252
930.581	8545
930.685	8362
930.79	8221
930.894	8263
930.998	8237
931.103	8404
931.207	8123
931.311	7989
931.415	7959
931.519	7795
931.623	7772
