Data from test_V78500241_3166.txt Node
Date: Fri Mar 25 14:55:45 CST 2022
User: usil
Spectrometer: V785-0024
Trigger mode: 0
Integration Time (sec): 4.000000E-1
Scans to average: 1
Nonlinearity correction enabled: false
Boxcar width: 0
Storing dark spectrum: false
XAxis mode: Wavelengths
Number of Pixels in Spectrum: 1024
>>>>>Begin Spectral Data<<<<<
801.071	22048
801.214	21975
801.356	21751
801.499	21523
801.641	21443
801.783	21473
801.926	21397
802.068	21469
802.211	21344
802.353	21230
802.496	21081
802.638	20944
802.78	20880
802.923	20735
803.065	20762
803.208	20670
803.35	20872
803.492	20762
803.635	20963
803.777	20667
803.919	20731
804.061	21100
804.204	20834
804.346	20746
804.488	20511
804.63	20731
804.773	20682
804.915	20765
805.057	20788
805.199	20598
805.341	20785
805.483	20838
805.626	20701
805.768	20549
805.91	20754
806.052	20663
806.194	20640
806.336	20636
806.478	20678
806.62	20587
806.762	20716
806.904	20792
807.046	21058
807.188	21039
807.33	21036
807.472	20929
807.614	20921
807.756	20819
807.898	20796
808.04	20705
808.182	20682
808.324	20731
808.465	20830
808.607	20986
808.749	21032
808.891	21127
809.033	21203
809.174	21169
809.316	20921
809.458	21081
809.6	21036
809.741	21070
809.883	21074
810.025	21146
810.166	21070
810.308	21165
810.45	21161
810.591	20994
810.733	20899
810.875	20861
811.016	20621
811.158	20716
811.299	20921
811.441	20937
811.582	20838
811.724	20845
811.865	20758
812.007	20788
812.148	20739
812.29	20830
812.431	20937
812.573	21093
812.714	21116
812.855	21272
812.997	21363
813.138	21488
813.279	21393
813.421	21245
813.562	21119
813.703	21028
813.845	20910
813.986	20663
814.127	20636
814.268	20511
814.41	20434
814.551	20431
814.692	20339
814.833	20332
814.974	20210
815.115	20442
815.256	20225
815.397	20195
815.539	20130
815.68	20100
815.821	20016
815.962	20088
816.103	20043
816.244	19989
816.385	19818
816.526	19864
816.666	19601
816.807	19495
816.948	19506
817.089	19563
817.23	19499
817.371	19441
817.512	19441
817.653	19396
817.793	19362
817.934	19426
818.075	19518
818.216	19441
818.356	19339
818.497	19221
818.638	19179
818.778	19179
818.919	19065
819.06	19206
819.2	19320
819.341	19228
819.481	19350
819.622	19586
819.762	19620
819.903	19662
820.043	19487
820.184	19339
820.324	19430
820.465	19544
820.605	19468
820.746	19369
820.886	19278
821.026	19354
821.167	19434
821.307	19422
821.447	19301
821.588	19301
821.728	19126
821.868	18947
822.008	18894
822.149	18802
822.289	18882
822.429	18593
822.569	18620
822.709	18460
822.849	18350
822.99	18311
823.13	18254
823.27	18384
823.41	18247
823.55	18117
823.69	18232
823.83	18060
823.97	18026
824.11	17908
824.25	17836
824.389	17912
824.529	17939
824.669	18019
824.809	17999
824.949	17893
825.089	17939
825.228	17965
825.368	17707
825.508	17714
825.648	17691
825.787	17729
825.927	17703
826.067	17687
826.206	17691
826.346	17745
826.485	17623
826.625	17577
826.765	17843
826.904	17718
827.044	17414
827.183	17368
827.323	17387
827.462	17349
827.601	17337
827.741	17269
827.88	17341
828.02	17227
828.159	17288
828.298	17387
828.437	17406
828.577	17284
828.716	17471
828.855	17277
828.994	17121
829.134	17159
829.273	17143
829.412	17094
829.551	17113
829.69	16984
829.829	17181
829.968	17197
830.107	17242
830.246	17181
830.385	17048
830.524	16987
830.663	16889
830.802	16911
830.941	16820
831.08	16656
831.219	16759
831.357	16831
831.496	16896
831.635	16759
831.774	16694
831.913	16660
832.051	16558
832.19	16428
832.329	16561
832.467	16409
832.606	16462
832.744	16356
832.883	16360
833.022	16329
833.16	16390
833.299	16523
833.437	16432
833.576	16580
833.714	16447
833.852	16615
833.991	16485
834.129	16558
834.267	16535
834.406	16489
834.544	16478
834.682	16451
834.821	16489
834.959	16698
835.097	16436
835.235	16535
835.373	16424
835.511	16596
835.65	16295
835.788	16306
835.926	16192
836.064	16120
836.202	16299
836.34	16447
836.478	16367
836.615	16333
836.753	16428
836.891	16497
837.029	16554
837.167	16310
837.305	16325
837.443	16295
837.58	16226
837.718	16363
837.856	16344
837.993	16055
838.131	16299
838.269	16128
838.406	16173
838.544	16128
838.681	16124
838.819	15854
838.956	15785
839.094	15755
839.231	15911
839.369	15949
839.506	16204
839.643	16013
839.781	15903
839.918	15732
840.055	15736
840.193	15679
840.33	15720
840.467	15861
840.604	15827
840.742	15998
840.879	15660
841.016	15755
841.153	15709
841.29	15857
841.427	15892
841.564	15861
841.701	15854
841.838	15713
841.975	15625
842.112	15751
842.249	15660
842.385	15572
842.522	15762
842.659	15526
842.796	15530
842.933	15644
843.069	15515
843.206	15496
843.343	15675
843.479	15606
843.616	15553
843.752	15363
843.889	15359
844.025	15637
844.162	15393
844.298	15488
844.435	15218
844.571	15298
844.708	15473
844.844	15603
844.98	15511
845.117	15458
845.253	15336
845.389	15116
845.525	15302
845.661	15355
845.798	15119
845.934	15169
846.07	15214
846.206	15241
846.342	15249
846.478	15203
846.614	15032
846.75	14906
846.886	14944
847.022	15001
847.158	14994
847.294	15005
847.429	14963
847.565	14921
847.701	15211
847.837	14727
847.972	14651
848.108	14773
848.244	14758
848.379	14590
848.515	14484
848.65	14457
848.786	14488
848.921	14552
849.057	14648
849.192	14693
849.328	14560
849.463	14530
849.598	14552
849.734	14473
849.869	14415
850.004	14282
850.14	14332
850.275	14320
850.41	14157
850.545	14259
850.68	14412
850.815	14343
850.95	14263
851.085	14499
851.22	14431
851.355	14324
851.49	14294
851.625	14191
851.76	14282
851.895	14229
852.03	14164
852.165	14263
852.299	14324
852.434	14358
852.569	14339
852.703	14358
852.838	14290
852.973	14518
853.107	14507
853.242	14225
853.376	14240
853.511	14050
853.645	14073
853.78	14305
853.914	14221
854.048	14176
854.183	14149
854.317	14130
854.451	14355
854.585	14134
854.72	14157
854.854	14301
854.988	14149
855.122	14176
855.256	14031
855.39	14134
855.524	14305
855.658	14187
855.792	14161
855.926	14180
856.06	14240
856.194	14244
856.327	14149
856.461	13986
856.595	14073
856.729	14126
856.862	14271
856.996	14218
857.13	14370
857.263	14351
857.397	14351
857.53	14183
857.664	14187
857.797	14237
857.931	14358
858.064	14206
858.197	14290
858.331	14176
858.464	14096
858.597	14054
858.731	14115
858.864	14290
858.997	14088
859.13	14202
859.263	14256
859.396	14267
859.529	14142
859.662	14161
859.795	14157
859.928	14221
860.061	14351
860.194	14381
860.327	14218
860.46	14157
860.592	14267
860.725	14301
860.858	14275
860.99	14183
861.123	14092
861.256	14100
861.388	14187
861.521	14937
861.653	14054
861.786	13928
861.918	14024
862.05	14107
862.183	14100
862.315	14218
862.447	14252
862.58	14096
862.712	13947
862.844	13921
862.976	14020
863.108	13974
863.24	14233
863.372	13936
863.504	13883
863.636	13921
863.768	13974
863.9	14020
864.032	13913
864.164	13989
864.296	13860
864.428	14046
864.559	14077
864.691	14012
864.823	14043
864.954	13879
865.086	13997
865.217	13925
865.349	13860
865.48	13913
865.612	14005
865.743	14088
865.875	13982
866.006	13803
866.137	13887
866.269	13970
866.4	13944
866.531	13906
866.662	13856
866.793	13879
866.924	13879
867.055	13913
867.186	13925
867.317	13898
867.448	13856
867.579	13841
867.71	13814
867.841	13902
867.972	13906
868.103	13944
868.233	13974
868.364	13974
868.495	14046
868.625	14065
868.756	14301
868.886	14149
869.017	14252
869.147	14244
869.278	14374
869.408	14126
869.539	14199
869.669	14278
869.799	14259
869.929	14275
870.06	14290
870.19	14564
870.32	14465
870.45	14617
870.58	14564
870.71	14712
870.84	14682
870.97	14564
871.1	14663
871.23	14727
871.36	14716
871.489	14716
871.619	14750
871.749	14769
871.879	14811
872.008	14998
872.138	14727
872.267	14830
872.397	14594
872.526	14590
872.656	14583
872.785	14602
872.915	14899
873.044	14864
873.173	14811
873.303	14887
873.432	14902
873.561	14902
873.69	14906
873.819	14872
873.948	14918
874.077	14910
874.206	14754
874.335	14830
874.464	15081
874.593	15116
874.722	15173
874.851	15203
874.979	15203
875.108	15218
875.237	15108
875.365	15127
875.494	15230
875.623	15252
875.751	15081
875.88	15249
876.008	15317
876.136	15561
876.265	15694
876.393	15663
876.521	15808
876.65	15709
876.778	15679
876.906	15542
877.034	15629
877.162	15561
877.29	15511
877.418	15572
877.546	15637
877.674	15682
877.802	15625
877.93	15515
878.058	15538
878.185	15428
878.313	15580
878.441	15557
878.568	15412
878.696	15633
878.824	15717
878.951	15705
879.079	15857
879.206	15892
879.333	15759
879.461	15698
879.588	15751
879.715	15728
879.842	15930
879.97	15694
880.097	15492
880.224	15428
880.351	15545
880.478	15504
880.605	15401
880.732	15549
880.859	15720
880.986	15488
881.112	15591
881.239	15306
881.366	15211
881.493	15157
881.619	15195
881.746	15112
881.872	15097
881.999	15184
882.125	15085
882.252	15218
882.378	15157
882.505	15344
882.631	14971
882.757	14990
882.883	15028
883.01	14944
883.136	14944
883.262	14781
883.388	14792
883.514	14872
883.64	14937
883.766	14895
883.892	14792
884.018	14739
884.143	14906
884.269	14971
884.395	14670
884.52	14655
884.646	14629
884.772	14590
884.897	14568
885.023	14727
885.148	14705
885.274	14819
885.399	14682
885.524	14625
885.65	14587
885.775	14701
885.9	14701
886.025	14785
886.15	14670
886.275	14708
886.4	14556
886.525	14598
886.65	14560
886.775	14545
886.9	14769
887.025	14925
887.149	14731
887.274	14514
887.399	14412
887.523	14488
887.648	14290
887.773	14419
887.897	14492
888.021	14526
888.146	14457
888.27	14663
888.395	14735
888.519	14629
888.643	14549
888.767	14590
888.891	14400
889.015	14358
889.139	14351
889.263	14309
889.387	14446
889.511	14606
889.635	14423
889.759	14366
889.883	14282
890.006	14374
890.13	14442
890.254	14206
890.377	14290
890.501	14168
890.624	14153
890.748	14214
890.871	14130
890.995	13974
891.118	13951
891.241	13955
891.364	14046
891.488	14149
891.611	14020
891.734	14069
891.857	14039
891.98	14043
892.103	14092
892.226	14069
892.349	14046
892.471	13944
892.594	13925
892.717	14111
892.839	14043
892.962	14084
893.085	14020
893.207	14058
893.33	13959
893.452	13951
893.575	14119
893.697	14020
893.819	14202
893.941	14256
894.064	14206
894.186	13989
894.308	13982
894.43	14195
894.552	14271
894.674	14126
894.796	13959
894.918	14073
895.04	14020
895.161	14240
895.283	14065
895.405	14168
895.526	14180
895.648	14123
895.769	14187
895.891	14286
896.012	14199
896.134	14240
896.255	14240
896.376	14195
896.498	14210
896.619	14263
896.74	14195
896.861	14347
896.982	14594
897.103	14602
897.224	14518
897.345	14476
897.466	14389
897.587	14446
897.708	14632
897.828	14480
897.949	14480
898.07	14320
898.19	14419
898.311	14590
898.431	14499
898.552	14560
898.672	14693
898.792	14606
898.913	14667
899.033	14473
899.153	14427
899.273	14442
899.393	14381
899.513	14537
899.633	14419
899.753	14446
899.873	14480
899.993	14537
900.113	14442
900.232	14545
900.352	14374
900.472	14343
900.591	14123
900.711	14389
900.83	14313
900.95	14438
901.069	14454
901.189	14298
901.308	13928
901.427	13947
901.546	13986
901.665	13936
901.784	14031
901.904	13955
902.023	13776
902.141	13628
902.26	13445
902.379	13628
902.498	13552
902.617	13480
902.735	13624
902.854	13575
902.973	13445
903.091	13365
903.21	13206
903.328	13293
903.446	13217
903.565	12935
903.683	13095
903.801	12981
903.919	13225
904.038	13072
904.156	12932
904.274	12890
904.392	12897
904.51	12890
904.627	12928
904.745	13046
904.863	12924
904.981	12711
905.098	12555
905.216	12601
905.334	12669
905.451	12711
905.569	12620
905.686	12639
905.803	12627
905.921	12467
906.038	12601
906.155	12448
906.272	12300
906.389	12330
906.506	12247
906.623	12209
906.74	12277
906.857	11996
906.974	12057
907.091	12304
907.208	12330
907.324	12178
907.441	12076
907.557	12022
907.674	11961
907.79	11901
907.907	11965
908.023	11866
908.139	11977
908.256	11832
908.372	11855
908.488	11840
908.604	11760
908.72	11676
908.836	11741
908.952	11718
909.068	11684
909.184	11764
909.3	11771
909.415	11729
909.531	11699
909.647	11528
909.762	11478
909.878	11528
909.993	11425
910.108	11463
910.224	11467
910.339	11364
910.454	11334
910.57	11345
910.685	11250
910.8	11585
910.915	11562
911.03	11376
911.145	11170
911.259	11147
911.374	11124
911.489	11090
911.604	11014
911.718	10938
911.833	11014
911.947	10839
912.062	10721
912.176	10942
912.291	10987
912.405	10980
912.519	11094
912.633	11113
912.748	11003
912.862	11022
912.976	10782
913.09	10702
913.204	10687
913.318	10809
913.431	10900
913.545	10919
913.659	10896
913.772	10824
913.886	10660
914	10706
914.113	10778
914.226	10862
914.34	10809
914.453	10577
914.566	10801
914.68	10584
914.793	10668
914.906	10508
915.019	10356
915.132	10363
915.245	10398
915.358	10474
915.47	10478
915.583	10489
915.696	10497
915.809	10561
915.921	10584
916.034	10440
916.146	10371
916.259	10379
916.371	10478
916.483	10386
916.595	10310
916.708	10402
916.82	10337
916.932	10314
917.044	10371
917.156	10314
917.268	10227
917.38	10238
917.491	10253
917.603	10310
917.715	10428
917.826	10341
917.938	10196
918.049	10131
918.161	10310
918.272	10398
918.384	10398
918.495	10303
918.606	10204
918.717	10112
918.828	10196
918.939	10101
919.05	10059
919.161	10116
919.272	9918
919.383	10017
919.494	10268
919.604	10314
919.715	10192
919.826	10128
919.936	10105
920.047	10257
920.157	10249
920.267	10299
920.378	10154
920.488	10143
920.598	10390
920.708	10558
920.818	10405
920.928	10367
921.038	10493
921.148	10428
921.258	10257
921.368	10188
921.477	10071
921.587	10074
921.697	9922
921.806	9960
921.916	9941
922.025	9751
922.134	9743
922.244	9728
922.353	9842
922.462	9698
922.571	9667
922.68	9416
922.789	9412
922.898	9405
923.007	9412
923.116	9435
923.224	9351
923.333	9431
923.442	9321
923.55	9279
923.659	9310
923.767	9370
923.876	9367
923.984	9428
924.092	9218
924.201	9313
924.309	9241
924.417	9298
924.525	9237
924.633	9272
924.741	10173
924.849	9043
924.956	9275
925.064	9097
925.172	8986
925.279	8986
925.387	9077
925.494	9127
925.602	9226
925.709	9142
925.816	8979
925.924	9093
926.031	9173
926.138	9051
926.245	9142
926.352	9020
926.459	9188
926.566	9188
926.673	9081
926.779	8956
926.886	8956
926.993	8796
927.099	8845
927.206	8781
927.312	8727
927.419	8807
927.525	8750
927.631	8861
927.737	8811
927.843	8678
927.95	8629
928.056	8746
928.162	8670
928.267	8727
928.373	9279
928.479	8861
928.585	8625
928.69	8739
928.796	8727
928.901	8537
929.007	8473
929.112	8610
929.218	8594
929.323	8450
929.428	8587
929.533	8648
929.638	8473
929.743	8530
929.848	8640
929.953	8552
930.058	8408
930.163	8301
930.267	8313
930.372	8412
930.477	8305
930.581	8484
930.685	8385
930.79	8180
930.894	8244
930.998	8202
931.103	8271
931.207	8043
931.311	7967
931.415	7890
931.519	7742
931.623	7765
