Data from test_V78500241_1101.txt Node
Date: Fri Mar 25 14:41:23 CST 2022
User: usil
Spectrometer: V785-0024
Trigger mode: 0
Integration Time (sec): 4.000000E-1
Scans to average: 1
Nonlinearity correction enabled: false
Boxcar width: 0
Storing dark spectrum: false
XAxis mode: Wavelengths
Number of Pixels in Spectrum: 1024
>>>>>Begin Spectral Data<<<<<
801.071	22782
801.214	22493
801.356	22295
801.499	22322
801.641	22002
801.783	22036
801.926	22086
802.068	22021
802.211	21808
802.353	21899
802.496	21618
802.638	21469
802.78	21530
802.923	21443
803.065	21401
803.208	21348
803.35	21268
803.492	21447
803.635	21595
803.777	21317
803.919	21466
804.061	21755
804.204	21435
804.346	21351
804.488	21260
804.63	21378
804.773	21222
804.915	21397
805.057	21363
805.199	21233
805.341	21340
805.483	21344
805.626	21443
805.768	21214
805.91	21298
806.052	21370
806.194	21279
806.336	21450
806.478	21275
806.62	21321
806.762	21397
806.904	21477
807.046	21842
807.188	21682
807.33	21610
807.472	21755
807.614	21652
807.756	21671
807.898	21542
808.04	21431
808.182	21610
808.324	21511
808.465	21629
808.607	21918
808.749	22002
808.891	22128
809.033	22234
809.174	22097
809.316	21987
809.458	21880
809.6	21785
809.741	21930
809.883	21819
810.025	21979
810.166	22010
810.308	21991
810.45	21861
810.591	21743
810.733	21679
810.875	21572
811.016	21416
811.158	21355
811.299	21519
811.441	21751
811.582	21694
811.724	21568
811.865	21462
812.007	21553
812.148	21549
812.29	21526
812.431	21599
812.573	21770
812.714	21915
812.855	22090
812.997	22074
813.138	22226
813.279	22177
813.421	21918
813.562	21945
813.703	21793
813.845	21732
813.986	21367
814.127	21161
814.268	21131
814.41	21020
814.551	21081
814.692	21135
814.833	21017
814.974	20994
815.115	21013
815.256	20815
815.397	20906
815.539	20906
815.68	20754
815.821	20830
815.962	20876
816.103	20834
816.244	20693
816.385	20499
816.526	20530
816.666	20317
816.807	20157
816.948	20275
817.089	20423
817.23	20275
817.371	20164
817.512	20168
817.653	20244
817.793	20301
817.934	20233
818.075	20324
818.216	20202
818.356	20180
818.497	20050
818.638	19837
818.778	19932
818.919	19902
819.06	19951
819.2	20046
819.341	19955
819.481	20077
819.622	20278
819.762	20480
819.903	20286
820.043	20282
820.184	20130
820.324	20164
820.465	20183
820.605	20195
820.746	20092
820.886	20103
821.026	20176
821.167	20164
821.307	20267
821.447	19967
821.588	19959
821.728	19830
821.868	19761
822.008	19506
822.149	19582
822.289	19510
822.429	19244
822.569	19240
822.709	19221
822.849	19168
822.99	19244
823.13	19103
823.27	19015
823.41	18897
823.55	18814
823.69	18901
823.83	18814
823.97	18810
824.11	18639
824.25	18597
824.389	18749
824.529	18654
824.669	18658
824.809	18749
824.949	18711
825.089	18749
825.228	18692
825.368	18642
825.508	18479
825.648	18441
825.787	18448
825.927	18532
826.067	18418
826.206	18441
826.346	18479
826.485	18388
826.625	18254
826.765	18585
826.904	18467
827.044	18174
827.183	18110
827.323	18079
827.462	18266
827.601	18182
827.741	18022
827.88	18098
828.02	18053
828.159	17996
828.298	18098
828.437	18239
828.577	18095
828.716	18323
828.855	18117
828.994	18045
829.134	17889
829.273	17866
829.412	17859
829.551	17726
829.69	17783
829.829	17882
829.968	17927
830.107	17954
830.246	17897
830.385	17843
830.524	17893
830.663	17649
830.802	17646
830.941	17493
831.08	17486
831.219	17551
831.357	17638
831.496	17707
831.635	17554
831.774	17528
831.913	17440
832.051	17334
832.19	17337
832.329	17360
832.467	17235
832.606	17189
832.744	17151
832.883	17220
833.022	17193
833.16	17235
833.299	17277
833.437	17258
833.576	17303
833.714	17288
833.852	17372
833.991	17383
834.129	17273
834.267	17356
834.406	17273
834.544	17318
834.682	17280
834.821	17242
834.959	17471
835.097	17223
835.235	17296
835.373	17318
835.511	17273
835.65	17117
835.788	17189
835.926	17025
836.064	16995
836.202	16987
836.34	17174
836.478	17261
836.615	17071
836.753	17212
836.891	17288
837.029	17151
837.167	17025
837.305	17178
837.443	17037
837.58	17014
837.718	17033
837.856	17029
837.993	16934
838.131	16961
838.269	16972
838.406	16930
838.544	16900
838.681	16847
838.819	16752
838.956	16649
839.094	16523
839.231	16508
839.369	16672
839.506	16873
839.643	16790
839.781	16577
839.918	16485
840.055	16569
840.193	16569
840.33	16649
840.467	16542
840.604	16630
840.742	16816
840.879	16421
841.016	16489
841.153	16527
841.29	16607
841.427	16565
841.564	16497
841.701	16588
841.838	16599
841.975	16371
842.112	16451
842.249	16440
842.385	16299
842.522	16558
842.659	16314
842.796	16322
842.933	16322
843.069	16211
843.206	16177
843.343	16344
843.479	16344
843.616	16246
843.752	16093
843.889	16090
844.025	16276
844.162	16120
844.298	16280
844.435	16162
844.571	16051
844.708	16257
844.844	16402
844.98	16314
845.117	16238
845.253	16044
845.389	16082
845.525	16109
845.661	16246
845.798	16261
845.934	16295
846.07	16379
846.206	16451
846.342	16386
846.478	16150
846.614	15991
846.75	15736
846.886	15747
847.022	15823
847.158	15774
847.294	15686
847.429	15667
847.565	15587
847.701	15956
847.837	15435
847.972	15378
848.108	15515
848.244	15405
848.379	15336
848.515	15279
848.65	15260
848.786	15298
848.921	15336
849.057	15351
849.192	15306
849.328	15321
849.463	15279
849.598	15313
849.734	15233
849.869	15142
850.004	15074
850.14	15123
850.275	15047
850.41	14979
850.545	15028
850.68	14979
850.815	15100
850.95	15020
851.085	15211
851.22	15138
851.355	15001
851.49	14960
851.625	15036
851.76	15108
851.895	14868
852.03	14960
852.165	15043
852.299	15116
852.434	15123
852.569	15055
852.703	15066
852.838	15199
852.973	15161
853.107	15165
853.242	15081
853.376	14998
853.511	14823
853.645	14902
853.78	15024
853.914	14838
854.048	14868
854.183	14902
854.317	14979
854.451	15093
854.585	15055
854.72	14952
854.854	14986
854.988	14785
855.122	14910
855.256	14750
855.39	14826
855.524	15005
855.658	14967
855.792	14979
855.926	14849
856.06	14967
856.194	14982
856.327	14979
856.461	14918
856.595	14944
856.729	14853
856.862	15020
856.996	14925
857.13	15020
857.263	15047
857.397	14967
857.53	14998
857.664	14902
857.797	14921
857.931	15154
858.064	14921
858.197	15070
858.331	14925
858.464	14921
858.597	14689
858.731	14826
858.864	14956
858.997	14891
859.13	14937
859.263	14952
859.396	15020
859.529	14853
859.662	14815
859.795	14826
859.928	14963
860.061	15032
860.194	14990
860.327	14944
860.46	14826
860.592	15062
860.725	15058
860.858	15055
860.99	14941
861.123	14781
861.256	14788
861.388	14861
861.521	15644
861.653	14689
861.786	14689
861.918	14842
862.05	14785
862.183	14830
862.315	14918
862.447	14895
862.58	14902
862.712	14670
862.844	14613
862.976	14640
863.108	14739
863.24	15039
863.372	14583
863.504	14602
863.636	14617
863.768	14781
863.9	14644
864.032	14606
864.164	14632
864.296	14792
864.428	14735
864.559	14743
864.691	14777
864.823	14686
864.954	14727
865.086	14701
865.217	14667
865.349	14552
865.48	14708
865.612	14613
865.743	14720
865.875	14792
866.006	14686
866.137	14670
866.269	14705
866.4	14636
866.531	14537
866.662	14533
866.793	14476
866.924	14556
867.055	14648
867.186	14568
867.317	14640
867.448	14541
867.579	14587
867.71	14427
867.841	14560
867.972	14625
868.103	14549
868.233	14613
868.364	14598
868.495	14670
868.625	14811
868.756	14960
868.886	14929
869.017	14929
869.147	14921
869.278	14918
869.408	14887
869.539	14887
869.669	14986
869.799	14933
869.929	15051
870.06	14941
870.19	15119
870.32	15108
870.45	15211
870.58	15313
870.71	15450
870.84	15351
870.97	15268
871.1	15287
871.23	15534
871.36	15428
871.489	15378
871.619	15408
871.749	15542
871.879	15584
872.008	15641
872.138	15500
872.267	15488
872.397	15397
872.526	15249
872.656	15340
872.785	15344
872.915	15534
873.044	15667
873.173	15530
873.303	15549
873.432	15660
873.561	15633
873.69	15549
873.819	15580
873.948	15561
874.077	15606
874.206	15568
874.335	15519
874.464	15675
874.593	15873
874.722	15747
874.851	15903
874.979	15854
875.108	15880
875.237	15766
875.365	15736
875.494	15812
875.623	15861
875.751	15915
875.88	15850
876.008	16036
876.136	16131
876.265	16314
876.393	16417
876.521	16310
876.65	16386
876.778	16291
876.906	16200
877.034	16185
877.162	16238
877.29	16166
877.418	16348
877.546	16226
877.674	16257
877.802	16215
877.93	16257
878.058	16303
878.185	16249
878.313	16242
878.441	16295
878.568	16162
878.696	16257
878.824	16276
878.951	16455
879.079	16500
879.206	16694
879.333	16675
879.461	16485
879.588	16546
879.715	16649
879.842	16820
879.97	16531
880.097	16306
880.224	16246
880.351	16230
880.478	16139
880.605	16147
880.732	16044
880.859	16394
880.986	16246
881.112	16215
881.239	16090
881.366	15827
881.493	15835
881.619	15759
881.746	15899
881.872	15842
881.999	15728
882.125	15755
882.252	15934
882.378	15854
882.505	15953
882.631	15785
882.757	15720
882.883	15690
883.01	15667
883.136	15530
883.262	15454
883.388	15420
883.514	15690
883.64	15709
883.766	15580
883.892	15405
884.018	15412
884.143	15587
884.269	15724
884.395	15420
884.52	15302
884.646	15260
884.772	15313
884.897	15310
885.023	15431
885.148	15412
885.274	15420
885.399	15458
885.524	15317
885.65	15302
885.775	15260
885.9	15367
886.025	15287
886.15	15435
886.275	15302
886.4	15214
886.525	15207
886.65	15226
886.775	15195
886.9	15386
887.025	15485
887.149	15310
887.274	15085
887.399	15093
887.523	15123
887.648	14971
887.773	14982
887.897	15169
888.021	15169
888.146	15013
888.27	15241
888.395	15230
888.519	15233
888.643	15104
888.767	15150
888.891	15047
889.015	14925
889.139	15051
889.263	14941
889.387	15116
889.511	15085
889.635	15043
889.759	14914
889.883	14876
890.006	14975
890.13	15070
890.254	14830
890.377	14819
890.501	14765
890.624	14765
890.748	14804
890.871	14678
890.995	14648
891.118	14465
891.241	14667
891.364	14636
891.488	14670
891.611	14632
891.734	14674
891.857	14625
891.98	14636
892.103	14750
892.226	14708
892.349	14648
892.471	14533
892.594	14583
892.717	14686
892.839	14640
892.962	14587
893.085	14682
893.207	14655
893.33	14606
893.452	14465
893.575	14693
893.697	14678
893.819	14731
893.941	14857
894.064	14826
894.186	14613
894.308	14533
894.43	14804
894.552	14746
894.674	14792
894.796	14594
894.918	14636
895.04	14674
895.161	14743
895.283	14773
895.405	14708
895.526	14724
895.648	14788
895.769	14754
895.891	14842
896.012	14887
896.134	14743
896.255	14819
896.376	14815
896.498	14743
896.619	14796
896.74	14838
896.861	14902
896.982	15142
897.103	15310
897.224	15154
897.345	15089
897.466	14975
897.587	14960
897.708	15169
897.828	15039
897.949	15036
898.07	14895
898.19	15104
898.311	15176
898.431	14960
898.552	15058
898.672	15230
898.792	15264
898.913	15154
899.033	15058
899.153	14994
899.273	14906
899.393	14990
899.513	14952
899.633	15020
899.753	15066
899.873	14933
899.993	15085
900.113	14956
900.232	14990
900.352	14929
900.472	14906
900.591	14883
900.711	14982
900.83	14765
900.95	14849
901.069	15074
901.189	14800
901.308	14571
901.427	14526
901.546	14499
901.665	14442
901.784	14465
901.904	14404
902.023	14317
902.141	14145
902.26	14016
902.379	14115
902.498	14031
902.617	14046
902.735	14069
902.854	13909
902.973	14001
903.091	13776
903.21	13746
903.328	13776
903.446	13651
903.565	13651
903.683	13559
903.801	13476
903.919	13601
904.038	13632
904.156	13358
904.274	13499
904.392	13381
904.51	13358
904.627	13312
904.745	13445
904.863	13457
904.981	13228
905.098	13164
905.216	13084
905.334	13084
905.451	13141
905.569	13152
905.686	13145
905.803	13145
905.921	12939
906.038	13023
906.155	12947
906.272	12833
906.389	12848
906.506	12783
906.623	12741
906.74	12669
906.857	12616
906.974	12559
907.091	12764
907.208	12878
907.324	12692
907.441	12582
907.557	12441
907.674	12395
907.79	12399
907.907	12342
908.023	12540
908.139	12433
908.256	12388
908.372	12372
908.488	12380
908.604	12220
908.72	12159
908.836	12175
908.952	12243
909.068	12152
909.184	12353
909.3	12190
909.415	12266
909.531	12186
909.647	11897
909.762	11980
909.878	11961
909.993	11977
910.108	11939
910.224	11931
910.339	11908
910.454	11832
910.57	11821
910.685	11752
910.8	11996
910.915	11958
911.03	11874
911.145	11699
911.259	11600
911.374	11638
911.489	11592
911.604	11520
911.718	11391
911.833	11497
911.947	11349
912.062	11269
912.176	11421
912.291	11345
912.405	11364
912.519	11665
912.633	11611
912.748	11490
912.862	11406
912.976	11292
913.09	11170
913.204	11140
913.318	11227
913.431	11341
913.545	11398
913.659	11414
913.772	11326
913.886	11124
914	11132
914.113	11197
914.226	11265
914.34	11204
914.453	11094
914.566	11265
914.68	11033
914.793	11064
914.906	10877
915.019	10942
915.132	10801
915.245	10843
915.358	10847
915.47	10938
915.583	10972
915.696	10942
915.809	10995
915.921	11086
916.034	10900
916.146	10835
916.259	10908
916.371	10911
916.483	10889
916.595	10759
916.708	10759
916.82	10805
916.932	10828
917.044	10698
917.156	10809
917.268	10717
917.38	10744
917.491	10706
917.603	10702
917.715	10847
917.826	10805
917.938	10729
918.049	10519
918.161	10706
918.272	10809
918.384	10778
918.495	10702
918.606	10622
918.717	10527
918.828	10588
918.939	10577
919.05	10478
919.161	10561
919.272	10322
919.383	10409
919.494	10634
919.604	10854
919.715	10615
919.826	10500
919.936	10542
920.047	10653
920.157	10618
920.267	10793
920.378	10527
920.488	10588
920.598	10714
920.708	10816
920.818	10790
920.928	10740
921.038	10786
921.148	10877
921.258	10599
921.368	10565
921.477	10417
921.587	10382
921.697	10276
921.806	10474
921.916	10284
922.025	10238
922.134	10192
922.244	10131
922.353	10200
922.462	10010
922.571	9953
922.68	9876
922.789	9793
922.898	9736
923.007	9766
923.116	9835
923.224	9850
923.333	9785
923.442	9686
923.55	9682
923.659	9751
923.767	9804
923.876	9606
923.984	9648
924.092	9656
924.201	9663
924.309	9637
924.417	9656
924.525	9625
924.633	9587
924.741	10554
924.849	9408
924.956	9629
925.064	9393
925.172	9420
925.279	9439
925.387	9435
925.494	9428
925.602	9511
925.709	9534
925.816	9363
925.924	9469
926.031	9534
926.138	9393
926.245	9504
926.352	9329
926.459	9523
926.566	9511
926.673	9443
926.779	9393
926.886	9222
926.993	9176
927.099	9154
927.206	9161
927.312	9108
927.419	9146
927.525	9169
927.631	9222
927.737	9032
927.843	9043
927.95	8986
928.056	9024
928.162	9001
928.267	9123
928.373	9747
928.479	9074
928.585	8906
928.69	8975
928.796	9043
928.901	8948
929.007	8796
929.112	8921
929.218	8883
929.323	8868
929.428	8823
929.533	8998
929.638	8823
929.743	8853
929.848	8906
929.953	8845
930.058	8712
930.163	8560
930.267	8659
930.372	8731
930.477	8625
930.581	8754
930.685	8678
930.79	8552
930.894	8587
930.998	8511
931.103	8697
931.207	8396
931.311	8317
931.415	8225
931.519	8084
931.623	8077
