Data from test_V78500241_3626.txt Node
Date: Fri Mar 25 14:58:57 CST 2022
User: usil
Spectrometer: V785-0024
Trigger mode: 0
Integration Time (sec): 4.000000E-1
Scans to average: 1
Nonlinearity correction enabled: false
Boxcar width: 0
Storing dark spectrum: false
XAxis mode: Wavelengths
Number of Pixels in Spectrum: 1024
>>>>>Begin Spectral Data<<<<<
801.071	21972
801.214	21850
801.356	21515
801.499	21477
801.641	21310
801.783	21279
801.926	21306
802.068	21211
802.211	21154
802.353	21055
802.496	20807
802.638	20815
802.78	20705
802.923	20598
803.065	20640
803.208	20457
803.35	20568
803.492	20735
803.635	20746
803.777	20648
803.919	20754
804.061	20887
804.204	20613
804.346	20514
804.488	20518
804.63	20621
804.773	20461
804.915	20495
805.057	20674
805.199	20385
805.341	20545
805.483	20705
805.626	20621
805.768	20404
805.91	20526
806.052	20617
806.194	20488
806.336	20712
806.478	20556
806.62	20495
806.762	20678
806.904	20746
807.046	20963
807.188	20773
807.33	20773
807.472	20918
807.614	20659
807.756	20720
807.898	20651
808.04	20549
808.182	20454
808.324	20564
808.465	20720
808.607	20845
808.749	20838
808.891	20986
809.033	21077
809.174	20948
809.316	20800
809.458	20823
809.6	20830
809.741	20937
809.883	20902
810.025	21058
810.166	21066
810.308	21001
810.45	20902
810.591	20937
810.733	20705
810.875	20587
811.016	20621
811.158	20473
811.299	20644
811.441	20754
811.582	20739
811.724	20613
811.865	20609
812.007	20602
812.148	20537
812.29	20617
812.431	20739
812.573	20853
812.714	21066
812.855	21096
812.997	21169
813.138	21408
813.279	21135
813.421	21176
813.562	21058
813.703	20910
813.845	20788
813.986	20351
814.127	20438
814.268	20305
814.41	20199
814.551	20164
814.692	20195
814.833	20172
814.974	20168
815.115	20088
815.256	20001
815.397	19963
815.539	20027
815.68	19871
815.821	19830
815.962	19883
816.103	19856
816.244	19841
816.385	19571
816.526	19552
816.666	19400
816.807	19293
816.948	19354
817.089	19571
817.23	19358
817.371	19270
817.512	19232
817.653	19217
817.793	19209
817.934	19259
818.075	19255
818.216	19422
818.356	19213
818.497	19240
818.638	18821
818.778	19031
818.919	19042
819.06	18985
819.2	19080
819.341	19183
819.481	19247
819.622	19350
819.762	19514
819.903	19324
820.043	19331
820.184	19240
820.324	19263
820.465	19350
820.605	19354
820.746	19350
820.886	19129
821.026	19168
821.167	19213
821.307	19251
821.447	19114
821.588	19118
821.728	18954
821.868	18954
822.008	18703
822.149	18719
822.289	18661
822.429	18395
822.569	18369
822.709	18448
822.849	18174
822.99	18228
823.13	18235
823.27	18121
823.41	18003
823.55	17904
823.69	18019
823.83	18015
823.97	17893
824.11	17760
824.25	17764
824.389	17783
824.529	17760
824.669	17684
824.809	17939
824.949	17859
825.089	17805
825.228	17756
825.368	17619
825.508	17630
825.648	17589
825.787	17653
825.927	17573
826.067	17509
826.206	17505
826.346	17463
826.485	17516
826.625	17509
826.765	17619
826.904	17566
827.044	17368
827.183	17208
827.323	17227
827.462	17273
827.601	17265
827.741	17200
827.88	17242
828.02	17159
828.159	17292
828.298	17299
828.437	17223
828.577	17155
828.716	17334
828.855	17181
828.994	17006
829.134	17113
829.273	17018
829.412	16919
829.551	16904
829.69	17052
829.829	16991
829.968	17174
830.107	17014
830.246	16949
830.385	16919
830.524	16869
830.663	16763
830.802	16752
830.941	16721
831.08	16569
831.219	16683
831.357	16535
831.496	16847
831.635	16550
831.774	16618
831.913	16569
832.051	16360
832.19	16424
832.329	16424
832.467	16352
832.606	16238
832.744	16318
832.883	16318
833.022	16238
833.16	16310
833.299	16402
833.437	16333
833.576	16402
833.714	16424
833.852	16428
833.991	16489
834.129	16402
834.267	16440
834.406	16287
834.544	16451
834.682	16325
834.821	16314
834.959	16531
835.097	16352
835.235	16428
835.373	16337
835.511	16394
835.65	16318
835.788	16325
835.926	16177
836.064	16135
836.202	16143
836.34	16291
836.478	16390
836.615	16318
836.753	16211
836.891	16474
837.029	16379
837.167	16287
837.305	16188
837.443	16234
837.58	16181
837.718	16276
837.856	16169
837.993	16109
838.131	16162
838.269	16162
838.406	16128
838.544	16036
838.681	16010
838.819	15857
838.956	15701
839.094	15785
839.231	15835
839.369	15869
839.506	16063
839.643	15945
839.781	15671
839.918	15690
840.055	15660
840.193	15759
840.33	15724
840.467	15747
840.604	15812
840.742	15960
840.879	15610
841.016	15549
841.153	15728
841.29	15907
841.427	15660
841.564	15751
841.701	15755
841.838	15656
841.975	15625
842.112	15686
842.249	15450
842.385	15500
842.522	15603
842.659	15584
842.796	15545
842.933	15485
843.069	15416
843.206	15515
843.343	15610
843.479	15526
843.616	15500
843.752	15355
843.889	15291
844.025	15496
844.162	15180
844.298	15458
844.435	15260
844.571	15218
844.708	15226
844.844	15477
844.98	15466
845.117	15473
845.253	15325
845.389	15173
845.525	15211
845.661	15184
845.798	15169
845.934	15188
846.07	14937
846.206	15195
846.342	15142
846.478	15108
846.614	14944
846.75	14815
846.886	14876
847.022	14960
847.158	14956
847.294	14941
847.429	14933
847.565	14876
847.701	15081
847.837	14644
847.972	14629
848.108	14708
848.244	14636
848.379	14526
848.515	14564
848.65	14495
848.786	14473
848.921	14473
849.057	14537
849.192	14526
849.328	14503
849.463	14514
849.598	14457
849.734	14355
849.869	14457
850.004	14301
850.14	14328
850.275	14355
850.41	14244
850.545	14153
850.68	14267
850.815	14252
850.95	14210
851.085	14393
851.22	14301
851.355	14233
851.49	14199
851.625	14244
851.76	14240
851.895	14058
852.03	14126
852.165	14176
852.299	14199
852.434	14358
852.569	14309
852.703	14210
852.838	14343
852.973	14423
853.107	14317
853.242	14142
853.376	14126
853.511	13955
853.645	14043
853.78	14271
853.914	14153
854.048	14081
854.183	13997
854.317	14138
854.451	14351
854.585	14035
854.72	14069
854.854	14103
854.988	14020
855.122	14115
855.256	13978
855.39	14107
855.524	14134
855.658	14149
855.792	14119
855.926	14172
856.06	14298
856.194	14263
856.327	14149
856.461	14050
856.595	14062
856.729	14096
856.862	14317
856.996	14126
857.13	14180
857.263	14168
857.397	14206
857.53	14084
857.664	14176
857.797	14237
857.931	14229
858.064	14142
858.197	14183
858.331	14107
858.464	14054
858.597	14001
858.731	14134
858.864	14100
858.997	14153
859.13	14103
859.263	14107
859.396	14172
859.529	14088
859.662	14088
859.795	14012
859.928	14134
860.061	14339
860.194	14286
860.327	14134
860.46	14115
860.592	14176
860.725	14183
860.858	14221
860.99	13993
861.123	14024
861.256	14035
861.388	14115
861.521	14982
861.653	13986
861.786	13963
861.918	14016
862.05	14031
862.183	14050
862.315	14107
862.447	14130
862.58	14100
862.712	13982
862.844	13879
862.976	13963
863.108	13974
863.24	14427
863.372	13864
863.504	13982
863.636	13921
863.768	13993
863.9	13841
864.032	13856
864.164	13860
864.296	13917
864.428	13993
864.559	14062
864.691	13963
864.823	13940
864.954	13913
865.086	13936
865.217	13906
865.349	13814
865.48	13852
865.612	13822
865.743	13989
865.875	14005
866.006	13826
866.137	13940
866.269	13875
866.4	13936
866.531	13772
866.662	13818
866.793	13833
866.924	13814
867.055	13974
867.186	13890
867.317	13875
867.448	13753
867.579	13807
867.71	13856
867.841	13833
867.972	13871
868.103	13879
868.233	13925
868.364	13879
868.495	13947
868.625	14164
868.756	14221
868.886	13993
869.017	14172
869.147	14240
869.278	14199
869.408	14054
869.539	14126
869.669	14282
869.799	14218
869.929	14271
870.06	14339
870.19	14442
870.32	14499
870.45	14473
870.58	14518
870.71	14708
870.84	14583
870.97	14575
871.1	14492
871.23	14743
871.36	14796
871.489	14636
871.619	14678
871.749	14750
871.879	14800
872.008	14956
872.138	14823
872.267	14792
872.397	14670
872.526	14564
872.656	14533
872.785	14568
872.915	14868
873.044	14891
873.173	14758
873.303	14762
873.432	14834
873.561	14948
873.69	14800
873.819	14743
873.948	14811
874.077	14823
874.206	14693
874.335	14918
874.464	14868
874.593	15119
874.722	15051
874.851	15108
874.979	15146
875.108	15039
875.237	15051
875.365	14883
875.494	15180
875.623	15188
875.751	15097
875.88	15184
876.008	15260
876.136	15408
876.265	15534
876.393	15705
876.521	15606
876.65	15564
876.778	15507
876.906	15538
877.034	15439
877.162	15591
877.29	15466
877.418	15584
877.546	15488
877.674	15557
877.802	15500
877.93	15614
878.058	15603
878.185	15382
878.313	15504
878.441	15454
878.568	15363
878.696	15439
878.824	15542
878.951	15633
879.079	15675
879.206	15816
879.333	15728
879.461	15530
879.588	15606
879.715	15785
879.842	15884
879.97	15542
880.097	15363
880.224	15412
880.351	15355
880.478	15412
880.605	15355
880.732	15363
880.859	15614
880.986	15397
881.112	15439
881.239	15283
881.366	15180
881.493	15047
881.619	15043
881.746	15028
881.872	14944
881.999	15081
882.125	15009
882.252	15138
882.378	15081
882.505	15173
882.631	14944
882.757	14845
882.883	14937
883.01	14849
883.136	14819
883.262	14636
883.388	14727
883.514	14853
883.64	14857
883.766	14777
883.892	14648
884.018	14769
884.143	14880
884.269	15009
884.395	14526
884.52	14533
884.646	14545
884.772	14518
884.897	14507
885.023	14621
885.148	14602
885.274	14701
885.399	14640
885.524	14499
885.65	14564
885.775	14629
885.9	14606
886.025	14712
886.15	14488
886.275	14541
886.4	14404
886.525	14446
886.65	14537
886.775	14530
886.9	14697
887.025	14746
887.149	14606
887.274	14419
887.399	14374
887.523	14324
887.648	14294
887.773	14309
887.897	14446
888.021	14492
888.146	14393
888.27	14423
888.395	14537
888.519	14427
888.643	14431
888.767	14412
888.891	14328
889.015	14282
889.139	14309
889.263	14252
889.387	14328
889.511	14385
889.635	14377
889.759	14115
889.883	14248
890.006	14206
890.13	14381
890.254	14210
890.377	14237
890.501	14058
890.624	13982
890.748	14218
890.871	14058
890.995	13898
891.118	13868
891.241	13959
891.364	13917
891.488	14096
891.611	13989
891.734	14001
891.857	14027
891.98	13955
892.103	14043
892.226	13993
892.349	13944
892.471	13837
892.594	13955
892.717	14008
892.839	13860
892.962	13932
893.085	13997
893.207	14008
893.33	13871
893.452	13921
893.575	14016
893.697	13864
893.819	14100
893.941	14145
894.064	14134
894.186	13890
894.308	13913
894.43	14157
894.552	14161
894.674	13974
894.796	14008
894.918	13959
895.04	14050
895.161	14058
895.283	14130
895.405	13944
895.526	14088
895.648	14043
895.769	14088
895.891	14191
896.012	14218
896.134	14214
896.255	14130
896.376	14096
896.498	14077
896.619	14195
896.74	14062
896.861	14195
896.982	14526
897.103	14670
897.224	14522
897.345	14404
897.466	14267
897.587	14419
897.708	14583
897.828	14507
897.949	14336
898.07	14256
898.19	14393
898.311	14594
898.431	14454
898.552	14511
898.672	14511
898.792	14579
898.913	14549
899.033	14374
899.153	14389
899.273	14202
899.393	14408
899.513	14320
899.633	14294
899.753	14332
899.873	14229
899.993	14362
900.113	14183
900.232	14370
900.352	14324
900.472	14225
900.591	14233
900.711	14187
900.83	14142
900.95	14218
901.069	14362
901.189	14027
901.308	13955
901.427	13845
901.546	13811
901.665	13917
901.784	13921
901.904	13689
902.023	13712
902.141	13480
902.26	13476
902.379	13525
902.498	13430
902.617	13403
902.735	13438
902.854	13499
902.973	13369
903.091	13190
903.21	13251
903.328	13152
903.446	13019
903.565	13190
903.683	13080
903.801	12928
903.919	12932
904.038	12920
904.156	12798
904.274	12985
904.392	12810
904.51	12791
904.627	12833
904.745	12867
904.863	12871
904.981	12722
905.098	12616
905.216	12513
905.334	12589
905.451	12490
905.569	12498
905.686	12627
905.803	12555
905.921	12338
906.038	12486
906.155	12281
906.272	12201
906.389	12232
906.506	12072
906.623	12110
906.74	12083
906.857	12106
906.974	12076
907.091	12220
907.208	12319
907.324	12079
907.441	12034
907.557	11980
907.674	11908
907.79	11847
907.907	11851
908.023	11904
908.139	11878
908.256	11843
908.372	11733
908.488	11794
908.604	11657
908.72	11638
908.836	11642
908.952	11680
909.068	11619
909.184	11817
909.3	11657
909.415	11726
909.531	11680
909.647	11398
909.762	11440
909.878	11379
909.993	11448
910.108	11387
910.224	11372
910.339	11433
910.454	11315
910.57	11288
910.685	11311
910.8	11551
910.915	11410
911.03	11265
911.145	11140
911.259	11094
911.374	11083
911.489	11064
911.604	11010
911.718	10911
911.833	10862
911.947	10839
912.062	10694
912.176	10854
912.291	10900
912.405	10866
912.519	11105
912.633	11075
912.748	10934
912.862	10927
912.976	10812
913.09	10656
913.204	10717
913.318	10763
913.431	10843
913.545	10778
913.659	10892
913.772	10744
913.886	10733
914	10603
914.113	10668
914.226	10847
914.34	10694
914.453	10558
914.566	10653
914.68	10546
914.793	10546
914.906	10459
915.019	10322
915.132	10333
915.245	10409
915.358	10432
915.47	10371
915.583	10466
915.696	10455
915.809	10508
915.921	10588
916.034	10348
916.146	10291
916.259	10352
916.371	10459
916.483	10375
916.595	10348
916.708	10329
916.82	10284
916.932	10227
917.044	10291
917.156	10337
917.268	10230
917.38	10196
917.491	10181
917.603	10215
917.715	10360
917.826	10276
917.938	10253
918.049	10150
918.161	10227
918.272	10417
918.384	10333
918.495	10200
918.606	10185
918.717	9987
918.828	10131
918.939	10093
919.05	10086
919.161	10150
919.272	9884
919.383	10013
919.494	10147
919.604	10333
919.715	10082
919.826	10074
919.936	10116
920.047	10230
920.157	10101
920.267	10333
920.378	10112
920.488	10124
920.598	10280
920.708	10386
920.818	10284
920.928	10363
921.038	10493
921.148	10424
921.258	10181
921.368	10112
921.477	10025
921.587	9972
921.697	9892
921.806	9972
921.916	9892
922.025	9713
922.134	9682
922.244	9648
922.353	9705
922.462	9625
922.571	9511
922.68	9374
922.789	9389
922.898	9389
923.007	9363
923.116	9405
923.224	9351
923.333	9355
923.442	9245
923.55	9283
923.659	9367
923.767	9367
923.876	9226
923.984	9317
924.092	9195
924.201	9241
924.309	9192
924.417	9135
924.525	9233
924.633	9123
924.741	9903
924.849	9001
924.956	9222
925.064	8986
925.172	8925
925.279	9013
925.387	8975
925.494	9070
925.602	9188
925.709	9097
925.816	9024
925.924	9070
926.031	9074
926.138	9043
926.245	9089
926.352	9001
926.459	9104
926.566	9119
926.673	9009
926.779	8906
926.886	8891
926.993	8769
927.099	8762
927.206	8693
927.312	8743
927.419	8800
927.525	8739
927.631	8823
927.737	8648
927.843	8655
927.95	8583
928.056	8606
928.162	8686
928.267	8705
928.373	9211
928.479	8811
928.585	8545
928.69	8590
928.796	8682
928.901	8579
929.007	8473
929.112	8587
929.218	8514
929.323	8530
929.428	8454
929.533	8636
929.638	8408
929.743	8442
929.848	8549
929.953	8450
930.058	8400
930.163	8229
930.267	8221
930.372	8408
930.477	8237
930.581	8522
930.685	8290
930.79	8221
930.894	8206
930.998	8183
931.103	8351
931.207	7982
931.311	7917
931.415	7822
931.519	7689
931.623	7658
