Data from test_V78500241_483.txt Node
Date: Fri Mar 25 14:37:04 CST 2022
User: usil
Spectrometer: V785-0024
Trigger mode: 0
Integration Time (sec): 4.000000E-1
Scans to average: 1
Nonlinearity correction enabled: false
Boxcar width: 0
Storing dark spectrum: false
XAxis mode: Wavelengths
Number of Pixels in Spectrum: 1024
>>>>>Begin Spectral Data<<<<<
801.071	26453
801.214	26389
801.356	26145
801.499	26073
801.641	26077
801.783	26062
801.926	25986
802.068	25951
802.211	25826
802.353	25677
802.496	25506
802.638	25537
802.78	25582
802.923	25499
803.065	25282
803.208	25514
803.35	25407
803.492	25464
803.635	25616
803.777	25472
803.919	25696
804.061	25704
804.204	25518
804.346	25605
804.488	25365
804.63	25346
804.773	25327
804.915	25575
805.057	25438
805.199	25460
805.341	25586
805.483	25597
805.626	25438
805.768	25457
805.91	25422
806.052	25453
806.194	25453
806.336	25502
806.478	25540
806.62	25483
806.762	25533
806.904	25769
807.046	26115
807.188	25860
807.33	25856
807.472	25966
807.614	25932
807.756	25799
807.898	25658
808.04	25586
808.182	25666
808.324	25757
808.465	25761
808.607	26107
808.749	26149
808.891	26267
809.033	26328
809.174	26088
809.316	26069
809.458	26016
809.6	26039
809.741	26039
809.883	26054
810.025	26164
810.166	26320
810.308	26199
810.45	26142
810.591	26092
810.733	25818
810.875	25761
811.016	25666
811.158	25715
811.299	25830
811.441	25955
811.582	25898
811.724	25742
811.865	25772
812.007	25879
812.148	25685
812.29	25883
812.431	25917
812.573	26180
812.714	26122
812.855	26377
812.997	26267
813.138	26530
813.279	26370
813.421	26180
813.562	26263
813.703	26111
813.845	25982
813.986	25628
814.127	25578
814.268	25297
814.41	25362
814.551	25304
814.692	25407
814.833	25346
814.974	25274
815.115	25304
815.256	25171
815.397	25088
815.539	25137
815.68	25156
815.821	25034
815.962	25110
816.103	24958
816.244	24901
816.385	24810
816.526	24654
816.666	24574
816.807	24593
816.948	24578
817.089	24688
817.23	24483
817.371	24467
817.512	24395
817.653	24505
817.793	24391
817.934	24330
818.075	24380
818.216	24498
818.356	24353
818.497	24346
818.638	24091
818.778	24258
818.919	24022
819.06	24121
819.2	24346
819.341	24353
819.481	24338
819.622	24388
819.762	24597
819.903	24551
820.043	24578
820.184	24494
820.324	24528
820.465	24570
820.605	24369
820.746	24410
820.886	24338
821.026	24372
821.167	24224
821.307	24418
821.447	24273
821.588	24178
821.728	24209
821.868	23927
822.008	23805
822.149	23714
822.289	23889
822.429	23638
822.569	23368
822.709	23414
822.849	23326
822.99	23235
823.13	23197
823.27	23280
823.41	23071
823.55	23018
823.69	23052
823.83	23113
823.97	22946
824.11	22801
824.25	22710
824.389	22835
824.529	22793
824.669	22759
824.809	22930
824.949	22885
825.089	22790
825.228	22748
825.368	22622
825.508	22599
825.648	22588
825.787	22512
825.927	22717
826.067	22615
826.206	22584
826.346	22592
826.485	22710
826.625	22504
826.765	22660
826.904	22584
827.044	22276
827.183	22287
827.323	22440
827.462	22268
827.601	22188
827.741	22367
827.88	22276
828.02	22120
828.159	22219
828.298	22299
828.437	22253
828.577	22101
828.716	22303
828.855	22169
828.994	21960
829.134	21983
829.273	22105
829.412	21930
829.551	21800
829.69	21964
829.829	21907
829.968	22051
830.107	22036
830.246	21956
830.385	21907
830.524	21781
830.663	21747
830.802	21576
830.941	21549
831.08	21526
831.219	21671
831.357	21663
831.496	21694
831.635	21553
831.774	21374
831.913	21351
832.051	21363
832.19	21272
832.329	21291
832.467	21268
832.606	21104
832.744	21070
832.883	21211
833.022	21237
833.16	21165
833.299	21180
833.437	21135
833.576	21154
833.714	21237
833.852	21313
833.991	21199
834.129	21359
834.267	21310
834.406	21176
834.544	21176
834.682	21214
834.821	21043
834.959	21363
835.097	21108
835.235	21237
835.373	21237
835.511	21199
835.65	20971
835.788	21051
835.926	20830
836.064	20861
836.202	20941
836.34	21119
836.478	21100
836.615	21055
836.753	21055
836.891	21108
837.029	21047
837.167	20971
837.305	20906
837.443	20887
837.58	20895
837.718	20918
837.856	20933
837.993	20941
838.131	20899
838.269	20785
838.406	20705
838.544	20785
838.681	20617
838.819	20545
838.956	20374
839.094	20362
839.231	20343
839.369	20492
839.506	20651
839.643	20613
839.781	20396
839.918	20103
840.055	20389
840.193	20278
840.33	20233
840.467	20366
840.604	20385
840.742	20518
840.879	20081
841.016	20164
841.153	20107
841.29	20351
841.427	20168
841.564	20328
841.701	20172
841.838	20111
841.975	20065
842.112	20275
842.249	20062
842.385	20001
842.522	20210
842.659	19944
842.796	19928
842.933	19959
843.069	19936
843.206	19879
843.343	20069
843.479	19894
843.616	19963
843.752	19738
843.889	19788
844.025	19734
844.162	19738
844.298	19799
844.435	19769
844.571	19677
844.708	19731
844.844	19936
844.98	19902
845.117	19807
845.253	19677
845.389	19643
845.525	19731
845.661	19620
845.798	19689
845.934	19761
846.07	19620
846.206	19681
846.342	19780
846.478	19552
846.614	19381
846.75	19259
846.886	19194
847.022	19285
847.158	19251
847.294	19232
847.429	19171
847.565	19133
847.701	19365
847.837	18901
847.972	18966
848.108	19012
848.244	18985
848.379	18894
848.515	18741
848.65	18696
848.786	18703
848.921	18848
849.057	18871
849.192	18844
849.328	18859
849.463	18795
849.598	18703
849.734	18692
849.869	18608
850.004	18540
850.14	18509
850.275	18544
850.41	18456
850.545	18566
850.68	18498
850.815	18418
850.95	18532
851.085	18582
851.22	18544
851.355	18525
851.49	18479
851.625	18464
851.76	18380
851.895	18372
852.03	18429
852.165	18376
852.299	18456
852.434	18517
852.569	18437
852.703	18433
852.838	18506
852.973	18646
853.107	18578
853.242	18433
853.376	18376
853.511	18224
853.645	18361
853.78	18353
853.914	18399
854.048	18342
854.183	18296
854.317	18304
854.451	18467
854.585	18357
854.72	18232
854.854	18285
854.988	18258
855.122	18285
855.256	18232
855.39	18300
855.524	18327
855.658	18391
855.792	18296
855.926	18395
856.06	18281
856.194	18384
856.327	18323
856.461	18258
856.595	18178
856.729	18247
856.862	18369
856.996	18266
857.13	18384
857.263	18399
857.397	18456
857.53	18304
857.664	18289
857.797	18479
857.931	18414
858.064	18311
858.197	18361
858.331	18254
858.464	18304
858.597	18136
858.731	18140
858.864	18186
858.997	18194
859.13	18262
859.263	18342
859.396	18353
859.529	18251
859.662	18304
859.795	18289
859.928	18315
860.061	18418
860.194	18429
860.327	18182
860.46	18342
860.592	18388
860.725	18357
860.858	18376
860.99	18178
861.123	18129
861.256	18296
861.388	18292
861.521	18863
861.653	18114
861.786	18034
861.918	17977
862.05	18232
862.183	18220
862.315	18342
862.447	18296
862.58	18342
862.712	18087
862.844	18083
862.976	18049
863.108	18057
863.24	18384
863.372	17908
863.504	17988
863.636	17893
863.768	18091
863.9	17999
864.032	17939
864.164	17916
864.296	18106
864.428	18060
864.559	18022
864.691	17965
864.823	17988
864.954	17878
865.086	17988
865.217	17897
865.349	17908
865.48	17840
865.612	17813
865.743	18030
865.875	17851
866.006	17870
866.137	18011
866.269	17893
866.4	17882
866.531	17927
866.662	17798
866.793	17783
866.924	17878
867.055	17824
867.186	17874
867.317	17885
867.448	17737
867.579	17946
867.71	17813
867.841	17752
867.972	17882
868.103	17855
868.233	17828
868.364	17954
868.495	17946
868.625	18034
868.756	18098
868.886	17977
869.017	17939
869.147	18186
869.278	18213
869.408	18148
869.539	18022
869.669	18117
869.799	18091
869.929	18140
870.06	18190
870.19	18380
870.32	18395
870.45	18395
870.58	18403
870.71	18490
870.84	18608
870.97	18528
871.1	18456
871.23	18593
871.36	18616
871.489	18540
871.619	18734
871.749	18688
871.879	18787
872.008	18783
872.138	18745
872.267	18673
872.397	18578
872.526	18540
872.656	18460
872.785	18502
872.915	18745
873.044	18856
873.173	18715
873.303	18700
873.432	18711
873.561	18848
873.69	18814
873.819	18703
873.948	18768
874.077	18745
874.206	18639
874.335	18749
874.464	18787
874.593	18897
874.722	18932
874.851	19000
874.979	19034
875.108	19004
875.237	19015
875.365	18916
875.494	19004
875.623	19031
875.751	18947
875.88	19107
876.008	19122
876.136	19209
876.265	19464
876.393	19613
876.521	19388
876.65	19468
876.778	19346
876.906	19419
877.034	19327
877.162	19377
877.29	19285
877.418	19354
877.546	19400
877.674	19472
877.802	19293
877.93	19369
878.058	19365
878.185	19240
878.313	19255
878.441	19362
878.568	19171
878.696	19362
878.824	19491
878.951	19518
879.079	19540
879.206	19719
879.333	19696
879.461	19403
879.588	19563
879.715	19681
879.842	19761
879.97	19556
880.097	19270
880.224	19266
880.351	19187
880.478	19293
880.605	19240
880.732	19297
880.859	19457
880.986	19293
881.112	19240
881.239	19171
881.366	18977
881.493	18913
881.619	18829
881.746	18894
881.872	19061
881.999	18821
882.125	18802
882.252	18837
882.378	18852
882.505	19027
882.631	18700
882.757	18722
882.883	18673
883.01	18692
883.136	18551
883.262	18517
883.388	18399
883.514	18654
883.64	18798
883.766	18604
883.892	18350
884.018	18414
884.143	18540
884.269	18661
884.395	18414
884.52	18311
884.646	18266
884.772	18254
884.897	18197
885.023	18228
885.148	18350
885.274	18460
885.399	18365
885.524	18330
885.65	18380
885.775	18262
885.9	18323
886.025	18338
886.15	18365
886.275	18239
886.4	18144
886.525	18197
886.65	18182
886.775	18178
886.9	18376
887.025	18547
887.149	18247
887.274	18041
887.399	18114
887.523	18083
887.648	18026
887.773	17939
887.897	18034
888.021	18129
888.146	17942
888.27	18182
888.395	18121
888.519	18057
888.643	18060
888.767	18057
888.891	17950
889.015	17851
889.139	17878
889.263	17851
889.387	17992
889.511	17893
889.635	18003
889.759	17901
889.883	17783
890.006	17935
890.13	17889
890.254	17729
890.377	17836
890.501	17562
890.624	17558
890.748	17627
890.871	17535
890.995	17455
891.118	17383
891.241	17497
891.364	17410
891.488	17592
891.611	17425
891.734	17471
891.857	17520
891.98	17482
892.103	17535
892.226	17520
892.349	17383
892.471	17425
892.594	17455
892.717	17379
892.839	17448
892.962	17360
893.085	17490
893.207	17554
893.33	17326
893.452	17368
893.575	17444
893.697	17353
893.819	17577
893.941	17592
894.064	17611
894.186	17379
894.308	17356
894.43	17532
894.552	17608
894.674	17516
894.796	17326
894.918	17349
895.04	17364
895.161	17547
895.283	17478
895.405	17414
895.526	17364
895.648	17379
895.769	17505
895.891	17520
896.012	17524
896.134	17729
896.255	17512
896.376	17383
896.498	17509
896.619	17554
896.74	17528
896.861	17649
896.982	17809
897.103	17980
897.224	17832
897.345	17657
897.466	17767
897.587	17809
897.708	17859
897.828	17889
897.949	17687
898.07	17627
898.19	17691
898.311	17798
898.431	17699
898.552	17760
898.672	17741
898.792	17824
898.913	17874
899.033	17661
899.153	17627
899.273	17387
899.393	17600
899.513	17474
899.633	17455
899.753	17619
899.873	17539
899.993	17482
900.113	17410
900.232	17600
900.352	17474
900.472	17387
900.591	17258
900.711	17376
900.83	17341
900.95	17421
901.069	17509
901.189	17265
901.308	17071
901.427	16915
901.546	16999
901.665	16968
901.784	17109
901.904	16968
902.023	16850
902.141	16519
902.26	16554
902.379	16603
902.498	16538
902.617	16489
902.735	16531
902.854	16531
902.973	16417
903.091	16223
903.21	16120
903.328	16162
903.446	16185
903.565	16017
903.683	16063
903.801	15857
903.919	16063
904.038	15956
904.156	15838
904.274	15918
904.392	15831
904.51	15789
904.627	15732
904.745	15804
904.863	15831
904.981	15625
905.098	15447
905.216	15458
905.334	15587
905.451	15485
905.569	15481
905.686	15458
905.803	15580
905.921	15416
906.038	15382
906.155	15359
906.272	15195
906.389	15230
906.506	15036
906.623	15074
906.74	15058
906.857	14849
906.974	14986
907.091	15157
907.208	15157
907.324	15013
907.441	14960
907.557	14720
907.674	14689
907.79	14644
907.907	14621
908.023	14819
908.139	14727
908.256	14682
908.372	14655
908.488	14587
908.604	14473
908.72	14427
908.836	14507
908.952	14408
909.068	14446
909.184	14469
909.3	14454
909.415	14511
909.531	14473
909.647	14168
909.762	14145
909.878	14153
909.993	14221
910.108	14130
910.224	14126
910.339	14138
910.454	13997
910.57	13970
910.685	13974
910.8	14275
910.915	14168
911.03	13963
911.145	13818
911.259	13788
911.374	13753
911.489	13670
911.604	13696
911.718	13529
911.833	13552
911.947	13422
912.062	13320
912.176	13457
912.291	13571
912.405	13510
912.519	13772
912.633	13769
912.748	13510
912.862	13552
912.976	13457
913.09	13308
913.204	13289
913.318	13358
913.431	13445
913.545	13483
913.659	13491
913.772	13373
913.886	13263
914	13209
914.113	13362
914.226	13289
914.34	13346
914.453	13107
914.566	13335
914.68	13152
914.793	13126
914.906	12951
915.019	12878
915.132	12825
915.245	12863
915.358	12867
915.47	12867
915.583	12920
915.696	12924
915.809	13076
915.921	13050
916.034	12863
916.146	12806
916.259	12798
916.371	12920
916.483	12882
916.595	12844
916.708	12730
916.82	12715
916.932	12776
917.044	12810
917.156	12753
917.268	12555
917.38	12658
917.491	12608
917.603	12536
917.715	12677
917.826	12757
917.938	12601
918.049	12426
918.161	12616
918.272	12681
918.384	12753
918.495	12574
918.606	12475
918.717	12376
918.828	12486
918.939	12456
919.05	12338
919.161	12410
919.272	12197
919.383	12251
919.494	12445
919.604	12582
919.715	12388
919.826	12407
919.936	12407
920.047	12502
920.157	12403
920.267	12555
920.378	12399
920.488	12395
920.598	12597
920.708	12650
920.818	12513
920.928	12559
921.038	12684
921.148	12665
921.258	12483
921.368	12372
921.477	12182
921.587	12163
921.697	12045
921.806	12235
921.916	12095
922.025	11893
922.134	11939
922.244	11798
922.353	11866
922.462	11737
922.571	11665
922.68	11490
922.789	11429
922.898	11520
923.007	11463
923.116	11493
923.224	11471
923.333	11459
923.442	11326
923.55	11326
923.659	11337
923.767	11417
923.876	11280
923.984	11459
924.092	11280
924.201	11334
924.309	11349
924.417	11261
924.525	11178
924.633	11273
924.741	12171
924.849	11056
924.956	11193
925.064	11060
925.172	10927
925.279	10942
925.387	11014
925.494	11022
925.602	11064
925.709	11166
925.816	11014
925.924	11052
926.031	11094
926.138	10984
926.245	11025
926.352	11014
926.459	11098
926.566	11124
926.673	10923
926.779	10755
926.886	10896
926.993	10752
927.099	10672
927.206	10641
927.312	10611
927.419	10664
927.525	10687
927.631	10660
927.737	10569
927.843	10531
927.95	10481
928.056	10577
928.162	10592
928.267	10596
928.373	11159
928.479	10656
928.585	10337
928.69	10519
928.796	10599
928.901	10512
929.007	10299
929.112	10474
929.218	10352
929.323	10303
929.428	10242
929.533	10398
929.638	10135
929.743	10150
929.848	10265
929.953	10249
930.058	10181
930.163	10055
930.267	10010
930.372	10166
930.477	9968
930.581	10234
930.685	10086
930.79	9922
930.894	9941
930.998	9953
931.103	10029
931.207	9656
931.311	9660
931.415	9564
931.519	9344
931.623	9351
