Data from test_V78500241_400.txt Node
Date: Fri Mar 25 14:36:30 CST 2022
User: usil
Spectrometer: V785-0024
Trigger mode: 0
Integration Time (sec): 4.000000E-1
Scans to average: 1
Nonlinearity correction enabled: false
Boxcar width: 0
Storing dark spectrum: false
XAxis mode: Wavelengths
Number of Pixels in Spectrum: 1024
>>>>>Begin Spectral Data<<<<<
801.071	26636
801.214	26575
801.356	26431
801.499	26195
801.641	26339
801.783	26100
801.926	26122
802.068	25951
802.211	25955
802.353	25951
802.496	25822
802.638	25772
802.78	25704
802.923	25594
803.065	25605
803.208	25533
803.35	25616
803.492	25685
803.635	25871
803.777	25700
803.919	25700
804.061	25978
804.204	25761
804.346	25556
804.488	25666
804.63	25601
804.773	25499
804.915	25712
805.057	25670
805.199	25651
805.341	25685
805.483	25761
805.626	25727
805.768	25575
805.91	25605
806.052	25601
806.194	25559
806.336	25765
806.478	25746
806.62	25544
806.762	25769
806.904	26016
807.046	26096
807.188	25997
807.33	26142
807.472	26069
807.614	25909
807.756	25997
807.898	25753
808.04	25734
808.182	25731
808.324	25849
808.465	25852
808.607	26100
808.749	26126
808.891	26172
809.033	26427
809.174	26351
809.316	26130
809.458	26062
809.6	26062
809.741	26294
809.883	26195
810.025	26290
810.166	26408
810.308	26339
810.45	26240
810.591	26168
810.733	26122
810.875	26043
811.016	25909
811.158	25833
811.299	26065
811.441	26195
811.582	26065
811.724	26005
811.865	25986
812.007	25951
812.148	26012
812.29	25944
812.431	26103
812.573	26309
812.714	26374
812.855	26396
812.997	26621
813.138	26655
813.279	26526
813.421	26568
813.562	26415
813.703	26377
813.845	26126
813.986	25894
814.127	25750
814.268	25575
814.41	25639
814.551	25552
814.692	25609
814.833	25365
814.974	25377
815.115	25491
815.256	25274
815.397	25457
815.539	25354
815.68	25274
815.821	25320
815.962	25453
816.103	25453
816.244	25190
816.385	25038
816.526	25076
816.666	24894
816.807	24886
816.948	24768
817.089	24848
817.23	24817
817.371	24764
817.512	24669
817.653	24578
817.793	24631
817.934	24692
818.075	24856
818.216	24707
818.356	24479
818.497	24589
818.638	24311
818.778	24422
818.919	24399
819.06	24330
819.2	24410
819.341	24620
819.481	24646
819.622	24757
819.762	24875
819.903	24810
820.043	24719
820.184	24715
820.324	24692
820.465	24684
820.605	24665
820.746	24760
820.886	24445
821.026	24589
821.167	24486
821.307	24688
821.447	24532
821.588	24475
821.728	24315
821.868	24129
822.008	24068
822.149	23977
822.289	23916
822.429	23809
822.569	23756
822.709	23611
822.849	23528
822.99	23429
823.13	23341
823.27	23482
823.41	23311
823.55	23178
823.69	23212
823.83	23235
823.97	23193
824.11	22946
824.25	22900
824.389	23048
824.529	23128
824.669	23010
824.809	23079
824.949	23083
825.089	23197
825.228	23105
825.368	22782
825.508	22862
825.648	22869
825.787	22927
825.927	22942
826.067	22809
826.206	22885
826.346	22850
826.485	22694
826.625	22908
826.765	22984
826.904	22946
827.044	22546
827.183	22592
827.323	22569
827.462	22599
827.601	22485
827.741	22573
827.88	22527
828.02	22341
828.159	22455
828.298	22440
828.437	22443
828.577	22535
828.716	22630
828.855	22424
828.994	22211
829.134	22207
829.273	22352
829.412	22147
829.551	22116
829.69	22158
829.829	22166
829.968	22147
830.107	22272
830.246	22162
830.385	22109
830.524	21975
830.663	21918
830.802	21960
830.941	21774
831.08	21679
831.219	21781
831.357	21747
831.496	21888
831.635	21751
831.774	21690
831.913	21641
832.051	21462
832.19	21485
832.329	21652
832.467	21370
832.606	21420
832.744	21397
832.883	21382
833.022	21538
833.16	21469
833.299	21401
833.437	21389
833.576	21469
833.714	21458
833.852	21450
833.991	21492
834.129	21530
834.267	21466
834.406	21344
834.544	21420
834.682	21538
834.821	21443
834.959	21583
835.097	21256
835.235	21447
835.373	21378
835.511	21416
835.65	21211
835.788	21237
835.926	21135
836.064	21096
836.202	21055
836.34	21195
836.478	21359
836.615	21310
836.753	21313
836.891	21340
837.029	21241
837.167	21264
837.305	21176
837.443	21165
837.58	21157
837.718	21325
837.856	21070
837.993	21123
838.131	21169
838.269	20990
838.406	20918
838.544	20899
838.681	20842
838.819	20629
838.956	20594
839.094	20537
839.231	20625
839.369	20731
839.506	20872
839.643	20971
839.781	20571
839.918	20579
840.055	20484
840.193	20488
840.33	20461
840.467	20461
840.604	20507
840.742	20587
840.879	20309
841.016	20393
841.153	20320
841.29	20609
841.427	20419
841.564	20530
841.701	20461
841.838	20438
841.975	20374
842.112	20442
842.249	20240
842.385	20214
842.522	20328
842.659	20233
842.796	20168
842.933	20214
843.069	20218
843.206	20176
843.343	20278
843.479	20233
843.616	20134
843.752	19959
843.889	19951
844.025	20142
844.162	19944
844.298	20062
844.435	20012
844.571	19982
844.708	20039
844.844	20073
844.98	20043
845.117	19944
845.253	19830
845.389	19909
845.525	19811
845.661	19856
845.798	19780
845.934	19689
846.07	19757
846.206	19769
846.342	19875
846.478	19658
846.614	19582
846.75	19396
846.886	19502
847.022	19476
847.158	19499
847.294	19358
847.429	19434
847.565	19285
847.701	19734
847.837	19251
847.972	19156
848.108	19289
848.244	19187
848.379	19015
848.515	18882
848.65	18970
848.786	18985
848.921	18970
849.057	19080
849.192	19099
849.328	18977
849.463	19057
849.598	18905
849.734	18844
849.869	18882
850.004	18783
850.14	18783
850.275	18677
850.41	18566
850.545	18627
850.68	18631
850.815	18665
850.95	18757
851.085	18924
851.22	18726
851.355	18734
851.49	18700
851.625	18608
851.76	18627
851.895	18608
852.03	18532
852.165	18654
852.299	18741
852.434	18878
852.569	18673
852.703	18715
852.838	18741
852.973	18795
853.107	18791
853.242	18604
853.376	18551
853.511	18403
853.645	18498
853.78	18566
853.914	18490
854.048	18563
854.183	18513
854.317	18429
854.451	18738
854.585	18513
854.72	18528
854.854	18597
854.988	18521
855.122	18566
855.256	18452
855.39	18490
855.524	18506
855.658	18509
855.792	18471
855.926	18547
856.06	18513
856.194	18555
856.327	18490
856.461	18467
856.595	18380
856.729	18471
856.862	18544
856.996	18509
857.13	18578
857.263	18593
857.397	18578
857.53	18521
857.664	18566
857.797	18620
857.931	18555
858.064	18509
858.197	18627
858.331	18353
858.464	18479
858.597	18300
858.731	18384
858.864	18441
858.997	18407
859.13	18551
859.263	18547
859.396	18448
859.529	18486
859.662	18460
859.795	18429
859.928	18498
860.061	18589
860.194	18684
860.327	18547
860.46	18357
860.592	18429
860.725	18574
860.858	18555
860.99	18361
861.123	18365
861.256	18399
861.388	18365
861.521	19171
861.653	18361
861.786	18270
861.918	18361
862.05	18418
862.183	18456
862.315	18555
862.447	18540
862.58	18433
862.712	18232
862.844	18174
862.976	18232
863.108	18315
863.24	18585
863.372	18091
863.504	18186
863.636	18068
863.768	18194
863.9	18197
864.032	18106
864.164	18102
864.296	18262
864.428	18186
864.559	18251
864.691	18289
864.823	18205
864.954	18163
865.086	18186
865.217	18148
865.349	18049
865.48	18159
865.612	18114
865.743	18311
865.875	18148
866.006	18129
866.137	18148
866.269	18171
866.4	18091
866.531	18030
866.662	18038
866.793	18076
866.924	18030
867.055	18159
867.186	18087
867.317	17969
867.448	17958
867.579	18015
867.71	17954
867.841	17950
867.972	18098
868.103	18060
868.233	18072
868.364	18098
868.495	18072
868.625	18247
868.756	18285
868.886	18136
869.017	18315
869.147	18369
869.278	18350
869.408	18220
869.539	18235
869.669	18258
869.799	18342
869.929	18330
870.06	18357
870.19	18563
870.32	18620
870.45	18506
870.58	18738
870.71	18722
870.84	18837
870.97	18631
871.1	18578
871.23	18814
871.36	18890
871.489	18745
871.619	18734
871.749	18829
871.879	18943
872.008	18954
872.138	18905
872.267	18806
872.397	18772
872.526	18700
872.656	18703
872.785	18734
872.915	18806
873.044	18958
873.173	18905
873.303	18924
873.432	18943
873.561	18954
873.69	18795
873.819	18787
873.948	19000
874.077	19084
874.206	18882
874.335	18924
874.464	18935
874.593	19091
874.722	19137
874.851	19145
874.979	19278
875.108	19247
875.237	19122
875.365	19046
875.494	19266
875.623	19190
875.751	19206
875.88	19168
876.008	19441
876.136	19449
876.265	19670
876.393	19799
876.521	19639
876.65	19624
876.778	19563
876.906	19430
877.034	19502
877.162	19635
877.29	19605
877.418	19647
877.546	19609
877.674	19616
877.802	19552
877.93	19483
878.058	19548
878.185	19396
878.313	19548
878.441	19525
878.568	19480
878.696	19651
878.824	19670
878.951	19693
879.079	19814
879.206	20012
879.333	19738
879.461	19666
879.588	19883
879.715	19883
879.842	19993
879.97	19746
880.097	19419
880.224	19388
880.351	19510
880.478	19438
880.605	19449
880.732	19343
880.859	19689
880.986	19415
881.112	19495
881.239	19324
881.366	19160
881.493	19038
881.619	19168
881.746	19198
881.872	19095
881.999	18981
882.125	19160
882.252	19046
882.378	19080
882.505	19206
882.631	18996
882.757	18867
882.883	18924
883.01	18852
883.136	18776
883.262	18631
883.388	18722
883.514	18806
883.64	18943
883.766	18863
883.892	18650
884.018	18673
884.143	18901
884.269	18935
884.395	18578
884.52	18498
884.646	18559
884.772	18311
884.897	18448
885.023	18471
885.148	18642
885.274	18642
885.399	18620
885.524	18528
885.65	18448
885.775	18494
885.9	18509
886.025	18467
886.15	18593
886.275	18483
886.4	18346
886.525	18513
886.65	18338
886.775	18388
886.9	18574
887.025	18646
887.149	18452
887.274	18319
887.399	18213
887.523	18205
887.648	18140
887.773	18197
887.897	18350
888.021	18254
888.146	18152
888.27	18384
888.395	18399
888.519	18171
888.643	18247
888.767	18262
888.891	18197
889.015	18079
889.139	18095
889.263	18038
889.387	18110
889.511	18277
889.635	18140
889.759	18011
889.883	18038
890.006	18106
890.13	18167
890.254	17946
890.377	18038
890.501	17847
890.624	17779
890.748	17882
890.871	17767
890.995	17611
891.118	17665
891.241	17687
891.364	17657
891.488	17745
891.611	17562
891.734	17714
891.857	17752
891.98	17817
892.103	17855
892.226	17661
892.349	17684
892.471	17425
892.594	17653
892.717	17691
892.839	17608
892.962	17676
893.085	17653
893.207	17649
893.33	17414
893.452	17581
893.575	17745
893.697	17665
893.819	17718
893.941	17859
894.064	17786
894.186	17471
894.308	17490
894.43	17733
894.552	17745
894.674	17695
894.796	17596
894.918	17699
895.04	17562
895.161	17627
895.283	17615
895.405	17543
895.526	17783
895.648	17585
895.769	17707
895.891	17592
896.012	17748
896.134	17748
896.255	17714
896.376	17737
896.498	17611
896.619	17752
896.74	17817
896.861	17809
896.982	18152
897.103	18163
897.224	18015
897.345	18003
897.466	17893
897.587	17866
897.708	18045
897.828	17931
897.949	17863
898.07	17726
898.19	17973
898.311	18026
898.431	17885
898.552	18011
898.672	18083
898.792	18015
898.913	17863
899.033	17904
899.153	17699
899.273	17627
899.393	17703
899.513	17710
899.633	17634
899.753	17646
899.873	17748
899.993	17687
900.113	17558
900.232	17722
900.352	17646
900.472	17615
900.591	17478
900.711	17562
900.83	17554
900.95	17646
901.069	17661
901.189	17474
901.308	17254
901.427	17083
901.546	17162
901.665	17178
901.784	17223
901.904	17170
902.023	16946
902.141	16801
902.26	16672
902.379	16809
902.498	16641
902.617	16596
902.735	16710
902.854	16653
902.973	16558
903.091	16413
903.21	16360
903.328	16447
903.446	16310
903.565	16162
903.683	16246
903.801	16158
903.919	16147
904.038	16128
904.156	15991
904.274	16063
904.392	16029
904.51	16040
904.627	16040
904.745	16032
904.863	15994
904.981	15804
905.098	15610
905.216	15720
905.334	15698
905.451	15610
905.569	15587
905.686	15660
905.803	15622
905.921	15424
906.038	15553
906.155	15481
906.272	15359
906.389	15336
906.506	15161
906.623	15218
906.74	15112
906.857	15127
906.974	15142
907.091	15275
907.208	15393
907.324	15138
907.441	15127
907.557	14880
907.674	14887
907.79	14845
907.907	14845
908.023	14838
908.139	14952
908.256	14826
908.372	14880
908.488	14857
908.604	14659
908.72	14465
908.836	14621
908.952	14438
909.068	14636
909.184	14629
909.3	14579
909.415	14686
909.531	14610
909.647	14366
909.762	14374
909.878	14351
909.993	14309
910.108	14362
910.224	14339
910.339	14298
910.454	14294
910.57	14210
910.685	14088
910.8	14400
910.915	14366
911.03	14214
911.145	14035
911.259	14016
911.374	14027
911.489	13921
911.604	13875
911.718	13677
911.833	13708
911.947	13525
912.062	13506
912.176	13628
912.291	13689
912.405	13746
912.519	13864
912.633	13879
912.748	13738
912.862	13655
912.976	13472
913.09	13476
913.204	13487
913.318	13491
913.431	13639
913.545	13658
913.659	13620
913.772	13487
913.886	13449
914	13362
914.113	13464
914.226	13518
914.34	13407
914.453	13400
914.566	13468
914.68	13247
914.793	13251
914.906	13183
915.019	13084
915.132	12996
915.245	13057
915.358	13080
915.47	13091
915.583	13012
915.696	13122
915.809	13164
915.921	13228
916.034	12962
916.146	12966
916.259	12966
916.371	13053
916.483	12996
916.595	12932
916.708	12939
916.82	12901
916.932	12924
917.044	12848
917.156	12886
917.268	12776
917.38	12802
917.491	12764
917.603	12825
917.715	12867
917.826	12901
917.938	12703
918.049	12604
918.161	12791
918.272	12783
918.384	12863
918.495	12779
918.606	12566
918.717	12517
918.828	12559
918.939	12639
919.05	12437
919.161	12574
919.272	12418
919.383	12414
919.494	12593
919.604	12734
919.715	12570
919.826	12498
919.936	12540
920.047	12601
920.157	12578
920.267	12764
920.378	12528
920.488	12525
920.598	12806
920.708	12833
920.818	12722
920.928	12635
921.038	12776
921.148	12749
921.258	12509
921.368	12376
921.477	12357
921.587	12308
921.697	12171
921.806	12357
921.916	12125
922.025	12057
922.134	12011
922.244	11973
922.353	12015
922.462	11893
922.571	11843
922.68	11680
922.789	11627
922.898	11726
923.007	11592
923.116	11726
923.224	11680
923.333	11649
923.442	11532
923.55	11528
923.659	11497
923.767	11562
923.876	11558
923.984	11516
924.092	11368
924.201	11440
924.309	11440
924.417	11368
924.525	11395
924.633	11410
924.741	12232
924.849	11170
924.956	11368
925.064	11178
925.172	11060
925.279	11239
925.387	11231
925.494	11155
925.602	11299
925.709	11235
925.816	11045
925.924	11109
926.031	11212
926.138	11231
926.245	11128
926.352	11075
926.459	11246
926.566	11231
926.673	11041
926.779	11064
926.886	11041
926.993	10847
927.099	10809
927.206	10755
927.312	10759
927.419	10843
927.525	10736
927.631	10862
927.737	10664
927.843	10637
927.95	10588
928.056	10634
928.162	10656
928.267	10717
928.373	11280
928.479	10687
928.585	10504
928.69	10516
928.796	10706
928.901	10500
929.007	10462
929.112	10588
929.218	10481
929.323	10531
929.428	10322
929.533	10558
929.638	10405
929.743	10325
929.848	10527
929.953	10379
930.058	10246
930.163	10166
930.267	10158
930.372	10272
930.477	10139
930.581	10310
930.685	10230
930.79	10017
930.894	10071
930.998	10010
931.103	10112
931.207	9831
931.311	9667
931.415	9622
931.519	9488
931.623	9408
