Data from test_V78500241_2393.txt Node
Date: Fri Mar 25 14:50:22 CST 2022
User: usil
Spectrometer: V785-0024
Trigger mode: 0
Integration Time (sec): 4.000000E-1
Scans to average: 1
Nonlinearity correction enabled: false
Boxcar width: 0
Storing dark spectrum: false
XAxis mode: Wavelengths
Number of Pixels in Spectrum: 1024
>>>>>Begin Spectral Data<<<<<
801.071	22162
801.214	22029
801.356	21751
801.499	21622
801.641	21511
801.783	21439
801.926	21485
802.068	21447
802.211	21424
802.353	21218
802.496	21154
802.638	21047
802.78	21058
802.923	20918
803.065	20918
803.208	20743
803.35	20891
803.492	20929
803.635	20921
803.777	20819
803.919	20944
804.061	21180
804.204	20986
804.346	20659
804.488	20765
804.63	20823
804.773	20769
804.915	20731
805.057	20868
805.199	20636
805.341	20781
805.483	20811
805.626	20724
805.768	20864
805.91	20724
806.052	20792
806.194	20735
806.336	20883
806.478	20758
806.62	20796
806.762	20845
806.904	20998
807.046	21173
807.188	21024
807.33	21066
807.472	21173
807.614	21032
807.756	20925
807.898	20872
808.04	20815
808.182	20796
808.324	20914
808.465	20868
808.607	21001
808.749	21066
808.891	21211
809.033	21169
809.174	21264
809.316	21096
809.458	21112
809.6	21169
809.741	21294
809.883	21214
810.025	21226
810.166	21336
810.308	21272
810.45	21192
810.591	21237
810.733	21005
810.875	20914
811.016	20826
811.158	20769
811.299	21047
811.441	21013
811.582	21119
811.724	20979
811.865	20986
812.007	20899
812.148	20834
812.29	21001
812.431	21051
812.573	21218
812.714	21351
812.855	21386
812.997	21549
813.138	21618
813.279	21519
813.421	21317
813.562	21408
813.703	21203
813.845	20933
813.986	20746
814.127	20663
814.268	20514
814.41	20674
814.551	20393
814.692	20663
814.833	20328
814.974	20396
815.115	20393
815.256	20358
815.397	20275
815.539	20221
815.68	20214
815.821	20107
815.962	20256
816.103	20145
816.244	20031
816.385	19913
816.526	19997
816.666	19681
816.807	19643
816.948	19765
817.089	19700
817.23	19643
817.371	19567
817.512	19540
817.653	19674
817.793	19529
817.934	19529
818.075	19677
818.216	19693
818.356	19613
818.497	19468
818.638	19312
818.778	19373
818.919	19240
819.06	19320
819.2	19358
819.341	19438
819.481	19544
819.622	19628
819.762	19902
819.903	19693
820.043	19548
820.184	19525
820.324	19582
820.465	19613
820.605	19597
820.746	19499
820.886	19400
821.026	19514
821.167	19537
821.307	19518
821.447	19552
821.588	19415
821.728	19289
821.868	18973
822.008	19008
822.149	18981
822.289	18970
822.429	18692
822.569	18646
822.709	18646
822.849	18597
822.99	18433
823.13	18544
823.27	18353
823.41	18281
823.55	18171
823.69	18270
823.83	18311
823.97	18133
824.11	18022
824.25	18034
824.389	17969
824.529	18136
824.669	18049
824.809	18114
824.949	18163
825.089	18129
825.228	17946
825.368	17885
825.508	17840
825.648	17874
825.787	17939
825.927	17863
826.067	17775
826.206	17714
826.346	17805
826.485	17771
826.625	17790
826.765	17874
826.904	17847
827.044	17558
827.183	17482
827.323	17433
827.462	17638
827.601	17452
827.741	17547
827.88	17459
828.02	17391
828.159	17406
828.298	17516
828.437	17512
828.577	17505
828.716	17630
828.855	17421
828.994	17299
829.134	17383
829.273	17356
829.412	17220
829.551	17132
829.69	17239
829.829	17147
829.968	17303
830.107	17337
830.246	17303
830.385	17170
830.524	17045
830.663	17086
830.802	16972
830.941	16820
831.08	16805
831.219	16942
831.357	17029
831.496	17071
831.635	16835
831.774	16812
831.913	16778
832.051	16584
832.19	16702
832.329	16675
832.467	16497
832.606	16500
832.744	16538
832.883	16538
833.022	16577
833.16	16622
833.299	16516
833.437	16592
833.576	16634
833.714	16675
833.852	16489
833.991	16615
834.129	16649
834.267	16558
834.406	16519
834.544	16634
834.682	16649
834.821	16630
834.959	16771
835.097	16599
835.235	16672
835.373	16603
835.511	16641
835.65	16558
835.788	16596
835.926	16386
836.064	16261
836.202	16242
836.34	16413
836.478	16542
836.615	16424
836.753	16531
836.891	16489
837.029	16470
837.167	16382
837.305	16447
837.443	16360
837.58	16310
837.718	16428
837.856	16325
837.993	16310
838.131	16306
838.269	16322
838.406	16344
838.544	16211
838.681	16128
838.819	16036
838.956	15857
839.094	15968
839.231	15911
839.369	16067
839.506	16303
839.643	16090
839.781	15945
839.918	15835
840.055	15945
840.193	15903
840.33	15869
840.467	15857
840.604	15869
840.742	16185
840.879	15743
841.016	15876
841.153	15789
841.29	16063
841.427	15903
841.564	15888
841.701	15865
841.838	15911
841.975	15816
842.112	15736
842.249	15701
842.385	15698
842.522	15800
842.659	15743
842.796	15675
842.933	15660
843.069	15656
843.206	15507
843.343	15732
843.479	15652
843.616	15739
843.752	15485
843.889	15450
844.025	15736
844.162	15393
844.298	15439
844.435	15462
844.571	15428
844.708	15519
844.844	15606
844.98	15644
845.117	15637
845.253	15519
845.389	15321
845.525	15351
845.661	15317
845.798	15382
845.934	15313
846.07	15317
846.206	15256
846.342	15405
846.478	15173
846.614	15070
846.75	15032
846.886	15062
847.022	15123
847.158	15127
847.294	15017
847.429	15070
847.565	15005
847.701	15264
847.837	14804
847.972	14727
848.108	14804
848.244	14925
848.379	14735
848.515	14610
848.65	14655
848.786	14549
848.921	14610
849.057	14716
849.192	14762
849.328	14667
849.463	14632
849.598	14655
849.734	14613
849.869	14454
850.004	14476
850.14	14495
850.275	14396
850.41	14301
850.545	14275
850.68	14332
850.815	14442
850.95	14415
851.085	14579
851.22	14446
851.355	14377
851.49	14370
851.625	14377
851.76	14339
851.895	14328
852.03	14233
852.165	14358
852.299	14393
852.434	14415
852.569	14469
852.703	14492
852.838	14423
852.973	14476
853.107	14545
853.242	14469
853.376	14294
853.511	14214
853.645	14202
853.78	14343
853.914	14294
854.048	14294
854.183	14313
854.317	14336
854.451	14362
854.585	14206
854.72	14267
854.854	14282
854.988	14214
855.122	14206
855.256	14115
855.39	14301
855.524	14343
855.658	14358
855.792	14385
855.926	14218
856.06	14305
856.194	14339
856.327	14267
856.461	14168
856.595	14176
856.729	14221
856.862	14343
856.996	14393
857.13	14328
857.263	14438
857.397	14320
857.53	14237
857.664	14343
857.797	14332
857.931	14351
858.064	14301
858.197	14278
858.331	14259
858.464	14248
858.597	14149
858.731	14294
858.864	14229
858.997	14221
859.13	14336
859.263	14301
859.396	14317
859.529	14290
859.662	14271
859.795	14229
859.928	14256
860.061	14404
860.194	14385
860.327	14271
860.46	14229
860.592	14374
860.725	14423
860.858	14389
860.99	14252
861.123	14168
861.256	14206
861.388	14248
861.521	14941
861.653	14176
861.786	14065
861.918	14168
862.05	14259
862.183	14195
862.315	14271
862.447	14381
862.58	14168
862.712	14054
862.844	13997
862.976	14153
863.108	14168
863.24	14377
863.372	14039
863.504	14035
863.636	14176
863.768	14039
863.9	14065
864.032	13947
864.164	14005
864.296	14031
864.428	14145
864.559	14176
864.691	14084
864.823	14084
864.954	14134
865.086	14107
865.217	14069
865.349	13921
865.48	14084
865.612	14069
865.743	14111
865.875	14088
866.006	13993
866.137	14077
866.269	14024
866.4	14065
866.531	13936
866.662	13925
866.793	13967
866.924	14058
867.055	14092
867.186	14100
867.317	14046
867.448	13989
867.579	14031
867.71	13890
867.841	13982
867.972	14115
868.103	13902
868.233	13989
868.364	14065
868.495	14065
868.625	14278
868.756	14450
868.886	14240
869.017	14290
869.147	14415
869.278	14492
869.408	14278
869.539	14336
869.669	14374
869.799	14259
869.929	14404
870.06	14412
870.19	14625
870.32	14522
870.45	14537
870.58	14720
870.71	14731
870.84	14762
870.97	14663
871.1	14648
871.23	14754
871.36	14895
871.489	14716
871.619	14849
871.749	14864
871.879	14910
872.008	14963
872.138	14960
872.267	14823
872.397	14746
872.526	14655
872.656	14765
872.785	14693
872.915	14876
873.044	14921
873.173	14899
873.303	15039
873.432	14948
873.561	15024
873.69	14948
873.819	14967
873.948	15017
874.077	14868
874.206	14918
874.335	15001
874.464	14971
874.593	15192
874.722	15184
874.851	15207
874.979	15306
875.108	15378
875.237	15233
875.365	15199
875.494	15127
875.623	15397
875.751	15180
875.88	15245
876.008	15443
876.136	15504
876.265	15637
876.393	15827
876.521	15778
876.65	15717
876.778	15682
876.906	15591
877.034	15618
877.162	15663
877.29	15523
877.418	15667
877.546	15629
877.674	15648
877.802	15728
877.93	15591
878.058	15606
878.185	15610
878.313	15553
878.441	15679
878.568	15504
878.696	15656
878.824	15698
878.951	15873
879.079	15846
879.206	16010
879.333	15827
879.461	15728
879.588	15774
879.715	15819
879.842	15907
879.97	15701
880.097	15622
880.224	15504
880.351	15557
880.478	15511
880.605	15542
880.732	15526
880.859	15732
880.986	15523
881.112	15629
881.239	15443
881.366	15287
881.493	15249
881.619	15157
881.746	15192
881.872	15127
881.999	15188
882.125	15173
882.252	15237
882.378	15230
882.505	15260
882.631	15226
882.757	14971
882.883	15081
883.01	14971
883.136	14876
883.262	14800
883.388	14739
883.514	15089
883.64	15020
883.766	14986
883.892	14788
884.018	14876
884.143	14960
884.269	15104
884.395	14853
884.52	14731
884.646	14663
884.772	14670
884.897	14545
885.023	14754
885.148	14754
885.274	14819
885.399	14807
885.524	14689
885.65	14659
885.775	14640
885.9	14667
886.025	14872
886.15	14765
886.275	14785
886.4	14594
886.525	14697
886.65	14617
886.775	14579
886.9	14750
887.025	14853
887.149	14674
887.274	14655
887.399	14514
887.523	14492
887.648	14568
887.773	14412
887.897	14598
888.021	14590
888.146	14480
888.27	14617
888.395	14716
888.519	14587
888.643	14537
888.767	14621
888.891	14484
889.015	14286
889.139	14438
889.263	14347
889.387	14415
889.511	14598
889.635	14518
889.759	14389
889.883	14320
890.006	14454
890.13	14465
890.254	14237
890.377	14271
890.501	14206
890.624	14248
890.748	14263
890.871	14073
890.995	14096
891.118	14001
891.241	14039
891.364	14054
891.488	14225
891.611	14043
891.734	14126
891.857	14050
891.98	14145
892.103	14210
892.226	14126
892.349	14096
892.471	13986
892.594	13974
892.717	14107
892.839	14096
892.962	14054
893.085	14172
893.207	14100
893.33	13989
893.452	13997
893.575	14199
893.697	14088
893.819	14305
893.941	14259
894.064	14145
894.186	14039
894.308	14024
894.43	14252
894.552	14206
894.674	14218
894.796	14027
894.918	14081
895.04	14123
895.161	14214
895.283	14199
895.405	14161
895.526	14157
895.648	14187
895.769	14278
895.891	14256
896.012	14332
896.134	14294
896.255	14282
896.376	14263
896.498	14252
896.619	14358
896.74	14221
896.861	14332
896.982	14560
897.103	14651
897.224	14560
897.345	14549
897.466	14438
897.587	14541
897.708	14701
897.828	14526
897.949	14518
898.07	14465
898.19	14476
898.311	14632
898.431	14560
898.552	14743
898.672	14693
898.792	14682
898.913	14735
899.033	14518
899.153	14434
899.273	14366
899.393	14476
899.513	14495
899.633	14434
899.753	14587
899.873	14499
899.993	14575
900.113	14476
900.232	14495
900.352	14488
900.472	14396
900.591	14317
900.711	14351
900.83	14252
900.95	14514
901.069	14438
901.189	14248
901.308	14103
901.427	14035
901.546	14119
901.665	13955
901.784	14001
901.904	13868
902.023	13807
902.141	13636
902.26	13552
902.379	13738
902.498	13578
902.617	13453
902.735	13609
902.854	13575
902.973	13540
903.091	13236
903.21	13312
903.328	13377
903.446	13213
903.565	13206
903.683	13183
903.801	13065
903.919	13095
904.038	13103
904.156	12913
904.274	13046
904.392	12935
904.51	12947
904.627	12973
904.745	13031
904.863	13034
904.981	12779
905.098	12585
905.216	12700
905.334	12719
905.451	12631
905.569	12639
905.686	12642
905.803	12700
905.921	12540
906.038	12555
906.155	12506
906.272	12467
906.389	12410
906.506	12334
906.623	12308
906.74	12235
906.857	12076
906.974	12152
907.091	12232
907.208	12433
907.324	12216
907.441	12186
907.557	12030
907.674	11980
907.79	11843
907.907	12030
908.023	12019
908.139	12098
908.256	11901
908.372	11946
908.488	11893
908.604	11767
908.72	11767
908.836	11771
908.952	11718
909.068	11779
909.184	11897
909.3	11790
909.415	11802
909.531	11745
909.647	11615
909.762	11505
909.878	11509
909.993	11516
910.108	11486
910.224	11497
910.339	11467
910.454	11345
910.57	11376
910.685	11265
910.8	11554
910.915	11482
911.03	11356
911.145	11284
911.259	11254
911.374	11185
911.489	11048
911.604	11060
911.718	10942
911.833	10984
911.947	10911
912.062	10790
912.176	10965
912.291	10938
912.405	10968
912.519	11220
912.633	11185
912.748	10968
912.862	10953
912.976	10816
913.09	10660
913.204	10771
913.318	10900
913.431	10908
913.545	10930
913.659	10934
913.772	10858
913.886	10748
914	10793
914.113	10828
914.226	10839
914.34	10850
914.453	10698
914.566	10752
914.68	10679
914.793	10664
914.906	10493
915.019	10462
915.132	10394
915.245	10508
915.358	10523
915.47	10497
915.583	10447
915.696	10523
915.809	10611
915.921	10660
916.034	10535
916.146	10478
916.259	10394
916.371	10474
916.483	10542
916.595	10436
916.708	10405
916.82	10386
916.932	10436
917.044	10352
917.156	10409
917.268	10272
917.38	10306
917.491	10299
917.603	10276
917.715	10348
917.826	10379
917.938	10284
918.049	10211
918.161	10265
918.272	10424
918.384	10447
918.495	10405
918.606	10200
918.717	10078
918.828	10215
918.939	10249
919.05	10188
919.161	10124
919.272	9979
919.383	9975
919.494	10223
919.604	10371
919.715	10249
919.826	10158
919.936	10257
920.047	10325
920.157	10234
920.267	10462
920.378	10249
920.488	10147
920.598	10428
920.708	10554
920.818	10371
920.928	10451
921.038	10531
921.148	10459
921.258	10284
921.368	10158
921.477	10101
921.587	10059
921.697	9991
921.806	10074
921.916	9956
922.025	9812
922.134	9778
922.244	9732
922.353	9812
922.462	9603
922.571	9641
922.68	9443
922.789	9477
922.898	9492
923.007	9374
923.116	9496
923.224	9473
923.333	9504
923.442	9389
923.55	9367
923.659	9313
923.767	9382
923.876	9329
923.984	9450
924.092	9283
924.201	9329
924.309	9363
924.417	9325
924.525	9298
924.633	9325
924.741	9922
924.849	9154
924.956	9253
925.064	9085
925.172	8979
925.279	9169
925.387	9142
925.494	9199
925.602	9211
925.709	9169
925.816	9066
925.924	9119
926.031	9253
926.138	9112
926.245	9123
926.352	9009
926.459	9154
926.566	9150
926.673	9081
926.779	8937
926.886	8967
926.993	8849
927.099	8807
927.206	8785
927.312	8758
927.419	8918
927.525	8853
927.631	8857
927.737	8746
927.843	8708
927.95	8674
928.056	8670
928.162	8758
928.267	8807
928.373	9389
928.479	8838
928.585	8571
928.69	8705
928.796	8792
928.901	8754
929.007	8549
929.112	8667
929.218	8659
929.323	8552
929.428	8556
929.533	8686
929.638	8522
929.743	8568
929.848	8549
929.953	8484
930.058	8484
930.163	8332
930.267	8358
930.372	8571
930.477	8355
930.581	8495
930.685	8396
930.79	8294
930.894	8301
930.998	8256
931.103	8374
931.207	8096
931.311	8024
931.415	7871
931.519	7738
931.623	7708
