Data from test_V78500241_3100.txt Node
Date: Fri Mar 25 14:55:18 CST 2022
User: usil
Spectrometer: V785-0024
Trigger mode: 0
Integration Time (sec): 4.000000E-1
Scans to average: 1
Nonlinearity correction enabled: false
Boxcar width: 0
Storing dark spectrum: false
XAxis mode: Wavelengths
Number of Pixels in Spectrum: 1024
>>>>>Begin Spectral Data<<<<<
801.071	22002
801.214	21918
801.356	21633
801.499	21614
801.641	21439
801.783	21431
801.926	21447
802.068	21428
802.211	21325
802.353	21264
802.496	20975
802.638	21005
802.78	20902
802.923	20845
803.065	20701
803.208	20758
803.35	20731
803.492	20712
803.635	20956
803.777	20823
803.919	20769
804.061	21093
804.204	20899
804.346	20667
804.488	20644
804.63	20689
804.773	20560
804.915	20705
805.057	20701
805.199	20655
805.341	20792
805.483	20720
805.626	20678
805.768	20659
805.91	20621
806.052	20686
806.194	20651
806.336	20724
806.478	20594
806.62	20636
806.762	20712
806.904	20876
807.046	21005
807.188	21020
807.33	20921
807.472	21058
807.614	20849
807.756	20948
807.898	20777
808.04	20720
808.182	20693
808.324	20659
808.465	20815
808.607	20895
808.749	21036
808.891	21081
809.033	21199
809.174	21176
809.316	20944
809.458	20979
809.6	21074
809.741	21188
809.883	21100
810.025	21188
810.166	21378
810.308	21119
810.45	21268
810.591	21013
810.733	21032
810.875	20819
811.016	20678
811.158	20727
811.299	20712
811.441	21024
811.582	21013
811.724	20864
811.865	20754
812.007	20765
812.148	20853
812.29	20853
812.431	20929
812.573	21055
812.714	21112
812.855	21245
812.997	21424
813.138	21488
813.279	21408
813.421	21359
813.562	21279
813.703	21051
813.845	20834
813.986	20609
814.127	20419
814.268	20495
814.41	20473
814.551	20324
814.692	20442
814.833	20389
814.974	20351
815.115	20278
815.256	20328
815.397	20317
815.539	20267
815.68	20065
815.821	20016
815.962	20081
816.103	20081
816.244	19841
816.385	19734
816.526	19681
816.666	19556
816.807	19464
816.948	19708
817.089	19521
817.23	19422
817.371	19472
817.512	19320
817.653	19445
817.793	19369
817.934	19537
818.075	19476
818.216	19422
818.356	19354
818.497	19350
818.638	19126
818.778	19228
818.919	19289
819.06	19137
819.2	19221
819.341	19259
819.481	19377
819.622	19464
819.762	19731
819.903	19597
820.043	19472
820.184	19400
820.324	19460
820.465	19518
820.605	19594
820.746	19480
820.886	19377
821.026	19426
821.167	19506
821.307	19419
821.447	19430
821.588	19297
821.728	19061
821.868	18993
822.008	18875
822.149	18776
822.289	18787
822.429	18616
822.569	18540
822.709	18555
822.849	18426
822.99	18388
823.13	18372
823.27	18292
823.41	18197
823.55	18034
823.69	18041
823.83	18140
823.97	18133
824.11	17935
824.25	17775
824.389	17821
824.529	17942
824.669	17908
824.809	18011
824.949	17961
825.089	18022
825.228	18019
825.368	17737
825.508	17676
825.648	17779
825.787	17646
825.927	17710
826.067	17630
826.206	17665
826.346	17619
826.485	17634
826.625	17741
826.765	17764
826.904	17619
827.044	17402
827.183	17429
827.323	17364
827.462	17398
827.601	17417
827.741	17353
827.88	17379
828.02	17356
828.159	17356
828.298	17429
828.437	17535
828.577	17254
828.716	17474
828.855	17364
828.994	17204
829.134	17170
829.273	17018
829.412	17029
829.551	17025
829.69	17056
829.829	17132
829.968	17200
830.107	17128
830.246	17162
830.385	17143
830.524	17029
830.663	16900
830.802	16801
830.941	16790
831.08	16611
831.219	16831
831.357	16828
831.496	16976
831.635	16778
831.774	16687
831.913	16584
832.051	16561
832.19	16546
832.329	16588
832.467	16421
832.606	16375
832.744	16394
832.883	16481
833.022	16405
833.16	16466
833.299	16466
833.437	16382
833.576	16432
833.714	16413
833.852	16504
833.991	16535
834.129	16485
834.267	16500
834.406	16497
834.544	16519
834.682	16569
834.821	16459
834.959	16630
835.097	16409
835.235	16618
835.373	16546
835.511	16481
835.65	16382
835.788	16413
835.926	16314
836.064	16230
836.202	16200
836.34	16314
836.478	16462
836.615	16421
836.753	16390
836.891	16440
837.029	16409
837.167	16322
837.305	16246
837.443	16352
837.58	16173
837.718	16314
837.856	16257
837.993	16154
838.131	16310
838.269	16211
838.406	16268
838.544	16036
838.681	16006
838.819	15903
838.956	15842
839.094	15736
839.231	15865
839.369	15998
839.506	16204
839.643	16090
839.781	15770
839.918	15789
840.055	15816
840.193	15804
840.33	15759
840.467	15854
840.604	15797
840.742	15975
840.879	15572
841.016	15637
841.153	15652
841.29	15846
841.427	15800
841.564	15876
841.701	15747
841.838	15652
841.975	15614
842.112	15720
842.249	15557
842.385	15492
842.522	15728
842.659	15595
842.796	15580
842.933	15690
843.069	15511
843.206	15443
843.343	15629
843.479	15557
843.616	15515
843.752	15401
843.889	15386
844.025	15564
844.162	15275
844.298	15500
844.435	15260
844.571	15264
844.708	15408
844.844	15511
844.98	15523
845.117	15488
845.253	15370
845.389	15325
845.525	15294
845.661	15233
845.798	15211
845.934	15192
846.07	15195
846.206	15157
846.342	15272
846.478	15184
846.614	14994
846.75	14899
846.886	14921
847.022	15051
847.158	14925
847.294	14872
847.429	14891
847.565	14971
847.701	15180
847.837	14735
847.972	14727
848.108	14773
848.244	14686
848.379	14644
848.515	14587
848.65	14457
848.786	14446
848.921	14526
849.057	14708
849.192	14587
849.328	14434
849.463	14454
849.598	14511
849.734	14423
849.869	14438
850.004	14366
850.14	14358
850.275	14309
850.41	14161
850.545	14282
850.68	14313
850.815	14278
850.95	14336
851.085	14431
851.22	14419
851.355	14381
851.49	14317
851.625	14206
851.76	14290
851.895	14161
852.03	14103
852.165	14301
852.299	14324
852.434	14404
852.569	14362
852.703	14271
852.838	14347
852.973	14526
853.107	14408
853.242	14202
853.376	14145
853.511	14043
853.645	14153
853.78	14305
853.914	14187
854.048	14142
854.183	14111
854.317	14225
854.451	14412
854.585	14103
854.72	14145
854.854	14138
854.988	14126
855.122	14107
855.256	14024
855.39	13974
855.524	14263
855.658	14252
855.792	14092
855.926	14142
856.06	14119
856.194	14244
856.327	14096
856.461	14153
856.595	14164
856.729	14187
856.862	14248
856.996	14123
857.13	14218
857.263	14301
857.397	14309
857.53	14221
857.664	14259
857.797	14183
857.931	14362
858.064	14233
858.197	14339
858.331	14084
858.464	14176
858.597	13982
858.731	14096
858.864	14149
858.997	14191
859.13	14275
859.263	14134
859.396	14168
859.529	14126
859.662	14031
859.795	14225
859.928	14088
860.061	14278
860.194	14374
860.327	14263
860.46	14233
860.592	14256
860.725	14362
860.858	14324
860.99	14145
861.123	14161
861.256	14073
861.388	14130
861.521	14838
861.653	14126
861.786	13974
861.918	13997
862.05	14043
862.183	14111
862.315	14161
862.447	14225
862.58	13997
862.712	13959
862.844	13898
862.976	14069
863.108	14035
863.24	14218
863.372	13830
863.504	13902
863.636	13963
863.768	14001
863.9	14031
864.032	13890
864.164	13932
864.296	14103
864.428	14092
864.559	13997
864.691	14050
864.823	13993
864.954	13928
865.086	14043
865.217	13932
865.349	13871
865.48	13982
865.612	14005
865.743	14046
865.875	13902
866.006	13928
866.137	13997
866.269	13822
866.4	13913
866.531	13871
866.662	13746
866.793	13917
866.924	13894
867.055	13978
867.186	13959
867.317	13791
867.448	13849
867.579	13852
867.71	13791
867.841	13913
867.972	13947
868.103	13982
868.233	13860
868.364	13951
868.495	13967
868.625	14153
868.756	14172
868.886	14084
869.017	14126
869.147	14298
869.278	14389
869.408	14145
869.539	14210
869.669	14275
869.799	14240
869.929	14267
870.06	14252
870.19	14526
870.32	14454
870.45	14541
870.58	14492
870.71	14720
870.84	14651
870.97	14636
871.1	14530
871.23	14830
871.36	14838
871.489	14629
871.619	14735
871.749	14758
871.879	14697
872.008	14982
872.138	14807
872.267	14788
872.397	14541
872.526	14705
872.656	14682
872.785	14606
872.915	14746
873.044	14807
873.173	14686
873.303	14845
873.432	14857
873.561	14876
873.69	14788
873.819	14883
873.948	14902
874.077	14861
874.206	14857
874.335	14872
874.464	14975
874.593	15119
874.722	15017
874.851	15108
874.979	15085
875.108	15203
875.237	15074
875.365	15138
875.494	15222
875.623	15367
875.751	15173
875.88	15241
876.008	15218
876.136	15336
876.265	15595
876.393	15610
876.521	15629
876.65	15526
876.778	15572
876.906	15534
877.034	15488
877.162	15523
877.29	15477
877.418	15511
877.546	15591
877.674	15534
877.802	15511
877.93	15515
878.058	15519
878.185	15496
878.313	15481
878.441	15534
878.568	15450
878.696	15523
878.824	15576
878.951	15675
879.079	15793
879.206	15804
879.333	15759
879.461	15568
879.588	15549
879.715	15720
879.842	15850
879.97	15644
880.097	15420
880.224	15332
880.351	15412
880.478	15515
880.605	15416
880.732	15405
880.859	15766
880.986	15481
881.112	15439
881.239	15249
881.366	15093
881.493	15119
881.619	15055
881.746	15127
881.872	15119
881.999	15024
882.125	15020
882.252	15097
882.378	15043
882.505	15230
882.631	15005
882.757	14838
882.883	14925
883.01	14872
883.136	14880
883.262	14678
883.388	14678
883.514	14861
883.64	15009
883.766	14807
883.892	14678
884.018	14716
884.143	14868
884.269	14960
884.395	14682
884.52	14625
884.646	14606
884.772	14625
884.897	14419
885.023	14697
885.148	14674
885.274	14746
885.399	14644
885.524	14533
885.65	14560
885.775	14590
885.9	14640
886.025	14667
886.15	14727
886.275	14598
886.4	14541
886.525	14522
886.65	14518
886.775	14545
886.9	14632
887.025	14861
887.149	14549
887.274	14362
887.399	14427
887.523	14396
887.648	14282
887.773	14351
887.897	14484
888.021	14465
888.146	14328
888.27	14499
888.395	14507
888.519	14556
888.643	14438
888.767	14457
888.891	14355
889.015	14362
889.139	14301
889.263	14282
889.387	14324
889.511	14442
889.635	14328
889.759	14191
889.883	14301
890.006	14252
890.13	14454
890.254	14271
890.377	14290
890.501	14111
890.624	14073
890.748	14145
890.871	14035
890.995	13913
891.118	13902
891.241	13970
891.364	14027
891.488	14126
891.611	14043
891.734	14012
891.857	14065
891.98	14027
892.103	14081
892.226	14039
892.349	13947
892.471	13814
892.594	14024
892.717	13986
892.839	13970
892.962	14024
893.085	14005
893.207	14050
893.33	13788
893.452	13936
893.575	14012
893.697	14043
893.819	14229
893.941	14214
894.064	14168
894.186	13955
894.308	13871
894.43	14130
894.552	14237
894.674	14149
894.796	13982
894.918	14016
895.04	14008
895.161	14180
895.283	14111
895.405	14065
895.526	14069
895.648	14031
895.769	14058
895.891	14088
896.012	14202
896.134	14210
896.255	14180
896.376	14142
896.498	14172
896.619	14214
896.74	14214
896.861	14233
896.982	14583
897.103	14625
897.224	14446
897.345	14381
897.466	14385
897.587	14442
897.708	14587
897.828	14537
897.949	14374
898.07	14248
898.19	14343
898.311	14503
898.431	14461
898.552	14571
898.672	14670
898.792	14583
898.913	14552
899.033	14434
899.153	14347
899.273	14339
899.393	14431
899.513	14305
899.633	14423
899.753	14393
899.873	14355
899.993	14484
900.113	14393
900.232	14457
900.352	14381
900.472	14404
900.591	14237
900.711	14320
900.83	14168
900.95	14404
901.069	14408
901.189	14240
901.308	14016
901.427	13951
901.546	13928
901.665	14031
901.784	13894
901.904	13841
902.023	13742
902.141	13495
902.26	13381
902.379	13552
902.498	13460
902.617	13453
902.735	13609
902.854	13567
902.973	13324
903.091	13187
903.21	13297
903.328	13110
903.446	13126
903.565	13046
903.683	13061
903.801	13031
903.919	12993
904.038	13038
904.156	12856
904.274	13004
904.392	12859
904.51	12856
904.627	12833
904.745	12909
904.863	12932
904.981	12593
905.098	12547
905.216	12601
905.334	12627
905.451	12582
905.569	12521
905.686	12582
905.803	12551
905.921	12353
906.038	12498
906.155	12369
906.272	12304
906.389	12254
906.506	12117
906.623	12209
906.74	12205
906.857	12041
906.974	12022
907.091	12133
907.208	12350
907.324	12182
907.441	12072
907.557	11946
907.674	11870
907.79	11874
907.907	11843
908.023	11973
908.139	11977
908.256	11893
908.372	11897
908.488	11786
908.604	11710
908.72	11688
908.836	11680
908.952	11589
909.068	11745
909.184	11756
909.3	11672
909.415	11691
909.531	11649
909.647	11535
909.762	11436
909.878	11459
909.993	11524
910.108	11406
910.224	11383
910.339	11478
910.454	11326
910.57	11360
910.685	11269
910.8	11501
910.915	11429
911.03	11269
911.145	11185
911.259	11060
911.374	11151
911.489	11094
911.604	11025
911.718	10923
911.833	10873
911.947	10839
912.062	10721
912.176	10949
912.291	10805
912.405	10923
912.519	11147
912.633	11075
912.748	11003
912.862	10919
912.976	10858
913.09	10653
913.204	10733
913.318	10820
913.431	10942
913.545	10908
913.659	10885
913.772	10809
913.886	10668
914	10569
914.113	10778
914.226	10786
914.34	10698
914.453	10519
914.566	10660
914.68	10702
914.793	10626
914.906	10436
915.019	10402
915.132	10276
915.245	10344
915.358	10371
915.47	10363
915.583	10428
915.696	10413
915.809	10558
915.921	10485
916.034	10310
916.146	10337
916.259	10382
916.371	10405
916.483	10440
916.595	10341
916.708	10382
916.82	10367
916.932	10325
917.044	10310
917.156	10344
917.268	10223
917.38	10223
917.491	10280
917.603	10265
917.715	10265
917.826	10322
917.938	10242
918.049	10078
918.161	10265
918.272	10379
918.384	10337
918.495	10318
918.606	10135
918.717	10078
918.828	10124
918.939	10181
919.05	10090
919.161	10120
919.272	9865
919.383	10013
919.494	10200
919.604	10280
919.715	10173
919.826	10059
919.936	10105
920.047	10249
920.157	10169
920.267	10394
920.378	10253
920.488	10147
920.598	10386
920.708	10516
920.818	10440
920.928	10371
921.038	10455
921.148	10466
921.258	10211
921.368	10112
921.477	10044
921.587	10010
921.697	9907
921.806	10002
921.916	9926
922.025	9743
922.134	9747
922.244	9686
922.353	9778
922.462	9629
922.571	9587
922.68	9428
922.789	9374
922.898	9462
923.007	9397
923.116	9439
923.224	9428
923.333	9450
923.442	9302
923.55	9294
923.659	9397
923.767	9389
923.876	9283
923.984	9401
924.092	9188
924.201	9370
924.309	9348
924.417	9283
924.525	9287
924.633	9275
924.741	10169
924.849	9097
924.956	9310
925.064	9085
925.172	9020
925.279	8933
925.387	9055
925.494	9047
925.602	9287
925.709	9173
925.816	9043
925.924	9123
926.031	9195
926.138	9165
926.245	9203
926.352	9077
926.459	9192
926.566	9222
926.673	9062
926.779	9020
926.886	8902
926.993	8811
927.099	8834
927.206	8750
927.312	8766
927.419	8880
927.525	8800
927.631	8872
927.737	8632
927.843	8743
927.95	8571
928.056	8644
928.162	8743
928.267	8731
928.373	9367
928.479	8838
928.585	8575
928.69	8701
928.796	8758
928.901	8644
929.007	8541
929.112	8602
929.218	8644
929.323	8556
929.428	8579
929.533	8640
929.638	8389
929.743	8503
929.848	8610
929.953	8427
930.058	8457
930.163	8214
930.267	8294
930.372	8377
930.477	8294
930.581	8511
930.685	8305
930.79	8305
930.894	8252
930.998	8229
931.103	8313
931.207	7997
931.311	8039
931.415	7913
931.519	7788
931.623	7757
