Data from test_V78500241_1276.txt Node
Date: Fri Mar 25 14:42:36 CST 2022
User: usil
Spectrometer: V785-0024
Trigger mode: 0
Integration Time (sec): 4.000000E-1
Scans to average: 1
Nonlinearity correction enabled: false
Boxcar width: 0
Storing dark spectrum: false
XAxis mode: Wavelengths
Number of Pixels in Spectrum: 1024
>>>>>Begin Spectral Data<<<<<
801.071	22474
801.214	22234
801.356	22029
801.499	21975
801.641	21781
801.783	21789
801.926	21709
802.068	21717
802.211	21614
802.353	21485
802.496	21321
802.638	21325
802.78	21131
802.923	21074
803.065	21100
803.208	21028
803.35	21108
803.492	21169
803.635	21176
803.777	20948
803.919	21211
804.061	21397
804.204	21062
804.346	21039
804.488	20975
804.63	20929
804.773	20906
804.915	21051
805.057	21001
805.199	20967
805.341	21199
805.483	21199
805.626	21070
805.768	20994
805.91	20914
806.052	20948
806.194	20910
806.336	21119
806.478	20982
806.62	20998
806.762	20963
806.904	21222
807.046	21412
807.188	21488
807.33	21241
807.472	21355
807.614	21291
807.756	21428
807.898	21142
808.04	21138
808.182	21154
808.324	21199
808.465	21207
808.607	21359
808.749	21511
808.891	21644
809.033	21701
809.174	21545
809.316	21523
809.458	21549
809.6	21431
809.741	21477
809.883	21599
810.025	21431
810.166	21648
810.308	21610
810.45	21523
810.591	21496
810.733	21294
810.875	21355
811.016	21123
811.158	21013
811.299	21184
811.441	21325
811.582	21401
811.724	21260
811.865	21199
812.007	21214
812.148	21169
812.29	21268
812.431	21340
812.573	21538
812.714	21485
812.855	21663
812.997	21736
813.138	22006
813.279	21789
813.421	21717
813.562	21679
813.703	21401
813.845	21355
813.986	21127
814.127	21074
814.268	20895
814.41	20842
814.551	20735
814.692	20819
814.833	20587
814.974	20689
815.115	20682
815.256	20598
815.397	20526
815.539	20609
815.68	20507
815.821	20385
815.962	20511
816.103	20560
816.244	20309
816.385	20191
816.526	20252
816.666	20035
816.807	19967
816.948	19974
817.089	20027
817.23	19887
817.371	19917
817.512	20027
817.653	19837
817.793	19807
817.934	19761
818.075	20001
818.216	19894
818.356	19856
818.497	19731
818.638	19537
818.778	19586
818.919	19609
819.06	19696
819.2	19734
819.341	19776
819.481	19852
819.622	19967
819.762	20301
819.903	19982
820.043	19951
820.184	19944
820.324	19860
820.465	19879
820.605	19780
820.746	19833
820.886	19655
821.026	19761
821.167	19795
821.307	19909
821.447	19856
821.588	19696
821.728	19540
821.868	19362
822.008	19171
822.149	19194
822.289	19331
822.429	19019
822.569	19023
822.709	18886
822.849	18848
822.99	18715
823.13	18821
823.27	18642
823.41	18566
823.55	18532
823.69	18646
823.83	18589
823.97	18528
824.11	18243
824.25	18342
824.389	18429
824.529	18448
824.669	18304
824.809	18502
824.949	18327
825.089	18327
825.228	18361
825.368	18201
825.508	18216
825.648	18186
825.787	18114
825.927	18117
826.067	18060
826.206	17984
826.346	18133
826.485	18072
826.625	18167
826.765	18277
826.904	18194
827.044	17878
827.183	17954
827.323	17794
827.462	17843
827.601	17821
827.741	17863
827.88	17817
828.02	17680
828.159	17809
828.298	17790
828.437	17809
828.577	17790
828.716	17916
828.855	17817
828.994	17638
829.134	17577
829.273	17497
829.412	17562
829.551	17543
829.69	17505
829.829	17600
829.968	17680
830.107	17573
830.246	17634
830.385	17600
830.524	17482
830.663	17425
830.802	17368
830.941	17178
831.08	17181
831.219	17250
831.357	17284
831.496	17436
831.635	17223
831.774	17151
831.913	17014
832.051	17037
832.19	17086
832.329	17086
832.467	16980
832.606	16961
832.744	16869
832.883	16885
833.022	16938
833.16	16877
833.299	16889
833.437	16919
833.576	16953
833.714	17075
833.852	16987
833.991	17014
834.129	17014
834.267	17117
834.406	16976
834.544	17075
834.682	16984
834.821	16980
834.959	17197
835.097	17010
835.235	17094
835.373	17029
835.511	17029
835.65	16908
835.788	16869
835.926	16717
836.064	16618
836.202	16767
836.34	16896
836.478	16889
836.615	16873
836.753	16847
836.891	16991
837.029	16820
837.167	16839
837.305	16793
837.443	16725
837.58	16664
837.718	16824
837.856	16759
837.993	16691
838.131	16717
838.269	16725
838.406	16577
838.544	16546
838.681	16413
838.819	16443
838.956	16348
839.094	16211
839.231	16261
839.369	16462
839.506	16672
839.643	16535
839.781	16276
839.918	16310
840.055	16322
840.193	16402
840.33	16200
840.467	16371
840.604	16325
840.742	16489
840.879	16036
841.016	16284
841.153	16162
841.29	16363
841.427	16272
841.564	16287
841.701	16249
841.838	16276
841.975	16105
842.112	16109
842.249	16090
842.385	16074
842.522	16188
842.659	16086
842.796	16105
842.933	16036
843.069	16055
843.206	16025
843.343	16242
843.479	16010
843.616	16139
843.752	15838
843.889	15766
844.025	16029
844.162	15739
844.298	15846
844.435	15903
844.571	15873
844.708	15880
844.844	15945
844.98	15911
845.117	15960
845.253	15869
845.389	15671
845.525	15865
845.661	15846
845.798	15759
845.934	15903
846.07	15736
846.206	15876
846.342	15911
846.478	15701
846.614	15511
846.75	15492
846.886	15458
847.022	15507
847.158	15488
847.294	15515
847.429	15420
847.565	15325
847.701	15675
847.837	15062
847.972	15161
848.108	15268
848.244	15291
848.379	15032
848.515	14982
848.65	15058
848.786	15001
848.921	14967
849.057	15214
849.192	15161
849.328	15112
849.463	15070
849.598	15013
849.734	14891
849.869	14868
850.004	14834
850.14	14807
850.275	14842
850.41	14705
850.545	14739
850.68	14693
850.815	14811
850.95	14731
851.085	15009
851.22	14895
851.355	14830
851.49	14796
851.625	14682
851.76	14785
851.895	14682
852.03	14655
852.165	14857
852.299	14773
852.434	14918
852.569	14807
852.703	14857
852.838	14929
852.973	14872
853.107	14845
853.242	14762
853.376	14678
853.511	14594
853.645	14575
853.78	14823
853.914	14655
854.048	14613
854.183	14621
854.317	14743
854.451	14762
854.585	14655
854.72	14674
854.854	14689
854.988	14579
855.122	14632
855.256	14545
855.39	14610
855.524	14686
855.658	14689
855.792	14575
855.926	14765
856.06	14697
856.194	14773
856.327	14602
856.461	14579
856.595	14549
856.729	14579
856.862	14659
856.996	14762
857.13	14731
857.263	14758
857.397	14762
857.53	14670
857.664	14785
857.797	14705
857.931	14762
858.064	14682
858.197	14849
858.331	14636
858.464	14598
858.597	14530
858.731	14655
858.864	14640
858.997	14678
859.13	14697
859.263	14663
859.396	14762
859.529	14651
859.662	14651
859.795	14571
859.928	14613
860.061	14872
860.194	14910
860.327	14693
860.46	14655
860.592	14838
860.725	14727
860.858	14720
860.99	14697
861.123	14594
861.256	14648
861.388	14606
861.521	15370
861.653	14617
861.786	14522
861.918	14522
862.05	14522
862.183	14587
862.315	14617
862.447	14644
862.58	14640
862.712	14377
862.844	14385
862.976	14560
863.108	14404
863.24	14880
863.372	14408
863.504	14377
863.636	14461
863.768	14457
863.9	14503
864.032	14431
864.164	14351
864.296	14415
864.428	14499
864.559	14571
864.691	14476
864.823	14499
864.954	14427
865.086	14541
865.217	14442
865.349	14473
865.48	14393
865.612	14385
865.743	14598
865.875	14473
866.006	14332
866.137	14438
866.269	14415
866.4	14385
866.531	14400
866.662	14355
866.793	14339
866.924	14343
867.055	14434
867.186	14381
867.317	14313
867.448	14237
867.579	14290
867.71	14278
867.841	14256
867.972	14366
868.103	14362
868.233	14419
868.364	14465
868.495	14488
868.625	14495
868.756	14750
868.886	14583
869.017	14610
869.147	14743
869.278	14769
869.408	14682
869.539	14724
869.669	14640
869.799	14629
869.929	14758
870.06	14727
870.19	14941
870.32	14963
870.45	14990
870.58	15116
870.71	15028
870.84	15169
870.97	15100
871.1	14933
871.23	15233
871.36	15214
871.489	15165
871.619	15260
871.749	15237
871.879	15260
872.008	15370
872.138	15237
872.267	15203
872.397	15180
872.526	15150
872.656	15024
872.785	15104
872.915	15275
873.044	15363
873.173	15317
873.303	15370
873.432	15291
873.561	15370
873.69	15302
873.819	15363
873.948	15397
874.077	15367
874.206	15230
874.335	15401
874.464	15401
874.593	15542
874.722	15599
874.851	15656
874.979	15656
875.108	15637
875.237	15587
875.365	15652
875.494	15545
875.623	15755
875.751	15545
875.88	15648
876.008	15895
876.136	15895
876.265	15998
876.393	16276
876.521	16067
876.65	16192
876.778	16185
876.906	16071
877.034	15956
877.162	16071
877.29	16010
877.418	16116
877.546	15987
877.674	16071
877.802	16150
877.93	16097
878.058	16013
878.185	15960
878.313	16055
878.441	16036
878.568	15892
878.696	16109
878.824	16048
878.951	16120
879.079	16356
879.206	16432
879.333	16246
879.461	16154
879.588	16265
879.715	16314
879.842	16386
879.97	16207
880.097	15975
880.224	16059
880.351	15964
880.478	16036
880.605	15854
880.732	15918
880.859	16131
880.986	15884
881.112	15987
881.239	15770
881.366	15656
881.493	15648
881.619	15515
881.746	15572
881.872	15568
881.999	15549
882.125	15610
882.252	15572
882.378	15622
882.505	15656
882.631	15591
882.757	15477
882.883	15485
883.01	15359
883.136	15351
883.262	15233
883.388	15237
883.514	15466
883.64	15447
883.766	15363
883.892	15291
884.018	15237
884.143	15424
884.269	15515
884.395	15203
884.52	15112
884.646	15077
884.772	15097
884.897	15001
885.023	15154
885.148	15199
885.274	15302
885.399	15192
885.524	14982
885.65	15074
885.775	15089
885.9	15093
886.025	15336
886.15	15203
886.275	15108
886.4	14994
886.525	15024
886.65	14982
886.775	15074
886.9	15237
887.025	15291
887.149	15047
887.274	14880
887.399	14895
887.523	14944
887.648	14796
887.773	14868
887.897	14910
888.021	14979
888.146	14952
888.27	14910
888.395	15017
888.519	14868
888.643	14971
888.767	15005
888.891	14880
889.015	14746
889.139	14727
889.263	14739
889.387	14781
889.511	14895
889.635	14906
889.759	14670
889.883	14743
890.006	14826
890.13	14880
890.254	14587
890.377	14739
890.501	14560
890.624	14560
890.748	14564
890.871	14492
890.995	14389
891.118	14374
891.241	14438
891.364	14461
891.488	14537
891.611	14438
891.734	14476
891.857	14571
891.98	14514
892.103	14465
892.226	14446
892.349	14461
892.471	14336
892.594	14419
892.717	14473
892.839	14450
892.962	14450
893.085	14522
893.207	14480
893.33	14389
893.452	14336
893.575	14446
893.697	14454
893.819	14579
893.941	14571
894.064	14625
894.186	14438
894.308	14400
894.43	14518
894.552	14526
894.674	14541
894.796	14499
894.918	14473
895.04	14518
895.161	14499
895.283	14537
895.405	14530
895.526	14579
895.648	14549
895.769	14583
895.891	14598
896.012	14663
896.134	14651
896.255	14655
896.376	14606
896.498	14663
896.619	14655
896.74	14610
896.861	14708
896.982	14906
897.103	15047
897.224	14906
897.345	14933
897.466	14845
897.587	14845
897.708	15058
897.828	14933
897.949	14834
898.07	14769
898.19	14823
898.311	14971
898.431	14838
898.552	14990
898.672	14963
898.792	15150
898.913	14952
899.033	14823
899.153	14819
899.273	14731
899.393	14830
899.513	14891
899.633	14701
899.753	14861
899.873	14788
899.993	14861
900.113	14769
900.232	14754
900.352	14800
900.472	14621
900.591	14674
900.711	14533
900.83	14693
900.95	14735
901.069	14735
901.189	14617
901.308	14328
901.427	14366
901.546	14332
901.665	14320
901.784	14332
901.904	14240
902.023	14111
902.141	13890
902.26	13909
902.379	14088
902.498	13906
902.617	13807
902.735	13909
902.854	13871
902.973	13833
903.091	13624
903.21	13620
903.328	13636
903.446	13510
903.565	13396
903.683	13438
903.801	13350
903.919	13369
904.038	13445
904.156	13327
904.274	13346
904.392	13255
904.51	13266
904.627	13236
904.745	13263
904.863	13350
904.981	13129
905.098	12947
905.216	12878
905.334	12966
905.451	12882
905.569	12901
905.686	12981
905.803	12962
905.921	12745
906.038	12916
906.155	12837
906.272	12646
906.389	12639
906.506	12570
906.623	12673
906.74	12502
906.857	12407
906.974	12448
907.091	12635
907.208	12715
907.324	12593
907.441	12448
907.557	12270
907.674	12342
907.79	12213
907.907	12247
908.023	12205
908.139	12300
908.256	12247
908.372	12205
908.488	12129
908.604	12079
908.72	12079
908.836	12083
908.952	12053
909.068	12072
909.184	12163
909.3	12030
909.415	12152
909.531	11996
909.647	11805
909.762	11866
909.878	11817
909.993	11729
910.108	11775
910.224	11824
910.339	11817
910.454	11661
910.57	11722
910.685	11653
910.8	11779
910.915	11821
911.03	11642
911.145	11482
911.259	11493
911.374	11509
911.489	11433
911.604	11303
911.718	11216
911.833	11273
911.947	11185
912.062	11102
912.176	11201
912.291	11307
912.405	11220
912.519	11402
912.633	11501
912.748	11269
912.862	11299
912.976	11117
913.09	11022
913.204	11079
913.318	11189
913.431	11143
913.545	11246
913.659	11341
913.772	11193
913.886	10995
914	11025
914.113	11071
914.226	11079
914.34	11067
914.453	10904
914.566	11124
914.68	10995
914.793	10961
914.906	10824
915.019	10634
915.132	10702
915.245	10630
915.358	10748
915.47	10729
915.583	10797
915.696	10824
915.809	10995
915.921	10892
916.034	10736
916.146	10805
916.259	10615
916.371	10797
916.483	10782
916.595	10637
916.708	10702
916.82	10748
916.932	10622
917.044	10653
917.156	10599
917.268	10573
917.38	10546
917.491	10573
917.603	10569
917.715	10698
917.826	10664
917.938	10542
918.049	10527
918.161	10645
918.272	10672
918.384	10653
918.495	10668
918.606	10455
918.717	10344
918.828	10413
918.939	10466
919.05	10325
919.161	10470
919.272	10188
919.383	10303
919.494	10474
919.604	10615
919.715	10554
919.826	10318
919.936	10436
920.047	10474
920.157	10531
920.267	10687
920.378	10500
920.488	10436
920.598	10679
920.708	10733
920.818	10630
920.928	10706
921.038	10786
921.148	10774
921.258	10512
921.368	10478
921.477	10344
921.587	10325
921.697	10223
921.806	10341
921.916	10188
922.025	10002
922.134	10017
922.244	10048
922.353	9991
922.462	9869
922.571	9857
922.68	9686
922.789	9618
922.898	9720
923.007	9671
923.116	9717
923.224	9686
923.333	9694
923.442	9561
923.55	9599
923.659	9557
923.767	9641
923.876	9485
923.984	9587
924.092	9511
924.201	9572
924.309	9534
924.417	9526
924.525	9507
924.633	9492
924.741	10295
924.849	9313
924.956	9504
925.064	9344
925.172	9264
925.279	9233
925.387	9321
925.494	9355
925.602	9435
925.709	9386
925.816	9268
925.924	9412
926.031	9401
926.138	9329
926.245	9420
926.352	9226
926.459	9317
926.566	9405
926.673	9268
926.779	9116
926.886	9192
926.993	9093
927.099	9032
927.206	8971
927.312	8990
927.419	9077
927.525	9138
927.631	9093
927.737	8967
927.843	8906
927.95	8872
928.056	8883
928.162	8887
928.267	8990
928.373	9576
928.479	8963
928.585	8811
928.69	8914
928.796	8944
928.901	8811
929.007	8743
929.112	8883
929.218	8861
929.323	8758
929.428	8785
929.533	8845
929.638	8701
929.743	8746
929.848	8754
929.953	8754
930.058	8655
930.163	8480
930.267	8568
930.372	8640
930.477	8469
930.581	8697
930.685	8663
930.79	8461
930.894	8507
930.998	8473
931.103	8636
931.207	8233
931.311	8206
931.415	8092
931.519	7928
931.623	7940
