Data from test_V78500241_2683.txt Node
Date: Fri Mar 25 14:52:23 CST 2022
User: usil
Spectrometer: V785-0024
Trigger mode: 0
Integration Time (sec): 4.000000E-1
Scans to average: 1
Nonlinearity correction enabled: false
Boxcar width: 0
Storing dark spectrum: false
XAxis mode: Wavelengths
Number of Pixels in Spectrum: 1024
>>>>>Begin Spectral Data<<<<<
801.071	21994
801.214	21888
801.356	21656
801.499	21454
801.641	21488
801.783	21496
801.926	21374
802.068	21332
802.211	21321
802.353	21218
802.496	20918
802.638	20921
802.78	20792
802.923	20655
803.065	20621
803.208	20621
803.35	20640
803.492	20826
803.635	20777
803.777	20689
803.919	20735
804.061	20986
804.204	20845
804.346	20648
804.488	20648
804.63	20590
804.773	20609
804.915	20697
805.057	20724
805.199	20648
805.341	20705
805.483	20731
805.626	20720
805.768	20457
805.91	20667
806.052	20678
806.194	20526
806.336	20689
806.478	20590
806.62	20568
806.762	20689
806.904	20750
807.046	21047
807.188	20990
807.33	20842
807.472	21017
807.614	20781
807.756	20887
807.898	20663
808.04	20590
808.182	20640
808.324	20693
808.465	20693
808.607	20804
808.749	20891
808.891	21028
809.033	21062
809.174	20952
809.316	20902
809.458	20994
809.6	20963
809.741	21051
809.883	21077
810.025	21093
810.166	21100
810.308	21157
810.45	21157
810.591	21039
810.733	20826
810.875	20811
811.016	20674
811.158	20564
811.299	20746
811.441	20880
811.582	20876
811.724	20746
811.865	20705
812.007	20712
812.148	20625
812.29	20788
812.431	20941
812.573	21062
812.714	21089
812.855	21188
812.997	21443
813.138	21389
813.279	21351
813.421	21230
813.562	21096
813.703	21009
813.845	20948
813.986	20560
814.127	20404
814.268	20377
814.41	20381
814.551	20286
814.692	20343
814.833	20317
814.974	20244
815.115	20328
815.256	20187
815.397	20183
815.539	20161
815.68	19959
815.821	20001
815.962	20073
816.103	19982
816.244	19841
816.385	19734
816.526	19727
816.666	19594
816.807	19476
816.948	19468
817.089	19590
817.23	19533
817.371	19377
817.512	19373
817.653	19411
817.793	19411
817.934	19445
818.075	19445
818.216	19403
818.356	19419
818.497	19304
818.638	19152
818.778	19137
818.919	19236
819.06	19164
819.2	19183
819.341	19266
819.481	19263
819.622	19430
819.762	19689
819.903	19597
820.043	19609
820.184	19415
820.324	19403
820.465	19411
820.605	19384
820.746	19377
820.886	19225
821.026	19441
821.167	19396
821.307	19426
821.447	19293
821.588	19293
821.728	19034
821.868	18928
822.008	18795
822.149	18787
822.289	18810
822.429	18509
822.569	18566
822.709	18684
822.849	18262
822.99	18311
823.13	18296
823.27	18277
823.41	18144
823.55	18110
823.69	18076
823.83	18083
823.97	18064
824.11	17836
824.25	17923
824.389	17828
824.529	17961
824.669	17851
824.809	17965
824.949	17946
825.089	17908
825.228	17912
825.368	17672
825.508	17680
825.648	17703
825.787	17767
825.927	17665
826.067	17630
826.206	17532
826.346	17676
826.485	17649
826.625	17703
826.765	17726
826.904	17786
827.044	17414
827.183	17486
827.323	17334
827.462	17459
827.601	17284
827.741	17356
827.88	17349
828.02	17235
828.159	17334
828.298	17425
828.437	17402
828.577	17311
828.716	17566
828.855	17269
828.994	17197
829.134	17117
829.273	17067
829.412	17094
829.551	16980
829.69	17090
829.829	17189
829.968	17193
830.107	17227
830.246	17181
830.385	17102
830.524	16961
830.663	16934
830.802	16843
830.941	16759
831.08	16664
831.219	16797
831.357	16839
831.496	16892
831.635	16744
831.774	16626
831.913	16649
832.051	16527
832.19	16588
832.329	16508
832.467	16538
832.606	16402
832.744	16348
832.883	16451
833.022	16398
833.16	16432
833.299	16516
833.437	16497
833.576	16512
833.714	16432
833.852	16489
833.991	16546
834.129	16489
834.267	16451
834.406	16527
834.544	16542
834.682	16474
834.821	16561
834.959	16588
835.097	16558
835.235	16516
835.373	16489
835.511	16440
835.65	16405
835.788	16352
835.926	16382
836.064	16249
836.202	16188
836.34	16394
836.478	16360
836.615	16405
836.753	16451
836.891	16493
837.029	16440
837.167	16333
837.305	16322
837.443	16424
837.58	16356
837.718	16451
837.856	16344
837.993	16306
838.131	16394
838.269	16268
838.406	16177
838.544	16192
838.681	16059
838.819	15915
838.956	15892
839.094	15831
839.231	15793
839.369	15903
839.506	16207
839.643	16067
839.781	15861
839.918	15800
840.055	15831
840.193	15854
840.33	15762
840.467	15732
840.604	15759
840.742	16067
840.879	15705
841.016	15838
841.153	15869
841.29	15945
841.427	15953
841.564	15884
841.701	15975
841.838	15827
841.975	15816
842.112	15861
842.249	15591
842.385	15618
842.522	15835
842.659	15576
842.796	15694
842.933	15625
843.069	15625
843.206	15515
843.343	15686
843.479	15641
843.616	15675
843.752	15428
843.889	15321
844.025	15679
844.162	15367
844.298	15580
844.435	15500
844.571	15408
844.708	15458
844.844	15553
844.98	15587
845.117	15523
845.253	15310
845.389	15245
845.525	15363
845.661	15306
845.798	15233
845.934	15161
846.07	15081
846.206	15222
846.342	15313
846.478	15214
846.614	15047
846.75	14990
846.886	14929
847.022	15017
847.158	15146
847.294	14952
847.429	15077
847.565	14975
847.701	15154
847.837	14731
847.972	14693
848.108	14785
848.244	14796
848.379	14663
848.515	14602
848.65	14587
848.786	14564
848.921	14533
849.057	14629
849.192	14667
849.328	14598
849.463	14560
849.598	14556
849.734	14469
849.869	14438
850.004	14275
850.14	14301
850.275	14282
850.41	14244
850.545	14263
850.68	14370
850.815	14309
850.95	14358
851.085	14408
851.22	14396
851.355	14427
851.49	14343
851.625	14229
851.76	14374
851.895	14339
852.03	14324
852.165	14343
852.299	14244
852.434	14400
852.569	14454
852.703	14454
852.838	14484
852.973	14461
853.107	14522
853.242	14248
853.376	14229
853.511	14138
853.645	14172
853.78	14275
853.914	14282
854.048	14191
854.183	14278
854.317	14202
854.451	14332
854.585	14290
854.72	14176
854.854	14229
854.988	14145
855.122	14092
855.256	14130
855.39	14286
855.524	14313
855.658	14202
855.792	14180
855.926	14313
856.06	14362
856.194	14339
856.327	14294
856.461	14138
856.595	14191
856.729	14157
856.862	14400
856.996	14252
857.13	14339
857.263	14305
857.397	14370
857.53	14206
857.664	14298
857.797	14259
857.931	14298
858.064	14267
858.197	14347
858.331	14240
858.464	14218
858.597	14123
858.731	14157
858.864	14210
858.997	14100
859.13	14275
859.263	14210
859.396	14320
859.529	14183
859.662	14218
859.795	14123
859.928	14134
860.061	14362
860.194	14431
860.327	14187
860.46	14237
860.592	14263
860.725	14339
860.858	14313
860.99	14183
861.123	14111
861.256	14138
861.388	14256
861.521	14834
861.653	14119
861.786	14157
861.918	14065
862.05	14138
862.183	14142
862.315	14286
862.447	14263
862.58	14134
862.712	14092
862.844	13871
862.976	14069
863.108	14001
863.24	14396
863.372	13913
863.504	13982
863.636	14016
863.768	13986
863.9	14054
864.032	13940
864.164	13978
864.296	13921
864.428	14062
864.559	14164
864.691	14172
864.823	14027
864.954	14103
865.086	13940
865.217	13982
865.349	13871
865.48	13887
865.612	14050
865.743	14062
865.875	13974
866.006	13921
866.137	13951
866.269	13913
866.4	14046
866.531	13932
866.662	13887
866.793	13947
866.924	13974
867.055	14134
867.186	13967
867.317	14008
867.448	13887
867.579	13902
867.71	13970
867.841	13845
867.972	13982
868.103	13955
868.233	13944
868.364	13982
868.495	14031
868.625	14275
868.756	14339
868.886	14237
869.017	14206
869.147	14343
869.278	14336
869.408	14244
869.539	14199
869.669	14305
869.799	14202
869.929	14301
870.06	14355
870.19	14590
870.32	14533
870.45	14636
870.58	14667
870.71	14712
870.84	14712
870.97	14556
871.1	14636
871.23	14758
871.36	14743
871.489	14758
871.619	14785
871.749	14804
871.879	14853
872.008	14960
872.138	14834
872.267	14910
872.397	14716
872.526	14689
872.656	14613
872.785	14602
872.915	14857
873.044	15039
873.173	14921
873.303	14956
873.432	14990
873.561	15001
873.69	14948
873.819	14906
873.948	14971
874.077	14861
874.206	14914
874.335	14971
874.464	15005
874.593	15222
874.722	15241
874.851	15230
874.979	15188
875.108	15237
875.237	15131
875.365	15089
875.494	15138
875.623	15249
875.751	15207
875.88	15211
876.008	15401
876.136	15454
876.265	15644
876.393	15831
876.521	15694
876.65	15785
876.778	15682
876.906	15652
877.034	15580
877.162	15622
877.29	15595
877.418	15500
877.546	15641
877.674	15587
877.802	15572
877.93	15618
878.058	15568
878.185	15488
878.313	15538
878.441	15686
878.568	15431
878.696	15667
878.824	15633
878.951	15709
879.079	15717
879.206	15907
879.333	15800
879.461	15671
879.588	15804
879.715	15842
879.842	15835
879.97	15736
880.097	15477
880.224	15405
880.351	15534
880.478	15492
880.605	15359
880.732	15523
880.859	15743
880.986	15443
881.112	15603
881.239	15370
881.366	15222
881.493	15146
881.619	15138
881.746	15154
881.872	15097
881.999	15146
882.125	15157
882.252	15192
882.378	15112
882.505	15245
882.631	15036
882.757	14986
882.883	14979
883.01	14975
883.136	14887
883.262	14788
883.388	14868
883.514	14891
883.64	14921
883.766	15005
883.892	14765
884.018	14826
884.143	14910
884.269	14971
884.395	14731
884.52	14583
884.646	14701
884.772	14541
884.897	14629
885.023	14663
885.148	14792
885.274	14811
885.399	14762
885.524	14667
885.65	14693
885.775	14739
885.9	14587
886.025	14781
886.15	14735
886.275	14617
886.4	14598
886.525	14716
886.65	14682
886.775	14533
886.9	14731
887.025	14910
887.149	14682
887.274	14518
887.399	14412
887.523	14484
887.648	14366
887.773	14385
887.897	14575
888.021	14575
888.146	14476
888.27	14556
888.395	14514
888.519	14552
888.643	14560
888.767	14564
888.891	14347
889.015	14351
889.139	14446
889.263	14393
889.387	14450
889.511	14606
889.635	14469
889.759	14377
889.883	14396
890.006	14370
890.13	14374
890.254	14282
890.377	14336
890.501	14252
890.624	14176
890.748	14256
890.871	14016
890.995	13967
891.118	13944
891.241	14031
891.364	13986
891.488	14172
891.611	14005
891.734	14065
891.857	14153
891.98	14062
892.103	14157
892.226	14096
892.349	14088
892.471	13890
892.594	14016
892.717	14054
892.839	14130
892.962	14046
893.085	14183
893.207	14046
893.33	13940
893.452	13963
893.575	14218
893.697	14039
893.819	14259
893.941	14233
894.064	14206
894.186	14058
894.308	13993
894.43	14130
894.552	14336
894.674	14183
894.796	14142
894.918	14077
895.04	14069
895.161	14183
895.283	14187
895.405	14084
895.526	14054
895.648	14138
895.769	14157
895.891	14233
896.012	14286
896.134	14233
896.255	14229
896.376	14096
896.498	14229
896.619	14206
896.74	14180
896.861	14252
896.982	14560
897.103	14762
897.224	14575
897.345	14469
897.466	14271
897.587	14511
897.708	14552
897.828	14556
897.949	14507
898.07	14442
898.19	14522
898.311	14606
898.431	14499
898.552	14617
898.672	14678
898.792	14632
898.913	14617
899.033	14488
899.153	14366
899.273	14351
899.393	14434
899.513	14450
899.633	14385
899.753	14404
899.873	14324
899.993	14408
900.113	14393
900.232	14385
900.352	14465
900.472	14400
900.591	14218
900.711	14305
900.83	14252
900.95	14400
901.069	14324
901.189	14225
901.308	13932
901.427	13890
901.546	13951
901.665	14058
901.784	13974
901.904	13898
902.023	13750
902.141	13548
902.26	13544
902.379	13643
902.498	13559
902.617	13476
902.735	13518
902.854	13476
902.973	13411
903.091	13339
903.21	13194
903.328	13289
903.446	13129
903.565	13171
903.683	13133
903.801	13099
903.919	13091
904.038	13103
904.156	12939
904.274	13015
904.392	12924
904.51	12954
904.627	12943
904.745	12890
904.863	12951
904.981	12814
905.098	12604
905.216	12582
905.334	12635
905.451	12597
905.569	12665
905.686	12662
905.803	12551
905.921	12502
906.038	12563
906.155	12448
906.272	12327
906.389	12357
906.506	12296
906.623	12235
906.74	12148
906.857	11908
906.974	12110
907.091	12281
907.208	12346
907.324	12338
907.441	12140
907.557	11958
907.674	11992
907.79	11912
907.907	11965
908.023	11969
908.139	11935
908.256	11904
908.372	11832
908.488	11828
908.604	11783
908.72	11665
908.836	11760
908.952	11707
909.068	11661
909.184	11805
909.3	11680
909.415	11821
909.531	11775
909.647	11516
909.762	11558
909.878	11376
909.993	11505
910.108	11478
910.224	11478
910.339	11512
910.454	11455
910.57	11376
910.685	11330
910.8	11493
910.915	11589
911.03	11292
911.145	11220
911.259	11147
911.374	11128
911.489	11128
911.604	11056
911.718	10927
911.833	10934
911.947	10904
912.062	10755
912.176	10885
912.291	10949
912.405	10938
912.519	11132
912.633	11121
912.748	10965
912.862	10965
912.976	10816
913.09	10759
913.204	10797
913.318	10801
913.431	10961
913.545	10892
913.659	10946
913.772	10885
913.886	10729
914	10656
914.113	10820
914.226	10847
914.34	10710
914.453	10592
914.566	10812
914.68	10634
914.793	10664
914.906	10508
915.019	10409
915.132	10371
915.245	10462
915.358	10409
915.47	10455
915.583	10455
915.696	10481
915.809	10592
915.921	10580
916.034	10451
916.146	10443
916.259	10325
916.371	10497
916.483	10432
916.595	10405
916.708	10405
916.82	10405
916.932	10379
917.044	10394
917.156	10318
917.268	10162
917.38	10238
917.491	10246
917.603	10303
917.715	10440
917.826	10390
917.938	10325
918.049	10204
918.161	10299
918.272	10337
918.384	10402
918.495	10314
918.606	10200
918.717	10086
918.828	10166
918.939	10162
919.05	10112
919.161	10139
919.272	9953
919.383	10082
919.494	10200
919.604	10310
919.715	10253
919.826	10135
919.936	10078
920.047	10272
920.157	10249
920.267	10382
920.378	10253
920.488	10173
920.598	10318
920.708	10462
920.818	10447
920.928	10333
921.038	10474
921.148	10584
921.258	10223
921.368	10128
921.477	10048
921.587	10074
921.697	9949
921.806	10112
921.916	9930
922.025	9812
922.134	9736
922.244	9717
922.353	9785
922.462	9682
922.571	9542
922.68	9439
922.789	9416
922.898	9488
923.007	9408
923.116	9386
923.224	9405
923.333	9450
923.442	9317
923.55	9260
923.659	9401
923.767	9408
923.876	9306
923.984	9393
924.092	9268
924.201	9279
924.309	9325
924.417	9355
924.525	9233
924.633	9351
924.741	10010
924.849	9085
924.956	9226
925.064	9055
925.172	9081
925.279	9055
925.387	9043
925.494	9074
925.602	9233
925.709	9192
925.816	9055
925.924	9036
926.031	9207
926.138	9119
926.245	9150
926.352	8979
926.459	9173
926.566	9203
926.673	9070
926.779	8990
926.886	9005
926.993	8842
927.099	8853
927.206	8739
927.312	8731
927.419	8849
927.525	8845
927.631	8777
927.737	8724
927.843	8720
927.95	8617
928.056	8625
928.162	8693
928.267	8739
928.373	9325
928.479	8834
928.585	8606
928.69	8648
928.796	8754
928.901	8621
929.007	8476
929.112	8617
929.218	8568
929.323	8564
929.428	8499
929.533	8648
929.638	8454
929.743	8423
929.848	8556
929.953	8499
930.058	8461
930.163	8294
930.267	8324
930.372	8423
930.477	8305
930.581	8526
930.685	8328
930.79	8153
930.894	8275
930.998	8248
931.103	8347
931.207	8012
931.311	7986
931.415	7928
931.519	7772
931.623	7712
