Data from test_V78500241_3639.txt Node
Date: Fri Mar 25 14:59:03 CST 2022
User: usil
Spectrometer: V785-0024
Trigger mode: 0
Integration Time (sec): 4.000000E-1
Scans to average: 1
Nonlinearity correction enabled: false
Boxcar width: 0
Storing dark spectrum: false
XAxis mode: Wavelengths
Number of Pixels in Spectrum: 1024
>>>>>Begin Spectral Data<<<<<
801.071	21911
801.214	21705
801.356	21622
801.499	21507
801.641	21340
801.783	21245
801.926	21245
802.068	21291
802.211	21017
802.353	20994
802.496	20902
802.638	20750
802.78	20651
802.923	20575
803.065	20579
803.208	20617
803.35	20583
803.492	20625
803.635	20750
803.777	20461
803.919	20564
804.061	20899
804.204	20663
804.346	20533
804.488	20606
804.63	20484
804.773	20408
804.915	20526
805.057	20552
805.199	20461
805.341	20594
805.483	20689
805.626	20579
805.768	20351
805.91	20514
806.052	20571
806.194	20244
806.336	20686
806.478	20446
806.62	20507
806.762	20571
806.904	20621
807.046	20887
807.188	20823
807.33	20830
807.472	20861
807.614	20777
807.756	20746
807.898	20499
808.04	20476
808.182	20438
808.324	20651
808.465	20533
808.607	20785
808.749	20849
808.891	20883
809.033	20918
809.174	20910
809.316	20960
809.458	20861
809.6	20868
809.741	20941
809.883	20895
810.025	20933
810.166	21009
810.308	20937
810.45	21013
810.591	20842
810.733	20701
810.875	20617
811.016	20564
811.158	20442
811.299	20708
811.441	20754
811.582	20777
811.724	20495
811.865	20488
812.007	20511
812.148	20606
812.29	20746
812.431	20739
812.573	20925
812.714	21028
812.855	21036
812.997	21180
813.138	21264
813.279	21165
813.421	21100
813.562	21024
813.703	20868
813.845	20727
813.986	20377
814.127	20244
814.268	20199
814.41	20096
814.551	20092
814.692	20351
814.833	20126
814.974	20058
815.115	20043
815.256	20058
815.397	19997
815.539	19970
815.68	19830
815.821	19849
815.962	19947
816.103	19868
816.244	19647
816.385	19670
816.526	19575
816.666	19487
816.807	19251
816.948	19282
817.089	19304
817.23	19377
817.371	19346
817.512	19217
817.653	19225
817.793	19194
817.934	19213
818.075	19232
818.216	19225
818.356	19301
818.497	19145
818.638	18985
818.778	19015
818.919	18962
819.06	18859
819.2	19129
819.341	19179
819.481	19164
819.622	19358
819.762	19491
819.903	19358
820.043	19362
820.184	19255
820.324	19293
820.465	19304
820.605	19209
820.746	19213
820.886	19133
821.026	19148
821.167	19175
821.307	19259
821.447	19213
821.588	19118
821.728	18973
821.868	18844
822.008	18688
822.149	18669
822.289	18627
822.429	18521
822.569	18319
822.709	18304
822.849	18216
822.99	18144
823.13	18167
823.27	18140
823.41	17980
823.55	17961
823.69	17996
823.83	18007
823.97	17931
824.11	17809
824.25	17684
824.389	17813
824.529	17920
824.669	17748
824.809	17798
824.949	17745
825.089	17840
825.228	17764
825.368	17581
825.508	17543
825.648	17532
825.787	17581
825.927	17467
826.067	17516
826.206	17448
826.346	17566
826.485	17516
826.625	17471
826.765	17608
826.904	17558
827.044	17273
827.183	17299
827.323	17189
827.462	17273
827.601	17288
827.741	17143
827.88	17292
828.02	17151
828.159	17102
828.298	17258
828.437	17242
828.577	17239
828.716	17360
828.855	17231
828.994	16972
829.134	16968
829.273	16984
829.412	16953
829.551	16957
829.69	16991
829.829	16965
829.968	17041
830.107	17048
830.246	16961
830.385	17006
830.524	16949
830.663	16748
830.802	16721
830.941	16550
831.08	16550
831.219	16721
831.357	16645
831.496	16801
831.635	16561
831.774	16554
831.913	16466
832.051	16333
832.19	16314
832.329	16466
832.467	16276
832.606	16265
832.744	16344
832.883	16166
833.022	16287
833.16	16261
833.299	16276
833.437	16318
833.576	16402
833.714	16386
833.852	16424
833.991	16447
834.129	16424
834.267	16470
834.406	16413
834.544	16379
834.682	16409
834.821	16417
834.959	16489
835.097	16246
835.235	16470
835.373	16462
835.511	16409
835.65	16382
835.788	16265
835.926	16135
836.064	16097
836.202	16097
836.34	16284
836.478	16352
836.615	16306
836.753	16318
836.891	16386
837.029	16215
837.167	16226
837.305	16150
837.443	16200
837.58	16097
837.718	16246
837.856	16238
837.993	16078
838.131	16196
838.269	16071
838.406	16116
838.544	16097
838.681	15816
838.819	15793
838.956	15762
839.094	15679
839.231	15739
839.369	15934
839.506	16086
839.643	15949
839.781	15686
839.918	15717
840.055	15762
840.193	15781
840.33	15755
840.467	15660
840.604	15652
840.742	15922
840.879	15599
841.016	15610
841.153	15694
841.29	15759
841.427	15679
841.564	15694
841.701	15812
841.838	15732
841.975	15644
842.112	15629
842.249	15580
842.385	15523
842.522	15637
842.659	15439
842.796	15469
842.933	15420
843.069	15405
843.206	15473
843.343	15492
843.479	15526
843.616	15538
843.752	15294
843.889	15325
844.025	15420
844.162	15291
844.298	15393
844.435	15233
844.571	15188
844.708	15348
844.844	15454
844.98	15370
845.117	15477
845.253	15245
845.389	15249
845.525	15268
845.661	15226
845.798	15039
845.934	15066
846.07	15074
846.206	15100
846.342	15218
846.478	15081
846.614	14902
846.75	14758
846.886	14849
847.022	14948
847.158	14853
847.294	14883
847.429	14880
847.565	14773
847.701	15127
847.837	14648
847.972	14511
848.108	14762
848.244	14659
848.379	14484
848.515	14404
848.65	14457
848.786	14442
848.921	14351
849.057	14602
849.192	14533
849.328	14492
849.463	14613
849.598	14469
849.734	14317
849.869	14328
850.004	14286
850.14	14343
850.275	14206
850.41	14107
850.545	14214
850.68	14332
850.815	14187
850.95	14229
851.085	14408
851.22	14358
851.355	14183
851.49	14161
851.625	14176
851.76	14252
851.895	14157
852.03	14096
852.165	14142
852.299	14278
852.434	14271
852.569	14240
852.703	14256
852.838	14229
852.973	14419
853.107	14385
853.242	14248
853.376	14088
853.511	14012
853.645	14031
853.78	14259
853.914	14058
854.048	14031
854.183	14084
854.317	14252
854.451	14332
854.585	14046
854.72	13978
854.854	14153
854.988	13959
855.122	13986
855.256	13909
855.39	14050
855.524	14278
855.658	14134
855.792	14088
855.926	14180
856.06	14142
856.194	14263
856.327	13993
856.461	14016
856.595	14020
856.729	14123
856.862	14221
856.996	14088
857.13	14145
857.263	14176
857.397	14172
857.53	13928
857.664	14172
857.797	14218
857.931	14161
858.064	14111
858.197	14161
858.331	14111
858.464	13997
858.597	14016
858.731	14195
858.864	13970
858.997	14027
859.13	14164
859.263	14115
859.396	14195
859.529	14043
859.662	14020
859.795	14069
859.928	14172
860.061	14259
860.194	14336
860.327	14180
860.46	14035
860.592	14317
860.725	14199
860.858	14138
860.99	14081
861.123	14069
861.256	14092
861.388	14126
861.521	14971
861.653	13940
861.786	13883
861.918	13959
862.05	13986
862.183	14046
862.315	14008
862.447	14103
862.58	14020
862.712	13894
862.844	13784
862.976	13982
863.108	13917
863.24	14427
863.372	13811
863.504	13875
863.636	13860
863.768	13917
863.9	13822
864.032	13765
864.164	13871
864.296	13906
864.428	14043
864.559	13986
864.691	13986
864.823	14005
864.954	13890
865.086	13837
865.217	13894
865.349	13803
865.48	13890
865.612	13928
865.743	13997
865.875	13928
866.006	13883
866.137	13871
866.269	13849
866.4	13795
866.531	13871
866.662	13772
866.793	13791
866.924	13746
867.055	13738
867.186	13811
867.317	13849
867.448	13784
867.579	13814
867.71	13772
867.841	13795
867.972	13841
868.103	13875
868.233	13913
868.364	13864
868.495	13963
868.625	14107
868.756	14157
868.886	14035
869.017	14111
869.147	14240
869.278	14252
869.408	14195
869.539	14168
869.669	14214
869.799	14077
869.929	14309
870.06	14233
870.19	14385
870.32	14328
870.45	14469
870.58	14492
870.71	14625
870.84	14655
870.97	14545
871.1	14396
871.23	14743
871.36	14750
871.489	14640
871.619	14697
871.749	14693
871.879	14781
872.008	14864
872.138	14735
872.267	14727
872.397	14545
872.526	14560
872.656	14514
872.785	14556
872.915	14724
873.044	14758
873.173	14697
873.303	14845
873.432	14792
873.561	14891
873.69	14792
873.819	14857
873.948	14815
874.077	14788
874.206	14693
874.335	14762
874.464	14861
874.593	15127
874.722	14982
874.851	15135
874.979	15169
875.108	15093
875.237	15093
875.365	14986
875.494	15116
875.623	15180
875.751	15005
875.88	15142
876.008	15256
876.136	15325
876.265	15412
876.393	15675
876.521	15603
876.65	15576
876.778	15675
876.906	15454
877.034	15389
877.162	15542
877.29	15397
877.418	15572
877.546	15431
877.674	15526
877.802	15580
877.93	15515
878.058	15481
878.185	15348
878.313	15458
878.441	15580
878.568	15359
878.696	15378
878.824	15504
878.951	15671
879.079	15663
879.206	15850
879.333	15648
879.461	15599
879.588	15603
879.715	15671
879.842	15812
879.97	15549
880.097	15393
880.224	15382
880.351	15359
880.478	15370
880.605	15370
880.732	15321
880.859	15599
880.986	15507
881.112	15374
881.239	15245
881.366	15127
881.493	15112
881.619	14994
881.746	15020
881.872	14948
881.999	14883
882.125	14990
882.252	15020
882.378	15176
882.505	15135
882.631	14937
882.757	14899
882.883	14925
883.01	14857
883.136	14868
883.262	14727
883.388	14697
883.514	14788
883.64	14925
883.766	14811
883.892	14594
884.018	14689
884.143	14864
884.269	14921
884.395	14743
884.52	14552
884.646	14556
884.772	14514
884.897	14393
885.023	14537
885.148	14571
885.274	14640
885.399	14629
885.524	14552
885.65	14568
885.775	14613
885.9	14587
886.025	14651
886.15	14659
886.275	14457
886.4	14454
886.525	14492
886.65	14507
886.775	14492
886.9	14598
887.025	14655
887.149	14492
887.274	14446
887.399	14332
887.523	14434
887.648	14294
887.773	14313
887.897	14511
888.021	14530
888.146	14298
888.27	14484
888.395	14476
888.519	14408
888.643	14328
888.767	14495
888.891	14278
889.015	14256
889.139	14275
889.263	14237
889.387	14305
889.511	14480
889.635	14412
889.759	14202
889.883	14229
890.006	14221
890.13	14339
890.254	14134
890.377	14153
890.501	14043
890.624	14088
890.748	14077
890.871	13997
890.995	13849
891.118	13860
891.241	13936
891.364	13902
891.488	14043
891.611	14001
891.734	13955
891.857	14001
891.98	13989
892.103	14020
892.226	13936
892.349	13925
892.471	13803
892.594	14016
892.717	13928
892.839	13894
892.962	13928
893.085	14035
893.207	13951
893.33	13826
893.452	13845
893.575	13989
893.697	13963
893.819	14172
893.941	14187
894.064	14180
894.186	14016
894.308	13906
894.43	14119
894.552	14130
894.674	14077
894.796	13906
894.918	14035
895.04	13917
895.161	14062
895.283	14130
895.405	14027
895.526	14088
895.648	14058
895.769	13986
895.891	14187
896.012	14210
896.134	14107
896.255	14218
896.376	13982
896.498	14005
896.619	14225
896.74	14210
896.861	14149
896.982	14480
897.103	14503
897.224	14396
897.345	14442
897.466	14336
897.587	14396
897.708	14533
897.828	14358
897.949	14503
898.07	14244
898.19	14370
898.311	14518
898.431	14381
898.552	14461
898.672	14511
898.792	14590
898.913	14499
899.033	14377
899.153	14271
899.273	14278
899.393	14263
899.513	14393
899.633	14309
899.753	14400
899.873	14229
899.993	14480
900.113	14324
900.232	14320
900.352	14275
900.472	14164
900.591	14164
900.711	14282
900.83	14130
900.95	14324
901.069	14320
901.189	14153
901.308	13947
901.427	13849
901.546	13879
901.665	13959
901.784	13879
901.904	13693
902.023	13620
902.141	13525
902.26	13464
902.379	13571
902.498	13464
902.617	13350
902.735	13533
902.854	13480
902.973	13384
903.091	13168
903.21	13152
903.328	13194
903.446	13088
903.565	13061
903.683	13072
903.801	12935
903.919	13046
904.038	12947
904.156	12840
904.274	12947
904.392	12863
904.51	12791
904.627	12844
904.745	12939
904.863	12913
904.981	12620
905.098	12555
905.216	12399
905.334	12547
905.451	12525
905.569	12540
905.686	12627
905.803	12502
905.921	12407
906.038	12407
906.155	12422
906.272	12308
906.389	12270
906.506	12144
906.623	12095
906.74	12114
906.857	12026
906.974	12049
907.091	12182
907.208	12266
907.324	12121
907.441	12030
907.557	12007
907.674	11847
907.79	11817
907.907	11805
908.023	11946
908.139	11840
908.256	11889
908.372	11874
908.488	11790
908.604	11649
908.72	11596
908.836	11634
908.952	11672
909.068	11668
909.184	11775
909.3	11684
909.415	11733
909.531	11608
909.647	11402
909.762	11417
909.878	11398
909.993	11444
910.108	11391
910.224	11280
910.339	11444
910.454	11299
910.57	11341
910.685	11231
910.8	11349
910.915	11406
911.03	11212
911.145	11109
911.259	11048
911.374	11151
911.489	11056
911.604	10927
911.718	10862
911.833	10828
911.947	10759
912.062	10660
912.176	10831
912.291	10915
912.405	10911
912.519	11045
912.633	11086
912.748	10900
912.862	10908
912.976	10748
913.09	10698
913.204	10653
913.318	10778
913.431	10839
913.545	10930
913.659	10885
913.772	10717
913.886	10664
914	10577
914.113	10729
914.226	10786
914.34	10698
914.453	10573
914.566	10634
914.68	10599
914.793	10558
914.906	10394
915.019	10371
915.132	10246
915.245	10375
915.358	10348
915.47	10379
915.583	10451
915.696	10390
915.809	10512
915.921	10538
916.034	10344
916.146	10344
916.259	10344
916.371	10459
916.483	10428
916.595	10310
916.708	10291
916.82	10325
916.932	10299
917.044	10253
917.156	10204
917.268	10120
917.38	10272
917.491	10185
917.603	10238
917.715	10287
917.826	10344
917.938	10196
918.049	10124
918.161	10166
918.272	10322
918.384	10325
918.495	10215
918.606	10040
918.717	9979
918.828	10173
918.939	10101
919.05	9994
919.161	10063
919.272	9884
919.383	9972
919.494	10124
919.604	10299
919.715	10143
919.826	9968
919.936	10036
920.047	10162
920.157	10147
920.267	10291
920.378	10166
920.488	10135
920.598	10375
920.708	10466
920.818	10310
920.928	10246
921.038	10409
921.148	10440
921.258	10188
921.368	10090
921.477	9991
921.587	9979
921.697	9831
921.806	10044
921.916	9873
922.025	9793
922.134	9690
922.244	9644
922.353	9724
922.462	9553
922.571	9561
922.68	9340
922.789	9370
922.898	9332
923.007	9329
923.116	9416
923.224	9348
923.333	9332
923.442	9348
923.55	9211
923.659	9336
923.767	9310
923.876	9195
923.984	9302
924.092	9184
924.201	9253
924.309	9272
924.417	9207
924.525	9203
924.633	9237
924.741	9953
924.849	9039
924.956	9180
925.064	9051
925.172	8998
925.279	9077
925.387	9123
925.494	9070
925.602	9123
925.709	9104
925.816	8952
925.924	9047
926.031	9157
926.138	8998
926.245	9058
926.352	8918
926.459	9100
926.566	9142
926.673	8986
926.779	8929
926.886	8804
926.993	8735
927.099	8773
927.206	8598
927.312	8701
927.419	8842
927.525	8727
927.631	8743
927.737	8610
927.843	8598
927.95	8507
928.056	8579
928.162	8636
928.267	8655
928.373	9165
928.479	8727
928.585	8473
928.69	8602
928.796	8644
928.901	8602
929.007	8465
929.112	8560
929.218	8545
929.323	8438
929.428	8488
929.533	8552
929.638	8446
929.743	8488
929.848	8507
929.953	8423
930.058	8366
930.163	8221
930.267	8180
930.372	8351
930.477	8206
930.581	8450
930.685	8324
930.79	8157
930.894	8240
930.998	8168
931.103	8324
931.207	7970
931.311	7879
931.415	7841
931.519	7677
931.623	7723
