Data from test_V78500241_2003.txt Node
Date: Fri Mar 25 14:47:39 CST 2022
User: usil
Spectrometer: V785-0024
Trigger mode: 0
Integration Time (sec): 4.000000E-1
Scans to average: 1
Nonlinearity correction enabled: false
Boxcar width: 0
Storing dark spectrum: false
XAxis mode: Wavelengths
Number of Pixels in Spectrum: 1024
>>>>>Begin Spectral Data<<<<<
801.071	21991
801.214	22040
801.356	21759
801.499	21694
801.641	21462
801.783	21488
801.926	21538
802.068	21340
802.211	21351
802.353	21165
802.496	21165
802.638	20990
802.78	20933
802.923	20804
803.065	20746
803.208	20815
803.35	20834
803.492	20994
803.635	20929
803.777	20853
803.919	20941
804.061	21176
804.204	20807
804.346	20823
804.488	20701
804.63	20864
804.773	20689
804.915	20807
805.057	20910
805.199	20674
805.341	20716
805.483	20937
805.626	20731
805.768	20720
805.91	20781
806.052	20800
806.194	20697
806.336	20918
806.478	20762
806.62	20708
806.762	20735
806.904	20925
807.046	21173
807.188	21058
807.33	20975
807.472	21013
807.614	20982
807.756	20899
807.898	20864
808.04	20925
808.182	20815
808.324	20632
808.465	20830
808.607	20986
808.749	21096
808.891	21241
809.033	21256
809.174	21226
809.316	21039
809.458	21077
809.6	21058
809.741	21230
809.883	21211
810.025	21252
810.166	21222
810.308	21241
810.45	21188
810.591	21081
810.733	20895
810.875	20937
811.016	20823
811.158	20697
811.299	20769
811.441	20994
811.582	21070
811.724	20834
811.865	20834
812.007	20861
812.148	20864
812.29	20796
812.431	21093
812.573	21218
812.714	21260
812.855	21378
812.997	21496
813.138	21534
813.279	21488
813.421	21359
813.562	21256
813.703	21085
813.845	21146
813.986	20746
814.127	20503
814.268	20549
814.41	20484
814.551	20480
814.692	20514
814.833	20267
814.974	20412
815.115	20507
815.256	20176
815.397	20214
815.539	20145
815.68	20206
815.821	20035
815.962	20157
816.103	20164
816.244	19936
816.385	19913
816.526	19963
816.666	19715
816.807	19518
816.948	19651
817.089	19582
817.23	19609
817.371	19502
817.512	19620
817.653	19556
817.793	19491
817.934	19537
818.075	19502
818.216	19518
818.356	19476
818.497	19434
818.638	19202
818.778	19293
818.919	19244
819.06	19266
819.2	19400
819.341	19381
819.481	19354
819.622	19609
819.762	19635
819.903	19712
820.043	19594
820.184	19464
820.324	19540
820.465	19616
820.605	19510
820.746	19499
820.886	19441
821.026	19464
821.167	19434
821.307	19514
821.447	19521
821.588	19304
821.728	19304
821.868	19152
822.008	18973
822.149	18825
822.289	18894
822.429	18642
822.569	18688
822.709	18525
822.849	18418
822.99	18490
823.13	18475
823.27	18437
823.41	18213
823.55	18224
823.69	18213
823.83	18315
823.97	18190
824.11	18079
824.25	17923
824.389	18106
824.529	18174
824.669	17874
824.809	18140
824.949	18106
825.089	18125
825.228	18053
825.368	17882
825.508	17821
825.648	17687
825.787	17885
825.927	17897
826.067	17695
826.206	17798
826.346	17893
826.485	17824
826.625	17745
826.765	17961
826.904	17737
827.044	17630
827.183	17505
827.323	17383
827.462	17524
827.601	17463
827.741	17501
827.88	17501
828.02	17490
828.159	17425
828.298	17604
828.437	17554
828.577	17417
828.716	17528
828.855	17391
828.994	17223
829.134	17185
829.273	17197
829.412	17254
829.551	17254
829.69	17166
829.829	17185
829.968	17223
830.107	17284
830.246	17334
830.385	17109
830.524	17067
830.663	17006
830.802	16972
830.941	16869
831.08	16923
831.219	16972
831.357	16968
831.496	17060
831.635	16972
831.774	16801
831.913	16725
832.051	16615
832.19	16664
832.329	16736
832.467	16634
832.606	16596
832.744	16424
832.883	16599
833.022	16508
833.16	16603
833.299	16603
833.437	16622
833.576	16698
833.714	16653
833.852	16679
833.991	16630
834.129	16694
834.267	16759
834.406	16615
834.544	16706
834.682	16607
834.821	16656
834.959	16702
835.097	16588
835.235	16748
835.373	16558
835.511	16645
835.65	16542
835.788	16550
835.926	16405
836.064	16348
836.202	16432
836.34	16592
836.478	16656
836.615	16580
836.753	16527
836.891	16546
837.029	16443
837.167	16394
837.305	16466
837.443	16329
837.58	16363
837.718	16432
837.856	16382
837.993	16291
838.131	16344
838.269	16352
838.406	16314
838.544	16249
838.681	16192
838.819	15994
838.956	15873
839.094	15907
839.231	15884
839.369	16116
839.506	16398
839.643	16188
839.781	15987
839.918	15926
840.055	16002
840.193	15949
840.33	16002
840.467	15941
840.604	15964
840.742	16112
840.879	15876
841.016	15922
841.153	15892
841.29	16002
841.427	16048
841.564	15972
841.701	15915
841.838	15846
841.975	15854
842.112	15800
842.249	15850
842.385	15781
842.522	15880
842.659	15739
842.796	15770
842.933	15728
843.069	15644
843.206	15713
843.343	15770
843.479	15644
843.616	15793
843.752	15416
843.889	15561
844.025	15766
844.162	15492
844.298	15584
844.435	15538
844.571	15485
844.708	15526
844.844	15755
844.98	15690
845.117	15614
845.253	15431
845.389	15485
845.525	15435
845.661	15287
845.798	15321
845.934	15443
846.07	15184
846.206	15298
846.342	15458
846.478	15317
846.614	15161
846.75	15112
846.886	15009
847.022	15142
847.158	15001
847.294	15131
847.429	15119
847.565	15058
847.701	15329
847.837	14807
847.972	14781
848.108	14918
848.244	14864
848.379	14697
848.515	14754
848.65	14583
848.786	14765
848.921	14636
849.057	14724
849.192	14823
849.328	14788
849.463	14659
849.598	14606
849.734	14670
849.869	14549
850.004	14499
850.14	14499
850.275	14488
850.41	14484
850.545	14507
850.68	14503
850.815	14522
850.95	14473
851.085	14549
851.22	14617
851.355	14511
851.49	14476
851.625	14400
851.76	14385
851.895	14343
852.03	14362
852.165	14400
852.299	14514
852.434	14454
852.569	14507
852.703	14465
852.838	14651
852.973	14648
853.107	14648
853.242	14339
853.376	14351
853.511	14180
853.645	14202
853.78	14564
853.914	14389
854.048	14271
854.183	14347
854.317	14415
854.451	14530
854.585	14389
854.72	14256
854.854	14362
854.988	14149
855.122	14298
855.256	14248
855.39	14225
855.524	14374
855.658	14400
855.792	14347
855.926	14377
856.06	14522
856.194	14450
856.327	14252
856.461	14092
856.595	14248
856.729	14339
856.862	14412
856.996	14370
857.13	14404
857.263	14415
857.397	14537
857.53	14377
857.664	14339
857.797	14305
857.931	14473
858.064	14438
858.197	14484
858.331	14377
858.464	14271
858.597	14195
858.731	14282
858.864	14298
858.997	14313
859.13	14324
859.263	14324
859.396	14370
859.529	14301
859.662	14332
859.795	14248
859.928	14343
860.061	14511
860.194	14488
860.327	14415
860.46	14275
860.592	14434
860.725	14473
860.858	14404
860.99	14339
861.123	14256
861.256	14237
861.388	14320
861.521	15001
861.653	14244
861.786	14225
861.918	14206
862.05	14286
862.183	14282
862.315	14370
862.447	14412
862.58	14309
862.712	14142
862.844	14005
862.976	14244
863.108	14126
863.24	14473
863.372	14024
863.504	14077
863.636	14126
863.768	14119
863.9	14123
864.032	14100
864.164	14092
864.296	14153
864.428	14351
864.559	14328
864.691	14229
864.823	14240
864.954	14221
865.086	14123
865.217	14115
865.349	14050
865.48	14161
865.612	14206
865.743	14286
865.875	14020
866.006	14077
866.137	14237
866.269	14149
866.4	14183
866.531	14073
866.662	14103
866.793	14123
866.924	14035
867.055	14149
867.186	14221
867.317	14081
867.448	13967
867.579	14088
867.71	14145
867.841	14130
867.972	14069
868.103	14153
868.233	14119
868.364	14100
868.495	14149
868.625	14317
868.756	14431
868.886	14237
869.017	14286
869.147	14503
869.278	14533
869.408	14530
869.539	14415
869.669	14412
869.799	14457
869.929	14507
870.06	14393
870.19	14621
870.32	14613
870.45	14705
870.58	14788
870.71	14887
870.84	14876
870.97	14750
871.1	14800
871.23	14956
871.36	15005
871.489	15009
871.619	14952
871.749	14910
871.879	14880
872.008	15058
872.138	15077
872.267	14876
872.397	14868
872.526	14906
872.656	14819
872.785	14891
872.915	15062
873.044	15081
873.173	15013
873.303	15051
873.432	15013
873.561	15074
873.69	15081
873.819	15058
873.948	15199
874.077	15009
874.206	14906
874.335	15093
874.464	15245
874.593	15359
874.722	15325
874.851	15431
874.979	15450
875.108	15378
875.237	15256
875.365	15199
875.494	15283
875.623	15355
875.751	15298
875.88	15431
876.008	15504
876.136	15519
876.265	15698
876.393	15960
876.521	15804
876.65	15774
876.778	15766
876.906	15759
877.034	15667
877.162	15827
877.29	15682
877.418	15701
877.546	15690
877.674	15724
877.802	15759
877.93	15705
878.058	15690
878.185	15622
878.313	15637
878.441	15823
878.568	15622
878.696	15705
878.824	15766
878.951	15915
879.079	15964
879.206	16196
879.333	15953
879.461	15812
879.588	15873
879.715	15880
879.842	16006
879.97	15800
880.097	15637
880.224	15603
880.351	15568
880.478	15629
880.605	15648
880.732	15591
880.859	15785
880.986	15671
881.112	15701
881.239	15492
881.366	15447
881.493	15306
881.619	15176
881.746	15226
881.872	15173
881.999	15249
882.125	15256
882.252	15306
882.378	15222
882.505	15340
882.631	15203
882.757	15180
882.883	15142
883.01	15112
883.136	14986
883.262	14941
883.388	14918
883.514	15077
883.64	15226
883.766	15089
883.892	14937
884.018	14872
884.143	15176
884.269	15119
884.395	14830
884.52	14712
884.646	14785
884.772	14667
884.897	14663
885.023	14861
885.148	14895
885.274	14971
885.399	14845
885.524	14788
885.65	14777
885.775	14785
885.9	14720
886.025	14785
886.15	14777
886.275	14769
886.4	14674
886.525	14705
886.65	14670
886.775	14777
886.9	14830
887.025	14952
887.149	14899
887.274	14575
887.399	14533
887.523	14549
887.648	14469
887.773	14522
887.897	14731
888.021	14651
888.146	14583
888.27	14758
888.395	14796
888.519	14724
888.643	14682
888.767	14659
888.891	14564
889.015	14446
889.139	14522
889.263	14431
889.387	14492
889.511	14594
889.635	14629
889.759	14533
889.883	14457
890.006	14530
890.13	14587
890.254	14298
890.377	14389
890.501	14263
890.624	14195
890.748	14393
890.871	14164
890.995	14119
891.118	14282
891.241	14130
891.364	14172
891.488	14332
891.611	14202
891.734	14134
891.857	14157
891.98	14214
892.103	14282
892.226	14210
892.349	14180
892.471	14062
892.594	14161
892.717	14130
892.839	14058
892.962	14240
893.085	14263
893.207	14256
893.33	14020
893.452	14096
893.575	14259
893.697	14084
893.819	14313
893.941	14454
894.064	14294
894.186	14142
894.308	14149
894.43	14259
894.552	14278
894.674	14259
894.796	14138
894.918	14221
895.04	14191
895.161	14400
895.283	14317
895.405	14195
895.526	14294
895.648	14237
895.769	14298
895.891	14324
896.012	14385
896.134	14309
896.255	14305
896.376	14343
896.498	14355
896.619	14343
896.74	14366
896.861	14415
896.982	14663
897.103	14834
897.224	14606
897.345	14552
897.466	14545
897.587	14587
897.708	14785
897.828	14651
897.949	14560
898.07	14438
898.19	14632
898.311	14765
898.431	14644
898.552	14682
898.672	14686
898.792	14826
898.913	14842
899.033	14727
899.153	14587
899.273	14431
899.393	14408
899.513	14617
899.633	14438
899.753	14537
899.873	14503
899.993	14575
900.113	14427
900.232	14556
900.352	14431
900.472	14419
900.591	14358
900.711	14412
900.83	14347
900.95	14602
901.069	14564
901.189	14324
901.308	14134
901.427	14062
901.546	14039
901.665	14027
901.784	14046
901.904	13902
902.023	13826
902.141	13655
902.26	13571
902.379	13715
902.498	13529
902.617	13613
902.735	13689
902.854	13666
902.973	13544
903.091	13449
903.21	13373
903.328	13373
903.446	13255
903.565	13164
903.683	13244
903.801	13129
903.919	13244
904.038	13217
904.156	13012
904.274	13107
904.392	13122
904.51	12958
904.627	12932
904.745	13046
904.863	13076
904.981	12776
905.098	12684
905.216	12681
905.334	12821
905.451	12707
905.569	12673
905.686	12810
905.803	12677
905.921	12521
906.038	12639
906.155	12597
906.272	12437
906.389	12327
906.506	12209
906.623	12205
906.74	12346
906.857	12155
906.974	12117
907.091	12410
907.208	12410
907.324	12296
907.441	12266
907.557	12057
907.674	12045
907.79	11927
907.907	12117
908.023	12098
908.139	12049
908.256	12019
908.372	11950
908.488	11973
908.604	11916
908.72	11836
908.836	11802
908.952	11786
909.068	11775
909.184	11901
909.3	11798
909.415	11885
909.531	11824
909.647	11665
909.762	11532
909.878	11581
909.993	11532
910.108	11474
910.224	11581
910.339	11570
910.454	11478
910.57	11417
910.685	11368
910.8	11600
910.915	11562
911.03	11463
911.145	11284
911.259	11261
911.374	11284
911.489	11124
911.604	11201
911.718	11052
911.833	11064
911.947	10938
912.062	10869
912.176	11018
912.291	10980
912.405	11029
912.519	11235
912.633	11216
912.748	11067
912.862	11048
912.976	10976
913.09	10828
913.204	10835
913.318	10934
913.431	10968
913.545	10995
913.659	11067
913.772	10942
913.886	10771
914	10786
914.113	10953
914.226	10900
914.34	10949
914.453	10778
914.566	10831
914.68	10809
914.793	10767
914.906	10558
915.019	10500
915.132	10462
915.245	10535
915.358	10538
915.47	10519
915.583	10577
915.696	10573
915.809	10672
915.921	10691
916.034	10538
916.146	10531
916.259	10481
916.371	10569
916.483	10508
916.595	10436
916.708	10443
916.82	10493
916.932	10398
917.044	10516
917.156	10398
917.268	10367
917.38	10322
917.491	10333
917.603	10394
917.715	10424
917.826	10569
917.938	10322
918.049	10261
918.161	10333
918.272	10478
918.384	10588
918.495	10341
918.606	10318
918.717	10143
918.828	10314
918.939	10246
919.05	10185
919.161	10204
919.272	10074
919.383	10162
919.494	10310
919.604	10504
919.715	10284
919.826	10131
919.936	10166
920.047	10352
920.157	10211
920.267	10405
920.378	10272
920.488	10268
920.598	10493
920.708	10592
920.818	10428
920.928	10413
921.038	10596
921.148	10596
921.258	10356
921.368	10227
921.477	10082
921.587	10101
921.697	9979
921.806	10185
921.916	10013
922.025	9911
922.134	9816
922.244	9869
922.353	9823
922.462	9717
922.571	9633
922.68	9526
922.789	9473
922.898	9481
923.007	9454
923.116	9595
923.224	9538
923.333	9488
923.442	9397
923.55	9393
923.659	9473
923.767	9431
923.876	9367
923.984	9382
924.092	9272
924.201	9405
924.309	9393
924.417	9374
924.525	9321
924.633	9325
924.741	10261
924.849	9150
924.956	9321
925.064	9249
925.172	9142
925.279	9138
925.387	9230
925.494	9199
925.602	9241
925.709	9260
925.816	9043
925.924	9173
926.031	9214
926.138	9165
926.245	9104
926.352	9108
926.459	9237
926.566	9275
926.673	9085
926.779	8990
926.886	9028
926.993	8891
927.099	8864
927.206	8880
927.312	8823
927.419	8944
927.525	8914
927.631	8910
927.737	8807
927.843	8769
927.95	8636
928.056	8819
928.162	8830
928.267	8853
928.373	9443
928.479	8899
928.585	8659
928.69	8766
928.796	8815
928.901	8678
929.007	8549
929.112	8712
929.218	8663
929.323	8610
929.428	8640
929.533	8743
929.638	8507
929.743	8560
929.848	8648
929.953	8602
930.058	8473
930.163	8358
930.267	8415
930.372	8480
930.477	8347
930.581	8560
930.685	8450
930.79	8259
930.894	8385
930.998	8294
931.103	8457
931.207	8096
931.311	8084
931.415	8020
931.519	7890
931.623	7845
