Data from test_V78500241_585.txt Node
Date: Fri Mar 25 14:37:47 CST 2022
User: usil
Spectrometer: V785-0024
Trigger mode: 0
Integration Time (sec): 4.000000E-1
Scans to average: 1
Nonlinearity correction enabled: false
Boxcar width: 0
Storing dark spectrum: false
XAxis mode: Wavelengths
Number of Pixels in Spectrum: 1024
>>>>>Begin Spectral Data<<<<<
801.071	27895
801.214	27838
801.356	27618
801.499	27382
801.641	27252
801.783	27481
801.926	27310
802.068	27081
802.211	27188
802.353	27146
802.496	26800
802.638	26815
802.78	26712
802.923	26678
803.065	26587
803.208	26826
803.35	26804
803.492	26921
803.635	26872
803.777	26781
803.919	26948
804.061	27226
804.204	26906
804.346	26937
804.488	26853
804.63	27005
804.773	26975
804.915	26979
805.057	27112
805.199	27020
805.341	27150
805.483	27435
805.626	27367
805.768	27188
805.91	27317
806.052	27351
806.194	27408
806.336	27717
806.478	27728
806.62	27888
806.762	28112
806.904	28257
807.046	28717
807.188	28752
807.33	29174
807.472	29600
807.614	29851
807.756	30475
807.898	31046
808.04	32058
808.182	33397
808.324	35044
808.465	36916
808.607	38963
808.749	40835
808.891	41862
809.033	41996
809.174	40820
809.316	39085
809.458	36779
809.6	34611
809.741	33184
809.883	31750
810.025	30875
810.166	30258
810.308	29855
810.45	29326
810.591	28831
810.733	28656
810.875	28382
811.016	28223
811.158	27873
811.299	27998
811.441	28124
811.582	27930
811.724	27614
811.865	27530
812.007	27583
812.148	27424
812.29	27629
812.431	27447
812.573	27698
812.714	27762
812.855	27724
812.997	27816
813.138	28051
813.279	27808
813.421	27663
813.562	27614
813.703	27367
813.845	27237
813.986	27024
814.127	26788
814.268	26708
814.41	26651
814.551	26594
814.692	26720
814.833	26473
814.974	26476
815.115	26469
815.256	26336
815.397	26317
815.539	26309
815.68	26233
815.821	26115
815.962	26164
816.103	26191
816.244	26111
816.385	25940
816.526	25791
816.666	25685
816.807	25575
816.948	25544
817.089	25628
817.23	25681
817.371	25476
817.512	25537
817.653	25407
817.793	25373
817.934	25525
818.075	25559
818.216	25476
818.356	25373
818.497	25316
818.638	25065
818.778	25107
818.919	25103
819.06	25282
819.2	25285
819.341	25422
819.481	25255
819.622	25472
819.762	25601
819.903	25479
820.043	25571
820.184	25415
820.324	25266
820.465	25540
820.605	25369
820.746	25388
820.886	25122
821.026	25232
821.167	25308
821.307	25194
821.447	25324
821.588	25160
821.728	24977
821.868	24745
822.008	24536
822.149	24665
822.289	24661
822.429	24342
822.569	24266
822.709	24247
822.849	24152
822.99	24030
823.13	24003
823.27	23878
823.41	23786
823.55	23737
823.69	23923
823.83	23828
823.97	23790
824.11	23665
824.25	23596
824.389	23630
824.529	23707
824.669	23566
824.809	23718
824.949	23760
825.089	23596
825.228	23771
825.368	23452
825.508	23452
825.648	23311
825.787	23604
825.927	23467
826.067	23322
826.206	23315
826.346	23436
826.485	23353
826.625	23322
826.765	23509
826.904	23421
827.044	23117
827.183	23090
827.323	22987
827.462	23041
827.601	22965
827.741	23060
827.88	23140
828.02	23025
828.159	23041
828.298	23151
828.437	23060
828.577	23003
828.716	23151
828.855	22885
828.994	22706
829.134	22790
829.273	22843
829.412	22774
829.551	22660
829.69	22607
829.829	22740
829.968	22778
830.107	22786
830.246	22778
830.385	22748
830.524	22580
830.663	22451
830.802	22424
830.941	22299
831.08	22280
831.219	22459
831.357	22352
831.496	22584
831.635	22280
831.774	22272
831.913	22192
832.051	22215
832.19	22074
832.329	22147
832.467	22173
832.606	22078
832.744	22059
832.883	22025
833.022	22143
833.16	22234
833.299	22405
833.437	22371
833.576	22443
833.714	22504
833.852	22615
833.991	22786
834.129	22953
834.267	22767
834.406	22812
834.544	22725
834.682	22717
834.821	22565
834.959	22649
835.097	22356
835.235	22417
835.373	22207
835.511	22158
835.65	22036
835.788	22082
835.926	21857
836.064	21785
836.202	21808
836.34	21865
836.478	21960
836.615	21827
836.753	21835
836.891	21865
837.029	21808
837.167	21743
837.305	21785
837.443	21603
837.58	21686
837.718	21789
837.856	21762
837.993	21523
838.131	21534
838.269	21515
838.406	21545
838.544	21515
838.681	21222
838.819	21275
838.956	21047
839.094	21150
839.231	21165
839.369	21176
839.506	21447
839.643	21214
839.781	21020
839.918	21058
840.055	21119
840.193	21013
840.33	20876
840.467	20902
840.604	21001
840.742	21241
840.879	20872
841.016	20849
841.153	20830
841.29	20914
841.427	20963
841.564	21104
841.701	20944
841.838	20880
841.975	20914
842.112	20868
842.249	20724
842.385	20735
842.522	21013
842.659	20689
842.796	20804
842.933	20682
843.069	20731
843.206	20815
843.343	20876
843.479	20914
843.616	20785
843.752	20754
843.889	20659
844.025	20880
844.162	20701
844.298	20792
844.435	20902
844.571	21096
844.708	21310
844.844	21477
844.98	21736
845.117	22124
845.253	22596
845.389	23661
845.525	25890
845.661	29490
845.798	33568
845.934	36958
846.07	38256
846.206	37510
846.342	34721
846.478	30509
846.614	26682
846.75	24121
846.886	22649
847.022	21873
847.158	21252
847.294	20902
847.429	20606
847.565	20511
847.701	20560
847.837	20111
847.972	19978
848.108	20122
848.244	19982
848.379	19757
848.515	19704
848.65	19746
848.786	19651
848.921	19738
849.057	19761
849.192	19689
849.328	19616
849.463	19662
849.598	19616
849.734	19346
849.869	19510
850.004	19343
850.14	19312
850.275	19350
850.41	19255
850.545	19312
850.68	19236
850.815	19403
850.95	19304
851.085	19567
851.22	19343
851.355	19202
851.49	19244
851.625	19320
851.76	19308
851.895	19175
852.03	19183
852.165	19354
852.299	19316
852.434	19388
852.569	19346
852.703	19316
852.838	19411
852.973	19426
853.107	19419
853.242	19293
853.376	19278
853.511	19179
853.645	19308
853.78	19514
853.914	19354
854.048	19335
854.183	19308
854.317	19445
854.451	19506
854.585	19381
854.72	19358
854.854	19487
854.988	19297
855.122	19365
855.256	19118
855.39	19160
855.524	19297
855.658	19156
855.792	19225
855.926	19247
856.06	19247
856.194	19183
856.327	19194
856.461	19110
856.595	19183
856.729	19088
856.862	19266
856.996	19114
857.13	19091
857.263	19141
857.397	19225
857.53	19050
857.664	19057
857.797	19206
857.931	19202
858.064	19118
858.197	19171
858.331	19114
858.464	18901
858.597	18878
858.731	18939
858.864	18981
858.997	18947
859.13	19057
859.263	19053
859.396	19099
859.529	18993
859.662	18985
859.795	18943
859.928	19008
860.061	19129
860.194	19110
860.327	19080
860.46	18973
860.592	19168
860.725	19107
860.858	19034
860.99	18897
861.123	18894
861.256	18970
861.388	19000
861.521	19658
861.653	18905
861.786	18829
861.918	18852
862.05	18863
862.183	18973
862.315	19023
862.447	19084
862.58	18947
862.712	18791
862.844	18642
862.976	18654
863.108	18783
863.24	18954
863.372	18658
863.504	18627
863.636	18669
863.768	18623
863.9	18684
864.032	18608
864.164	18525
864.296	18620
864.428	18783
864.559	18798
864.691	18749
864.823	18791
864.954	18616
865.086	18555
865.217	18597
865.349	18582
865.48	18521
865.612	18665
865.743	18661
865.875	18525
866.006	18582
866.137	18555
866.269	18429
866.4	18513
866.531	18509
866.662	18490
866.793	18486
866.924	18559
867.055	18570
867.186	18509
867.317	18521
867.448	18494
867.579	18395
867.71	18414
867.841	18490
867.972	18566
868.103	18620
868.233	18551
868.364	18616
868.495	18494
868.625	18817
868.756	18859
868.886	18601
869.017	18703
869.147	18924
869.278	18924
869.408	18791
869.539	18863
869.669	18939
869.799	18825
869.929	18947
870.06	18939
870.19	19202
870.32	19187
870.45	19126
870.58	19156
870.71	19289
870.84	19331
870.97	19137
871.1	19209
871.23	19476
871.36	19396
871.489	19327
871.619	19411
871.749	19441
871.879	19533
872.008	19616
872.138	19384
872.267	19597
872.397	19278
872.526	19278
872.656	19377
872.785	19384
872.915	19575
873.044	19609
873.173	19628
873.303	19605
873.432	19632
873.561	19750
873.69	19571
873.819	19624
873.948	19712
874.077	19597
874.206	19689
874.335	19681
874.464	19818
874.593	19986
874.722	19986
874.851	20073
874.979	20092
875.108	20058
875.237	20161
875.365	20153
875.494	20134
875.623	20172
875.751	20176
875.88	20237
876.008	20438
876.136	20408
876.265	20739
876.393	20899
876.521	20891
876.65	20773
876.778	20880
876.906	20864
877.034	20853
877.162	20914
877.29	20963
877.418	21039
877.546	20998
877.674	21131
877.802	21214
877.93	21176
878.058	21420
878.185	21466
878.313	21549
878.441	21911
878.568	21991
878.696	22402
878.824	23014
878.951	23802
879.079	24681
879.206	26043
879.333	27283
879.461	28344
879.588	29102
879.715	29075
879.842	28622
879.97	27355
880.097	25928
880.224	24817
880.351	24216
880.478	23554
880.605	23227
880.732	22999
880.859	23071
880.986	22778
881.112	22748
881.239	22516
881.366	22261
881.493	22303
881.619	22223
881.746	22181
881.872	22375
881.999	22215
882.125	22265
882.252	22284
882.378	22371
882.505	22432
882.631	22234
882.757	22215
882.883	22204
883.01	22215
883.136	22059
883.262	21922
883.388	21998
883.514	22067
883.64	22063
883.766	22067
883.892	21854
884.018	21956
884.143	22143
884.269	22223
884.395	21797
884.52	21907
884.646	21930
884.772	21838
884.897	21679
885.023	21789
885.148	21968
885.274	21937
885.399	21739
885.524	21549
885.65	21507
885.775	21564
885.9	21374
886.025	21553
886.15	21222
886.275	21211
886.4	20963
886.525	20990
886.65	20883
886.775	20754
886.9	20800
887.025	20944
887.149	20648
887.274	20438
887.399	20298
887.523	20195
887.648	20149
887.773	20130
887.897	20122
888.021	20100
888.146	20005
888.27	20069
888.395	20054
888.519	19955
888.643	20001
888.767	19902
888.891	19841
889.015	19639
889.139	19704
889.263	19460
889.387	19674
889.511	19856
889.635	19734
889.759	19464
889.883	19518
890.006	19400
890.13	19578
890.254	19396
890.377	19476
890.501	19145
890.624	19084
890.748	19255
890.871	19065
890.995	18882
891.118	18886
891.241	18977
891.364	18810
891.488	18970
891.611	18810
891.734	18958
891.857	18973
891.98	18715
892.103	18848
892.226	18890
892.349	18791
892.471	18585
892.594	18654
892.717	18665
892.839	18604
892.962	18753
893.085	18745
893.207	18703
893.33	18563
893.452	18559
893.575	18555
893.697	18563
893.819	18589
893.941	18711
894.064	18719
894.186	18376
894.308	18433
894.43	18574
894.552	18566
894.674	18498
894.796	18433
894.918	18467
895.04	18494
895.161	18365
895.283	18422
895.405	18289
895.526	18380
895.648	18281
895.769	18486
895.891	18456
896.012	18258
896.134	18422
896.255	18224
896.376	18342
896.498	18369
896.619	18429
896.74	18418
896.861	18494
896.982	18650
897.103	18913
897.224	18559
897.345	18486
897.466	18528
897.587	18608
897.708	18764
897.828	18578
897.949	18479
898.07	18369
898.19	18517
898.311	18673
898.431	18464
898.552	18540
898.672	18608
898.792	18635
898.913	18490
899.033	18380
899.153	18441
899.273	18346
899.393	18190
899.513	18277
899.633	18220
899.753	18365
899.873	18167
899.993	18361
900.113	18213
900.232	18361
900.352	18163
900.472	18129
900.591	18121
900.711	18117
900.83	18045
900.95	18178
901.069	18254
901.189	18034
901.308	17775
901.427	17764
901.546	17684
901.665	17756
901.784	17691
901.904	17608
902.023	17387
902.141	17334
902.26	17174
902.379	17353
902.498	17136
902.617	17181
902.735	17204
902.854	17147
902.973	17010
903.091	16824
903.21	16889
903.328	16889
903.446	16679
903.565	16771
903.683	16774
903.801	16538
903.919	16569
904.038	16637
904.156	16443
904.274	16386
904.392	16409
904.51	16379
904.627	16424
904.745	16371
904.863	16375
904.981	16105
905.098	16006
905.216	15972
905.334	15998
905.451	16120
905.569	16010
905.686	16051
905.803	16021
905.921	15869
906.038	15778
906.155	15899
906.272	15800
906.389	15755
906.506	15622
906.623	15538
906.74	15530
906.857	15416
906.974	15519
907.091	15622
907.208	15660
907.324	15568
907.441	15447
907.557	15382
907.674	15313
907.79	15192
907.907	15154
908.023	15348
908.139	15165
908.256	15188
908.372	15142
908.488	15039
908.604	15070
908.72	14883
908.836	14895
908.952	14880
909.068	15005
909.184	15028
909.3	14933
909.415	14929
909.531	14941
909.647	14792
909.762	14720
909.878	14686
909.993	14739
910.108	14781
910.224	14625
910.339	14762
910.454	14552
910.57	14533
910.685	14408
910.8	14735
910.915	14617
911.03	14575
911.145	14351
911.259	14263
911.374	14355
911.489	14191
911.604	14164
911.718	14046
911.833	13989
911.947	13982
912.062	14027
912.176	13986
912.291	14077
912.405	14031
912.519	14115
912.633	14240
912.748	14016
912.862	14031
912.976	13849
913.09	13738
913.204	13814
913.318	13921
913.431	13856
913.545	13970
913.659	13967
913.772	13807
913.886	13788
914	13719
914.113	13826
914.226	13890
914.34	13814
914.453	13620
914.566	13723
914.68	13571
914.793	13609
914.906	13506
915.019	13365
915.132	13343
915.245	13400
915.358	13381
915.47	13354
915.583	13419
915.696	13434
915.809	13552
915.921	13540
916.034	13377
916.146	13301
916.259	13301
916.371	13514
916.483	13346
916.595	13343
916.708	13308
916.82	13324
916.932	13365
917.044	13244
917.156	13225
917.268	13168
917.38	13126
917.491	13129
917.603	13088
917.715	13145
917.826	13095
917.938	13046
918.049	12989
918.161	13069
918.272	13164
918.384	13141
918.495	13110
918.606	12916
918.717	12844
918.828	12863
918.939	12867
919.05	12730
919.161	12810
919.272	12734
919.383	12715
919.494	12837
919.604	13012
919.715	12951
919.826	12757
919.936	12833
920.047	12878
920.157	12837
920.267	13034
920.378	12897
920.488	12901
920.598	12989
920.708	13145
920.818	12924
920.928	12909
921.038	13072
921.148	13042
921.258	12798
921.368	12745
921.477	12513
921.587	12597
921.697	12410
921.806	12620
921.916	12536
922.025	12273
922.134	12239
922.244	12178
922.353	12334
922.462	12178
922.571	12041
922.68	12011
922.789	11927
922.898	11897
923.007	11935
923.116	11908
923.224	11824
923.333	11855
923.442	11748
923.55	11790
923.659	11722
923.767	11779
923.876	11775
923.984	11688
924.092	11722
924.201	11718
924.309	11707
924.417	11691
924.525	11672
924.633	11661
924.741	12350
924.849	11490
924.956	11589
925.064	11414
925.172	11356
925.279	11364
925.387	11524
925.494	11356
925.602	11638
925.709	11524
925.816	11311
925.924	11417
926.031	11493
926.138	11410
926.245	11406
926.352	11311
926.459	11444
926.566	11501
926.673	11277
926.779	11269
926.886	11204
926.993	11166
927.099	11094
927.206	11025
927.312	11006
927.419	11052
927.525	11006
927.631	11124
927.737	10961
927.843	10942
927.95	10793
928.056	10930
928.162	10923
928.267	10892
928.373	11467
928.479	10976
928.585	10744
928.69	10869
928.796	10904
928.901	10843
929.007	10706
929.112	10801
929.218	10714
929.323	10679
929.428	10691
929.533	10854
929.638	10626
929.743	10679
929.848	10714
929.953	10653
930.058	10538
930.163	10409
930.267	10440
930.372	10584
930.477	10337
930.581	10615
930.685	10405
930.79	10303
930.894	10257
930.998	10242
931.103	10382
931.207	10059
931.311	10044
931.415	9956
931.519	9667
931.623	9663
