Data from test_V78500241_3162.txt Node
Date: Fri Mar 25 14:55:43 CST 2022
User: usil
Spectrometer: V785-0024
Trigger mode: 0
Integration Time (sec): 4.000000E-1
Scans to average: 1
Nonlinearity correction enabled: false
Boxcar width: 0
Storing dark spectrum: false
XAxis mode: Wavelengths
Number of Pixels in Spectrum: 1024
>>>>>Begin Spectral Data<<<<<
801.071	22109
801.214	22116
801.356	21850
801.499	21652
801.641	21466
801.783	21439
801.926	21408
802.068	21488
802.211	21382
802.353	21138
802.496	20925
802.638	20899
802.78	21001
802.923	20686
803.065	20758
803.208	20594
803.35	20800
803.492	20815
803.635	20876
803.777	20701
803.919	20758
804.061	21100
804.204	20834
804.346	20613
804.488	20598
804.63	20754
804.773	20575
804.915	20708
805.057	20895
805.199	20644
805.341	20811
805.483	20826
805.626	20762
805.768	20674
805.91	20750
806.052	20682
806.194	20579
806.336	20735
806.478	20613
806.62	20689
806.762	20693
806.904	20849
807.046	21032
807.188	21036
807.33	21066
807.472	21085
807.614	20994
807.756	20849
807.898	20746
808.04	20777
808.182	20689
808.324	20796
808.465	20864
808.607	20864
808.749	21062
808.891	21165
809.033	21260
809.174	21001
809.316	21036
809.458	21058
809.6	20956
809.741	21066
809.883	21070
810.025	21199
810.166	21093
810.308	21214
810.45	21138
810.591	21009
810.733	20994
810.875	20792
811.016	20819
811.158	20670
811.299	20925
811.441	20861
811.582	20967
811.724	20826
811.865	20765
812.007	20777
812.148	20925
812.29	20891
812.431	20998
812.573	21036
812.714	21165
812.855	21329
812.997	21336
813.138	21530
813.279	21363
813.421	21355
813.562	21214
813.703	21119
813.845	21093
813.986	20621
814.127	20587
814.268	20389
814.41	20320
814.551	20423
814.692	20450
814.833	20309
814.974	20271
815.115	20400
815.256	20218
815.397	20145
815.539	20126
815.68	20092
815.821	19879
815.962	20145
816.103	20096
816.244	20027
816.385	19856
816.526	19734
816.666	19567
816.807	19525
816.948	19567
817.089	19643
817.23	19499
817.371	19388
817.512	19483
817.653	19426
817.793	19449
817.934	19422
818.075	19533
818.216	19419
818.356	19369
818.497	19247
818.638	19122
818.778	19107
818.919	19217
819.06	19183
819.2	19217
819.341	19346
819.481	19460
819.622	19506
819.762	19712
819.903	19594
820.043	19487
820.184	19499
820.324	19453
820.465	19609
820.605	19316
820.746	19388
820.886	19225
821.026	19411
821.167	19381
821.307	19559
821.447	19346
821.588	19263
821.728	19122
821.868	18935
822.008	18863
822.149	18844
822.289	18829
822.429	18654
822.569	18555
822.709	18483
822.849	18429
822.99	18308
823.13	18273
823.27	18334
823.41	18232
823.55	18129
823.69	18152
823.83	18159
823.97	18038
824.11	17904
824.25	17954
824.389	17958
824.529	18026
824.669	17828
824.809	18102
824.949	17931
825.089	18091
825.228	17885
825.368	17684
825.508	17794
825.648	17596
825.787	17790
825.927	17821
826.067	17566
826.206	17745
826.346	17661
826.485	17668
826.625	17748
826.765	17722
826.904	17798
827.044	17436
827.183	17425
827.323	17261
827.462	17474
827.601	17326
827.741	17311
827.88	17379
828.02	17223
828.159	17303
828.298	17334
828.437	17421
828.577	17334
828.716	17433
828.855	17296
828.994	17121
829.134	17162
829.273	17185
829.412	17162
829.551	17197
829.69	17113
829.829	17159
829.968	17204
830.107	17227
830.246	17121
830.385	17090
830.524	17064
830.663	16911
830.802	16820
830.941	16744
831.08	16698
831.219	16809
831.357	16820
831.496	16968
831.635	16691
831.774	16687
831.913	16645
832.051	16649
832.19	16565
832.329	16607
832.467	16535
832.606	16527
832.744	16432
832.883	16409
833.022	16398
833.16	16390
833.299	16508
833.437	16554
833.576	16413
833.714	16428
833.852	16497
833.991	16546
834.129	16516
834.267	16493
834.406	16352
834.544	16500
834.682	16558
834.821	16443
834.959	16649
835.097	16405
835.235	16565
835.373	16455
835.511	16504
835.65	16447
835.788	16405
835.926	16299
836.064	16147
836.202	16253
836.34	16485
836.478	16443
836.615	16348
836.753	16516
836.891	16455
837.029	16379
837.167	16276
837.305	16253
837.443	16352
837.58	16268
837.718	16291
837.856	16192
837.993	16226
838.131	16295
838.269	16150
838.406	16196
838.544	16131
838.681	15991
838.819	15949
838.956	15739
839.094	15747
839.231	15831
839.369	15975
839.506	16215
839.643	15991
839.781	15816
839.918	15759
840.055	15865
840.193	15781
840.33	15793
840.467	15694
840.604	15827
840.742	16036
840.879	15682
841.016	15724
841.153	15595
841.29	15850
841.427	15861
841.564	15842
841.701	15876
841.838	15781
841.975	15644
842.112	15720
842.249	15572
842.385	15568
842.522	15850
842.659	15584
842.796	15591
842.933	15526
843.069	15526
843.206	15606
843.343	15584
843.479	15591
843.616	15603
843.752	15367
843.889	15462
844.025	15557
844.162	15306
844.298	15439
844.435	15393
844.571	15313
844.708	15367
844.844	15443
844.98	15519
845.117	15443
845.253	15412
845.389	15336
845.525	15382
845.661	15329
845.798	15176
845.934	15245
846.07	15165
846.206	15222
846.342	15283
846.478	15218
846.614	14921
846.75	14975
846.886	14838
847.022	15055
847.158	14933
847.294	15051
847.429	15058
847.565	14876
847.701	15237
847.837	14686
847.972	14590
848.108	14743
848.244	14739
848.379	14632
848.515	14484
848.65	14571
848.786	14442
848.921	14579
849.057	14617
849.192	14659
849.328	14579
849.463	14564
849.598	14484
849.734	14492
849.869	14396
850.004	14233
850.14	14343
850.275	14396
850.41	14275
850.545	14256
850.68	14237
850.815	14298
850.95	14366
851.085	14503
851.22	14442
851.355	14355
851.49	14256
851.625	14374
851.76	14271
851.895	14161
852.03	14187
852.165	14351
852.299	14358
852.434	14339
852.569	14374
852.703	14282
852.838	14396
852.973	14427
853.107	14484
853.242	14259
853.376	14180
853.511	14043
853.645	14221
853.78	14385
853.914	14172
854.048	14153
854.183	14164
854.317	14202
854.451	14278
854.585	14157
854.72	14107
854.854	14233
854.988	14065
855.122	14240
855.256	14024
855.39	14206
855.524	14206
855.658	14240
855.792	14290
855.926	14183
856.06	14134
856.194	14225
856.327	14172
856.461	14115
856.595	14195
856.729	14157
856.862	14271
856.996	14256
857.13	14237
857.263	14320
857.397	14362
857.53	14240
857.664	14317
857.797	14263
857.931	14320
858.064	14180
858.197	14267
858.331	14077
858.464	14096
858.597	14119
858.731	14138
858.864	14195
858.997	14134
859.13	14202
859.263	14225
859.396	14301
859.529	14164
859.662	14100
859.795	14096
859.928	14244
860.061	14358
860.194	14317
860.327	14149
860.46	14142
860.592	14244
860.725	14328
860.858	14366
860.99	14225
861.123	14161
861.256	14092
861.388	14263
861.521	14956
861.653	14100
861.786	14031
861.918	14008
862.05	14107
862.183	14233
862.315	14244
862.447	14176
862.58	14138
862.712	13947
862.844	13917
862.976	14092
863.108	13989
863.24	14282
863.372	13879
863.504	13928
863.636	13887
863.768	13864
863.9	13921
864.032	13913
864.164	13944
864.296	13940
864.428	14111
864.559	14039
864.691	14001
864.823	13989
864.954	14039
865.086	14012
865.217	13967
865.349	13833
865.48	13871
865.612	14043
865.743	14084
865.875	13967
866.006	13955
866.137	13982
866.269	13890
866.4	13963
866.531	13951
866.662	13898
866.793	13864
866.924	14016
867.055	13921
867.186	13917
867.317	13890
867.448	13841
867.579	13860
867.71	13967
867.841	13791
867.972	13947
868.103	13982
868.233	13997
868.364	14024
868.495	14046
868.625	14202
868.756	14313
868.886	14115
869.017	14130
869.147	14244
869.278	14256
869.408	14237
869.539	14145
869.669	14252
869.799	14225
869.929	14286
870.06	14347
870.19	14514
870.32	14583
870.45	14545
870.58	14644
870.71	14689
870.84	14705
870.97	14556
871.1	14613
871.23	14769
871.36	14769
871.489	14663
871.619	14640
871.749	14804
871.879	14785
872.008	14952
872.138	14815
872.267	14902
872.397	14644
872.526	14636
872.656	14777
872.785	14689
872.915	14872
873.044	14887
873.173	14914
873.303	14902
873.432	14883
873.561	14982
873.69	14857
873.819	14830
873.948	14864
874.077	14838
874.206	14910
874.335	14845
874.464	14990
874.593	15093
874.722	15116
874.851	15169
874.979	15161
875.108	15214
875.237	15199
875.365	15150
875.494	15123
875.623	15150
875.751	15024
875.88	15169
876.008	15344
876.136	15424
876.265	15641
876.393	15720
876.521	15584
876.65	15701
876.778	15542
876.906	15526
877.034	15542
877.162	15595
877.29	15473
877.418	15591
877.546	15507
877.674	15443
877.802	15496
877.93	15625
878.058	15496
878.185	15530
878.313	15526
878.441	15542
878.568	15408
878.696	15538
878.824	15618
878.951	15652
879.079	15690
879.206	15903
879.333	15789
879.461	15690
879.588	15656
879.715	15690
879.842	15876
879.97	15614
880.097	15416
880.224	15367
880.351	15500
880.478	15424
880.605	15336
880.732	15507
880.859	15671
880.986	15443
881.112	15443
881.239	15306
881.366	15245
881.493	15161
881.619	15074
881.746	15055
881.872	15032
881.999	15093
882.125	15032
882.252	15093
882.378	15032
882.505	15237
882.631	15028
882.757	14941
882.883	14895
883.01	14952
883.136	14895
883.262	14800
883.388	14811
883.514	14910
883.64	14891
883.766	14811
883.892	14701
884.018	14762
884.143	14914
884.269	14956
884.395	14636
884.52	14610
884.646	14579
884.772	14522
884.897	14575
885.023	14701
885.148	14689
885.274	14712
885.399	14769
885.524	14625
885.65	14648
885.775	14670
885.9	14648
886.025	14720
886.15	14724
886.275	14636
886.4	14465
886.525	14552
886.65	14552
886.775	14560
886.9	14708
887.025	14811
887.149	14629
887.274	14450
887.399	14457
887.523	14377
887.648	14275
887.773	14415
887.897	14514
888.021	14434
888.146	14389
888.27	14484
888.395	14579
888.519	14541
888.643	14564
888.767	14488
888.891	14362
889.015	14210
889.139	14343
889.263	14267
889.387	14434
889.511	14511
889.635	14465
889.759	14282
889.883	14180
890.006	14377
890.13	14412
890.254	14191
890.377	14225
890.501	14187
890.624	14115
890.748	14130
890.871	13951
890.995	13997
891.118	13925
891.241	14001
891.364	14119
891.488	14176
891.611	13997
891.734	13944
891.857	14115
891.98	14062
892.103	14138
892.226	14134
892.349	13951
892.471	13944
892.594	13913
892.717	13940
892.839	13967
892.962	14111
893.085	14058
893.207	14065
893.33	13898
893.452	14027
893.575	14126
893.697	14031
893.819	14206
893.941	14233
894.064	14244
894.186	13997
894.308	14001
894.43	14138
894.552	14202
894.674	14081
894.796	14024
894.918	13970
895.04	14020
895.161	14195
895.283	14157
895.405	13959
895.526	14046
895.648	14153
895.769	14202
895.891	14092
896.012	14206
896.134	14214
896.255	14149
896.376	14081
896.498	14161
896.619	14259
896.74	14183
896.861	14225
896.982	14537
897.103	14667
897.224	14549
897.345	14495
897.466	14328
897.587	14438
897.708	14579
897.828	14473
897.949	14476
898.07	14275
898.19	14473
898.311	14530
898.431	14408
898.552	14507
898.672	14663
898.792	14606
898.913	14613
899.033	14492
899.153	14423
899.273	14355
899.393	14377
899.513	14324
899.633	14317
899.753	14400
899.873	14362
899.993	14419
900.113	14339
900.232	14427
900.352	14400
900.472	14294
900.591	14252
900.711	14202
900.83	14237
900.95	14381
901.069	14305
901.189	14195
901.308	14016
901.427	13868
901.546	13932
901.665	13944
901.784	13951
901.904	13845
902.023	13761
902.141	13578
902.26	13521
902.379	13597
902.498	13502
902.617	13419
902.735	13476
902.854	13521
902.973	13445
903.091	13240
903.21	13308
903.328	13247
903.446	13228
903.565	13084
903.683	13053
903.801	13110
903.919	13046
904.038	12989
904.156	12886
904.274	12863
904.392	12810
904.51	12814
904.627	12875
904.745	12939
904.863	12947
904.981	12669
905.098	12570
905.216	12547
905.334	12582
905.451	12673
905.569	12513
905.686	12631
905.803	12597
905.921	12426
906.038	12517
906.155	12418
906.272	12190
906.389	12266
906.506	12224
906.623	12167
906.74	12144
906.857	12098
906.974	12087
907.091	12243
907.208	12251
907.324	12209
907.441	12182
907.557	12022
907.674	11923
907.79	11786
907.907	11885
908.023	11866
908.139	11931
908.256	11874
908.372	11798
908.488	11855
908.604	11657
908.72	11752
908.836	11630
908.952	11657
909.068	11680
909.184	11790
909.3	11714
909.415	11745
909.531	11668
909.647	11433
909.762	11535
909.878	11414
909.993	11433
910.108	11414
910.224	11478
910.339	11429
910.454	11296
910.57	11239
910.685	11166
910.8	11474
910.915	11467
911.03	11318
911.145	11170
911.259	11143
911.374	11174
911.489	11037
911.604	11094
911.718	10908
911.833	10934
911.947	10900
912.062	10698
912.176	10919
912.291	10957
912.405	10892
912.519	11174
912.633	11166
912.748	10953
912.862	10942
912.976	10763
913.09	10702
913.204	10706
913.318	10778
913.431	10881
913.545	10839
913.659	10919
913.772	10850
913.886	10664
914	10656
914.113	10733
914.226	10755
914.34	10771
914.453	10603
914.566	10733
914.68	10611
914.793	10577
914.906	10402
915.019	10344
915.132	10390
915.245	10451
915.358	10459
915.47	10424
915.583	10413
915.696	10455
915.809	10546
915.921	10554
916.034	10344
916.146	10284
916.259	10314
916.371	10424
916.483	10481
916.595	10367
916.708	10344
916.82	10329
916.932	10314
917.044	10314
917.156	10344
917.268	10253
917.38	10230
917.491	10147
917.603	10177
917.715	10310
917.826	10329
917.938	10249
918.049	10162
918.161	10242
918.272	10390
918.384	10348
918.495	10227
918.606	10211
918.717	10044
918.828	10181
918.939	10166
919.05	10059
919.161	10086
919.272	9941
919.383	10010
919.494	10169
919.604	10337
919.715	10223
919.826	10090
919.936	10116
920.047	10265
920.157	10128
920.267	10299
920.378	10211
920.488	10158
920.598	10417
920.708	10592
920.818	10363
920.928	10299
921.038	10481
921.148	10558
921.258	10284
921.368	10185
921.477	10025
921.587	10059
921.697	9915
921.806	9991
921.916	9937
922.025	9812
922.134	9717
922.244	9766
922.353	9850
922.462	9622
922.571	9603
922.68	9477
922.789	9488
922.898	9473
923.007	9363
923.116	9523
923.224	9424
923.333	9488
923.442	9321
923.55	9329
923.659	9344
923.767	9378
923.876	9268
923.984	9401
924.092	9283
924.201	9355
924.309	9306
924.417	9302
924.525	9313
924.633	9348
924.741	10169
924.849	9097
924.956	9264
925.064	9169
925.172	9074
925.279	9024
925.387	9184
925.494	9070
925.602	9218
925.709	9180
925.816	9074
925.924	9123
926.031	9207
926.138	9146
926.245	9176
926.352	9009
926.459	9074
926.566	9184
926.673	9043
926.779	8967
926.886	8994
926.993	8845
927.099	8838
927.206	8807
927.312	8777
927.419	8868
927.525	8838
927.631	8933
927.737	8701
927.843	8731
927.95	8621
928.056	8655
928.162	8613
928.267	8682
928.373	9283
928.479	8861
928.585	8507
928.69	8731
928.796	8777
928.901	8682
929.007	8473
929.112	8613
929.218	8613
929.323	8530
929.428	8503
929.533	8659
929.638	8454
929.743	8533
929.848	8610
929.953	8533
930.058	8446
930.163	8324
930.267	8309
930.372	8469
930.477	8252
930.581	8556
930.685	8328
930.79	8309
930.894	8240
930.998	8172
931.103	8400
931.207	8088
931.311	8008
931.415	7936
931.519	7803
931.623	7776
