Data from test_V78500241_3112.txt Node
Date: Fri Mar 25 14:55:23 CST 2022
User: usil
Spectrometer: V785-0024
Trigger mode: 0
Integration Time (sec): 4.000000E-1
Scans to average: 1
Nonlinearity correction enabled: false
Boxcar width: 0
Storing dark spectrum: false
XAxis mode: Wavelengths
Number of Pixels in Spectrum: 1024
>>>>>Begin Spectral Data<<<<<
801.071	22070
801.214	21994
801.356	21606
801.499	21648
801.641	21443
801.783	21386
801.926	21454
802.068	21332
802.211	21275
802.353	21340
802.496	20998
802.638	20990
802.78	20963
802.923	20921
803.065	20754
803.208	20651
803.35	20731
803.492	20754
803.635	20929
803.777	20804
803.919	20819
804.061	21184
804.204	20785
804.346	20731
804.488	20651
804.63	20564
804.773	20560
804.915	20708
805.057	20781
805.199	20579
805.341	20705
805.483	20857
805.626	20834
805.768	20632
805.91	20697
806.052	20804
806.194	20602
806.336	20674
806.478	20594
806.62	20518
806.762	20788
806.904	20769
807.046	21123
807.188	20914
807.33	20937
807.472	21089
807.614	20834
807.756	20952
807.898	20823
808.04	20735
808.182	20746
808.324	20773
808.465	20800
808.607	20960
808.749	21036
808.891	21188
809.033	21112
809.174	21066
809.316	20937
809.458	21096
809.6	20944
809.741	21096
809.883	21066
810.025	21211
810.166	21180
810.308	21180
810.45	21241
810.591	21096
810.733	20845
810.875	20800
811.016	20792
811.158	20788
811.299	20849
811.441	20925
811.582	20960
811.724	20918
811.865	20792
812.007	20720
812.148	20765
812.29	20845
812.431	21013
812.573	21074
812.714	21123
812.855	21310
812.997	21443
813.138	21549
813.279	21507
813.421	21359
813.562	21237
813.703	21070
813.845	20864
813.986	20648
814.127	20514
814.268	20404
814.41	20385
814.551	20389
814.692	20404
814.833	20412
814.974	20256
815.115	20396
815.256	20138
815.397	20081
815.539	20263
815.68	20115
815.821	20115
815.962	20237
816.103	20069
816.244	20069
816.385	19780
816.526	19852
816.666	19586
816.807	19556
816.948	19567
817.089	19651
817.23	19601
817.371	19521
817.512	19388
817.653	19441
817.793	19491
817.934	19491
818.075	19563
818.216	19483
818.356	19384
818.497	19289
818.638	19263
818.778	19084
818.919	19202
819.06	19103
819.2	19247
819.341	19266
819.481	19358
819.622	19559
819.762	19750
819.903	19525
820.043	19590
820.184	19540
820.324	19468
820.465	19533
820.605	19468
820.746	19419
820.886	19232
821.026	19358
821.167	19445
821.307	19506
821.447	19396
821.588	19434
821.728	19255
821.868	19034
822.008	19000
822.149	18791
822.289	18932
822.429	18597
822.569	18597
822.709	18601
822.849	18372
822.99	18323
823.13	18414
823.27	18285
823.41	18178
823.55	18106
823.69	18144
823.83	18121
823.97	18076
824.11	17912
824.25	17904
824.389	17958
824.529	17912
824.669	17851
824.809	18038
824.949	18049
825.089	18019
825.228	17882
825.368	17836
825.508	17615
825.648	17699
825.787	17798
825.927	17847
826.067	17695
826.206	17627
826.346	17668
826.485	17634
826.625	17699
826.765	17760
826.904	17695
827.044	17429
827.183	17448
827.323	17341
827.462	17452
827.601	17360
827.741	17376
827.88	17391
828.02	17258
828.159	17376
828.298	17356
828.437	17391
828.577	17326
828.716	17398
828.855	17372
828.994	17174
829.134	17064
829.273	17178
829.412	17094
829.551	17045
829.69	17086
829.829	17067
829.968	17220
830.107	17079
830.246	17105
830.385	17079
830.524	16968
830.663	16847
830.802	16847
830.941	16812
831.08	16618
831.219	16774
831.357	16706
831.496	17037
831.635	16736
831.774	16599
831.913	16618
832.051	16478
832.19	16474
832.329	16409
832.467	16470
832.606	16485
832.744	16375
832.883	16443
833.022	16371
833.16	16470
833.299	16421
833.437	16493
833.576	16443
833.714	16405
833.852	16554
833.991	16512
834.129	16660
834.267	16588
834.406	16478
834.544	16424
834.682	16512
834.821	16523
834.959	16634
835.097	16489
835.235	16500
835.373	16531
835.511	16558
835.65	16379
835.788	16325
835.926	16219
836.064	16143
836.202	16261
836.34	16424
836.478	16470
836.615	16257
836.753	16337
836.891	16493
837.029	16352
837.167	16333
837.305	16295
837.443	16249
837.58	16192
837.718	16318
837.856	16268
837.993	16211
838.131	16280
838.269	16158
838.406	16246
838.544	16101
838.681	16025
838.819	15797
838.956	15781
839.094	15804
839.231	15759
839.369	15903
839.506	16200
839.643	16040
839.781	15835
839.918	15644
840.055	15793
840.193	15774
840.33	15770
840.467	15774
840.604	15827
840.742	16055
840.879	15667
841.016	15660
841.153	15690
841.29	15854
841.427	15770
841.564	15797
841.701	15808
841.838	15770
841.975	15625
842.112	15698
842.249	15553
842.385	15534
842.522	15698
842.659	15618
842.796	15553
842.933	15572
843.069	15542
843.206	15488
843.343	15549
843.479	15564
843.616	15549
843.752	15329
843.889	15332
844.025	15553
844.162	15355
844.298	15447
844.435	15302
844.571	15310
844.708	15466
844.844	15504
844.98	15545
845.117	15492
845.253	15199
845.389	15161
845.525	15298
845.661	15188
845.798	15112
845.934	15249
846.07	15055
846.206	15192
846.342	15237
846.478	15142
846.614	15020
846.75	14876
846.886	14788
847.022	15017
847.158	14941
847.294	14937
847.429	14986
847.565	14918
847.701	15161
847.837	14674
847.972	14625
848.108	14853
848.244	14754
848.379	14575
848.515	14526
848.65	14541
848.786	14507
848.921	14556
849.057	14632
849.192	14670
849.328	14602
849.463	14492
849.598	14446
849.734	14480
849.869	14339
850.004	14309
850.14	14427
850.275	14343
850.41	14221
850.545	14256
850.68	14301
850.815	14313
850.95	14225
851.085	14457
851.22	14484
851.355	14278
851.49	14176
851.625	14305
851.76	14240
851.895	14115
852.03	14134
852.165	14317
852.299	14339
852.434	14336
852.569	14381
852.703	14305
852.838	14328
852.973	14457
853.107	14522
853.242	14210
853.376	14183
853.511	14168
853.645	14111
853.78	14221
853.914	14271
854.048	14107
854.183	14206
854.317	14225
854.451	14355
854.585	14130
854.72	14115
854.854	14244
854.988	14088
855.122	14069
855.256	14058
855.39	14115
855.524	14183
855.658	14210
855.792	14183
855.926	14187
856.06	14218
856.194	14339
856.327	14180
856.461	14172
856.595	14138
856.729	14145
856.862	14286
856.996	14199
857.13	14309
857.263	14248
857.397	14229
857.53	14134
857.664	14206
857.797	14180
857.931	14309
858.064	14290
858.197	14301
858.331	14103
858.464	14107
858.597	14145
858.731	14221
858.864	14180
858.997	14119
859.13	14187
859.263	14172
859.396	14259
859.529	14259
859.662	14069
859.795	14123
859.928	14161
860.061	14362
860.194	14298
860.327	14161
860.46	14111
860.592	14286
860.725	14267
860.858	14328
860.99	14248
861.123	14134
861.256	14084
861.388	14164
861.521	14937
861.653	14111
861.786	14050
861.918	14024
862.05	14081
862.183	14183
862.315	14195
862.447	14199
862.58	14084
862.712	13928
862.844	13879
862.976	14001
863.108	14054
863.24	14305
863.372	13860
863.504	13986
863.636	13982
863.768	13989
863.9	13925
864.032	13917
864.164	13894
864.296	13982
864.428	14081
864.559	14043
864.691	14001
864.823	13932
864.954	13978
865.086	14043
865.217	13970
865.349	13837
865.48	13925
865.612	14001
865.743	14008
865.875	13970
866.006	13932
866.137	13959
866.269	13833
866.4	14100
866.531	13921
866.662	13856
866.793	13890
866.924	13856
867.055	13936
867.186	13894
867.317	13947
867.448	13803
867.579	13917
867.71	13875
867.841	13856
867.972	13887
868.103	13932
868.233	13989
868.364	13909
868.495	14096
868.625	14103
868.756	14278
868.886	14115
869.017	14134
869.147	14210
869.278	14282
869.408	14153
869.539	14088
869.669	14275
869.799	14145
869.929	14366
870.06	14267
870.19	14492
870.32	14507
870.45	14575
870.58	14473
870.71	14792
870.84	14667
870.97	14514
871.1	14556
871.23	14750
871.36	14762
871.489	14648
871.619	14720
871.749	14857
871.879	14796
872.008	14868
872.138	14853
872.267	14754
872.397	14697
872.526	14598
872.656	14625
872.785	14602
872.915	14823
873.044	14906
873.173	14804
873.303	14902
873.432	14853
873.561	14929
873.69	14811
873.819	14918
873.948	14872
874.077	14819
874.206	14811
874.335	14811
874.464	15055
874.593	15142
874.722	15024
874.851	15146
874.979	15138
875.108	15214
875.237	15100
875.365	15157
875.494	15127
875.623	15214
875.751	15150
875.88	15283
876.008	15412
876.136	15348
876.265	15576
876.393	15713
876.521	15637
876.65	15603
876.778	15553
876.906	15496
877.034	15564
877.162	15488
877.29	15416
877.418	15580
877.546	15591
877.674	15564
877.802	15500
877.93	15568
878.058	15561
878.185	15317
878.313	15595
878.441	15526
878.568	15462
878.696	15496
878.824	15637
878.951	15701
879.079	15690
879.206	15812
879.333	15804
879.461	15599
879.588	15679
879.715	15724
879.842	15846
879.97	15622
880.097	15382
880.224	15401
880.351	15382
880.478	15325
880.605	15405
880.732	15401
880.859	15622
880.986	15496
881.112	15420
881.239	15401
881.366	15222
881.493	15032
881.619	15127
881.746	15142
881.872	15138
881.999	15028
882.125	15013
882.252	15039
882.378	15093
882.505	15336
882.631	14963
882.757	14925
882.883	14857
883.01	14963
883.136	14792
883.262	14697
883.388	14663
883.514	14864
883.64	14910
883.766	14819
883.892	14659
884.018	14689
884.143	14853
884.269	14979
884.395	14621
884.52	14568
884.646	14632
884.772	14537
884.897	14476
885.023	14598
885.148	14674
885.274	14762
885.399	14735
885.524	14659
885.65	14552
885.775	14670
885.9	14629
886.025	14762
886.15	14686
886.275	14640
886.4	14503
886.525	14495
886.65	14556
886.775	14583
886.9	14606
887.025	14811
887.149	14526
887.274	14370
887.399	14389
887.523	14446
887.648	14278
887.773	14385
887.897	14511
888.021	14454
888.146	14454
888.27	14549
888.395	14469
888.519	14469
888.643	14488
888.767	14499
888.891	14271
889.015	14278
889.139	14256
889.263	14233
889.387	14400
889.511	14556
889.635	14400
889.759	14309
889.883	14313
890.006	14415
890.13	14400
890.254	14278
890.377	14218
890.501	14088
890.624	14054
890.748	14221
890.871	14054
890.995	14001
891.118	13902
891.241	13993
891.364	14081
891.488	14020
891.611	13932
891.734	14092
891.857	14077
891.98	14062
892.103	14035
892.226	14073
892.349	13974
892.471	13917
892.594	13944
892.717	14069
892.839	14054
892.962	13978
893.085	13974
893.207	13959
893.33	13875
893.452	13913
893.575	14069
893.697	13921
893.819	14130
893.941	14206
894.064	14008
894.186	13921
894.308	13864
894.43	14103
894.552	14244
894.674	14206
894.796	13959
894.918	14088
895.04	13993
895.161	14191
895.283	14123
895.405	14016
895.526	14130
895.648	14081
895.769	14176
895.891	14252
896.012	14256
896.134	14138
896.255	14126
896.376	14100
896.498	14267
896.619	14347
896.74	14187
896.861	14320
896.982	14533
897.103	14651
897.224	14438
897.345	14339
897.466	14324
897.587	14507
897.708	14587
897.828	14610
897.949	14450
898.07	14366
898.19	14415
898.311	14629
898.431	14495
898.552	14537
898.672	14541
898.792	14655
898.913	14533
899.033	14530
899.153	14404
899.273	14256
899.393	14355
899.513	14389
899.633	14374
899.753	14332
899.873	14389
899.993	14385
900.113	14412
900.232	14374
900.352	14301
900.472	14206
900.591	14168
900.711	14317
900.83	14214
900.95	14343
901.069	14408
901.189	14225
901.308	14005
901.427	13959
901.546	13921
901.665	13887
901.784	14077
901.904	13807
902.023	13666
902.141	13521
902.26	13556
902.379	13533
902.498	13476
902.617	13537
902.735	13464
902.854	13464
902.973	13419
903.091	13209
903.21	13236
903.328	13179
903.446	13107
903.565	13084
903.683	13126
903.801	12939
903.919	13076
904.038	13091
904.156	12932
904.274	12928
904.392	12852
904.51	12920
904.627	12882
904.745	12935
904.863	13015
904.981	12616
905.098	12589
905.216	12578
905.334	12597
905.451	12559
905.569	12467
905.686	12563
905.803	12525
905.921	12464
906.038	12464
906.155	12380
906.272	12346
906.389	12388
906.506	12167
906.623	12167
906.74	12068
906.857	12083
906.974	12064
907.091	12277
907.208	12266
907.324	12232
907.441	12155
907.557	11996
907.674	11988
907.79	11866
907.907	11908
908.023	11950
908.139	11946
908.256	11855
908.372	11901
908.488	11828
908.604	11695
908.72	11752
908.836	11684
908.952	11653
909.068	11783
909.184	11745
909.3	11760
909.415	11699
909.531	11767
909.647	11520
909.762	11535
909.878	11509
909.993	11486
910.108	11490
910.224	11455
910.339	11493
910.454	11379
910.57	11318
910.685	11307
910.8	11585
910.915	11562
911.03	11364
911.145	11193
911.259	11151
911.374	11193
911.489	11109
911.604	10999
911.718	10938
911.833	10965
911.947	10812
912.062	10809
912.176	10885
912.291	10957
912.405	10900
912.519	11121
912.633	11140
912.748	11045
912.862	10984
912.976	10816
913.09	10710
913.204	10797
913.318	10873
913.431	10946
913.545	10987
913.659	10923
913.772	10797
913.886	10687
914	10683
914.113	10793
914.226	10828
914.34	10812
914.453	10531
914.566	10812
914.68	10717
914.793	10607
914.906	10455
915.019	10413
915.132	10447
915.245	10459
915.358	10512
915.47	10398
915.583	10409
915.696	10523
915.809	10622
915.921	10611
916.034	10421
916.146	10314
916.259	10421
916.371	10478
916.483	10554
916.595	10367
916.708	10421
916.82	10371
916.932	10417
917.044	10363
917.156	10341
917.268	10306
917.38	10276
917.491	10227
917.603	10318
917.715	10379
917.826	10394
917.938	10204
918.049	10143
918.161	10299
918.272	10500
918.384	10318
918.495	10261
918.606	10090
918.717	10101
918.828	10185
918.939	10181
919.05	10116
919.161	10154
919.272	9972
919.383	10010
919.494	10234
919.604	10356
919.715	10207
919.826	10139
919.936	10101
920.047	10272
920.157	10227
920.267	10382
920.378	10196
920.488	10177
920.598	10337
920.708	10504
920.818	10413
920.928	10379
921.038	10649
921.148	10523
921.258	10192
921.368	10185
921.477	10051
921.587	10101
921.697	9884
921.806	10128
921.916	9937
922.025	9781
922.134	9728
922.244	9660
922.353	9808
922.462	9713
922.571	9587
922.68	9458
922.789	9439
922.898	9439
923.007	9469
923.116	9435
923.224	9408
923.333	9401
923.442	9302
923.55	9237
923.659	9351
923.767	9431
923.876	9222
923.984	9336
924.092	9230
924.201	9302
924.309	9329
924.417	9287
924.525	9253
924.633	9298
924.741	10238
924.849	9112
924.956	9192
925.064	9097
925.172	9058
925.279	9081
925.387	9173
925.494	9100
925.602	9275
925.709	9131
925.816	9093
925.924	9089
926.031	9199
926.138	9138
926.245	9089
926.352	9077
926.459	9184
926.566	9222
926.673	9032
926.779	8921
926.886	8921
926.993	8826
927.099	8868
927.206	8739
927.312	8739
927.419	8838
927.525	8769
927.631	8849
927.737	8735
927.843	8792
927.95	8674
928.056	8731
928.162	8762
928.267	8773
928.373	9291
928.479	8766
928.585	8568
928.69	8697
928.796	8766
928.901	8621
929.007	8495
929.112	8663
929.218	8590
929.323	8545
929.428	8537
929.533	8613
929.638	8454
929.743	8495
929.848	8587
929.953	8473
930.058	8473
930.163	8282
930.267	8298
930.372	8381
930.477	8275
930.581	8450
930.685	8351
930.79	8172
930.894	8240
930.998	8275
931.103	8358
931.207	8088
931.311	7986
931.415	7921
931.519	7784
931.623	7799
