Data from test_V78500241_1822.txt Node
Date: Fri Mar 25 14:46:24 CST 2022
User: usil
Spectrometer: V785-0024
Trigger mode: 0
Integration Time (sec): 4.000000E-1
Scans to average: 1
Nonlinearity correction enabled: false
Boxcar width: 0
Storing dark spectrum: false
XAxis mode: Wavelengths
Number of Pixels in Spectrum: 1024
>>>>>Begin Spectral Data<<<<<
801.071	22143
801.214	22070
801.356	21812
801.499	21603
801.641	21648
801.783	21622
801.926	21553
802.068	21389
802.211	21367
802.353	21359
802.496	21077
802.638	21066
802.78	20990
802.923	20830
803.065	20918
803.208	20773
803.35	20883
803.492	20826
803.635	20986
803.777	20861
803.919	20876
804.061	21241
804.204	20967
804.346	20811
804.488	20712
804.63	20720
804.773	20693
804.915	20785
805.057	21009
805.199	20785
805.341	20724
805.483	20876
805.626	20811
805.768	20792
805.91	20788
806.052	20765
806.194	20697
806.336	20990
806.478	20724
806.62	20689
806.762	20861
806.904	20876
807.046	21275
807.188	21165
807.33	21020
807.472	21089
807.614	20975
807.756	20994
807.898	20952
808.04	20838
808.182	20807
808.324	20876
808.465	20960
808.607	20994
808.749	21249
808.891	21180
809.033	21268
809.174	21165
809.316	21127
809.458	21184
809.6	21184
809.741	21294
809.883	21260
810.025	21302
810.166	21272
810.308	21268
810.45	21264
810.591	21188
810.733	21180
810.875	20967
811.016	20815
811.158	20826
811.299	21081
811.441	21047
811.582	20986
811.724	20941
811.865	20762
812.007	20967
812.148	20941
812.29	20861
812.431	21180
812.573	21279
812.714	21279
812.855	21526
812.997	21507
813.138	21614
813.279	21504
813.421	21603
813.562	21424
813.703	21192
813.845	21104
813.986	20750
814.127	20651
814.268	20495
814.41	20507
814.551	20526
814.692	20465
814.833	20332
814.974	20457
815.115	20457
815.256	20221
815.397	20343
815.539	20332
815.68	20252
815.821	20233
815.962	20187
816.103	20115
816.244	20058
816.385	19974
816.526	19978
816.666	19795
816.807	19609
816.948	19795
817.089	19738
817.23	19712
817.371	19784
817.512	19681
817.653	19567
817.793	19533
817.934	19533
818.075	19605
818.216	19639
818.356	19499
818.497	19407
818.638	19327
818.778	19213
818.919	19403
819.06	19354
819.2	19343
819.341	19335
819.481	19487
819.622	19613
819.762	19776
819.903	19875
820.043	19689
820.184	19651
820.324	19609
820.465	19624
820.605	19575
820.746	19578
820.886	19422
821.026	19559
821.167	19453
821.307	19590
821.447	19559
821.588	19506
821.728	19236
821.868	19183
822.008	19012
822.149	19088
822.289	18856
822.429	18707
822.569	18684
822.709	18734
822.849	18448
822.99	18483
823.13	18414
823.27	18585
823.41	18418
823.55	18281
823.69	18311
823.83	18186
823.97	18262
824.11	18079
824.25	18076
824.389	18019
824.529	18186
824.669	18152
824.809	18144
824.949	18159
825.089	18026
825.228	18133
825.368	17851
825.508	17897
825.648	17840
825.787	17878
825.927	17855
826.067	17828
826.206	17851
826.346	17912
826.485	17790
826.625	17760
826.765	17885
826.904	17870
827.044	17695
827.183	17589
827.323	17459
827.462	17558
827.601	17558
827.741	17486
827.88	17566
828.02	17448
828.159	17501
828.298	17562
828.437	17539
828.577	17482
828.716	17638
828.855	17516
828.994	17318
829.134	17231
829.273	17402
829.412	17383
829.551	17178
829.69	17250
829.829	17299
829.968	17395
830.107	17444
830.246	17307
830.385	17227
830.524	17220
830.663	17113
830.802	16987
830.941	16873
831.08	16889
831.219	16965
831.357	16972
831.496	17151
831.635	16828
831.774	16873
831.913	16820
832.051	16725
832.19	16664
832.329	16774
832.467	16626
832.606	16596
832.744	16615
832.883	16577
833.022	16554
833.16	16580
833.299	16611
833.437	16672
833.576	16675
833.714	16698
833.852	16611
833.991	16683
834.129	16698
834.267	16778
834.406	16645
834.544	16706
834.682	16694
834.821	16672
834.959	16866
835.097	16618
835.235	16656
835.373	16706
835.511	16653
835.65	16538
835.788	16466
835.926	16405
836.064	16356
836.202	16428
836.34	16607
836.478	16645
836.615	16599
836.753	16508
836.891	16702
837.029	16611
837.167	16519
837.305	16546
837.443	16512
837.58	16386
837.718	16402
837.856	16466
837.993	16421
838.131	16405
838.269	16428
838.406	16344
838.544	16265
838.681	16150
838.819	16219
838.956	16032
839.094	15994
839.231	16086
839.369	16055
839.506	16405
839.643	16185
839.781	16044
839.918	15983
840.055	16150
840.193	16112
840.33	15972
840.467	15991
840.604	16044
840.742	16261
840.879	15804
841.016	15937
841.153	15975
841.29	16055
841.427	16013
841.564	16086
841.701	16051
841.838	16055
841.975	15869
842.112	15835
842.249	15880
842.385	15770
842.522	15987
842.659	15850
842.796	15857
842.933	15823
843.069	15785
843.206	15660
843.343	15937
843.479	15720
843.616	15865
843.752	15663
843.889	15538
844.025	15747
844.162	15660
844.298	15663
844.435	15591
844.571	15618
844.708	15587
844.844	15690
844.98	15709
845.117	15682
845.253	15686
845.389	15568
845.525	15462
845.661	15587
845.798	15405
845.934	15378
846.07	15302
846.206	15481
846.342	15428
846.478	15439
846.614	15222
846.75	15055
846.886	15150
847.022	15188
847.158	15184
847.294	15127
847.429	15157
847.565	15104
847.701	15359
847.837	14956
847.972	14887
848.108	15020
848.244	14864
848.379	14804
848.515	14785
848.65	14739
848.786	14781
848.921	14834
849.057	14819
849.192	14796
849.328	14819
849.463	14731
849.598	14693
849.734	14651
849.869	14552
850.004	14560
850.14	14533
850.275	14541
850.41	14495
850.545	14450
850.68	14495
850.815	14617
850.95	14488
851.085	14693
851.22	14651
851.355	14556
851.49	14450
851.625	14484
851.76	14408
851.895	14408
852.03	14427
852.165	14454
852.299	14492
852.434	14549
852.569	14575
852.703	14484
852.838	14689
852.973	14678
853.107	14693
853.242	14571
853.376	14457
853.511	14320
853.645	14465
853.78	14507
853.914	14419
854.048	14412
854.183	14259
854.317	14450
854.451	14560
854.585	14492
854.72	14362
854.854	14393
854.988	14275
855.122	14309
855.256	14168
855.39	14431
855.524	14457
855.658	14400
855.792	14419
855.926	14533
856.06	14377
856.194	14495
856.327	14404
856.461	14339
856.595	14366
856.729	14309
856.862	14461
856.996	14385
857.13	14393
857.263	14408
857.397	14480
857.53	14343
857.664	14362
857.797	14499
857.931	14560
858.064	14358
858.197	14541
858.331	14396
858.464	14351
858.597	14336
858.731	14393
858.864	14370
858.997	14408
859.13	14374
859.263	14427
859.396	14526
859.529	14412
859.662	14286
859.795	14358
859.928	14400
860.061	14549
860.194	14568
860.327	14492
860.46	14446
860.592	14518
860.725	14552
860.858	14503
860.99	14438
861.123	14374
861.256	14294
861.388	14336
861.521	15017
861.653	14263
861.786	14252
861.918	14298
862.05	14282
862.183	14336
862.315	14313
862.447	14408
862.58	14366
862.712	14130
862.844	14187
862.976	14309
863.108	14206
863.24	14446
863.372	14153
863.504	14256
863.636	14252
863.768	14225
863.9	14123
864.032	14180
864.164	14130
864.296	14172
864.428	14233
864.559	14263
864.691	14328
864.823	14195
864.954	14332
865.086	14199
865.217	14142
865.349	14153
865.48	14187
865.612	14187
865.743	14267
865.875	14237
866.006	14073
866.137	14168
866.269	14278
866.4	14145
866.531	14153
866.662	14016
866.793	14103
866.924	14149
867.055	14096
867.186	14161
867.317	14069
867.448	14229
867.579	14065
867.71	14054
867.841	14065
867.972	14229
868.103	14043
868.233	14244
868.364	14248
868.495	14320
868.625	14385
868.756	14480
868.886	14339
869.017	14423
869.147	14488
869.278	14522
869.408	14415
869.539	14446
869.669	14419
869.799	14454
869.929	14511
870.06	14511
870.19	14705
870.32	14590
870.45	14716
870.58	14743
870.71	15013
870.84	14910
870.97	14830
871.1	14746
871.23	14952
871.36	14963
871.489	14918
871.619	14944
871.749	14982
871.879	14998
872.008	15043
872.138	15013
872.267	14960
872.397	14849
872.526	14883
872.656	14811
872.785	14705
872.915	15028
873.044	15036
873.173	15058
873.303	15020
873.432	15024
873.561	15173
873.69	15100
873.819	15028
873.948	15127
874.077	15039
874.206	15032
874.335	15123
874.464	15199
874.593	15336
874.722	15211
874.851	15469
874.979	15378
875.108	15473
875.237	15310
875.365	15332
875.494	15310
875.623	15545
875.751	15416
875.88	15389
876.008	15538
876.136	15519
876.265	15797
876.393	15915
876.521	15873
876.65	15873
876.778	15774
876.906	15698
877.034	15728
877.162	15736
877.29	15679
877.418	15838
877.546	15854
877.674	15808
877.802	15690
877.93	15793
878.058	15774
878.185	15709
878.313	15759
878.441	15717
878.568	15637
878.696	15682
878.824	15759
878.951	15895
879.079	15865
879.206	16051
879.333	15960
879.461	15842
879.588	15876
879.715	15968
879.842	16048
879.97	15778
880.097	15572
880.224	15526
880.351	15675
880.478	15584
880.605	15599
880.732	15591
880.859	15846
880.986	15679
881.112	15629
881.239	15450
881.366	15336
881.493	15329
881.619	15237
881.746	15389
881.872	15226
881.999	15348
882.125	15226
882.252	15226
882.378	15321
882.505	15454
882.631	15294
882.757	15142
882.883	15142
883.01	15119
883.136	15108
883.262	14918
883.388	14990
883.514	15161
883.64	15180
883.766	15039
883.892	14963
884.018	15036
884.143	15055
884.269	15142
884.395	14944
884.52	14750
884.646	14804
884.772	14762
884.897	14705
885.023	14792
885.148	14876
885.274	14990
885.399	14849
885.524	14891
885.65	14864
885.775	14838
885.9	14750
886.025	14906
886.15	14944
886.275	14648
886.4	14716
886.525	14819
886.65	14746
886.775	14693
886.9	14929
887.025	14956
887.149	14712
887.274	14735
887.399	14636
887.523	14636
887.648	14530
887.773	14564
887.897	14724
888.021	14743
888.146	14606
888.27	14762
888.395	14769
888.519	14762
888.643	14632
888.767	14693
888.891	14564
889.015	14457
889.139	14545
889.263	14495
889.387	14632
889.511	14716
889.635	14583
889.759	14385
889.883	14484
890.006	14465
890.13	14606
890.254	14476
890.377	14438
890.501	14305
890.624	14210
890.748	14374
890.871	14229
890.995	14248
891.118	14172
891.241	14271
891.364	14172
891.488	14229
891.611	14199
891.734	14157
891.857	14294
891.98	14263
892.103	14214
892.226	14115
892.349	14176
892.471	14024
892.594	14134
892.717	14221
892.839	14073
892.962	14187
893.085	14278
893.207	14142
893.33	14115
893.452	14016
893.575	14298
893.697	14199
893.819	14339
893.941	14301
894.064	14347
894.186	14180
894.308	14084
894.43	14298
894.552	14343
894.674	14343
894.796	14134
894.918	14176
895.04	14126
895.161	14233
895.283	14358
895.405	14206
895.526	14286
895.648	14358
895.769	14282
895.891	14408
896.012	14385
896.134	14351
896.255	14347
896.376	14290
896.498	14332
896.619	14412
896.74	14206
896.861	14446
896.982	14758
897.103	14857
897.224	14663
897.345	14564
897.466	14518
897.587	14667
897.708	14693
897.828	14720
897.949	14602
898.07	14530
898.19	14663
898.311	14659
898.431	14610
898.552	14670
898.672	14743
898.792	14807
898.913	14765
899.033	14708
899.153	14556
899.273	14552
899.393	14526
899.513	14625
899.633	14598
899.753	14571
899.873	14545
899.993	14571
900.113	14514
900.232	14587
900.352	14697
900.472	14533
900.591	14355
900.711	14499
900.83	14358
900.95	14579
901.069	14469
901.189	14381
901.308	14157
901.427	14149
901.546	14115
901.665	14119
901.784	14161
901.904	13925
902.023	13925
902.141	13708
902.26	13651
902.379	13715
902.498	13719
902.617	13556
902.735	13685
902.854	13643
902.973	13689
903.091	13396
903.21	13339
903.328	13449
903.446	13289
903.565	13187
903.683	13244
903.801	13152
903.919	13282
904.038	13198
904.156	13038
904.274	13141
904.392	12943
904.51	12916
904.627	13027
904.745	13027
904.863	13069
904.981	12897
905.098	12745
905.216	12798
905.334	12772
905.451	12764
905.569	12734
905.686	12722
905.803	12734
905.921	12521
906.038	12760
906.155	12528
906.272	12464
906.389	12566
906.506	12311
906.623	12372
906.74	12319
906.857	12205
906.974	12209
907.091	12315
907.208	12403
907.324	12281
907.441	12235
907.557	12186
907.674	12087
907.79	11996
907.907	12098
908.023	12155
908.139	12155
908.256	12038
908.372	11931
908.488	11927
908.604	11916
908.72	11817
908.836	11889
908.952	11939
909.068	11828
909.184	11916
909.3	11817
909.415	11908
909.531	11908
909.647	11649
909.762	11592
909.878	11604
909.993	11600
910.108	11630
910.224	11493
910.339	11570
910.454	11471
910.57	11448
910.685	11341
910.8	11722
910.915	11710
911.03	11482
911.145	11376
911.259	11269
911.374	11334
911.489	11277
911.604	11246
911.718	11117
911.833	11037
911.947	11006
912.062	10889
912.176	11025
912.291	11052
912.405	11071
912.519	11261
912.633	11166
912.748	11155
912.862	10968
912.976	10908
913.09	10877
913.204	10908
913.318	10968
913.431	11025
913.545	11018
913.659	11060
913.772	10991
913.886	10721
914	10812
914.113	10965
914.226	10919
914.34	10881
914.453	10805
914.566	10862
914.68	10771
914.793	10744
914.906	10561
915.019	10519
915.132	10542
915.245	10569
915.358	10546
915.47	10622
915.583	10637
915.696	10607
915.809	10733
915.921	10660
916.034	10508
916.146	10497
916.259	10440
916.371	10584
916.483	10615
916.595	10565
916.708	10489
916.82	10512
916.932	10428
917.044	10538
917.156	10474
917.268	10363
917.38	10402
917.491	10398
917.603	10470
917.715	10417
917.826	10504
917.938	10421
918.049	10325
918.161	10337
918.272	10485
918.384	10519
918.495	10451
918.606	10215
918.717	10272
918.828	10299
918.939	10310
919.05	10169
919.161	10261
919.272	10078
919.383	10181
919.494	10333
919.604	10535
919.715	10318
919.826	10306
919.936	10268
920.047	10318
920.157	10337
920.267	10455
920.378	10375
920.488	10352
920.598	10504
920.708	10588
920.818	10485
920.928	10470
921.038	10702
921.148	10653
921.258	10348
921.368	10246
921.477	10272
921.587	10166
921.697	10143
921.806	10124
921.916	10055
922.025	9911
922.134	9835
922.244	9854
922.353	9911
922.462	9778
922.571	9625
922.68	9587
922.789	9599
922.898	9549
923.007	9561
923.116	9542
923.224	9603
923.333	9572
923.442	9462
923.55	9389
923.659	9481
923.767	9557
923.876	9355
923.984	9515
924.092	9378
924.201	9428
924.309	9382
924.417	9439
924.525	9332
924.633	9321
924.741	10337
924.849	9192
924.956	9351
925.064	9218
925.172	9070
925.279	9169
925.387	9253
925.494	9169
925.602	9313
925.709	9317
925.816	9089
925.924	9264
926.031	9237
926.138	9291
926.245	9291
926.352	9169
926.459	9237
926.566	9260
926.673	9154
926.779	9108
926.886	9085
926.993	8967
927.099	8899
927.206	8902
927.312	8834
927.419	8986
927.525	8952
927.631	8918
927.737	8868
927.843	8872
927.95	8777
928.056	8766
928.162	8773
928.267	8864
928.373	9557
928.479	8921
928.585	8632
928.69	8739
928.796	8891
928.901	8701
929.007	8579
929.112	8712
929.218	8769
929.323	8670
929.428	8625
929.533	8712
929.638	8606
929.743	8518
929.848	8651
929.953	8575
930.058	8480
930.163	8377
930.267	8427
930.372	8560
930.477	8381
930.581	8720
930.685	8499
930.79	8366
930.894	8358
930.998	8309
931.103	8454
931.207	8157
931.311	8084
931.415	7982
931.519	7852
931.623	7921
