Data from test_V78500241_3032.txt Node
Date: Fri Mar 25 14:54:49 CST 2022
User: usil
Spectrometer: V785-0024
Trigger mode: 0
Integration Time (sec): 4.000000E-1
Scans to average: 1
Nonlinearity correction enabled: false
Boxcar width: 0
Storing dark spectrum: false
XAxis mode: Wavelengths
Number of Pixels in Spectrum: 1024
>>>>>Begin Spectral Data<<<<<
801.071	22051
801.214	22032
801.356	21762
801.499	21641
801.641	21431
801.783	21477
801.926	21515
802.068	21511
802.211	21214
802.353	21169
802.496	21028
802.638	20960
802.78	20906
802.923	20918
803.065	20785
803.208	20667
803.35	20777
803.492	20857
803.635	20891
803.777	20712
803.919	20883
804.061	21173
804.204	20842
804.346	20587
804.488	20670
804.63	20792
804.773	20743
804.915	20663
805.057	20773
805.199	20731
805.341	20750
805.483	20857
805.626	20792
805.768	20708
805.91	20743
806.052	20678
806.194	20648
806.336	20902
806.478	20640
806.62	20476
806.762	20762
806.904	20971
807.046	21089
807.188	21032
807.33	20986
807.472	21066
807.614	20941
807.756	20933
807.898	20883
808.04	20792
808.182	20853
808.324	20975
808.465	20842
808.607	20948
808.749	21108
808.891	21230
809.033	21233
809.174	21199
809.316	21161
809.458	21077
809.6	20944
809.741	21058
809.883	21241
810.025	21237
810.166	21184
810.308	21180
810.45	21165
810.591	21066
810.733	20982
810.875	20834
811.016	20659
811.158	20857
811.299	20864
811.441	20845
811.582	20906
811.724	20807
811.865	20762
812.007	20826
812.148	20796
812.29	20842
812.431	21005
812.573	21249
812.714	21180
812.855	21515
812.997	21321
813.138	21618
813.279	21549
813.421	21389
813.562	21214
813.703	21116
813.845	20883
813.986	20739
814.127	20484
814.268	20400
814.41	20427
814.551	20336
814.692	20457
814.833	20282
814.974	20461
815.115	20370
815.256	20252
815.397	20355
815.539	20164
815.68	20142
815.821	20024
815.962	20149
816.103	20031
816.244	19974
816.385	19898
816.526	19750
816.666	19658
816.807	19563
816.948	19575
817.089	19719
817.23	19586
817.371	19571
817.512	19521
817.653	19552
817.793	19548
817.934	19529
818.075	19529
818.216	19510
818.356	19476
818.497	19487
818.638	19145
818.778	19209
818.919	19145
819.06	19240
819.2	19282
819.341	19457
819.481	19445
819.622	19521
819.762	19795
819.903	19662
820.043	19704
820.184	19491
820.324	19518
820.465	19472
820.605	19464
820.746	19506
820.886	19255
821.026	19392
821.167	19426
821.307	19521
821.447	19426
821.588	19324
821.728	19103
821.868	18993
822.008	18966
822.149	18966
822.289	18875
822.429	18570
822.569	18544
822.709	18593
822.849	18448
822.99	18391
823.13	18285
823.27	18289
823.41	18258
823.55	18136
823.69	18102
823.83	18216
823.97	18022
824.11	17950
824.25	17942
824.389	17942
824.529	18064
824.669	18026
824.809	18041
824.949	18057
825.089	18079
825.228	17980
825.368	17691
825.508	17733
825.648	17786
825.787	17794
825.927	17897
826.067	17684
826.206	17710
826.346	17764
826.485	17798
826.625	17748
826.765	17866
826.904	17775
827.044	17421
827.183	17505
827.323	17379
827.462	17528
827.601	17402
827.741	17379
827.88	17395
828.02	17341
828.159	17372
828.298	17433
828.437	17520
828.577	17402
828.716	17619
828.855	17395
828.994	17117
829.134	17239
829.273	17280
829.412	17083
829.551	17067
829.69	17181
829.829	17166
829.968	17200
830.107	17143
830.246	17220
830.385	17075
830.524	17132
830.663	17025
830.802	16957
830.941	16854
831.08	16774
831.219	16850
831.357	16866
831.496	16938
831.635	16710
831.774	16717
831.913	16759
832.051	16535
832.19	16542
832.329	16656
832.467	16443
832.606	16493
832.744	16489
832.883	16542
833.022	16485
833.16	16531
833.299	16538
833.437	16451
833.576	16523
833.714	16497
833.852	16508
833.991	16474
834.129	16535
834.267	16481
834.406	16519
834.544	16531
834.682	16474
834.821	16512
834.959	16713
835.097	16424
835.235	16603
835.373	16580
835.511	16485
835.65	16478
835.788	16329
835.926	16246
836.064	16192
836.202	16306
836.34	16500
836.478	16500
836.615	16257
836.753	16436
836.891	16424
837.029	16386
837.167	16470
837.305	16318
837.443	16253
837.58	16246
837.718	16310
837.856	16249
837.993	16318
838.131	16341
838.269	16082
838.406	16116
838.544	16071
838.681	15998
838.819	16032
838.956	15873
839.094	15713
839.231	15903
839.369	15987
839.506	16226
839.643	16086
839.781	15903
839.918	15728
840.055	15922
840.193	15679
840.33	15739
840.467	15747
840.604	15876
840.742	15979
840.879	15603
841.016	15682
841.153	15679
841.29	15949
841.427	15789
841.564	15778
841.701	15854
841.838	15732
841.975	15584
842.112	15709
842.249	15739
842.385	15542
842.522	15812
842.659	15637
842.796	15507
842.933	15584
843.069	15526
843.206	15504
843.343	15701
843.479	15549
843.616	15663
843.752	15370
843.889	15428
844.025	15549
844.162	15332
844.298	15462
844.435	15294
844.571	15317
844.708	15481
844.844	15530
844.98	15466
845.117	15477
845.253	15397
845.389	15260
845.525	15291
845.661	15279
845.798	15112
845.934	15176
846.07	15100
846.206	15188
846.342	15310
846.478	15287
846.614	14868
846.75	14948
846.886	14883
847.022	14925
847.158	14921
847.294	14979
847.429	15062
847.565	14960
847.701	15138
847.837	14602
847.972	14583
848.108	14693
848.244	14819
848.379	14640
848.515	14530
848.65	14514
848.786	14564
848.921	14556
849.057	14606
849.192	14640
849.328	14575
849.463	14629
849.598	14533
849.734	14412
849.869	14328
850.004	14305
850.14	14358
850.275	14332
850.41	14259
850.545	14301
850.68	14400
850.815	14347
850.95	14362
851.085	14492
851.22	14484
851.355	14336
851.49	14267
851.625	14199
851.76	14221
851.895	14183
852.03	14206
852.165	14370
852.299	14343
852.434	14423
852.569	14396
852.703	14389
852.838	14404
852.973	14412
853.107	14415
853.242	14282
853.376	14153
853.511	14043
853.645	14199
853.78	14317
853.914	14161
854.048	14065
854.183	14176
854.317	14195
854.451	14301
854.585	14183
854.72	14107
854.854	14248
854.988	14077
855.122	14164
855.256	14062
855.39	14081
855.524	14218
855.658	14199
855.792	14240
855.926	14142
856.06	14202
856.194	14244
856.327	14145
856.461	14180
856.595	14111
856.729	14225
856.862	14408
856.996	14256
857.13	14153
857.263	14301
857.397	14374
857.53	14202
857.664	14225
857.797	14161
857.931	14336
858.064	14237
858.197	14301
858.331	14202
858.464	14145
858.597	14088
858.731	14206
858.864	14187
858.997	14237
859.13	14248
859.263	14206
859.396	14332
859.529	14161
859.662	14126
859.795	14081
859.928	14142
860.061	14396
860.194	14400
860.327	14123
860.46	14153
860.592	14248
860.725	14221
860.858	14305
860.99	14202
861.123	14035
861.256	14138
861.388	14202
861.521	14933
861.653	14126
861.786	13982
861.918	13978
862.05	14050
862.183	14168
862.315	14282
862.447	14218
862.58	14138
862.712	13955
862.844	13868
862.976	14069
863.108	13993
863.24	14465
863.372	13932
863.504	14020
863.636	13921
863.768	14008
863.9	14027
864.032	13841
864.164	13887
864.296	14035
864.428	14115
864.559	13986
864.691	14046
864.823	14027
864.954	14016
865.086	13989
865.217	13909
865.349	13860
865.48	13951
865.612	13955
865.743	14081
865.875	14043
866.006	13906
866.137	13944
866.269	13887
866.4	13868
866.531	13936
866.662	13887
866.793	13841
866.924	13951
867.055	13871
867.186	13925
867.317	13818
867.448	13868
867.579	13955
867.71	13860
867.841	13818
867.972	13982
868.103	13967
868.233	13989
868.364	14024
868.495	14020
868.625	14206
868.756	14317
868.886	14138
869.017	14210
869.147	14294
869.278	14225
869.408	14191
869.539	14149
869.669	14233
869.799	14225
869.929	14298
870.06	14320
870.19	14507
870.32	14492
870.45	14533
870.58	14590
870.71	14735
870.84	14598
870.97	14579
871.1	14632
871.23	14735
871.36	14758
871.489	14693
871.619	14785
871.749	14826
871.879	14788
872.008	14842
872.138	14804
872.267	14781
872.397	14625
872.526	14651
872.656	14518
872.785	14503
872.915	14758
873.044	14910
873.173	14842
873.303	14891
873.432	14815
873.561	14948
873.69	14804
873.819	14804
873.948	14883
874.077	14811
874.206	14804
874.335	14910
874.464	14982
874.593	15169
874.722	15074
874.851	15192
874.979	15173
875.108	15176
875.237	15203
875.365	15039
875.494	15039
875.623	15062
875.751	15066
875.88	15233
876.008	15283
876.136	15321
876.265	15667
876.393	15766
876.521	15656
876.65	15595
876.778	15652
876.906	15473
877.034	15534
877.162	15576
877.29	15466
877.418	15614
877.546	15568
877.674	15458
877.802	15549
877.93	15568
878.058	15488
878.185	15431
878.313	15568
878.441	15462
878.568	15504
878.696	15496
878.824	15561
878.951	15622
879.079	15743
879.206	15873
879.333	15743
879.461	15751
879.588	15675
879.715	15838
879.842	15930
879.97	15606
880.097	15504
880.224	15412
880.351	15469
880.478	15378
880.605	15424
880.732	15481
880.859	15641
880.986	15496
881.112	15447
881.239	15382
881.366	15226
881.493	15077
881.619	15097
881.746	15093
881.872	15093
881.999	15070
882.125	15001
882.252	15077
882.378	15005
882.505	15203
882.631	15032
882.757	14815
882.883	14906
883.01	14933
883.136	14830
883.262	14758
883.388	14678
883.514	14849
883.64	14918
883.766	14826
883.892	14750
884.018	14754
884.143	14857
884.269	14933
884.395	14526
884.52	14541
884.646	14667
884.772	14568
884.897	14518
885.023	14575
885.148	14743
885.274	14796
885.399	14762
885.524	14651
885.65	14530
885.775	14598
885.9	14590
886.025	14636
886.15	14674
886.275	14507
886.4	14526
886.525	14526
886.65	14530
886.775	14518
886.9	14739
887.025	14777
887.149	14670
887.274	14518
887.399	14442
887.523	14412
887.648	14434
887.773	14336
887.897	14476
888.021	14488
888.146	14423
888.27	14461
888.395	14575
888.519	14514
888.643	14446
888.767	14473
888.891	14473
889.015	14358
889.139	14313
889.263	14267
889.387	14393
889.511	14556
889.635	14545
889.759	14275
889.883	14240
890.006	14366
890.13	14431
890.254	14225
890.377	14256
890.501	14084
890.624	14081
890.748	14218
890.871	14058
890.995	13970
891.118	13841
891.241	14069
891.364	14027
891.488	14172
891.611	14031
891.734	14001
891.857	14016
891.98	14005
892.103	14084
892.226	13970
892.349	14005
892.471	13837
892.594	13986
892.717	13997
892.839	13974
892.962	13997
893.085	14035
893.207	13982
893.33	13830
893.452	13917
893.575	14111
893.697	13978
893.819	14130
893.941	14221
894.064	14145
894.186	13936
894.308	13906
894.43	14149
894.552	14233
894.674	14210
894.796	13989
894.918	14069
895.04	14008
895.161	14123
895.283	14145
895.405	14119
895.526	14058
895.648	14176
895.769	14172
895.891	14214
896.012	14278
896.134	14294
896.255	14088
896.376	14103
896.498	14149
896.619	14195
896.74	14130
896.861	14206
896.982	14571
897.103	14701
897.224	14438
897.345	14511
897.466	14427
897.587	14404
897.708	14583
897.828	14518
897.949	14419
898.07	14317
898.19	14480
898.311	14537
898.431	14434
898.552	14480
898.672	14678
898.792	14712
898.913	14545
899.033	14545
899.153	14446
899.273	14248
899.393	14457
899.513	14431
899.633	14450
899.753	14461
899.873	14309
899.993	14514
900.113	14309
900.232	14423
900.352	14301
900.472	14305
900.591	14168
900.711	14324
900.83	14290
900.95	14298
901.069	14396
901.189	14210
901.308	13993
901.427	13894
901.546	13967
901.665	14012
901.784	13868
901.904	13776
902.023	13719
902.141	13616
902.26	13548
902.379	13559
902.498	13544
902.617	13537
902.735	13521
902.854	13518
902.973	13426
903.091	13259
903.21	13297
903.328	13263
903.446	13129
903.565	13095
903.683	13175
903.801	13008
903.919	13069
904.038	13057
904.156	12897
904.274	12958
904.392	12878
904.51	12886
904.627	12977
904.745	12951
904.863	12878
904.981	12711
905.098	12627
905.216	12646
905.334	12673
905.451	12563
905.569	12608
905.686	12597
905.803	12521
905.921	12384
906.038	12452
906.155	12388
906.272	12254
906.389	12330
906.506	12163
906.623	12251
906.74	12140
906.857	12049
906.974	12079
907.091	12266
907.208	12350
907.324	12262
907.441	12095
907.557	11973
907.674	11817
907.79	11863
907.907	11950
908.023	11980
908.139	11954
908.256	11813
908.372	11889
908.488	11775
908.604	11688
908.72	11718
908.836	11627
908.952	11680
909.068	11741
909.184	11756
909.3	11653
909.415	11691
909.531	11642
909.647	11474
909.762	11433
909.878	11406
909.993	11436
910.108	11448
910.224	11387
910.339	11440
910.454	11292
910.57	11235
910.685	11261
910.8	11505
910.915	11474
911.03	11379
911.145	11166
911.259	11045
911.374	11155
911.489	11113
911.604	11052
911.718	10961
911.833	10889
911.947	10820
912.062	10660
912.176	10908
912.291	10896
912.405	10843
912.519	11090
912.633	11060
912.748	10976
912.862	10911
912.976	10835
913.09	10729
913.204	10767
913.318	10733
913.431	10938
913.545	10866
913.659	10984
913.772	10812
913.886	10679
914	10649
914.113	10740
914.226	10771
914.34	10809
914.453	10561
914.566	10771
914.68	10554
914.793	10592
914.906	10462
915.019	10417
915.132	10394
915.245	10341
915.358	10424
915.47	10379
915.583	10455
915.696	10470
915.809	10531
915.921	10523
916.034	10417
916.146	10390
916.259	10287
916.371	10455
916.483	10405
916.595	10382
916.708	10440
916.82	10291
916.932	10352
917.044	10291
917.156	10322
917.268	10169
917.38	10295
917.491	10299
917.603	10238
917.715	10303
917.826	10322
917.938	10230
918.049	10139
918.161	10379
918.272	10447
918.384	10386
918.495	10253
918.606	10169
918.717	10010
918.828	10143
918.939	10238
919.05	10006
919.161	10063
919.272	9808
919.383	10040
919.494	10192
919.604	10363
919.715	10150
919.826	10131
919.936	10082
920.047	10181
920.157	10227
920.267	10405
920.378	10188
920.488	10150
920.598	10295
920.708	10497
920.818	10424
920.928	10337
921.038	10565
921.148	10405
921.258	10169
921.368	10124
921.477	10029
921.587	10032
921.697	9789
921.806	10101
921.916	9880
922.025	9789
922.134	9641
922.244	9622
922.353	9740
922.462	9576
922.571	9580
922.68	9439
922.789	9401
922.898	9447
923.007	9367
923.116	9348
923.224	9378
923.333	9378
923.442	9275
923.55	9310
923.659	9306
923.767	9382
923.876	9253
923.984	9370
924.092	9154
924.201	9226
924.309	9256
924.417	9275
924.525	9256
924.633	9283
924.741	10181
924.849	9020
924.956	9230
925.064	9058
925.172	9005
925.279	8986
925.387	9047
925.494	9104
925.602	9199
925.709	9188
925.816	8967
925.924	9039
926.031	9097
926.138	9013
926.245	9123
926.352	9047
926.459	9157
926.566	9188
926.673	9005
926.779	8902
926.886	8956
926.993	8845
927.099	8788
927.206	8731
927.312	8689
927.419	8826
927.525	8766
927.631	8811
927.737	8697
927.843	8693
927.95	8556
928.056	8651
928.162	8667
928.267	8697
928.373	9211
928.479	8826
928.585	8476
928.69	8651
928.796	8739
928.901	8602
929.007	8530
929.112	8701
929.218	8621
929.323	8556
929.428	8457
929.533	8625
929.638	8415
929.743	8461
929.848	8537
929.953	8533
930.058	8423
930.163	8275
930.267	8286
930.372	8507
930.477	8221
930.581	8492
930.685	8358
930.79	8240
930.894	8214
930.998	8202
931.103	8400
931.207	8069
931.311	7936
931.415	7917
931.519	7742
931.623	7757
