Data from test_V78500241_3584.txt Node
Date: Fri Mar 25 14:58:40 CST 2022
User: usil
Spectrometer: V785-0024
Trigger mode: 0
Integration Time (sec): 4.000000E-1
Scans to average: 1
Nonlinearity correction enabled: false
Boxcar width: 0
Storing dark spectrum: false
XAxis mode: Wavelengths
Number of Pixels in Spectrum: 1024
>>>>>Begin Spectral Data<<<<<
801.071	21903
801.214	21751
801.356	21481
801.499	21439
801.641	21363
801.783	21283
801.926	21272
802.068	21195
802.211	21207
802.353	21005
802.496	20998
802.638	20819
802.78	20777
802.923	20621
803.065	20617
803.208	20556
803.35	20617
803.492	20674
803.635	20746
803.777	20533
803.919	20640
804.061	20899
804.204	20674
804.346	20415
804.488	20530
804.63	20522
804.773	20503
804.915	20518
805.057	20617
805.199	20552
805.341	20621
805.483	20617
805.626	20571
805.768	20457
805.91	20507
806.052	20495
806.194	20590
806.336	20716
806.478	20480
806.62	20511
806.762	20526
806.904	20644
807.046	20956
807.188	20796
807.33	20758
807.472	20910
807.614	20731
807.756	20785
807.898	20583
808.04	20476
808.182	20552
808.324	20655
808.465	20609
808.607	20796
808.749	20830
808.891	20967
809.033	21024
809.174	20952
809.316	20853
809.458	20834
809.6	20800
809.741	20998
809.883	21005
810.025	21028
810.166	21017
810.308	20967
810.45	21013
810.591	20891
810.733	20804
810.875	20735
811.016	20579
811.158	20492
811.299	20667
811.441	20830
811.582	20705
811.724	20602
811.865	20598
812.007	20564
812.148	20609
812.29	20674
812.431	20842
812.573	20979
812.714	20979
812.855	21176
812.997	21180
813.138	21313
813.279	21195
813.421	21100
813.562	21062
813.703	20861
813.845	20746
813.986	20473
814.127	20290
814.268	20233
814.41	20180
814.551	20107
814.692	20225
814.833	20103
814.974	20183
815.115	20180
815.256	20115
815.397	20020
815.539	20058
815.68	19947
815.821	19765
815.962	19849
816.103	19875
816.244	19594
816.385	19620
816.526	19616
816.666	19419
816.807	19259
816.948	19419
817.089	19441
817.23	19384
817.371	19308
817.512	19263
817.653	19217
817.793	19179
817.934	19240
818.075	19289
818.216	19297
818.356	19308
818.497	19095
818.638	18875
818.778	18951
818.919	18970
819.06	19065
819.2	19091
819.341	19217
819.481	19255
819.622	19388
819.762	19381
819.903	19369
820.043	19354
820.184	19194
820.324	19171
820.465	19259
820.605	19266
820.746	19278
820.886	19072
821.026	19263
821.167	19179
821.307	19190
821.447	19213
821.588	19168
821.728	18878
821.868	18802
822.008	18798
822.149	18654
822.289	18585
822.429	18547
822.569	18372
822.709	18460
822.849	18079
822.99	18163
823.13	18136
823.27	18125
823.41	17996
823.55	17882
823.69	17984
823.83	18049
823.97	17847
824.11	17786
824.25	17714
824.389	17718
824.529	17927
824.669	17828
824.809	17885
824.949	17786
825.089	17649
825.228	17745
825.368	17646
825.508	17524
825.648	17539
825.787	17615
825.927	17467
826.067	17478
826.206	17490
826.346	17543
826.485	17615
826.625	17585
826.765	17600
826.904	17524
827.044	17372
827.183	17197
827.323	17185
827.462	17212
827.601	17239
827.741	17208
827.88	17220
828.02	17056
828.159	17170
828.298	17364
828.437	17299
828.577	17090
828.716	17421
828.855	17170
828.994	17079
829.134	16965
829.273	17041
829.412	17090
829.551	16908
829.69	16923
829.829	16972
829.968	17025
830.107	16984
830.246	17006
830.385	16881
830.524	16968
830.663	16805
830.802	16713
830.941	16565
831.08	16611
831.219	16641
831.357	16752
831.496	16820
831.635	16508
831.774	16485
831.913	16542
832.051	16352
832.19	16386
832.329	16375
832.467	16356
832.606	16242
832.744	16325
832.883	16284
833.022	16169
833.16	16303
833.299	16398
833.437	16367
833.576	16436
833.714	16363
833.852	16360
833.991	16306
834.129	16470
834.267	16360
834.406	16314
834.544	16417
834.682	16337
834.821	16303
834.959	16546
835.097	16344
835.235	16504
835.373	16409
835.511	16352
835.65	16219
835.788	16295
835.926	16090
836.064	16006
836.202	16158
836.34	16276
836.478	16371
836.615	16257
836.753	16299
836.891	16329
837.029	16291
837.167	16204
837.305	16261
837.443	16211
837.58	16071
837.718	16238
837.856	16181
837.993	16230
838.131	16162
838.269	16078
838.406	16048
838.544	15987
838.681	15835
838.819	15861
838.956	15804
839.094	15800
839.231	15728
839.369	15865
839.506	16093
839.643	16013
839.781	15736
839.918	15728
840.055	15774
840.193	15808
840.33	15686
840.467	15637
840.604	15667
840.742	15968
840.879	15595
841.016	15545
841.153	15656
841.29	15838
841.427	15717
841.564	15816
841.701	15739
841.838	15743
841.975	15637
842.112	15663
842.249	15599
842.385	15485
842.522	15732
842.659	15405
842.796	15504
842.933	15526
843.069	15397
843.206	15401
843.343	15557
843.479	15584
843.616	15603
843.752	15393
843.889	15294
844.025	15336
844.162	15203
844.298	15363
844.435	15233
844.571	15332
844.708	15393
844.844	15492
844.98	15443
845.117	15431
845.253	15180
845.389	15150
845.525	15211
845.661	15104
845.798	15112
845.934	15184
846.07	14990
846.206	15085
846.342	15146
846.478	15066
846.614	15032
846.75	14792
846.886	14823
847.022	14982
847.158	14929
847.294	14868
847.429	14918
847.565	14857
847.701	15154
847.837	14648
847.972	14537
848.108	14678
848.244	14632
848.379	14571
848.515	14488
848.65	14381
848.786	14454
848.921	14480
849.057	14632
849.192	14522
849.328	14476
849.463	14465
849.598	14469
849.734	14290
849.869	14351
850.004	14187
850.14	14305
850.275	14298
850.41	14210
850.545	14244
850.68	14221
850.815	14180
850.95	14187
851.085	14324
851.22	14355
851.355	14248
851.49	14176
851.625	14172
851.76	14130
851.895	14107
852.03	14149
852.165	14149
852.299	14240
852.434	14355
852.569	14229
852.703	14313
852.838	14336
852.973	14427
853.107	14431
853.242	14176
853.376	14107
853.511	14077
853.645	14096
853.78	14195
853.914	14088
854.048	14084
854.183	14096
854.317	14084
854.451	14282
854.585	14100
854.72	14039
854.854	14161
854.988	14020
855.122	14123
855.256	13902
855.39	14119
855.524	14206
855.658	14206
855.792	14103
855.926	14081
856.06	14218
856.194	14229
856.327	14039
856.461	14020
856.595	14043
856.729	14046
856.862	14191
856.996	14107
857.13	14229
857.263	14240
857.397	14206
857.53	14100
857.664	14180
857.797	14107
857.931	14233
858.064	14142
858.197	14225
858.331	14111
858.464	14016
858.597	14016
858.731	14130
858.864	14077
858.997	14149
859.13	14088
859.263	14062
859.396	14199
859.529	14096
859.662	14149
859.795	13982
859.928	14126
860.061	14290
860.194	14210
860.327	14187
860.46	14153
860.592	14199
860.725	14252
860.858	14195
860.99	14046
861.123	13970
861.256	13959
861.388	14145
861.521	14963
861.653	14058
861.786	13974
861.918	13989
862.05	14077
862.183	14062
862.315	14123
862.447	14157
862.58	14039
862.712	13856
862.844	13791
862.976	13974
863.108	13902
863.24	14275
863.372	13761
863.504	13902
863.636	13913
863.768	13989
863.9	13974
864.032	13811
864.164	13830
864.296	13890
864.428	13982
864.559	14008
864.691	13974
864.823	13852
864.954	13909
865.086	13871
865.217	13909
865.349	13750
865.48	13849
865.612	13890
865.743	14111
865.875	13906
866.006	13898
866.137	13883
866.269	13875
866.4	13856
866.531	13803
866.662	13761
866.793	13746
866.924	13890
867.055	13868
867.186	13856
867.317	13890
867.448	13765
867.579	13898
867.71	13852
867.841	13723
867.972	13928
868.103	13890
868.233	13890
868.364	13833
868.495	13932
868.625	14145
868.756	14256
868.886	13928
869.017	14199
869.147	14244
869.278	14172
869.408	14180
869.539	14225
869.669	14202
869.799	14069
869.929	14263
870.06	14267
870.19	14484
870.32	14355
870.45	14488
870.58	14530
870.71	14724
870.84	14708
870.97	14518
871.1	14488
871.23	14651
871.36	14651
871.489	14659
871.619	14769
871.749	14644
871.879	14739
872.008	14823
872.138	14727
872.267	14785
872.397	14583
872.526	14533
872.656	14564
872.785	14503
872.915	14708
873.044	14792
873.173	14674
873.303	14762
873.432	14796
873.561	14963
873.69	14880
873.819	14788
873.948	14834
874.077	14914
874.206	14804
874.335	14876
874.464	14925
874.593	15039
874.722	14971
874.851	15081
874.979	15085
875.108	15108
875.237	14986
875.365	15036
875.494	15085
875.623	15093
875.751	15119
875.88	15184
876.008	15199
876.136	15329
876.265	15545
876.393	15656
876.521	15656
876.65	15591
876.778	15515
876.906	15454
877.034	15523
877.162	15447
877.29	15507
877.418	15481
877.546	15641
877.674	15408
877.802	15439
877.93	15587
878.058	15450
878.185	15454
878.313	15443
878.441	15526
878.568	15393
878.696	15393
878.824	15534
878.951	15507
879.079	15739
879.206	15816
879.333	15690
879.461	15511
879.588	15637
879.715	15747
879.842	15717
879.97	15599
880.097	15348
880.224	15382
880.351	15389
880.478	15416
880.605	15424
880.732	15447
880.859	15580
880.986	15447
881.112	15374
881.239	15218
881.366	15169
881.493	15116
881.619	15074
881.746	14963
881.872	14979
881.999	15013
882.125	15001
882.252	15085
882.378	15017
882.505	15112
882.631	15028
882.757	14815
882.883	14986
883.01	14868
883.136	14785
883.262	14754
883.388	14758
883.514	14845
883.64	14830
883.766	14864
883.892	14655
884.018	14625
884.143	14838
884.269	14990
884.395	14648
884.52	14552
884.646	14587
884.772	14617
884.897	14492
885.023	14526
885.148	14735
885.274	14670
885.399	14575
885.524	14579
885.65	14617
885.775	14568
885.9	14507
886.025	14651
886.15	14587
886.275	14503
886.4	14415
886.525	14541
886.65	14507
886.775	14476
886.9	14686
887.025	14800
887.149	14469
887.274	14389
887.399	14427
887.523	14423
887.648	14313
887.773	14282
887.897	14404
888.021	14454
888.146	14351
888.27	14476
888.395	14579
888.519	14423
888.643	14480
888.767	14446
888.891	14393
889.015	14191
889.139	14294
889.263	14252
889.387	14404
889.511	14442
889.635	14404
889.759	14267
889.883	14180
890.006	14244
890.13	14290
890.254	14202
890.377	14214
890.501	14065
890.624	14096
890.748	14138
890.871	13955
890.995	13917
891.118	13879
891.241	13982
891.364	13906
891.488	14043
891.611	13970
891.734	13947
891.857	14001
891.98	14058
892.103	14123
892.226	13978
892.349	13921
892.471	13746
892.594	13879
892.717	13951
892.839	13951
892.962	13890
893.085	14088
893.207	13974
893.33	13909
893.452	13944
893.575	14027
893.697	13925
893.819	14187
893.941	14191
894.064	14180
894.186	14001
894.308	13856
894.43	14031
894.552	14164
894.674	14103
894.796	13928
894.918	14016
895.04	13932
895.161	14088
895.283	14031
895.405	13986
895.526	14058
895.648	14065
895.769	14100
895.891	14065
896.012	14172
896.134	14172
896.255	14199
896.376	14058
896.498	14054
896.619	14157
896.74	14187
896.861	14237
896.982	14480
897.103	14610
897.224	14396
897.345	14358
897.466	14301
897.587	14362
897.708	14457
897.828	14530
897.949	14347
898.07	14275
898.19	14317
898.311	14552
898.431	14385
898.552	14427
898.672	14598
898.792	14568
898.913	14457
899.033	14526
899.153	14381
899.273	14225
899.393	14317
899.513	14400
899.633	14317
899.753	14233
899.873	14298
899.993	14381
900.113	14282
900.232	14377
900.352	14366
900.472	14134
900.591	14145
900.711	14206
900.83	14111
900.95	14385
901.069	14275
901.189	14142
901.308	13826
901.427	13883
901.546	13837
901.665	13909
901.784	13909
901.904	13784
902.023	13582
902.141	13537
902.26	13407
902.379	13586
902.498	13453
902.617	13449
902.735	13411
902.854	13480
902.973	13346
903.091	13194
903.21	13209
903.328	13198
903.446	13084
903.565	13019
903.683	12977
903.801	12966
903.919	12985
904.038	13034
904.156	12779
904.274	12882
904.392	12833
904.51	12738
904.627	12806
904.745	12741
904.863	12886
904.981	12696
905.098	12532
905.216	12528
905.334	12578
905.451	12585
905.569	12521
905.686	12616
905.803	12517
905.921	12369
906.038	12399
906.155	12376
906.272	12201
906.389	12292
906.506	12117
906.623	12121
906.74	12114
906.857	12057
906.974	12060
907.091	12121
907.208	12232
907.324	12175
907.441	12019
907.557	11984
907.674	11889
907.79	11821
907.907	11828
908.023	11843
908.139	11828
908.256	11779
908.372	11885
908.488	11756
908.604	11642
908.72	11688
908.836	11596
908.952	11707
909.068	11646
909.184	11775
909.3	11623
909.415	11707
909.531	11676
909.647	11444
909.762	11345
909.878	11379
909.993	11387
910.108	11391
910.224	11356
910.339	11341
910.454	11227
910.57	11223
910.685	11197
910.8	11455
910.915	11486
911.03	11239
911.145	11121
911.259	11178
911.374	11136
911.489	11041
911.604	10995
911.718	10881
911.833	10854
911.947	10759
912.062	10706
912.176	10881
912.291	10805
912.405	10809
912.519	11025
912.633	11075
912.748	10908
912.862	10866
912.976	10698
913.09	10668
913.204	10702
913.318	10736
913.431	10835
913.545	10809
913.659	10839
913.772	10797
913.886	10664
914	10592
914.113	10725
914.226	10801
914.34	10752
914.453	10584
914.566	10721
914.68	10607
914.793	10561
914.906	10382
915.019	10367
915.132	10318
915.245	10322
915.358	10337
915.47	10344
915.583	10436
915.696	10424
915.809	10577
915.921	10527
916.034	10398
916.146	10318
916.259	10272
916.371	10493
916.483	10417
916.595	10341
916.708	10341
916.82	10348
916.932	10337
917.044	10333
917.156	10344
917.268	10207
917.38	10249
917.491	10158
917.603	10215
917.715	10261
917.826	10352
917.938	10238
918.049	10169
918.161	10219
918.272	10322
918.384	10382
918.495	10287
918.606	10093
918.717	10017
918.828	10128
918.939	10135
919.05	9983
919.161	10116
919.272	9884
919.383	9937
919.494	10200
919.604	10314
919.715	10154
919.826	10013
919.936	10105
920.047	10169
920.157	10036
920.267	10299
920.378	10162
920.488	10048
920.598	10314
920.708	10489
920.818	10303
920.928	10363
921.038	10409
921.148	10432
921.258	10078
921.368	10059
921.477	9960
921.587	9892
921.697	9785
921.806	9945
921.916	9876
922.025	9667
922.134	9743
922.244	9622
922.353	9751
922.462	9606
922.571	9488
922.68	9424
922.789	9351
922.898	9504
923.007	9241
923.116	9431
923.224	9405
923.333	9332
923.442	9256
923.55	9264
923.659	9321
923.767	9317
923.876	9279
923.984	9344
924.092	9161
924.201	9260
924.309	9241
924.417	9241
924.525	9188
924.633	9222
924.741	9979
924.849	9017
924.956	9199
925.064	9085
925.172	8971
925.279	8956
925.387	8994
925.494	9116
925.602	9176
925.709	9150
925.816	9043
925.924	9020
926.031	9123
926.138	9055
926.245	9043
926.352	8933
926.459	9051
926.566	9104
926.673	9024
926.779	8925
926.886	8963
926.993	8724
927.099	8769
927.206	8689
927.312	8678
927.419	8849
927.525	8762
927.631	8807
927.737	8686
927.843	8663
927.95	8560
928.056	8617
928.162	8659
928.267	8697
928.373	9195
928.479	8766
928.585	8514
928.69	8625
928.796	8727
928.901	8571
929.007	8473
929.112	8568
929.218	8507
929.323	8503
929.428	8415
929.533	8598
929.638	8393
929.743	8408
929.848	8480
929.953	8438
930.058	8328
930.163	8195
930.267	8206
930.372	8370
930.477	8191
930.581	8427
930.685	8347
930.79	8153
930.894	8233
930.998	8183
931.103	8298
931.207	7997
931.311	7940
931.415	7864
931.519	7723
931.623	7719
