Data from test_V78500241_898.txt Node
Date: Fri Mar 25 14:39:58 CST 2022
User: usil
Spectrometer: V785-0024
Trigger mode: 0
Integration Time (sec): 4.000000E-1
Scans to average: 1
Nonlinearity correction enabled: false
Boxcar width: 0
Storing dark spectrum: false
XAxis mode: Wavelengths
Number of Pixels in Spectrum: 1024
>>>>>Begin Spectral Data<<<<<
801.071	25198
801.214	24985
801.356	24749
801.499	24677
801.641	24616
801.783	24391
801.926	24574
802.068	24369
802.211	24213
802.353	24304
802.496	24022
802.638	23912
802.78	23999
802.923	23813
803.065	23889
803.208	23874
803.35	23786
803.492	23958
803.635	23988
803.777	23836
803.919	23828
804.061	24224
804.204	23946
804.346	23764
804.488	23767
804.63	23897
804.773	23691
804.915	23783
805.057	23885
805.199	23771
805.341	23863
805.483	23969
805.626	23866
805.768	23855
805.91	23885
806.052	24095
806.194	24041
806.336	24315
806.478	24281
806.62	24174
806.762	24346
806.904	24426
807.046	24814
807.188	24886
807.33	24859
807.472	24939
807.614	25206
807.756	25438
807.898	25396
808.04	25742
808.182	26298
808.324	26857
808.465	27667
808.607	28531
808.749	29109
808.891	29680
809.033	29878
809.174	29151
809.316	28280
809.458	27812
809.6	26876
809.741	26419
809.883	25894
810.025	25731
810.166	25495
810.308	25304
810.45	25137
810.591	24954
810.733	24642
810.875	24608
811.016	24391
811.158	24346
811.299	24525
811.441	24327
811.582	24429
811.724	24323
811.865	24194
812.007	24289
812.148	24125
812.29	24114
812.431	24410
812.573	24612
812.714	24578
812.855	24627
812.997	24696
813.138	24844
813.279	24760
813.421	24661
813.562	24574
813.703	24498
813.845	24254
813.986	24068
814.127	23882
814.268	23649
814.41	23729
814.551	23680
814.692	23497
814.833	23547
814.974	23444
815.115	23512
815.256	23429
815.397	23429
815.539	23391
815.68	23239
815.821	23231
815.962	23315
816.103	23265
816.244	23147
816.385	23105
816.526	22987
816.666	22816
816.807	22713
816.948	22786
817.089	22942
817.23	22812
817.371	22656
817.512	22691
817.653	22634
817.793	22588
817.934	22653
818.075	22687
818.216	22645
818.356	22618
818.497	22405
818.638	22265
818.778	22352
818.919	22314
819.06	22402
819.2	22531
819.341	22481
819.481	22470
819.622	22679
819.762	22877
819.903	22809
820.043	22710
820.184	22565
820.324	22588
820.465	22603
820.605	22634
820.746	22603
820.886	22523
821.026	22580
821.167	22554
821.307	22512
821.447	22599
821.588	22303
821.728	22261
821.868	22086
822.008	21857
822.149	21835
822.289	21888
822.429	21564
822.569	21534
822.709	21633
822.849	21545
822.99	21393
823.13	21332
823.27	21344
823.41	21169
823.55	21123
823.69	21127
823.83	21214
823.97	21096
824.11	21032
824.25	20895
824.389	20925
824.529	21074
824.669	20982
824.809	21093
824.949	20948
825.089	21024
825.228	20891
825.368	20853
825.508	20689
825.648	20693
825.787	20777
825.927	20872
826.067	20758
826.206	20708
826.346	20792
826.485	20667
826.625	20651
826.765	20758
826.904	20689
827.044	20457
827.183	20450
827.323	20305
827.462	20427
827.601	20450
827.741	20244
827.88	20457
828.02	20199
828.159	20351
828.298	20396
828.437	20450
828.577	20294
828.716	20480
828.855	20309
828.994	20077
829.134	20039
829.273	20233
829.412	20008
829.551	20046
829.69	20115
829.829	20035
829.968	20218
830.107	20111
830.246	20119
830.385	20027
830.524	20035
830.663	19932
830.802	19811
830.941	19666
831.08	19677
831.219	19662
831.357	19712
831.496	20031
831.635	19613
831.774	19540
831.913	19487
832.051	19518
832.19	19320
832.329	19514
832.467	19453
832.606	19445
832.744	19369
832.883	19343
833.022	19331
833.16	19457
833.299	19373
833.437	19586
833.576	19609
833.714	19571
833.852	19681
833.991	19712
834.129	19639
834.267	19704
834.406	19628
834.544	19594
834.682	19556
834.821	19567
834.959	19620
835.097	19392
835.235	19582
835.373	19411
835.511	19403
835.65	19282
835.788	19255
835.926	19148
836.064	19019
836.202	19023
836.34	19266
836.478	19255
836.615	19274
836.753	19168
836.891	19369
837.029	19240
837.167	19107
837.305	19198
837.443	19122
837.58	19027
837.718	19099
837.856	19107
837.993	19065
838.131	18970
838.269	18958
838.406	18806
838.544	18890
838.681	18776
838.819	18722
838.956	18559
839.094	18452
839.231	18532
839.369	18650
839.506	18772
839.643	18795
839.781	18521
839.918	18521
840.055	18620
840.193	18570
840.33	18525
840.467	18471
840.604	18483
840.742	18791
840.879	18319
841.016	18369
841.153	18353
841.29	18582
841.427	18509
841.564	18464
841.701	18422
841.838	18285
841.975	18289
842.112	18445
842.249	18220
842.385	18254
842.522	18369
842.659	18330
842.796	18262
842.933	18292
843.069	18205
843.206	18152
843.343	18372
843.479	18186
843.616	18247
843.752	18030
843.889	18076
844.025	18228
844.162	18133
844.298	18239
844.435	18186
844.571	18098
844.708	18304
844.844	18471
844.98	18547
845.117	18650
845.253	18757
845.389	18962
845.525	19875
845.661	20975
845.798	22512
845.934	23718
846.07	24369
846.206	23942
846.342	23117
846.478	21576
846.614	20054
846.75	19072
846.886	18498
847.022	18300
847.158	18030
847.294	17866
847.429	17775
847.565	17596
847.701	17908
847.837	17520
847.972	17372
848.108	17356
848.244	17455
848.379	17341
848.515	17159
848.65	17121
848.786	17124
848.921	17151
849.057	17166
849.192	17174
849.328	17220
849.463	17048
849.598	17037
849.734	17022
849.869	16984
850.004	17010
850.14	16820
850.275	16930
850.41	16790
850.545	16733
850.68	16847
850.815	16877
850.95	16778
851.085	16881
851.22	16991
851.355	16740
851.49	16934
851.625	16820
851.76	16793
851.895	16725
852.03	16744
852.165	16847
852.299	16873
852.434	16965
852.569	16892
852.703	16782
852.838	16896
852.973	16995
853.107	16976
853.242	16911
853.376	16672
853.511	16599
853.645	16694
853.78	16889
853.914	16721
854.048	16656
854.183	16679
854.317	16706
854.451	16915
854.585	16843
854.72	16797
854.854	16809
854.988	16702
855.122	16740
855.256	16603
855.39	16687
855.524	16850
855.658	16843
855.792	16706
855.926	16721
856.06	16710
856.194	16717
856.327	16683
856.461	16584
856.595	16679
856.729	16615
856.862	16854
856.996	16774
857.13	16626
857.263	16862
857.397	16805
857.53	16721
857.664	16774
857.797	16824
857.931	16763
858.064	16725
858.197	16717
858.331	16634
858.464	16660
858.597	16550
858.731	16615
858.864	16637
858.997	16538
859.13	16550
859.263	16675
859.396	16691
859.529	16683
859.662	16675
859.795	16554
859.928	16630
860.061	16717
860.194	16698
860.327	16744
860.46	16637
860.592	16790
860.725	16771
860.858	16710
860.99	16618
861.123	16519
861.256	16504
861.388	16668
861.521	17299
861.653	16596
861.786	16485
861.918	16550
862.05	16554
862.183	16485
862.315	16683
862.447	16721
862.58	16516
862.712	16409
862.844	16428
862.976	16493
863.108	16466
863.24	16881
863.372	16276
863.504	16390
863.636	16375
863.768	16436
863.9	16367
864.032	16306
864.164	16291
864.296	16402
864.428	16360
864.559	16398
864.691	16394
864.823	16333
864.954	16394
865.086	16390
865.217	16291
865.349	16276
865.48	16375
865.612	16367
865.743	16474
865.875	16398
866.006	16329
866.137	16318
866.269	16318
866.4	16375
866.531	16230
866.662	16215
866.793	16272
866.924	16356
867.055	16276
867.186	16249
867.317	16268
867.448	16265
867.579	16223
867.71	16249
867.841	16242
867.972	16314
868.103	16295
868.233	16295
868.364	16192
868.495	16303
868.625	16569
868.756	16660
868.886	16386
869.017	16599
869.147	16641
869.278	16656
869.408	16645
869.539	16550
869.669	16603
869.799	16634
869.929	16618
870.06	16672
870.19	16930
870.32	16782
870.45	16896
870.58	17075
870.71	17071
870.84	17132
870.97	16938
871.1	16934
871.23	17147
871.36	17075
871.489	17060
871.619	17052
871.749	17056
871.879	17265
872.008	17299
872.138	17128
872.267	17128
872.397	16953
872.526	17052
872.656	16972
872.785	16942
872.915	17143
873.044	17235
873.173	17254
873.303	17200
873.432	17269
873.561	17315
873.69	17204
873.819	17170
873.948	17284
874.077	17288
874.206	17193
874.335	17372
874.464	17296
874.593	17490
874.722	17562
874.851	17672
874.979	17657
875.108	17653
875.237	17493
875.365	17482
875.494	17425
875.623	17630
875.751	17596
875.88	17589
876.008	17764
876.136	17874
876.265	17996
876.393	18194
876.521	18216
876.65	18083
876.778	18163
876.906	18117
877.034	18034
877.162	18049
877.29	18045
877.418	18213
877.546	18182
877.674	18273
877.802	18239
877.93	18300
878.058	18205
878.185	18194
878.313	18372
878.441	18502
878.568	18369
878.696	18563
878.824	18897
878.951	19164
879.079	19624
879.206	20252
879.333	20541
879.461	20910
879.588	21184
879.715	21218
879.842	21157
879.97	20499
880.097	19807
880.224	19373
880.351	19282
880.478	18970
880.605	18745
880.732	18753
880.859	18977
880.986	18681
881.112	18722
881.239	18555
881.366	18380
881.493	18304
881.619	18300
881.746	18224
881.872	18273
881.999	18342
882.125	18346
882.252	18273
882.378	18456
882.505	18311
882.631	18258
882.757	18091
882.883	18235
883.01	18133
883.136	18049
883.262	18034
883.388	18072
883.514	18114
883.64	18155
883.766	18064
883.892	17935
884.018	17912
884.143	18110
884.269	18311
884.395	17878
884.52	17767
884.646	17863
884.772	17672
884.897	17672
885.023	17695
885.148	17847
885.274	17996
885.399	17802
885.524	17790
885.65	17764
885.775	17566
885.9	17604
886.025	17741
886.15	17608
886.275	17619
886.4	17387
886.525	17512
886.65	17528
886.775	17398
886.9	17471
887.025	17676
887.149	17360
887.274	17162
887.399	17121
887.523	17200
887.648	17117
887.773	17071
887.897	17185
888.021	17121
888.146	16976
888.27	17296
888.395	17216
888.519	17025
888.643	17075
888.767	17159
888.891	17064
889.015	16892
889.139	16839
889.263	16615
889.387	16881
889.511	17075
889.635	16934
889.759	16805
889.883	16687
890.006	16763
890.13	16923
890.254	16698
890.377	16622
890.501	16546
890.624	16531
890.748	16607
890.871	16493
890.995	16379
891.118	16394
891.241	16398
891.364	16356
891.488	16344
891.611	16417
891.734	16341
891.857	16436
891.98	16447
892.103	16462
892.226	16360
892.349	16265
892.471	16173
892.594	16268
892.717	16314
892.839	16207
892.962	16223
893.085	16261
893.207	16299
893.33	16090
893.452	16147
893.575	16299
893.697	16188
893.819	16348
893.941	16402
894.064	16371
894.186	16158
894.308	16131
894.43	16249
894.552	16367
894.674	16360
894.796	16196
894.918	16249
895.04	16143
895.161	16265
895.283	16261
895.405	16223
895.526	16314
895.648	16185
895.769	16226
895.891	16287
896.012	16329
896.134	16363
896.255	16246
896.376	16261
896.498	16295
896.619	16306
896.74	16291
896.861	16398
896.982	16679
897.103	16759
897.224	16512
897.345	16436
897.466	16500
897.587	16497
897.708	16717
897.828	16596
897.949	16443
898.07	16386
898.19	16554
898.311	16672
898.431	16558
898.552	16584
898.672	16710
898.792	16721
898.913	16554
899.033	16413
899.153	16333
899.273	16379
899.393	16375
899.513	16462
899.633	16455
899.753	16470
899.873	16398
899.993	16459
900.113	16436
900.232	16451
900.352	16363
900.472	16424
900.591	16204
900.711	16371
900.83	16280
900.95	16306
901.069	16390
901.189	16219
901.308	15941
901.427	15911
901.546	15876
901.665	15876
901.784	15941
901.904	15793
902.023	15739
902.141	15473
902.26	15462
902.379	15534
902.498	15348
902.617	15412
902.735	15408
902.854	15397
902.973	15401
903.091	15070
903.21	15112
903.328	15123
903.446	14918
903.565	14960
903.683	14948
903.801	14880
903.919	14960
904.038	14834
904.156	14712
904.274	14727
904.392	14632
904.51	14670
904.627	14640
904.745	14701
904.863	14746
904.981	14495
905.098	14465
905.216	14427
905.334	14343
905.451	14412
905.569	14275
905.686	14339
905.803	14343
905.921	14187
906.038	14275
906.155	14153
906.272	14115
906.389	14020
906.506	13925
906.623	13883
906.74	13849
906.857	13799
906.974	13761
907.091	14062
907.208	14031
907.324	13959
907.441	13769
907.557	13628
907.674	13696
907.79	13563
907.907	13658
908.023	13670
908.139	13559
908.256	13613
908.372	13464
908.488	13533
908.604	13434
908.72	13304
908.836	13381
908.952	13304
909.068	13339
909.184	13464
909.3	13384
909.415	13388
909.531	13308
909.647	13122
909.762	13129
909.878	13004
909.993	13038
910.108	13095
910.224	13046
910.339	13061
910.454	12996
910.57	12958
910.685	12817
910.8	13149
910.915	13099
911.03	12867
911.145	12707
911.259	12711
911.374	12688
911.489	12726
911.604	12559
911.718	12437
911.833	12506
911.947	12266
912.062	12270
912.176	12521
912.291	12544
912.405	12471
912.519	12639
912.633	12650
912.748	12589
912.862	12452
912.976	12273
913.09	12209
913.204	12232
913.318	12361
913.431	12410
913.545	12391
913.659	12467
913.772	12350
913.886	12186
914	12144
914.113	12224
914.226	12300
914.34	12213
914.453	12087
914.566	12216
914.68	12186
914.793	12163
914.906	11942
915.019	11828
915.132	11779
915.245	11863
915.358	11821
915.47	12003
915.583	11973
915.696	11950
915.809	12049
915.921	12019
916.034	11866
916.146	11805
916.259	11824
916.371	11923
916.483	11912
916.595	11878
916.708	11790
916.82	11790
916.932	11813
917.044	11851
917.156	11775
917.268	11668
917.38	11828
917.491	11684
917.603	11695
917.715	11805
917.826	11783
917.938	11657
918.049	11501
918.161	11729
918.272	11847
918.384	11805
918.495	11676
918.606	11558
918.717	11429
918.828	11497
918.939	11535
919.05	11410
919.161	11482
919.272	11277
919.383	11406
919.494	11589
919.604	11718
919.715	11589
919.826	11482
919.936	11459
920.047	11619
920.157	11589
920.267	11729
920.378	11486
920.488	11524
920.598	11688
920.708	11745
920.818	11691
920.928	11611
921.038	11775
921.148	11741
921.258	11436
921.368	11433
921.477	11330
921.587	11261
921.697	11231
921.806	11296
921.916	11109
922.025	11029
922.134	11022
922.244	10961
922.353	10984
922.462	10854
922.571	10850
922.68	10611
922.789	10645
922.898	10668
923.007	10615
923.116	10668
923.224	10691
923.333	10637
923.442	10561
923.55	10538
923.659	10523
923.767	10691
923.876	10538
923.984	10611
924.092	10500
924.201	10531
924.309	10516
924.417	10531
924.525	10413
924.633	10432
924.741	11254
924.849	10223
924.956	10466
925.064	10295
925.172	10215
925.279	10234
925.387	10246
925.494	10181
925.602	10451
925.709	10325
925.816	10276
925.924	10318
926.031	10402
926.138	10276
926.245	10303
926.352	10185
926.459	10280
926.566	10299
926.673	10200
926.779	10166
926.886	10143
926.993	9956
927.099	9964
927.206	9934
927.312	9907
927.419	9968
927.525	10048
927.631	9991
927.737	9854
927.843	9804
927.95	9819
928.056	9838
928.162	9804
928.267	9911
928.373	10421
928.479	10040
928.585	9728
928.69	9808
928.796	9842
928.901	9686
929.007	9572
929.112	9732
929.218	9705
929.323	9629
929.428	9576
929.533	9812
929.638	9629
929.743	9675
929.848	9580
929.953	9606
930.058	9580
930.163	9386
930.267	9496
930.372	9538
930.477	9401
930.581	9606
930.685	9431
930.79	9367
930.894	9336
930.998	9291
931.103	9462
931.207	9150
931.311	9074
931.415	8906
931.519	8750
931.623	8773
