Data from test_V78500241_2320.txt Node
Date: Fri Mar 25 14:49:51 CST 2022
User: usil
Spectrometer: V785-0024
Trigger mode: 0
Integration Time (sec): 4.000000E-1
Scans to average: 1
Nonlinearity correction enabled: false
Boxcar width: 0
Storing dark spectrum: false
XAxis mode: Wavelengths
Number of Pixels in Spectrum: 1024
>>>>>Begin Spectral Data<<<<<
801.071	22238
801.214	22074
801.356	21823
801.499	21736
801.641	21736
801.783	21629
801.926	21591
802.068	21526
802.211	21450
802.353	21408
802.496	21123
802.638	21062
802.78	21020
802.923	21062
803.065	20716
803.208	20982
803.35	20975
803.492	20941
803.635	20929
803.777	20887
803.919	20921
804.061	21241
804.204	21043
804.346	20872
804.488	20697
804.63	20807
804.773	20765
804.915	20796
805.057	20861
805.199	20807
805.341	20895
805.483	20838
805.626	20880
805.768	20743
805.91	20864
806.052	20910
806.194	20754
806.336	20849
806.478	20781
806.62	20758
806.762	20864
806.904	21100
807.046	21188
807.188	21195
807.33	21199
807.472	21325
807.614	21009
807.756	21032
807.898	20800
808.04	20963
808.182	20941
808.324	20899
808.465	20929
808.607	21135
808.749	21154
808.891	21313
809.033	21367
809.174	21268
809.316	21226
809.458	21192
809.6	21138
809.741	21108
809.883	21313
810.025	21370
810.166	21393
810.308	21332
810.45	21294
810.591	21279
810.733	21093
810.875	21005
811.016	20883
811.158	20823
811.299	21028
811.441	21100
811.582	21100
811.724	20960
811.865	20952
812.007	20906
812.148	20804
812.29	21081
812.431	21195
812.573	21249
812.714	21313
812.855	21519
812.997	21526
813.138	21751
813.279	21515
813.421	21450
813.562	21424
813.703	21279
813.845	21207
813.986	20883
814.127	20667
814.268	20495
814.41	20655
814.551	20549
814.692	20560
814.833	20579
814.974	20431
815.115	20499
815.256	20427
815.397	20473
815.539	20366
815.68	20225
815.821	20111
815.962	20309
816.103	20240
816.244	20145
816.385	19970
816.526	20027
816.666	19822
816.807	19704
816.948	19624
817.089	19685
817.23	19723
817.371	19620
817.512	19597
817.653	19544
817.793	19662
817.934	19594
818.075	19674
818.216	19647
818.356	19662
818.497	19480
818.638	19312
818.778	19445
818.919	19270
819.06	19335
819.2	19449
819.341	19476
819.481	19453
819.622	19658
819.762	19814
819.903	19734
820.043	19658
820.184	19548
820.324	19483
820.465	19582
820.605	19655
820.746	19510
820.886	19438
821.026	19616
821.167	19483
821.307	19567
821.447	19506
821.588	19491
821.728	19335
821.868	19206
822.008	19061
822.149	18913
822.289	18947
822.429	18760
822.569	18741
822.709	18749
822.849	18502
822.99	18601
823.13	18407
823.27	18532
823.41	18304
823.55	18296
823.69	18353
823.83	18350
823.97	18266
824.11	18015
824.25	17973
824.389	18049
824.529	18136
824.669	18091
824.809	18239
824.949	18167
825.089	18155
825.228	18098
825.368	17794
825.508	17828
825.648	17737
825.787	17855
825.927	18011
826.067	17836
826.206	17836
826.346	17840
826.485	17874
826.625	17737
826.765	17992
826.904	17874
827.044	17672
827.183	17623
827.323	17532
827.462	17619
827.601	17532
827.741	17573
827.88	17611
828.02	17501
828.159	17505
828.298	17642
828.437	17615
828.577	17429
828.716	17665
828.855	17490
828.994	17299
829.134	17349
829.273	17379
829.412	17261
829.551	17307
829.69	17258
829.829	17353
829.968	17223
830.107	17334
830.246	17277
830.385	17235
830.524	17159
830.663	17178
830.802	17067
830.941	16889
831.08	16816
831.219	16873
831.357	17022
831.496	17231
831.635	16858
831.774	16786
831.913	16755
832.051	16717
832.19	16656
832.329	16748
832.467	16558
832.606	16478
832.744	16634
832.883	16550
833.022	16531
833.16	16615
833.299	16698
833.437	16607
833.576	16630
833.714	16611
833.852	16645
833.991	16618
834.129	16713
834.267	16672
834.406	16630
834.544	16645
834.682	16626
834.821	16535
834.959	16812
835.097	16596
835.235	16679
835.373	16683
835.511	16611
835.65	16580
835.788	16497
835.926	16314
836.064	16318
836.202	16451
836.34	16603
836.478	16622
836.615	16405
836.753	16611
836.891	16698
837.029	16512
837.167	16428
837.305	16394
837.443	16333
837.58	16295
837.718	16474
837.856	16356
837.993	16363
838.131	16360
838.269	16207
838.406	16367
838.544	16219
838.681	16116
838.819	15964
838.956	16006
839.094	15926
839.231	15956
839.369	16112
839.506	16238
839.643	16063
839.781	15880
839.918	15876
840.055	15949
840.193	15960
840.33	15873
840.467	15888
840.604	15926
840.742	16147
840.879	15846
841.016	15854
841.153	15770
841.29	16051
841.427	15949
841.564	15987
841.701	15953
841.838	15861
841.975	15827
842.112	15892
842.249	15713
842.385	15656
842.522	15888
842.659	15660
842.796	15652
842.933	15709
843.069	15652
843.206	15728
843.343	15762
843.479	15770
843.616	15633
843.752	15492
843.889	15488
844.025	15553
844.162	15386
844.298	15606
844.435	15469
844.571	15351
844.708	15515
844.844	15564
844.98	15572
845.117	15625
845.253	15416
845.389	15359
845.525	15359
845.661	15397
845.798	15275
845.934	15344
846.07	15340
846.206	15241
846.342	15355
846.478	15321
846.614	15169
846.75	15036
846.886	15017
847.022	15127
847.158	15009
847.294	15097
847.429	15135
847.565	14975
847.701	15260
847.837	14773
847.972	14788
848.108	14933
848.244	14853
848.379	14682
848.515	14701
848.65	14621
848.786	14644
848.921	14621
849.057	14758
849.192	14792
849.328	14651
849.463	14750
849.598	14602
849.734	14549
849.869	14507
850.004	14450
850.14	14389
850.275	14385
850.41	14294
850.545	14355
850.68	14434
850.815	14469
850.95	14396
851.085	14526
851.22	14499
851.355	14423
851.49	14366
851.625	14465
851.76	14423
851.895	14298
852.03	14336
852.165	14450
852.299	14374
852.434	14495
852.569	14381
852.703	14389
852.838	14503
852.973	14575
853.107	14564
853.242	14396
853.376	14252
853.511	14172
853.645	14225
853.78	14400
853.914	14355
854.048	14210
854.183	14244
854.317	14328
854.451	14347
854.585	14199
854.72	14218
854.854	14381
854.988	14256
855.122	14244
855.256	14176
855.39	14271
855.524	14408
855.658	14259
855.792	14233
855.926	14317
856.06	14351
856.194	14385
856.327	14336
856.461	14233
856.595	14267
856.729	14214
856.862	14396
856.996	14328
857.13	14347
857.263	14385
857.397	14370
857.53	14164
857.664	14351
857.797	14282
857.931	14396
858.064	14339
858.197	14396
858.331	14290
858.464	14263
858.597	14187
858.731	14229
858.864	14210
858.997	14252
859.13	14172
859.263	14347
859.396	14347
859.529	14278
859.662	14153
859.795	14229
859.928	14278
860.061	14396
860.194	14438
860.327	14305
860.46	14256
860.592	14476
860.725	14423
860.858	14423
860.99	14305
861.123	14195
861.256	14252
861.388	14180
861.521	14880
861.653	14172
861.786	14134
861.918	14126
862.05	14183
862.183	14225
862.315	14355
862.447	14301
862.58	14244
862.712	14172
862.844	14001
862.976	14210
863.108	14134
863.24	14396
863.372	14039
863.504	14088
863.636	14119
863.768	14088
863.9	14081
864.032	14043
864.164	13993
864.296	14062
864.428	14191
864.559	14100
864.691	14031
864.823	14100
864.954	14081
865.086	14054
865.217	13997
865.349	14008
865.48	14107
865.612	14073
865.743	14202
865.875	14016
866.006	13967
866.137	14027
866.269	14020
866.4	13940
866.531	14008
866.662	13970
866.793	14077
866.924	14039
867.055	14126
867.186	14016
867.317	13967
867.448	13963
867.579	13974
867.71	14016
867.841	13875
867.972	13997
868.103	14142
868.233	14035
868.364	14096
868.495	14012
868.625	14381
868.756	14324
868.886	14252
869.017	14305
869.147	14400
869.278	14461
869.408	14400
869.539	14343
869.669	14396
869.799	14358
869.929	14343
870.06	14374
870.19	14632
870.32	14613
870.45	14648
870.58	14815
870.71	14785
870.84	14830
870.97	14659
871.1	14678
871.23	14811
871.36	14800
871.489	14781
871.619	14807
871.749	14830
871.879	14906
872.008	15066
872.138	14823
872.267	14925
872.397	14708
872.526	14796
872.656	14689
872.785	14743
872.915	14906
873.044	14967
873.173	14826
873.303	14952
873.432	15043
873.561	15070
873.69	14948
873.819	14948
873.948	14998
874.077	15009
874.206	14963
874.335	14967
874.464	15112
874.593	15302
874.722	15138
874.851	15245
874.979	15249
875.108	15420
875.237	15245
875.365	15154
875.494	15256
875.623	15310
875.751	15226
875.88	15264
876.008	15355
876.136	15458
876.265	15637
876.393	15789
876.521	15778
876.65	15759
876.778	15622
876.906	15705
877.034	15591
877.162	15637
877.29	15690
877.418	15622
877.546	15690
877.674	15720
877.802	15667
877.93	15610
878.058	15671
878.185	15545
878.313	15584
878.441	15686
878.568	15488
878.696	15629
878.824	15572
878.951	15667
879.079	15846
879.206	15991
879.333	15781
879.461	15648
879.588	15774
879.715	15903
879.842	16029
879.97	15739
880.097	15538
880.224	15420
880.351	15530
880.478	15507
880.605	15538
880.732	15595
880.859	15789
880.986	15568
881.112	15485
881.239	15428
881.366	15389
881.493	15211
881.619	15150
881.746	15032
881.872	15272
881.999	15188
882.125	15173
882.252	15222
882.378	15252
882.505	15405
882.631	15131
882.757	15074
882.883	14948
883.01	15074
883.136	14868
883.262	14838
883.388	14899
883.514	15055
883.64	15138
883.766	14921
883.892	14826
884.018	14838
884.143	14895
884.269	15074
884.395	14727
884.52	14636
884.646	14606
884.772	14682
884.897	14606
885.023	14743
885.148	14731
885.274	14921
885.399	14746
885.524	14716
885.65	14659
885.775	14769
885.9	14727
886.025	14819
886.15	14758
886.275	14727
886.4	14606
886.525	14701
886.65	14632
886.775	14579
886.9	14762
887.025	14887
887.149	14716
887.274	14533
887.399	14511
887.523	14434
887.648	14473
887.773	14404
887.897	14533
888.021	14549
888.146	14450
888.27	14606
888.395	14625
888.519	14530
888.643	14560
888.767	14644
888.891	14492
889.015	14332
889.139	14400
889.263	14385
889.387	14541
889.511	14648
889.635	14530
889.759	14385
889.883	14290
890.006	14324
890.13	14541
890.254	14313
890.377	14415
890.501	14149
890.624	14164
890.748	14237
890.871	14134
890.995	13974
891.118	14107
891.241	14005
891.364	14058
891.488	14237
891.611	14062
891.734	14077
891.857	14168
891.98	14039
892.103	14218
892.226	14126
892.349	14035
892.471	13970
892.594	14035
892.717	14092
892.839	14103
892.962	14107
893.085	14180
893.207	14100
893.33	13951
893.452	13997
893.575	14142
893.697	14035
893.819	14294
893.941	14290
894.064	14202
894.186	14088
894.308	14081
894.43	14199
894.552	14263
894.674	14206
894.796	14149
894.918	14153
895.04	14149
895.161	14298
895.283	14153
895.405	14240
895.526	14043
895.648	14126
895.769	14233
895.891	14362
896.012	14343
896.134	14237
896.255	14324
896.376	14275
896.498	14252
896.619	14301
896.74	14233
896.861	14358
896.982	14613
897.103	14811
897.224	14533
897.345	14450
897.466	14522
897.587	14503
897.708	14648
897.828	14568
897.949	14518
898.07	14358
898.19	14431
898.311	14625
898.431	14583
898.552	14617
898.672	14724
898.792	14689
898.913	14697
899.033	14587
899.153	14495
899.273	14434
899.393	14377
899.513	14473
899.633	14465
899.753	14511
899.873	14423
899.993	14552
900.113	14461
900.232	14484
900.352	14473
900.472	14476
900.591	14393
900.711	14347
900.83	14233
900.95	14355
901.069	14438
901.189	14305
901.308	14103
901.427	13955
901.546	14043
901.665	14096
901.784	14012
901.904	13925
902.023	13894
902.141	13533
902.26	13620
902.379	13601
902.498	13632
902.617	13586
902.735	13613
902.854	13677
902.973	13506
903.091	13320
903.21	13324
903.328	13388
903.446	13266
903.565	13221
903.683	13145
903.801	13129
903.919	13133
904.038	13103
904.156	13057
904.274	13046
904.392	13012
904.51	12947
904.627	12951
904.745	12962
904.863	12970
904.981	12814
905.098	12631
905.216	12627
905.334	12677
905.451	12593
905.569	12734
905.686	12601
905.803	12688
905.921	12479
906.038	12585
906.155	12502
906.272	12327
906.389	12525
906.506	12194
906.623	12315
906.74	12258
906.857	12163
906.974	12136
907.091	12292
907.208	12338
907.324	12247
907.441	12102
907.557	11973
907.674	11984
907.79	11984
907.907	11954
908.023	12019
908.139	11954
908.256	12019
908.372	11893
908.488	11855
908.604	11726
908.72	11737
908.836	11691
908.952	11764
909.068	11813
909.184	11874
909.3	11764
909.415	11790
909.531	11718
909.647	11535
909.762	11467
909.878	11535
909.993	11551
910.108	11535
910.224	11512
910.339	11520
910.454	11440
910.57	11444
910.685	11280
910.8	11547
910.915	11547
911.03	11391
911.145	11189
911.259	11178
911.374	11227
911.489	11181
911.604	11155
911.718	11003
911.833	11052
911.947	10885
912.062	10869
912.176	11003
912.291	11025
912.405	10930
912.519	11284
912.633	11193
912.748	11025
912.862	11056
912.976	10858
913.09	10778
913.204	10786
913.318	10835
913.431	11006
913.545	10915
913.659	11056
913.772	10828
913.886	10774
914	10793
914.113	10896
914.226	10850
914.34	10801
914.453	10565
914.566	10938
914.68	10725
914.793	10672
914.906	10527
915.019	10402
915.132	10409
915.245	10451
915.358	10611
915.47	10527
915.583	10489
915.696	10508
915.809	10592
915.921	10580
916.034	10478
916.146	10424
916.259	10436
916.371	10550
916.483	10421
916.595	10371
916.708	10443
916.82	10417
916.932	10436
917.044	10405
917.156	10295
917.268	10295
917.38	10341
917.491	10356
917.603	10318
917.715	10363
917.826	10394
917.938	10261
918.049	10291
918.161	10386
918.272	10459
918.384	10500
918.495	10363
918.606	10215
918.717	10112
918.828	10181
918.939	10211
919.05	10120
919.161	10280
919.272	9907
919.383	10029
919.494	10230
919.604	10451
919.715	10268
919.826	10124
919.936	10219
920.047	10360
920.157	10261
920.267	10390
920.378	10291
920.488	10200
920.598	10386
920.708	10478
920.818	10382
920.928	10413
921.038	10649
921.148	10546
921.258	10268
921.368	10139
921.477	10097
921.587	10017
921.697	9926
921.806	10063
921.916	9975
922.025	9812
922.134	9774
922.244	9682
922.353	9766
922.462	9663
922.571	9679
922.68	9481
922.789	9431
922.898	9431
923.007	9526
923.116	9557
923.224	9466
923.333	9412
923.442	9374
923.55	9355
923.659	9321
923.767	9447
923.876	9321
923.984	9428
924.092	9230
924.201	9370
924.309	9332
924.417	9310
924.525	9329
924.633	9325
924.741	10185
924.849	9104
924.956	9317
925.064	9157
925.172	9005
925.279	9017
925.387	9112
925.494	9123
925.602	9237
925.709	9241
925.816	9028
925.924	9081
926.031	9230
926.138	9119
926.245	9165
926.352	9070
926.459	9180
926.566	9192
926.673	9066
926.779	8952
926.886	9001
926.993	8845
927.099	8849
927.206	8811
927.312	8766
927.419	8887
927.525	8834
927.631	8857
927.737	8769
927.843	8648
927.95	8606
928.056	8640
928.162	8746
928.267	8830
928.373	9420
928.479	8842
928.585	8644
928.69	8701
928.796	8807
928.901	8613
929.007	8476
929.112	8678
929.218	8590
929.323	8537
929.428	8552
929.533	8667
929.638	8530
929.743	8552
929.848	8606
929.953	8545
930.058	8514
930.163	8298
930.267	8366
930.372	8450
930.477	8336
930.581	8503
930.685	8332
930.79	8256
930.894	8290
930.998	8294
931.103	8381
931.207	8016
931.311	7993
931.415	7879
931.519	7818
931.623	7753
