Data from test_V78500241_595.txt Node
Date: Fri Mar 25 14:37:51 CST 2022
User: usil
Spectrometer: V785-0024
Trigger mode: 0
Integration Time (sec): 4.000000E-1
Scans to average: 1
Nonlinearity correction enabled: false
Boxcar width: 0
Storing dark spectrum: false
XAxis mode: Wavelengths
Number of Pixels in Spectrum: 1024
>>>>>Begin Spectral Data<<<<<
801.071	27922
801.214	27679
801.356	27751
801.499	27652
801.641	27348
801.783	27298
801.926	27447
802.068	27203
802.211	26982
802.353	27237
802.496	26948
802.638	26910
802.78	26845
802.923	26872
803.065	26796
803.208	26716
803.35	26872
803.492	26952
803.635	27009
803.777	26773
803.919	27009
804.061	27195
804.204	26948
804.346	26902
804.488	26883
804.63	27017
804.773	26994
804.915	27138
805.057	27245
805.199	27161
805.341	27237
805.483	27306
805.626	27332
805.768	27154
805.91	27447
806.052	27481
806.194	27412
806.336	27846
806.478	27831
806.62	27880
806.762	28120
806.904	28436
807.046	28904
807.188	29155
807.33	29353
807.472	29802
807.614	30125
807.756	30722
807.898	31411
808.04	32488
808.182	33899
808.324	35695
808.465	37514
808.607	39842
808.749	41866
808.891	42802
809.033	43103
809.174	41832
809.316	39869
809.458	37597
809.6	35189
809.741	33557
809.883	32145
810.025	31289
810.166	30391
810.308	30003
810.45	29570
810.591	29216
810.733	28698
810.875	28478
811.016	28242
811.158	28093
811.299	28314
811.441	28181
811.582	27880
811.724	27797
811.865	27736
812.007	27732
812.148	27485
812.29	27614
812.431	27728
812.573	27812
812.714	27762
812.855	27987
812.997	28036
813.138	27922
813.279	27846
813.421	27846
813.562	27641
813.703	27443
813.845	27336
813.986	27055
814.127	26750
814.268	26625
814.41	26883
814.551	26640
814.692	26743
814.833	26488
814.974	26533
815.115	26613
815.256	26396
815.397	26370
815.539	26400
815.68	26355
815.821	26282
815.962	26301
816.103	26225
816.244	26024
816.385	26088
816.526	25917
816.666	25666
816.807	25632
816.948	25597
817.089	25704
817.23	25597
817.371	25495
817.512	25658
817.653	25449
817.793	25483
817.934	25381
818.075	25529
818.216	25472
818.356	25464
818.497	25289
818.638	25126
818.778	25099
818.919	25122
819.06	25308
819.2	25343
819.341	25400
819.481	25381
819.622	25434
819.762	25696
819.903	25772
820.043	25472
820.184	25449
820.324	25529
820.465	25552
820.605	25343
820.746	25369
820.886	25270
821.026	25362
821.167	25289
821.307	25343
821.447	25206
821.588	25076
821.728	24905
821.868	24787
822.008	24760
822.149	24665
822.289	24566
822.429	24380
822.569	24292
822.709	24418
822.849	24117
822.99	24152
823.13	24064
823.27	24068
823.41	23897
823.55	23863
823.69	23984
823.83	23821
823.97	23779
824.11	23627
824.25	23737
824.389	23699
824.529	23558
824.669	23524
824.809	23680
824.949	23551
825.089	23691
825.228	23547
825.368	23459
825.508	23452
825.648	23467
825.787	23581
825.927	23516
826.067	23376
826.206	23383
826.346	23486
826.485	23417
826.625	23425
826.765	23558
826.904	23551
827.044	23048
827.183	23181
827.323	22915
827.462	23189
827.601	23060
827.741	23067
827.88	22915
828.02	22938
828.159	23075
828.298	23102
828.437	23124
828.577	22972
828.716	23113
828.855	22930
828.994	22782
829.134	22771
829.273	22869
829.412	22664
829.551	22546
829.69	22801
829.829	22778
829.968	22778
830.107	22771
830.246	22854
830.385	22535
830.524	22611
830.663	22519
830.802	22512
830.941	22223
831.08	22421
831.219	22481
831.357	22432
831.496	22622
831.635	22379
831.774	22257
831.913	22291
832.051	22188
832.19	22074
832.329	22181
832.467	22131
832.606	22185
832.744	22147
832.883	22067
833.022	22196
833.16	22295
833.299	22322
833.437	22413
833.576	22485
833.714	22691
833.852	22691
833.991	22930
834.129	22786
834.267	22908
834.406	22752
834.544	22729
834.682	22599
834.821	22489
834.959	22653
835.097	22443
835.235	22440
835.373	22284
835.511	22291
835.65	22093
835.788	22036
835.926	21793
836.064	21648
836.202	21732
836.34	21895
836.478	21987
836.615	21770
836.753	21766
836.891	21922
837.029	21911
837.167	21739
837.305	21857
837.443	21682
837.58	21648
837.718	21648
837.856	21660
837.993	21641
838.131	21682
838.269	21538
838.406	21652
838.544	21302
838.681	21241
838.819	21180
838.956	21081
839.094	20994
839.231	21089
839.369	21195
839.506	21435
839.643	21272
839.781	21036
839.918	20960
840.055	20960
840.193	21146
840.33	20960
840.467	21085
840.604	21013
840.742	21214
840.879	20750
841.016	21062
841.153	20857
841.29	21089
841.427	20944
841.564	21032
841.701	20944
841.838	21001
841.975	20834
842.112	20868
842.249	20842
842.385	20667
842.522	20956
842.659	20708
842.796	20621
842.933	20823
843.069	20754
843.206	20796
843.343	20887
843.479	20815
843.616	20792
843.752	20731
843.889	20727
844.025	20853
844.162	20746
844.298	20952
844.435	20979
844.571	21100
844.708	21321
844.844	21709
844.98	21835
845.117	22306
845.253	22869
845.389	23916
845.525	26180
845.661	29977
845.798	34421
845.934	37989
846.07	39416
846.206	38784
846.342	35786
846.478	31122
846.614	27135
846.75	24445
846.886	22965
847.022	22139
847.158	21370
847.294	21039
847.429	20861
847.565	20556
847.701	20625
847.837	20126
847.972	20039
848.108	20012
848.244	20024
848.379	19791
848.515	19753
848.65	19696
848.786	19655
848.921	19788
849.057	19647
849.192	19731
849.328	19567
849.463	19639
849.598	19582
849.734	19594
849.869	19460
850.004	19316
850.14	19320
850.275	19289
850.41	19327
850.545	19339
850.68	19312
850.815	19331
850.95	19187
851.085	19552
851.22	19362
851.355	19400
851.49	19236
851.625	19316
851.76	19293
851.895	19148
852.03	19164
852.165	19354
852.299	19426
852.434	19502
852.569	19335
852.703	19358
852.838	19285
852.973	19510
853.107	19331
853.242	19274
853.376	19407
853.511	19221
853.645	19312
853.78	19457
853.914	19327
854.048	19331
854.183	19331
854.317	19327
854.451	19537
854.585	19365
854.72	19400
854.854	19297
854.988	19339
855.122	19339
855.256	19156
855.39	19217
855.524	19354
855.658	19297
855.792	19190
855.926	19202
856.06	19282
856.194	19270
856.327	19080
856.461	19046
856.595	19095
856.729	19099
856.862	19190
856.996	19168
857.13	19072
857.263	19217
857.397	19228
857.53	19095
857.664	19145
857.797	19209
857.931	19152
858.064	19114
858.197	19129
858.331	19080
858.464	19000
858.597	18844
858.731	18939
858.864	19015
858.997	19168
859.13	19088
859.263	19133
859.396	19099
859.529	18962
859.662	18848
859.795	18977
859.928	19034
860.061	19263
860.194	19160
860.327	18951
860.46	19004
860.592	19114
860.725	19129
860.858	18958
860.99	18882
861.123	18916
861.256	18897
861.388	18939
861.521	19723
861.653	18734
861.786	18745
861.918	18886
862.05	18848
862.183	18939
862.315	18867
862.447	19080
862.58	18928
862.712	18719
862.844	18700
862.976	18837
863.108	18837
863.24	19034
863.372	18479
863.504	18635
863.636	18711
863.768	18681
863.9	18665
864.032	18483
864.164	18616
864.296	18677
864.428	18814
864.559	18681
864.691	18768
864.823	18642
864.954	18665
865.086	18589
865.217	18635
865.349	18563
865.48	18574
865.612	18627
865.743	18681
865.875	18616
866.006	18517
866.137	18513
866.269	18608
866.4	18635
866.531	18536
866.662	18441
866.793	18475
866.924	18532
867.055	18646
867.186	18585
867.317	18471
867.448	18448
867.579	18540
867.71	18467
867.841	18521
867.972	18616
868.103	18585
868.233	18437
868.364	18464
868.495	18673
868.625	18753
868.756	18859
868.886	18753
869.017	18871
869.147	18981
869.278	18859
869.408	18890
869.539	18871
869.669	18821
869.799	18863
869.929	18924
870.06	18939
870.19	19244
870.32	19069
870.45	19103
870.58	19190
870.71	19289
870.84	19312
870.97	19259
871.1	19141
871.23	19441
871.36	19381
871.489	19327
871.619	19407
871.749	19434
871.879	19464
872.008	19586
872.138	19594
872.267	19483
872.397	19358
872.526	19327
872.656	19411
872.785	19426
872.915	19624
873.044	19575
873.173	19567
873.303	19628
873.432	19590
873.561	19734
873.69	19655
873.819	19822
873.948	19715
874.077	19811
874.206	19719
874.335	19822
874.464	19750
874.593	20039
874.722	19986
874.851	20020
874.979	20164
875.108	20233
875.237	20062
875.365	20122
875.494	20157
875.623	20396
875.751	20244
875.88	20259
876.008	20564
876.136	20564
876.265	20781
876.393	20807
876.521	20834
876.65	20914
876.778	20956
876.906	20918
877.034	20849
877.162	20982
877.29	21020
877.418	21249
877.546	21093
877.674	21188
877.802	21363
877.93	21408
878.058	21439
878.185	21656
878.313	21713
878.441	21941
878.568	22112
878.696	22664
878.824	23212
878.951	23939
879.079	24856
879.206	26374
879.333	27644
879.461	28873
879.588	29646
879.715	29790
879.842	29204
879.97	27816
880.097	26248
880.224	25198
880.351	24395
880.478	23760
880.605	23444
880.732	23044
880.859	23216
880.986	22858
881.112	22816
881.239	22599
881.366	22481
881.493	22470
881.619	22455
881.746	22474
881.872	22485
881.999	22470
882.125	22428
882.252	22489
882.378	22615
882.505	22774
882.631	22584
882.757	22485
882.883	22508
883.01	22356
883.136	22268
883.262	22299
883.388	22120
883.514	22242
883.64	22386
883.766	22299
883.892	22101
884.018	22055
884.143	22329
884.269	22405
884.395	22154
884.52	21873
884.646	22101
884.772	22044
884.897	21880
885.023	22063
885.148	22112
885.274	22162
885.399	22032
885.524	21812
885.65	21804
885.775	21660
885.9	21583
886.025	21500
886.15	21386
886.275	21344
886.4	21150
886.525	21165
886.65	21005
886.775	20887
886.9	20967
887.025	21100
887.149	20724
887.274	20473
887.399	20450
887.523	20271
887.648	20233
887.773	20199
887.897	20256
888.021	20313
888.146	20145
888.27	20176
888.395	20221
888.519	20111
888.643	20084
888.767	20027
888.891	19917
889.015	19753
889.139	19791
889.263	19639
889.387	19727
889.511	19879
889.635	19795
889.759	19556
889.883	19556
890.006	19563
890.13	19658
890.254	19548
890.377	19533
890.501	19335
890.624	19156
890.748	19373
890.871	19171
890.995	18962
891.118	18943
891.241	18981
891.364	18905
891.488	19175
891.611	18837
891.734	18920
891.857	18848
891.98	18863
892.103	18947
892.226	18772
892.349	18863
892.471	18627
892.594	18787
892.717	18749
892.839	18658
892.962	18650
893.085	18722
893.207	18566
893.33	18654
893.452	18426
893.575	18642
893.697	18639
893.819	18722
893.941	18661
894.064	18616
894.186	18506
894.308	18429
894.43	18498
894.552	18719
894.674	18582
894.796	18372
894.918	18410
895.04	18414
895.161	18361
895.283	18509
895.405	18262
895.526	18395
895.648	18486
895.769	18407
895.891	18353
896.012	18467
896.134	18376
896.255	18350
896.376	18281
896.498	18350
896.619	18403
896.74	18380
896.861	18403
896.982	18639
897.103	18890
897.224	18654
897.345	18574
897.466	18525
897.587	18563
897.708	18635
897.828	18597
897.949	18467
898.07	18395
898.19	18407
898.311	18593
898.431	18460
898.552	18483
898.672	18563
898.792	18646
898.913	18623
899.033	18422
899.153	18361
899.273	18209
899.393	18410
899.513	18452
899.633	18350
899.753	18289
899.873	18315
899.993	18239
900.113	18228
900.232	18281
900.352	18197
900.472	18136
900.591	18076
900.711	18251
900.83	18079
900.95	18232
901.069	18281
901.189	17996
901.308	17897
901.427	17703
901.546	17646
901.665	17676
901.784	17726
901.904	17547
902.023	17414
902.141	17360
902.26	17140
902.379	17280
902.498	17204
902.617	17239
902.735	17212
902.854	17121
902.973	16934
903.091	16885
903.21	16835
903.328	16763
903.446	16672
903.565	16592
903.683	16622
903.801	16516
903.919	16455
904.038	16561
904.156	16478
904.274	16489
904.392	16333
904.51	16280
904.627	16223
904.745	16409
904.863	16538
904.981	16116
905.098	16071
905.216	16048
905.334	16063
905.451	15991
905.569	15930
905.686	16086
905.803	16055
905.921	15739
906.038	15835
906.155	15819
906.272	15625
906.389	15747
906.506	15564
906.623	15530
906.74	15530
906.857	15504
906.974	15519
907.091	15549
907.208	15595
907.324	15595
907.441	15458
907.557	15272
907.674	15367
907.79	15245
907.907	15150
908.023	15272
908.139	15188
908.256	15123
908.372	15089
908.488	15146
908.604	14994
908.72	14880
908.836	14906
908.952	14956
909.068	14883
909.184	15039
909.3	14891
909.415	14960
909.531	14967
909.647	14693
909.762	14727
909.878	14644
909.993	14705
910.108	14648
910.224	14743
910.339	14621
910.454	14556
910.57	14533
910.685	14465
910.8	14659
910.915	14571
911.03	14526
911.145	14328
911.259	14374
911.374	14275
911.489	14153
911.604	14031
911.718	13928
911.833	13993
911.947	13963
912.062	13856
912.176	14001
912.291	14027
912.405	14046
912.519	14199
912.633	14191
912.748	14081
912.862	13978
912.976	13803
913.09	13776
913.204	13772
913.318	13814
913.431	13993
913.545	13921
913.659	13913
913.772	13826
913.886	13704
914	13742
914.113	13761
914.226	13849
914.34	13727
914.453	13628
914.566	13727
914.68	13655
914.793	13533
914.906	13407
915.019	13289
915.132	13259
915.245	13343
915.358	13422
915.47	13400
915.583	13339
915.696	13430
915.809	13449
915.921	13563
916.034	13301
916.146	13285
916.259	13266
916.371	13400
916.483	13384
916.595	13247
916.708	13285
916.82	13202
916.932	13263
917.044	13266
917.156	13247
917.268	13107
917.38	13149
917.491	13141
917.603	13122
917.715	13118
917.826	13228
917.938	13103
918.049	12993
918.161	13057
918.272	13103
918.384	13198
918.495	13019
918.606	12928
918.717	12760
918.828	12833
918.939	12916
919.05	12802
919.161	12875
919.272	12639
919.383	12673
919.494	12878
919.604	12985
919.715	12825
919.826	12741
919.936	12764
920.047	12916
920.157	12852
920.267	13023
920.378	12844
920.488	12749
920.598	12977
920.708	13145
920.818	12890
920.928	12901
921.038	13126
921.148	13114
921.258	12837
921.368	12681
921.477	12627
921.587	12570
921.697	12433
921.806	12631
921.916	12448
922.025	12285
922.134	12266
922.244	12209
922.353	12220
922.462	12076
922.571	11961
922.68	11908
922.789	11878
922.898	11897
923.007	11847
923.116	11904
923.224	11927
923.333	11836
923.442	11786
923.55	11680
923.659	11726
923.767	11764
923.876	11653
923.984	11863
924.092	11611
924.201	11649
924.309	11668
924.417	11737
924.525	11592
924.633	11646
924.741	12441
924.849	11448
924.956	11570
925.064	11417
925.172	11360
925.279	11478
925.387	11368
925.494	11471
925.602	11543
925.709	11406
925.816	11311
925.924	11303
926.031	11414
926.138	11402
926.245	11395
926.352	11296
926.459	11372
926.566	11516
926.673	11299
926.779	11254
926.886	11280
926.993	11006
927.099	11037
927.206	11025
927.312	10995
927.419	11041
927.525	11079
927.631	10984
927.737	10995
927.843	10927
927.95	10820
928.056	10809
928.162	10976
928.267	10881
928.373	11436
928.479	10934
928.585	10755
928.69	10881
928.796	10850
928.901	10748
929.007	10656
929.112	10790
929.218	10736
929.323	10641
929.428	10588
929.533	10793
929.638	10607
929.743	10683
929.848	10622
929.953	10584
930.058	10523
930.163	10280
930.267	10341
930.372	10402
930.477	10363
930.581	10497
930.685	10440
930.79	10291
930.894	10318
930.998	10185
931.103	10382
931.207	10097
931.311	9945
931.415	9895
931.519	9720
931.623	9667
