Data from test_V78500241_1940.txt Node
Date: Fri Mar 25 14:47:13 CST 2022
User: usil
Spectrometer: V785-0024
Trigger mode: 0
Integration Time (sec): 4.000000E-1
Scans to average: 1
Nonlinearity correction enabled: false
Boxcar width: 0
Storing dark spectrum: false
XAxis mode: Wavelengths
Number of Pixels in Spectrum: 1024
>>>>>Begin Spectral Data<<<<<
801.071	22010
801.214	21949
801.356	21686
801.499	21641
801.641	21462
801.783	21477
801.926	21515
802.068	21298
802.211	21367
802.353	21230
802.496	21020
802.638	20994
802.78	20773
802.923	20796
803.065	20750
803.208	20773
803.35	20765
803.492	20849
803.635	20826
803.777	20754
803.919	20925
804.061	21127
804.204	20902
804.346	20781
804.488	20727
804.63	20689
804.773	20602
804.915	20724
805.057	20758
805.199	20781
805.341	20705
805.483	20845
805.626	20686
805.768	20651
805.91	20708
806.052	20712
806.194	20575
806.336	20765
806.478	20617
806.62	20716
806.762	20735
806.904	20891
807.046	21222
807.188	20963
807.33	21020
807.472	21036
807.614	20876
807.756	20902
807.898	20807
808.04	20781
808.182	20834
808.324	20845
808.465	20838
808.607	20948
808.749	21070
808.891	21119
809.033	21226
809.174	21108
809.316	21001
809.458	21157
809.6	21123
809.741	21142
809.883	21230
810.025	21230
810.166	21180
810.308	21329
810.45	21138
810.591	21013
810.733	20887
810.875	20902
811.016	20735
811.158	20674
811.299	20788
811.441	20979
811.582	20918
811.724	20754
811.865	20788
812.007	20887
812.148	20762
812.29	20807
812.431	20990
812.573	21180
812.714	21233
812.855	21332
812.997	21393
813.138	21545
813.279	21462
813.421	21431
813.562	21233
813.703	21047
813.845	20998
813.986	20754
814.127	20484
814.268	20450
814.41	20495
814.551	20400
814.692	20461
814.833	20305
814.974	20305
815.115	20419
815.256	20202
815.397	20180
815.539	20252
815.68	20183
815.821	20153
815.962	20119
816.103	20115
816.244	19925
816.385	19890
816.526	19864
816.666	19689
816.807	19460
816.948	19655
817.089	19616
817.23	19605
817.371	19559
817.512	19445
817.653	19529
817.793	19510
817.934	19525
818.075	19586
818.216	19510
818.356	19464
818.497	19312
818.638	19202
818.778	19225
818.919	19232
819.06	19171
819.2	19240
819.341	19396
819.481	19430
819.622	19559
819.762	19651
819.903	19537
820.043	19651
820.184	19616
820.324	19464
820.465	19643
820.605	19529
820.746	19495
820.886	19403
821.026	19407
821.167	19392
821.307	19495
821.447	19441
821.588	19266
821.728	19141
821.868	19091
822.008	18920
822.149	18901
822.289	18905
822.429	18669
822.569	18597
822.709	18467
822.849	18410
822.99	18365
823.13	18361
823.27	18410
823.41	18277
823.55	18171
823.69	18167
823.83	18285
823.97	18159
824.11	17965
824.25	17950
824.389	17977
824.529	18083
824.669	17965
824.809	18152
824.949	18053
825.089	18106
825.228	18038
825.368	17760
825.508	17748
825.648	17855
825.787	17817
825.927	17851
826.067	17760
826.206	17726
826.346	17752
826.485	17680
826.625	17722
826.765	17863
826.904	17863
827.044	17551
827.183	17516
827.323	17482
827.462	17520
827.601	17429
827.741	17379
827.88	17455
828.02	17353
828.159	17486
828.298	17452
828.437	17570
828.577	17429
828.716	17642
828.855	17414
828.994	17117
829.134	17231
829.273	17311
829.412	17220
829.551	17117
829.69	17181
829.829	17322
829.968	17337
830.107	17299
830.246	17235
830.385	17204
830.524	17098
830.663	17086
830.802	16934
830.941	16904
831.08	16752
831.219	16858
831.357	16961
831.496	17029
831.635	16831
831.774	16771
831.913	16721
832.051	16664
832.19	16698
832.329	16668
832.467	16626
832.606	16565
832.744	16519
832.883	16611
833.022	16573
833.16	16599
833.299	16550
833.437	16611
833.576	16573
833.714	16653
833.852	16588
833.991	16603
834.129	16660
834.267	16554
834.406	16554
834.544	16641
834.682	16698
834.821	16634
834.959	16736
835.097	16618
835.235	16702
835.373	16569
835.511	16634
835.65	16497
835.788	16436
835.926	16337
836.064	16371
836.202	16440
836.34	16558
836.478	16569
836.615	16447
836.753	16470
836.891	16565
837.029	16596
837.167	16485
837.305	16447
837.443	16352
837.58	16246
837.718	16542
837.856	16325
837.993	16344
838.131	16333
838.269	16238
838.406	16344
838.544	16303
838.681	16040
838.819	16021
838.956	15865
839.094	15857
839.231	15972
839.369	16169
839.506	16432
839.643	16177
839.781	15987
839.918	15892
840.055	16002
840.193	15918
840.33	16021
840.467	15884
840.604	16025
840.742	16162
840.879	15846
841.016	15873
841.153	15880
841.29	15972
841.427	15911
841.564	16010
841.701	15869
841.838	15918
841.975	15930
842.112	15915
842.249	15762
842.385	15755
842.522	15907
842.659	15698
842.796	15694
842.933	15732
843.069	15671
843.206	15679
843.343	15804
843.479	15595
843.616	15698
843.752	15553
843.889	15568
844.025	15625
844.162	15561
844.298	15644
844.435	15599
844.571	15454
844.708	15549
844.844	15618
844.98	15709
845.117	15637
845.253	15458
845.389	15420
845.525	15447
845.661	15405
845.798	15199
845.934	15469
846.07	15325
846.206	15428
846.342	15416
846.478	15237
846.614	15104
846.75	15017
846.886	15005
847.022	15218
847.158	15138
847.294	15157
847.429	15214
847.565	15081
847.701	15283
847.837	14899
847.972	14823
848.108	14963
848.244	15005
848.379	14682
848.515	14758
848.65	14712
848.786	14640
848.921	14746
849.057	14750
849.192	14788
849.328	14640
849.463	14670
849.598	14644
849.734	14621
849.869	14541
850.004	14415
850.14	14503
850.275	14499
850.41	14415
850.545	14381
850.68	14457
850.815	14438
850.95	14446
851.085	14575
851.22	14522
851.355	14522
851.49	14446
851.625	14446
851.76	14404
851.895	14298
852.03	14396
852.165	14389
852.299	14438
852.434	14530
852.569	14461
852.703	14503
852.838	14587
852.973	14552
853.107	14598
853.242	14355
853.376	14301
853.511	14221
853.645	14248
853.78	14484
853.914	14256
854.048	14317
854.183	14286
854.317	14240
854.451	14492
854.585	14358
854.72	14278
854.854	14278
854.988	14206
855.122	14286
855.256	14164
855.39	14275
855.524	14431
855.658	14415
855.792	14389
855.926	14454
856.06	14370
856.194	14499
856.327	14339
856.461	14252
856.595	14248
856.729	14256
856.862	14476
856.996	14301
857.13	14450
857.263	14347
857.397	14442
857.53	14278
857.664	14400
857.797	14419
857.931	14514
858.064	14473
858.197	14404
858.331	14309
858.464	14347
858.597	14210
858.731	14328
858.864	14305
858.997	14210
859.13	14317
859.263	14400
859.396	14404
859.529	14298
859.662	14278
859.795	14343
859.928	14339
860.061	14454
860.194	14473
860.327	14419
860.46	14214
860.592	14366
860.725	14488
860.858	14503
860.99	14332
861.123	14229
861.256	14248
861.388	14305
861.521	15066
861.653	14157
861.786	14031
861.918	14180
862.05	14199
862.183	14225
862.315	14355
862.447	14404
862.58	14240
862.712	14126
862.844	14024
862.976	14161
863.108	14199
863.24	14438
863.372	14115
863.504	14092
863.636	14058
863.768	14191
863.9	14046
864.032	14016
864.164	13978
864.296	14100
864.428	14206
864.559	14210
864.691	14218
864.823	14145
864.954	14153
865.086	14172
865.217	14130
865.349	14088
865.48	14149
865.612	14130
865.743	14229
865.875	14115
866.006	14065
866.137	14229
866.269	14081
866.4	14092
866.531	14103
866.662	14081
866.793	14031
866.924	13932
867.055	14020
867.186	14027
867.317	14103
867.448	13921
867.579	14027
867.71	14062
867.841	14012
867.972	14062
868.103	13989
868.233	14100
868.364	14050
868.495	14176
868.625	14305
868.756	14339
868.886	14195
869.017	14298
869.147	14400
869.278	14377
869.408	14282
869.539	14358
869.669	14469
869.799	14309
869.929	14492
870.06	14419
870.19	14583
870.32	14648
870.45	14648
870.58	14781
870.71	14815
870.84	14800
870.97	14800
871.1	14697
871.23	14925
871.36	14990
871.489	14842
871.619	14883
871.749	14914
871.879	14956
872.008	14990
872.138	14956
872.267	14941
872.397	14853
872.526	14796
872.656	14640
872.785	14769
872.915	14963
873.044	14998
873.173	14906
873.303	14933
873.432	14975
873.561	14998
873.69	15013
873.819	14944
873.948	15085
874.077	14982
874.206	14929
874.335	15036
874.464	15150
874.593	15294
874.722	15233
874.851	15294
874.979	15207
875.108	15287
875.237	15252
875.365	15180
875.494	15272
875.623	15348
875.751	15241
875.88	15279
876.008	15424
876.136	15496
876.265	15686
876.393	15884
876.521	15743
876.65	15724
876.778	15724
876.906	15732
877.034	15728
877.162	15770
877.29	15625
877.418	15641
877.546	15671
877.674	15759
877.802	15736
877.93	15743
878.058	15606
878.185	15671
878.313	15606
878.441	15739
878.568	15542
878.696	15694
878.824	15644
878.951	15717
879.079	15895
879.206	16002
879.333	15846
879.461	15774
879.588	15831
879.715	15915
879.842	16013
879.97	15705
880.097	15534
880.224	15637
880.351	15614
880.478	15644
880.605	15568
880.732	15595
880.859	15762
880.986	15614
881.112	15587
881.239	15405
881.366	15447
881.493	15355
881.619	15218
881.746	15237
881.872	15161
881.999	15199
882.125	15138
882.252	15355
882.378	15287
882.505	15294
882.631	15188
882.757	15062
882.883	15150
883.01	14986
883.136	14986
883.262	14929
883.388	14845
883.514	15051
883.64	15116
883.766	14986
883.892	14910
884.018	14948
884.143	14986
884.269	15127
884.395	14811
884.52	14705
884.646	14636
884.772	14689
884.897	14724
885.023	14701
885.148	14849
885.274	14891
885.399	14769
885.524	14712
885.65	14811
885.775	14792
885.9	14689
886.025	14758
886.15	14815
886.275	14648
886.4	14663
886.525	14712
886.65	14670
886.775	14625
886.9	14929
887.025	15005
887.149	14788
887.274	14560
887.399	14552
887.523	14568
887.648	14613
887.773	14476
887.897	14556
888.021	14648
888.146	14556
888.27	14667
888.395	14758
888.519	14617
888.643	14606
888.767	14587
888.891	14499
889.015	14355
889.139	14522
889.263	14389
889.387	14590
889.511	14750
889.635	14549
889.759	14454
889.883	14366
890.006	14473
890.13	14560
890.254	14362
890.377	14332
890.501	14278
890.624	14233
890.748	14305
890.871	14191
890.995	14107
891.118	14043
891.241	14183
891.364	14153
891.488	14195
891.611	14123
891.734	14142
891.857	14259
891.98	14103
892.103	14240
892.226	14210
892.349	14130
892.471	13959
892.594	14130
892.717	14096
892.839	14077
892.962	14187
893.085	14229
893.207	14145
893.33	14005
893.452	14065
893.575	14202
893.697	14195
893.819	14244
893.941	14309
894.064	14320
894.186	14084
894.308	14130
894.43	14225
894.552	14313
894.674	14259
894.796	14142
894.918	14210
895.04	14168
895.161	14320
895.283	14320
895.405	14073
895.526	14244
895.648	14199
895.769	14298
895.891	14313
896.012	14320
896.134	14381
896.255	14278
896.376	14180
896.498	14336
896.619	14298
896.74	14415
896.861	14427
896.982	14693
897.103	14883
897.224	14610
897.345	14511
897.466	14530
897.587	14575
897.708	14739
897.828	14587
897.949	14507
898.07	14423
898.19	14488
898.311	14674
898.431	14583
898.552	14587
898.672	14785
898.792	14735
898.913	14746
899.033	14568
899.153	14541
899.273	14442
899.393	14537
899.513	14530
899.633	14484
899.753	14594
899.873	14377
899.993	14568
900.113	14469
900.232	14579
900.352	14408
900.472	14393
900.591	14374
900.711	14408
900.83	14320
900.95	14484
901.069	14511
901.189	14324
901.308	14103
901.427	13928
901.546	14123
901.665	14107
901.784	14069
901.904	13890
902.023	13913
902.141	13685
902.26	13658
902.379	13693
902.498	13575
902.617	13700
902.735	13578
902.854	13601
902.973	13521
903.091	13377
903.21	13308
903.328	13331
903.446	13335
903.565	13118
903.683	13202
903.801	13137
903.919	13168
904.038	13213
904.156	12993
904.274	13031
904.392	12981
904.51	13023
904.627	12894
904.745	13046
904.863	13019
904.981	12806
905.098	12582
905.216	12741
905.334	12760
905.451	12726
905.569	12627
905.686	12684
905.803	12601
905.921	12372
906.038	12673
906.155	12513
906.272	12384
906.389	12422
906.506	12243
906.623	12330
906.74	12311
906.857	12258
906.974	12209
907.091	12372
907.208	12460
907.324	12350
907.441	12171
907.557	11988
907.674	12057
907.79	12003
907.907	11965
908.023	12049
908.139	12045
908.256	11996
908.372	12034
908.488	11931
908.604	11790
908.72	11676
908.836	11828
908.952	11790
909.068	11764
909.184	11859
909.3	11695
909.415	11882
909.531	11733
909.647	11623
909.762	11600
909.878	11444
909.993	11611
910.108	11490
910.224	11608
910.339	11452
910.454	11410
910.57	11535
910.685	11318
910.8	11688
910.915	11600
911.03	11429
911.145	11387
911.259	11258
911.374	11193
911.489	11178
911.604	11155
911.718	11025
911.833	11025
911.947	10908
912.062	10835
912.176	10953
912.291	11052
912.405	10976
912.519	11147
912.633	11242
912.748	10976
912.862	11090
912.976	10938
913.09	10782
913.204	10877
913.318	10946
913.431	10999
913.545	11037
913.659	10949
913.772	10900
913.886	10748
914	10797
914.113	10854
914.226	10885
914.34	10900
914.453	10660
914.566	10862
914.68	10714
914.793	10725
914.906	10554
915.019	10489
915.132	10440
915.245	10481
915.358	10527
915.47	10584
915.583	10569
915.696	10527
915.809	10611
915.921	10691
916.034	10443
916.146	10470
916.259	10382
916.371	10584
916.483	10489
916.595	10417
916.708	10432
916.82	10481
916.932	10455
917.044	10371
917.156	10428
917.268	10291
917.38	10371
917.491	10337
917.603	10310
917.715	10405
917.826	10436
917.938	10352
918.049	10120
918.161	10306
918.272	10474
918.384	10584
918.495	10333
918.606	10150
918.717	10242
918.828	10246
918.939	10276
919.05	10154
919.161	10131
919.272	10010
919.383	10128
919.494	10310
919.604	10466
919.715	10242
919.826	10173
919.936	10143
920.047	10341
920.157	10223
920.267	10405
920.378	10306
920.488	10181
920.598	10489
920.708	10622
920.818	10394
920.928	10398
921.038	10599
921.148	10512
921.258	10284
921.368	10196
921.477	10200
921.587	10040
921.697	9899
921.806	10101
921.916	10044
922.025	9846
922.134	9819
922.244	9732
922.353	9835
922.462	9705
922.571	9679
922.68	9469
922.789	9515
922.898	9545
923.007	9401
923.116	9519
923.224	9523
923.333	9526
923.442	9386
923.55	9340
923.659	9367
923.767	9462
923.876	9344
923.984	9424
924.092	9249
924.201	9302
924.309	9329
924.417	9386
924.525	9313
924.633	9294
924.741	10238
924.849	9097
924.956	9287
925.064	9138
925.172	9043
925.279	9051
925.387	9165
925.494	9142
925.602	9291
925.709	9199
925.816	9093
925.924	9165
926.031	9256
926.138	9241
926.245	9233
926.352	8990
926.459	9173
926.566	9237
926.673	9142
926.779	9036
926.886	8902
926.993	8906
927.099	8876
927.206	8876
927.312	8861
927.419	8868
927.525	8842
927.631	8937
927.737	8800
927.843	8693
927.95	8689
928.056	8735
928.162	8716
928.267	8804
928.373	9443
928.479	8743
928.585	8640
928.69	8708
928.796	8800
928.901	8648
929.007	8480
929.112	8629
929.218	8621
929.323	8602
929.428	8549
929.533	8716
929.638	8495
929.743	8613
929.848	8610
929.953	8636
930.058	8434
930.163	8377
930.267	8336
930.372	8476
930.477	8305
930.581	8571
930.685	8423
930.79	8214
930.894	8366
930.998	8271
931.103	8377
931.207	8088
931.311	8016
931.415	7909
931.519	7826
931.623	7761
