Data from test_V78500241_1917.txt Node
Date: Fri Mar 25 14:47:03 CST 2022
User: usil
Spectrometer: V785-0024
Trigger mode: 0
Integration Time (sec): 4.000000E-1
Scans to average: 1
Nonlinearity correction enabled: false
Boxcar width: 0
Storing dark spectrum: false
XAxis mode: Wavelengths
Number of Pixels in Spectrum: 1024
>>>>>Begin Spectral Data<<<<<
801.071	22150
801.214	21941
801.356	21743
801.499	21618
801.641	21340
801.783	21492
801.926	21450
802.068	21435
802.211	21370
802.353	21207
802.496	20960
802.638	20986
802.78	20921
802.923	20868
803.065	20777
803.208	20800
803.35	20743
803.492	20937
803.635	20899
803.777	20781
803.919	20849
804.061	21127
804.204	20781
804.346	20746
804.488	20708
804.63	20720
804.773	20629
804.915	20750
805.057	20883
805.199	20701
805.341	20712
805.483	20838
805.626	20823
805.768	20598
805.91	20682
806.052	20659
806.194	20552
806.336	20876
806.478	20674
806.62	20617
806.762	20731
806.904	20883
807.046	21108
807.188	21020
807.33	20986
807.472	21108
807.614	20914
807.756	20986
807.898	20701
808.04	20746
808.182	20712
808.324	20697
808.465	20830
808.607	20914
808.749	21131
808.891	20998
809.033	21249
809.174	21165
809.316	20982
809.458	21005
809.6	20982
809.741	21222
809.883	21055
810.025	21211
810.166	21199
810.308	21287
810.45	21291
810.591	20998
810.733	20857
810.875	20880
811.016	20777
811.158	20731
811.299	20811
811.441	21005
811.582	20910
811.724	20929
811.865	20811
812.007	20804
812.148	20834
812.29	20868
812.431	20982
812.573	21211
812.714	21157
812.855	21252
812.997	21416
813.138	21466
813.279	21370
813.421	21382
813.562	21291
813.703	21020
813.845	21020
813.986	20697
814.127	20495
814.268	20488
814.41	20495
814.551	20457
814.692	20469
814.833	20377
814.974	20343
815.115	20484
815.256	20218
815.397	20282
815.539	20317
815.68	20202
815.821	19997
815.962	20039
816.103	20138
816.244	20001
816.385	19913
816.526	19746
816.666	19666
816.807	19578
816.948	19605
817.089	19772
817.23	19605
817.371	19525
817.512	19502
817.653	19540
817.793	19426
817.934	19460
818.075	19540
818.216	19563
818.356	19510
818.497	19346
818.638	19247
818.778	19232
818.919	19190
819.06	19293
819.2	19358
819.341	19445
819.481	19430
819.622	19491
819.762	19753
819.903	19830
820.043	19628
820.184	19529
820.324	19601
820.465	19506
820.605	19396
820.746	19430
820.886	19449
821.026	19426
821.167	19567
821.307	19563
821.447	19441
821.588	19339
821.728	19183
821.868	19015
822.008	18856
822.149	18878
822.289	18966
822.429	18741
822.569	18551
822.709	18654
822.849	18380
822.99	18346
823.13	18365
823.27	18330
823.41	18209
823.55	18228
823.69	18239
823.83	18186
823.97	18201
824.11	18041
824.25	17840
824.389	18136
824.529	17897
824.669	17988
824.809	18057
824.949	18209
825.089	17950
825.228	17977
825.368	17748
825.508	17760
825.648	17901
825.787	17927
825.927	17855
826.067	17764
826.206	17824
826.346	17684
826.485	17832
826.625	17775
826.765	17935
826.904	17737
827.044	17524
827.183	17471
827.323	17444
827.462	17665
827.601	17368
827.741	17512
827.88	17444
828.02	17345
828.159	17482
828.298	17471
828.437	17524
828.577	17376
828.716	17596
828.855	17474
828.994	17223
829.134	17261
829.273	17220
829.412	17254
829.551	17079
829.69	17204
829.829	17425
829.968	17368
830.107	17258
830.246	17360
830.385	17090
830.524	17064
830.663	17200
830.802	16999
830.941	16755
831.08	16835
831.219	16915
831.357	16828
831.496	17052
831.635	16892
831.774	16744
831.913	16706
832.051	16698
832.19	16702
832.329	16603
832.467	16546
832.606	16451
832.744	16554
832.883	16516
833.022	16516
833.16	16531
833.299	16618
833.437	16577
833.576	16641
833.714	16607
833.852	16672
833.991	16611
834.129	16679
834.267	16660
834.406	16603
834.544	16645
834.682	16580
834.821	16565
834.959	16835
835.097	16615
835.235	16672
835.373	16573
835.511	16588
835.65	16478
835.788	16580
835.926	16276
836.064	16394
836.202	16276
836.34	16527
836.478	16607
836.615	16474
836.753	16592
836.891	16641
837.029	16561
837.167	16508
837.305	16440
837.443	16417
837.58	16215
837.718	16424
837.856	16291
837.993	16375
838.131	16303
838.269	16360
838.406	16303
838.544	16246
838.681	16143
838.819	16055
838.956	15949
839.094	15994
839.231	15945
839.369	16063
839.506	16303
839.643	16181
839.781	15960
839.918	15895
840.055	15983
840.193	15987
840.33	15888
840.467	15899
840.604	15918
840.742	16078
840.879	15755
841.016	15865
841.153	15899
841.29	16078
841.427	16048
841.564	15861
841.701	15941
841.838	15892
841.975	15812
842.112	15956
842.249	15778
842.385	15713
842.522	15911
842.659	15785
842.796	15736
842.933	15785
843.069	15682
843.206	15701
843.343	15789
843.479	15785
843.616	15736
843.752	15492
843.889	15515
844.025	15709
844.162	15496
844.298	15637
844.435	15542
844.571	15469
844.708	15519
844.844	15667
844.98	15762
845.117	15557
845.253	15515
845.389	15401
845.525	15435
845.661	15325
845.798	15367
845.934	15374
846.07	15218
846.206	15359
846.342	15450
846.478	15359
846.614	15020
846.75	15074
846.886	15077
847.022	15146
847.158	15024
847.294	15146
847.429	15039
847.565	15028
847.701	15264
847.837	14788
847.972	14887
848.108	14944
848.244	14853
848.379	14750
848.515	14556
848.65	14670
848.786	14689
848.921	14746
849.057	14815
849.192	14743
849.328	14701
849.463	14792
849.598	14762
849.734	14636
849.869	14617
850.004	14507
850.14	14488
850.275	14473
850.41	14393
850.545	14499
850.68	14427
850.815	14507
850.95	14495
851.085	14674
851.22	14610
851.355	14446
851.49	14408
851.625	14427
851.76	14484
851.895	14431
852.03	14278
852.165	14507
852.299	14583
852.434	14518
852.569	14469
852.703	14377
852.838	14602
852.973	14629
853.107	14594
853.242	14476
853.376	14301
853.511	14202
853.645	14271
853.78	14484
853.914	14259
854.048	14256
854.183	14332
854.317	14351
854.451	14461
854.585	14347
854.72	14237
854.854	14469
854.988	14221
855.122	14294
855.256	14202
855.39	14389
855.524	14366
855.658	14332
855.792	14370
855.926	14446
856.06	14419
856.194	14423
856.327	14362
856.461	14244
856.595	14275
856.729	14332
856.862	14488
856.996	14381
857.13	14351
857.263	14518
857.397	14419
857.53	14396
857.664	14412
857.797	14450
857.931	14385
858.064	14404
858.197	14423
858.331	14381
858.464	14218
858.597	14263
858.731	14381
858.864	14343
858.997	14290
859.13	14389
859.263	14355
859.396	14442
859.529	14324
859.662	14237
859.795	14278
859.928	14374
860.061	14499
860.194	14571
860.327	14358
860.46	14381
860.592	14514
860.725	14374
860.858	14484
860.99	14370
861.123	14259
861.256	14244
861.388	14358
861.521	15188
861.653	14176
861.786	14176
861.918	14183
862.05	14180
862.183	14248
862.315	14271
862.447	14328
862.58	14298
862.712	14111
862.844	13986
862.976	14183
863.108	14092
863.24	14457
863.372	14050
863.504	14164
863.636	14065
863.768	14138
863.9	14176
864.032	13982
864.164	13993
864.296	14237
864.428	14313
864.559	14168
864.691	14202
864.823	14202
864.954	14134
865.086	14134
865.217	14111
865.349	13982
865.48	14088
865.612	14107
865.743	14320
865.875	14043
866.006	13989
866.137	14142
866.269	14130
866.4	14084
866.531	14149
866.662	13879
866.793	13959
866.924	14084
867.055	14111
867.186	14054
867.317	14020
867.448	13989
867.579	14050
867.71	14043
867.841	13978
867.972	14142
868.103	14096
868.233	14145
868.364	14077
868.495	14202
868.625	14286
868.756	14427
868.886	14263
869.017	14385
869.147	14423
869.278	14412
869.408	14377
869.539	14370
869.669	14434
869.799	14389
869.929	14518
870.06	14526
870.19	14606
870.32	14629
870.45	14678
870.58	14746
870.71	14807
870.84	14804
870.97	14777
871.1	14724
871.23	14902
871.36	14918
871.489	14823
871.619	14956
871.749	14902
871.879	14963
872.008	15100
872.138	14933
872.267	14853
872.397	14804
872.526	14739
872.656	14811
872.785	14727
872.915	14887
873.044	15036
873.173	14887
873.303	15074
873.432	15047
873.561	14990
873.69	14933
873.819	15009
873.948	15108
874.077	15036
874.206	14941
874.335	15028
874.464	15127
874.593	15344
874.722	15157
874.851	15344
874.979	15359
875.108	15355
875.237	15192
875.365	15249
875.494	15264
875.623	15291
875.751	15283
875.88	15389
876.008	15439
876.136	15534
876.265	15762
876.393	15899
876.521	15819
876.65	15857
876.778	15728
876.906	15660
877.034	15739
877.162	15656
877.29	15614
877.418	15644
877.546	15694
877.674	15694
877.802	15774
877.93	15625
878.058	15751
878.185	15686
878.313	15671
878.441	15747
878.568	15606
878.696	15614
878.824	15808
878.951	15755
879.079	15922
879.206	16013
879.333	15854
879.461	15789
879.588	15789
879.715	15835
879.842	16051
879.97	15793
880.097	15553
880.224	15629
880.351	15557
880.478	15511
880.605	15553
880.732	15549
880.859	15778
880.986	15622
881.112	15564
881.239	15526
881.366	15336
881.493	15230
881.619	15211
881.746	15218
881.872	15173
881.999	15184
882.125	15070
882.252	15245
882.378	15367
882.505	15329
882.631	15112
882.757	14982
882.883	15047
883.01	14975
883.136	14941
883.262	14921
883.388	14834
883.514	14975
883.64	15085
883.766	15039
883.892	14781
884.018	14956
884.143	15051
884.269	15138
884.395	14857
884.52	14781
884.646	14731
884.772	14674
884.897	14610
885.023	14800
885.148	14834
885.274	14910
885.399	14746
885.524	14750
885.65	14724
885.775	14663
885.9	14807
886.025	14910
886.15	14857
886.275	14575
886.4	14606
886.525	14659
886.65	14663
886.775	14632
886.9	14819
887.025	14979
887.149	14735
887.274	14701
887.399	14533
887.523	14518
887.648	14575
887.773	14454
887.897	14621
888.021	14613
888.146	14518
888.27	14674
888.395	14705
888.519	14632
888.643	14712
888.767	14625
888.891	14613
889.015	14465
889.139	14518
889.263	14438
889.387	14549
889.511	14602
889.635	14587
889.759	14351
889.883	14469
890.006	14457
890.13	14503
890.254	14339
890.377	14347
890.501	14202
890.624	14248
890.748	14286
890.871	14142
890.995	14103
891.118	13940
891.241	14050
891.364	14161
891.488	14275
891.611	14153
891.734	14176
891.857	14244
891.98	14164
892.103	14275
892.226	14221
892.349	14111
892.471	13967
892.594	14107
892.717	14244
892.839	14050
892.962	14199
893.085	14240
893.207	14157
893.33	14084
893.452	14035
893.575	14229
893.697	14202
893.819	14298
893.941	14427
894.064	14351
894.186	14134
894.308	14043
894.43	14324
894.552	14419
894.674	14256
894.796	14210
894.918	14126
895.04	14157
895.161	14286
895.283	14286
895.405	14157
895.526	14263
895.648	14298
895.769	14282
895.891	14393
896.012	14320
896.134	14259
896.255	14408
896.376	14298
896.498	14389
896.619	14366
896.74	14442
896.861	14366
896.982	14754
897.103	14838
897.224	14686
897.345	14617
897.466	14549
897.587	14610
897.708	14731
897.828	14686
897.949	14629
898.07	14568
898.19	14648
898.311	14785
898.431	14575
898.552	14739
898.672	14659
898.792	14746
898.913	14590
899.033	14507
899.153	14507
899.273	14446
899.393	14533
899.513	14556
899.633	14461
899.753	14602
899.873	14412
899.993	14549
900.113	14499
900.232	14606
900.352	14522
900.472	14457
900.591	14351
900.711	14408
900.83	14370
900.95	14484
901.069	14568
901.189	14305
901.308	14119
901.427	14058
901.546	14039
901.665	14111
901.784	14107
901.904	13894
902.023	13906
902.141	13571
902.26	13670
902.379	13689
902.498	13655
902.617	13605
902.735	13556
902.854	13662
902.973	13677
903.091	13316
903.21	13339
903.328	13415
903.446	13320
903.565	13293
903.683	13289
903.801	13034
903.919	13164
904.038	13251
904.156	13053
904.274	13110
904.392	13061
904.51	13046
904.627	12913
904.745	13076
904.863	13110
904.981	12795
905.098	12719
905.216	12715
905.334	12639
905.451	12642
905.569	12639
905.686	12719
905.803	12703
905.921	12589
906.038	12665
906.155	12608
906.272	12513
906.389	12513
906.506	12285
906.623	12323
906.74	12330
906.857	12140
906.974	12194
907.091	12441
907.208	12486
907.324	12319
907.441	12216
907.557	12038
907.674	12106
907.79	12064
907.907	12057
908.023	12106
908.139	12076
908.256	12015
908.372	11980
908.488	12007
908.604	11859
908.72	11843
908.836	11798
908.952	11737
909.068	11809
909.184	11866
909.3	11771
909.415	11775
909.531	11863
909.647	11604
909.762	11566
909.878	11543
909.993	11703
910.108	11539
910.224	11539
910.339	11558
910.454	11516
910.57	11429
910.685	11379
910.8	11653
910.915	11581
911.03	11398
911.145	11345
911.259	11280
911.374	11330
911.489	11162
911.604	11102
911.718	11045
911.833	11128
911.947	10965
912.062	10839
912.176	11113
912.291	11151
912.405	11086
912.519	11208
912.633	11223
912.748	11147
912.862	11079
912.976	10889
913.09	10740
913.204	10809
913.318	10965
913.431	11048
913.545	11029
913.659	11086
913.772	10995
913.886	10729
914	10809
914.113	10873
914.226	10889
914.34	10892
914.453	10740
914.566	10911
914.68	10767
914.793	10782
914.906	10504
915.019	10478
915.132	10493
915.245	10512
915.358	10558
915.47	10508
915.583	10485
915.696	10637
915.809	10611
915.921	10611
916.034	10478
916.146	10500
916.259	10440
916.371	10634
916.483	10569
916.595	10440
916.708	10523
916.82	10466
916.932	10500
917.044	10436
917.156	10500
917.268	10386
917.38	10352
917.491	10344
917.603	10436
917.715	10470
917.826	10504
917.938	10337
918.049	10265
918.161	10379
918.272	10565
918.384	10470
918.495	10481
918.606	10257
918.717	10177
918.828	10295
918.939	10253
919.05	10147
919.161	10173
919.272	10101
919.383	10128
919.494	10280
919.604	10618
919.715	10329
919.826	10166
919.936	10242
920.047	10409
920.157	10284
920.267	10493
920.378	10306
920.488	10234
920.598	10478
920.708	10607
920.818	10493
920.928	10455
921.038	10584
921.148	10599
921.258	10253
921.368	10219
921.477	10169
921.587	10143
921.697	9960
921.806	10128
921.916	9998
922.025	9850
922.134	9778
922.244	9747
922.353	9785
922.462	9698
922.571	9682
922.68	9504
922.789	9511
922.898	9553
923.007	9481
923.116	9587
923.224	9488
923.333	9462
923.442	9382
923.55	9363
923.659	9336
923.767	9564
923.876	9428
923.984	9447
924.092	9370
924.201	9351
924.309	9374
924.417	9340
924.525	9336
924.633	9313
924.741	10299
924.849	9138
924.956	9332
925.064	9142
925.172	9127
925.279	9066
925.387	9233
925.494	9199
925.602	9287
925.709	9207
925.816	9157
925.924	9233
926.031	9310
926.138	9150
926.245	9192
926.352	9074
926.459	9230
926.566	9214
926.673	9100
926.779	8975
926.886	9081
926.993	8880
927.099	8880
927.206	8823
927.312	8880
927.419	8823
927.525	8899
927.631	8880
927.737	8815
927.843	8750
927.95	8613
928.056	8735
928.162	8701
928.267	8781
928.373	9401
928.479	8876
928.585	8621
928.69	8792
928.796	8826
928.901	8682
929.007	8583
929.112	8701
929.218	8598
929.323	8606
929.428	8556
929.533	8788
929.638	8495
929.743	8575
929.848	8651
929.953	8594
930.058	8499
930.163	8377
930.267	8381
930.372	8522
930.477	8351
930.581	8571
930.685	8484
930.79	8332
930.894	8309
930.998	8286
931.103	8457
931.207	8081
931.311	8024
931.415	8058
931.519	7883
931.623	7784
