Data from test_V78500241_3641.txt Node
Date: Fri Mar 25 14:59:04 CST 2022
User: usil
Spectrometer: V785-0024
Trigger mode: 0
Integration Time (sec): 4.000000E-1
Scans to average: 1
Nonlinearity correction enabled: false
Boxcar width: 0
Storing dark spectrum: false
XAxis mode: Wavelengths
Number of Pixels in Spectrum: 1024
>>>>>Begin Spectral Data<<<<<
801.071	21922
801.214	21728
801.356	21545
801.499	21481
801.641	21199
801.783	21275
801.926	21241
802.068	21104
802.211	20998
802.353	21001
802.496	20819
802.638	20754
802.78	20571
802.923	20606
803.065	20492
803.208	20564
803.35	20621
803.492	20583
803.635	20743
803.777	20537
803.919	20609
804.061	20910
804.204	20636
804.346	20473
804.488	20495
804.63	20583
804.773	20480
804.915	20552
805.057	20560
805.199	20518
805.341	20564
805.483	20530
805.626	20625
805.768	20625
805.91	20507
806.052	20480
806.194	20423
806.336	20625
806.478	20461
806.62	20332
806.762	20625
806.904	20625
807.046	20944
807.188	20796
807.33	20853
807.472	20899
807.614	20727
807.756	20754
807.898	20598
808.04	20511
808.182	20629
808.324	20514
808.465	20530
808.607	20762
808.749	20937
808.891	20838
809.033	21013
809.174	20937
809.316	20746
809.458	20758
809.6	20861
809.741	20895
809.883	20914
810.025	21123
810.166	21013
810.308	21070
810.45	20994
810.591	20750
810.733	20762
810.875	20701
811.016	20473
811.158	20499
811.299	20735
811.441	20689
811.582	20735
811.724	20663
811.865	20575
812.007	20537
812.148	20648
812.29	20670
812.431	20758
812.573	20960
812.714	21013
812.855	21020
812.997	21218
813.138	21291
813.279	21249
813.421	21180
813.562	21116
813.703	20952
813.845	20697
813.986	20469
814.127	20294
814.268	20282
814.41	20138
814.551	20233
814.692	20267
814.833	20027
814.974	20142
815.115	20122
815.256	20027
815.397	19951
815.539	19963
815.68	19955
815.821	19898
815.962	19837
816.103	19841
816.244	19655
816.385	19510
816.526	19609
816.666	19335
816.807	19232
816.948	19457
817.089	19358
817.23	19350
817.371	19251
817.512	19232
817.653	19304
817.793	19266
817.934	19278
818.075	19308
818.216	19270
818.356	19266
818.497	19091
818.638	18894
818.778	19015
818.919	19046
819.06	18958
819.2	19046
819.341	19175
819.481	19145
819.622	19285
819.762	19320
819.903	19419
820.043	19358
820.184	19346
820.324	19236
820.465	19388
820.605	19206
820.746	19244
820.886	19103
821.026	19232
821.167	19244
821.307	19331
821.447	19190
821.588	19091
821.728	18985
821.868	18897
822.008	18772
822.149	18734
822.289	18677
822.429	18479
822.569	18334
822.709	18418
822.849	18102
822.99	18155
823.13	18163
823.27	18194
823.41	17999
823.55	17969
823.69	18022
823.83	17965
823.97	17912
824.11	17805
824.25	17699
824.389	17707
824.529	17794
824.669	17832
824.809	17802
824.949	17790
825.089	17745
825.228	17786
825.368	17520
825.508	17516
825.648	17493
825.787	17623
825.927	17619
826.067	17471
826.206	17376
826.346	17448
826.485	17554
826.625	17501
826.765	17672
826.904	17589
827.044	17212
827.183	17250
827.323	17140
827.462	17334
827.601	17189
827.741	17189
827.88	17208
828.02	17033
828.159	17277
828.298	17166
828.437	17242
828.577	17235
828.716	17341
828.855	17124
828.994	16957
829.134	16984
829.273	17083
829.412	17060
829.551	16991
829.69	16976
829.829	16980
829.968	17136
830.107	17086
830.246	17018
830.385	17048
830.524	16854
830.663	16771
830.802	16752
830.941	16565
831.08	16618
831.219	16694
831.357	16740
831.496	16873
831.635	16634
831.774	16527
831.913	16489
832.051	16432
832.19	16344
832.329	16428
832.467	16291
832.606	16265
832.744	16253
832.883	16249
833.022	16265
833.16	16295
833.299	16360
833.437	16310
833.576	16333
833.714	16299
833.852	16348
833.991	16367
834.129	16405
834.267	16394
834.406	16413
834.544	16462
834.682	16394
834.821	16394
834.959	16512
835.097	16325
835.235	16405
835.373	16367
835.511	16341
835.65	16242
835.788	16181
835.926	16188
836.064	16166
836.202	16071
836.34	16333
836.478	16421
836.615	16246
836.753	16280
836.891	16386
837.029	16257
837.167	16196
837.305	16147
837.443	16188
837.58	16112
837.718	16246
837.856	16207
837.993	16147
838.131	16265
838.269	16120
838.406	15972
838.544	15918
838.681	15842
838.819	15842
838.956	15713
839.094	15682
839.231	15846
839.369	15766
839.506	15991
839.643	15998
839.781	15774
839.918	15671
840.055	15698
840.193	15656
840.33	15679
840.467	15709
840.604	15732
840.742	15979
840.879	15553
841.016	15606
841.153	15557
841.29	15785
841.427	15770
841.564	15709
841.701	15698
841.838	15599
841.975	15606
842.112	15576
842.249	15580
842.385	15447
842.522	15637
842.659	15572
842.796	15458
842.933	15488
843.069	15507
843.206	15424
843.343	15515
843.479	15534
843.616	15549
843.752	15329
843.889	15279
844.025	15416
844.162	15188
844.298	15466
844.435	15351
844.571	15161
844.708	15264
844.844	15538
844.98	15477
845.117	15374
845.253	15325
845.389	15142
845.525	15230
845.661	15237
845.798	15020
845.934	15070
846.07	15051
846.206	15157
846.342	15222
846.478	15093
846.614	14944
846.75	14834
846.886	14815
847.022	14899
847.158	14868
847.294	14849
847.429	14933
847.565	14880
847.701	15032
847.837	14720
847.972	14571
848.108	14659
848.244	14648
848.379	14450
848.515	14469
848.65	14408
848.786	14446
848.921	14412
849.057	14533
849.192	14571
849.328	14571
849.463	14442
849.598	14427
849.734	14362
849.869	14366
850.004	14328
850.14	14366
850.275	14252
850.41	14176
850.545	14252
850.68	14298
850.815	14248
850.95	14210
851.085	14408
851.22	14389
851.355	14221
851.49	14180
851.625	14229
851.76	14210
851.895	14069
852.03	14149
852.165	14271
852.299	14301
852.434	14229
852.569	14229
852.703	14210
852.838	14317
852.973	14423
853.107	14419
853.242	14149
853.376	14123
853.511	13989
853.645	14043
853.78	14233
853.914	14161
854.048	14084
854.183	14046
854.317	14088
854.451	14298
854.585	14157
854.72	14103
854.854	14214
854.988	14043
855.122	13997
855.256	13993
855.39	14130
855.524	14206
855.658	14195
855.792	14153
855.926	14103
856.06	14187
856.194	14305
856.327	14092
856.461	14043
856.595	14092
856.729	14081
856.862	14210
856.996	14092
857.13	14221
857.263	14210
857.397	14206
857.53	14046
857.664	14191
857.797	14172
857.931	14313
858.064	14107
858.197	14202
858.331	14149
858.464	14054
858.597	14001
858.731	14111
858.864	14138
858.997	14020
859.13	14107
859.263	14157
859.396	14092
859.529	14012
859.662	14115
859.795	14092
859.928	14142
860.061	14206
860.194	14282
860.327	14103
860.46	14123
860.592	14218
860.725	14199
860.858	14115
860.99	14027
861.123	14050
861.256	14092
861.388	14107
861.521	14880
861.653	13993
861.786	13936
861.918	13944
862.05	14031
862.183	14046
862.315	14027
862.447	14134
862.58	14035
862.712	13921
862.844	13769
862.976	13993
863.108	13887
863.24	14313
863.372	13871
863.504	13822
863.636	13879
863.768	13967
863.9	13837
864.032	13894
864.164	13727
864.296	13947
864.428	14111
864.559	14005
864.691	14054
864.823	13986
864.954	13936
865.086	13890
865.217	13868
865.349	13818
865.48	13818
865.612	13898
865.743	14054
865.875	13951
866.006	13890
866.137	13837
866.269	13795
866.4	13906
866.531	13818
866.662	13833
866.793	13811
866.924	13811
867.055	13841
867.186	13811
867.317	13791
867.448	13746
867.579	13784
867.71	13830
867.841	13715
867.972	13845
868.103	13849
868.233	13883
868.364	13902
868.495	13932
868.625	14138
868.756	14172
868.886	14103
869.017	14107
869.147	14233
869.278	14210
869.408	14164
869.539	14138
869.669	14202
869.799	14073
869.929	14256
870.06	14195
870.19	14366
870.32	14423
870.45	14541
870.58	14575
870.71	14598
870.84	14632
870.97	14499
871.1	14488
871.23	14712
871.36	14667
871.489	14636
871.619	14724
871.749	14765
871.879	14720
872.008	14754
872.138	14785
872.267	14754
872.397	14541
872.526	14594
872.656	14522
872.785	14552
872.915	14746
873.044	14823
873.173	14777
873.303	14785
873.432	14842
873.561	14872
873.69	14743
873.819	14823
873.948	14769
874.077	14899
874.206	14701
874.335	14849
874.464	14918
874.593	15123
874.722	14956
874.851	15154
874.979	15146
875.108	15089
875.237	14937
875.365	15047
875.494	14941
875.623	15142
875.751	15024
875.88	15146
876.008	15283
876.136	15291
876.265	15488
876.393	15709
876.521	15625
876.65	15587
876.778	15629
876.906	15485
877.034	15435
877.162	15614
877.29	15397
877.418	15515
877.546	15526
877.674	15492
877.802	15504
877.93	15526
878.058	15378
878.185	15408
878.313	15507
878.441	15466
878.568	15473
878.696	15420
878.824	15492
878.951	15587
879.079	15652
879.206	15785
879.333	15694
879.461	15622
879.588	15599
879.715	15724
879.842	15717
879.97	15504
880.097	15412
880.224	15355
880.351	15405
880.478	15351
880.605	15310
880.732	15374
880.859	15572
880.986	15420
881.112	15504
881.239	15249
881.366	15142
881.493	15108
881.619	15081
881.746	15112
881.872	15043
881.999	15066
882.125	14918
882.252	15070
882.378	15020
882.505	15207
882.631	14933
882.757	14914
882.883	14910
883.01	14838
883.136	14861
883.262	14781
883.388	14636
883.514	14891
883.64	14853
883.766	14769
883.892	14629
884.018	14727
884.143	14743
884.269	15062
884.395	14636
884.52	14552
884.646	14484
884.772	14480
884.897	14377
885.023	14610
885.148	14590
885.274	14727
885.399	14636
885.524	14507
885.65	14621
885.775	14617
885.9	14526
886.025	14602
886.15	14678
886.275	14488
886.4	14492
886.525	14522
886.65	14503
886.775	14503
886.9	14625
887.025	14785
887.149	14556
887.274	14381
887.399	14290
887.523	14427
887.648	14366
887.773	14324
887.897	14442
888.021	14434
888.146	14332
888.27	14438
888.395	14446
888.519	14385
888.643	14404
888.767	14438
888.891	14278
889.015	14256
889.139	14339
889.263	14218
889.387	14370
889.511	14442
889.635	14393
889.759	14240
889.883	14202
890.006	14195
890.13	14370
890.254	14149
890.377	14206
890.501	14081
890.624	14016
890.748	14088
890.871	13947
890.995	13883
891.118	13845
891.241	13856
891.364	13928
891.488	14069
891.611	14016
891.734	14016
891.857	13993
891.98	14005
892.103	14084
892.226	13940
892.349	13970
892.471	13856
892.594	13959
892.717	13932
892.839	13822
892.962	13936
893.085	14039
893.207	13947
893.33	13818
893.452	13932
893.575	14001
893.697	13928
893.819	14130
893.941	14164
894.064	14084
894.186	13951
894.308	14001
894.43	13963
894.552	14191
894.674	14149
894.796	13841
894.918	14058
895.04	14001
895.161	14096
895.283	14100
895.405	13982
895.526	14096
895.648	14016
895.769	14039
895.891	14111
896.012	14168
896.134	14088
896.255	14081
896.376	14031
896.498	14180
896.619	14172
896.74	14058
896.861	14183
896.982	14488
897.103	14632
897.224	14511
897.345	14366
897.466	14385
897.587	14454
897.708	14560
897.828	14374
897.949	14434
898.07	14267
898.19	14366
898.311	14434
898.431	14374
898.552	14503
898.672	14545
898.792	14594
898.913	14465
899.033	14408
899.153	14294
899.273	14370
899.393	14320
899.513	14362
899.633	14332
899.753	14332
899.873	14298
899.993	14351
900.113	14282
900.232	14412
900.352	14298
900.472	14237
900.591	14168
900.711	14233
900.83	14088
900.95	14305
901.069	14282
901.189	14058
901.308	13883
901.427	13791
901.546	14005
901.665	13871
901.784	13841
901.904	13807
902.023	13670
902.141	13483
902.26	13422
902.379	13480
902.498	13476
902.617	13400
902.735	13400
902.854	13400
902.973	13365
903.091	13202
903.21	13187
903.328	13206
903.446	13088
903.565	13069
903.683	12989
903.801	12951
903.919	13019
904.038	12966
904.156	12909
904.274	12844
904.392	12806
904.51	12753
904.627	12848
904.745	12867
904.863	12844
904.981	12749
905.098	12536
905.216	12532
905.334	12574
905.451	12433
905.569	12536
905.686	12536
905.803	12570
905.921	12315
906.038	12483
906.155	12380
906.272	12289
906.389	12235
906.506	12064
906.623	12171
906.74	12167
906.857	11996
906.974	11980
907.091	12155
907.208	12239
907.324	12167
907.441	12060
907.557	11912
907.674	11878
907.79	11813
907.907	11783
908.023	11977
908.139	11977
908.256	11745
908.372	11866
908.488	11813
908.604	11691
908.72	11589
908.836	11661
908.952	11608
909.068	11619
909.184	11714
909.3	11745
909.415	11718
909.531	11680
909.647	11417
909.762	11383
909.878	11379
909.993	11486
910.108	11406
910.224	11307
910.339	11337
910.454	11246
910.57	11299
910.685	11178
910.8	11467
910.915	11425
911.03	11322
911.145	11128
911.259	11071
911.374	11155
911.489	11056
911.604	10999
911.718	10877
911.833	10892
911.947	10839
912.062	10653
912.176	10767
912.291	10816
912.405	10850
912.519	11079
912.633	11105
912.748	10866
912.862	10831
912.976	10771
913.09	10668
913.204	10653
913.318	10740
913.431	10881
913.545	10824
913.659	10869
913.772	10774
913.886	10683
914	10645
914.113	10717
914.226	10805
914.34	10736
914.453	10485
914.566	10653
914.68	10596
914.793	10561
914.906	10409
915.019	10333
915.132	10348
915.245	10329
915.358	10341
915.47	10432
915.583	10432
915.696	10322
915.809	10554
915.921	10470
916.034	10382
916.146	10325
916.259	10287
916.371	10443
916.483	10417
916.595	10261
916.708	10337
916.82	10284
916.932	10306
917.044	10265
917.156	10272
917.268	10185
917.38	10185
917.491	10173
917.603	10207
917.715	10314
917.826	10371
917.938	10272
918.049	10082
918.161	10265
918.272	10421
918.384	10333
918.495	10249
918.606	10147
918.717	9968
918.828	10044
918.939	10093
919.05	9930
919.161	10082
919.272	9884
919.383	9987
919.494	10188
919.604	10299
919.715	10105
919.826	10010
919.936	10101
920.047	10135
920.157	10112
920.267	10284
920.378	10051
920.488	10082
920.598	10299
920.708	10417
920.818	10272
920.928	10310
921.038	10428
921.148	10508
921.258	10116
921.368	10078
921.477	10086
921.587	9960
921.697	9892
921.806	10013
921.916	9915
922.025	9698
922.134	9648
922.244	9595
922.353	9740
922.462	9564
922.571	9504
922.68	9378
922.789	9317
922.898	9344
923.007	9310
923.116	9431
923.224	9359
923.333	9428
923.442	9306
923.55	9230
923.659	9268
923.767	9329
923.876	9245
923.984	9279
924.092	9169
924.201	9245
924.309	9317
924.417	9184
924.525	9154
924.633	9222
924.741	9888
924.849	9039
924.956	9184
925.064	8971
925.172	8963
925.279	8956
925.387	9039
925.494	9036
925.602	9165
925.709	9062
925.816	8971
925.924	9043
926.031	9161
926.138	9009
926.245	9077
926.352	8979
926.459	9074
926.566	9116
926.673	8960
926.779	8876
926.886	8956
926.993	8762
927.099	8697
927.206	8781
927.312	8746
927.419	8826
927.525	8758
927.631	8811
927.737	8686
927.843	8659
927.95	8480
928.056	8640
928.162	8667
928.267	8678
928.373	9180
928.479	8773
928.585	8560
928.69	8571
928.796	8705
928.901	8545
929.007	8427
929.112	8530
929.218	8514
929.323	8488
929.428	8465
929.533	8583
929.638	8427
929.743	8450
929.848	8492
929.953	8492
930.058	8343
930.163	8218
930.267	8271
930.372	8336
930.477	8142
930.581	8389
930.685	8343
930.79	8199
930.894	8233
930.998	8145
931.103	8370
931.207	7959
931.311	7951
931.415	7830
931.519	7670
931.623	7677
