Data from test_V78500241_1951.txt Node
Date: Fri Mar 25 14:47:17 CST 2022
User: usil
Spectrometer: V785-0024
Trigger mode: 0
Integration Time (sec): 4.000000E-1
Scans to average: 1
Nonlinearity correction enabled: false
Boxcar width: 0
Storing dark spectrum: false
XAxis mode: Wavelengths
Number of Pixels in Spectrum: 1024
>>>>>Begin Spectral Data<<<<<
801.071	22063
801.214	21823
801.356	21656
801.499	21660
801.641	21439
801.783	21401
801.926	21587
802.068	21294
802.211	21302
802.353	21310
802.496	21036
802.638	20941
802.78	20933
802.923	20800
803.065	20754
803.208	20716
803.35	20830
803.492	20769
803.635	20975
803.777	20716
803.919	20963
804.061	21089
804.204	20800
804.346	20785
804.488	20678
804.63	20834
804.773	20746
804.915	20701
805.057	20842
805.199	20640
805.341	20743
805.483	20826
805.626	20781
805.768	20705
805.91	20731
806.052	20678
806.194	20606
806.336	20815
806.478	20697
806.62	20689
806.762	20712
806.904	21001
807.046	21165
807.188	21062
807.33	21028
807.472	21001
807.614	20887
807.756	21028
807.898	20845
808.04	20720
808.182	20693
808.324	20739
808.465	20830
808.607	20944
808.749	21032
808.891	21138
809.033	21245
809.174	21207
809.316	21070
809.458	21058
809.6	21001
809.741	21036
809.883	21119
810.025	21351
810.166	21264
810.308	21237
810.45	21195
810.591	21062
810.733	20891
810.875	20864
811.016	20701
811.158	20670
811.299	20792
811.441	20944
811.582	20956
811.724	20773
811.865	20731
812.007	20739
812.148	20857
812.29	20902
812.431	21005
812.573	21077
812.714	21203
812.855	21405
812.997	21416
813.138	21576
813.279	21367
813.421	21313
813.562	21291
813.703	21154
813.845	20880
813.986	20792
814.127	20598
814.268	20503
814.41	20419
814.551	20450
814.692	20377
814.833	20309
814.974	20393
815.115	20446
815.256	20172
815.397	20233
815.539	20195
815.68	20088
815.821	20088
815.962	20119
816.103	20157
816.244	20027
816.385	19879
816.526	19982
816.666	19643
816.807	19529
816.948	19632
817.089	19738
817.23	19575
817.371	19483
817.512	19556
817.653	19438
817.793	19426
817.934	19434
818.075	19597
818.216	19464
818.356	19415
818.497	19358
818.638	19206
818.778	19164
818.919	19217
819.06	19160
819.2	19304
819.341	19419
819.481	19384
819.622	19537
819.762	19803
819.903	19708
820.043	19575
820.184	19635
820.324	19453
820.465	19563
820.605	19620
820.746	19594
820.886	19457
821.026	19487
821.167	19403
821.307	19354
821.447	19540
821.588	19312
821.728	19225
821.868	19080
822.008	18913
822.149	18913
822.289	18837
822.429	18623
822.569	18525
822.709	18532
822.849	18410
822.99	18273
823.13	18410
823.27	18304
823.41	18209
823.55	18159
823.69	18285
823.83	18273
823.97	18136
824.11	18076
824.25	17977
824.389	17961
824.529	18015
824.669	18003
824.809	18068
824.949	18003
825.089	18022
825.228	18053
825.368	17863
825.508	17707
825.648	17798
825.787	17843
825.927	17775
826.067	17634
826.206	17745
826.346	17802
826.485	17752
826.625	17821
826.765	17851
826.904	17703
827.044	17615
827.183	17436
827.323	17391
827.462	17547
827.601	17402
827.741	17516
827.88	17410
828.02	17360
828.159	17509
828.298	17535
828.437	17543
828.577	17425
828.716	17421
828.855	17490
828.994	17284
829.134	17242
829.273	17261
829.412	17189
829.551	17197
829.69	17200
829.829	17174
829.968	17322
830.107	17349
830.246	17261
830.385	17109
830.524	17254
830.663	17041
830.802	16911
830.941	16835
831.08	16721
831.219	16908
831.357	16919
831.496	17071
831.635	16793
831.774	16603
831.913	16809
832.051	16759
832.19	16637
832.329	16679
832.467	16584
832.606	16519
832.744	16493
832.883	16630
833.022	16596
833.16	16500
833.299	16519
833.437	16580
833.576	16577
833.714	16653
833.852	16542
833.991	16561
834.129	16641
834.267	16607
834.406	16615
834.544	16641
834.682	16607
834.821	16641
834.959	16793
835.097	16683
835.235	16664
835.373	16584
835.511	16710
835.65	16527
835.788	16497
835.926	16299
836.064	16314
836.202	16360
836.34	16588
836.478	16527
836.615	16489
836.753	16462
836.891	16603
837.029	16569
837.167	16531
837.305	16421
837.443	16432
837.58	16375
837.718	16443
837.856	16390
837.993	16394
838.131	16428
838.269	16303
838.406	16310
838.544	16272
838.681	16135
838.819	16105
838.956	15934
839.094	15915
839.231	16063
839.369	16131
839.506	16348
839.643	16135
839.781	16013
839.918	15892
840.055	15937
840.193	16074
840.33	15838
840.467	16010
840.604	16013
840.742	16188
840.879	15778
841.016	15831
841.153	15892
841.29	15991
841.427	15979
841.564	16017
841.701	15854
841.838	15861
841.975	15838
842.112	15827
842.249	15644
842.385	15732
842.522	15945
842.659	15812
842.796	15675
842.933	15724
843.069	15694
843.206	15610
843.343	15816
843.479	15785
843.616	15682
843.752	15572
843.889	15496
844.025	15675
844.162	15519
844.298	15679
844.435	15466
844.571	15523
844.708	15580
844.844	15679
844.98	15671
845.117	15690
845.253	15389
845.389	15386
845.525	15378
845.661	15431
845.798	15226
845.934	15431
846.07	15188
846.206	15408
846.342	15443
846.478	15302
846.614	15089
846.75	14960
846.886	15077
847.022	15131
847.158	15001
847.294	15138
847.429	15157
847.565	15005
847.701	15348
847.837	14815
847.972	14807
848.108	14899
848.244	14948
848.379	14651
848.515	14663
848.65	14739
848.786	14644
848.921	14655
849.057	14842
849.192	14804
849.328	14750
849.463	14750
849.598	14610
849.734	14648
849.869	14571
850.004	14488
850.14	14518
850.275	14473
850.41	14404
850.545	14404
850.68	14431
850.815	14423
850.95	14431
851.085	14686
851.22	14552
851.355	14495
851.49	14469
851.625	14484
851.76	14366
851.895	14377
852.03	14343
852.165	14427
852.299	14545
852.434	14556
852.569	14560
852.703	14473
852.838	14518
852.973	14587
853.107	14629
853.242	14381
853.376	14339
853.511	14172
853.645	14267
853.78	14358
853.914	14385
854.048	14355
854.183	14240
854.317	14324
854.451	14434
854.585	14347
854.72	14320
854.854	14259
854.988	14347
855.122	14259
855.256	14149
855.39	14294
855.524	14385
855.658	14442
855.792	14366
855.926	14374
856.06	14377
856.194	14461
856.327	14298
856.461	14210
856.595	14286
856.729	14309
856.862	14351
856.996	14210
857.13	14461
857.263	14442
857.397	14446
857.53	14362
857.664	14446
857.797	14393
857.931	14465
858.064	14332
858.197	14450
858.331	14286
858.464	14290
858.597	14237
858.731	14320
858.864	14240
858.997	14351
859.13	14332
859.263	14381
859.396	14355
859.529	14343
859.662	14256
859.795	14180
859.928	14385
860.061	14446
860.194	14476
860.327	14427
860.46	14370
860.592	14404
860.725	14473
860.858	14488
860.99	14366
861.123	14381
861.256	14161
861.388	14298
861.521	15017
861.653	14278
861.786	14073
861.918	14161
862.05	14191
862.183	14218
862.315	14267
862.447	14324
862.58	14168
862.712	14161
862.844	14058
862.976	14191
863.108	14168
863.24	14393
863.372	14065
863.504	14164
863.636	14145
863.768	14206
863.9	14172
864.032	14054
864.164	14069
864.296	14096
864.428	14263
864.559	14134
864.691	14157
864.823	14237
864.954	14161
865.086	14054
865.217	14012
865.349	13993
865.48	14157
865.612	14199
865.743	14191
865.875	14031
866.006	14039
866.137	14077
866.269	14111
866.4	14088
866.531	14084
866.662	14001
866.793	14039
866.924	14039
867.055	14073
867.186	14088
867.317	14069
867.448	13936
867.579	13925
867.71	14024
867.841	13993
867.972	14142
868.103	14081
868.233	14069
868.364	14088
868.495	14054
868.625	14275
868.756	14442
868.886	14256
869.017	14336
869.147	14393
869.278	14396
869.408	14351
869.539	14343
869.669	14408
869.799	14450
869.929	14396
870.06	14495
870.19	14663
870.32	14602
870.45	14621
870.58	14705
870.71	14785
870.84	14830
870.97	14834
871.1	14750
871.23	14842
871.36	14914
871.489	14861
871.619	14883
871.749	14979
871.879	14948
872.008	15013
872.138	15039
872.267	14956
872.397	14876
872.526	14815
872.656	14773
872.785	14773
872.915	14921
873.044	15074
873.173	14967
873.303	15017
873.432	15039
873.561	14982
873.69	14963
873.819	15005
873.948	15055
874.077	14990
874.206	14971
874.335	15036
874.464	15127
874.593	15222
874.722	15188
874.851	15256
874.979	15306
875.108	15332
875.237	15279
875.365	15142
875.494	15245
875.623	15332
875.751	15310
875.88	15283
876.008	15519
876.136	15584
876.265	15793
876.393	15838
876.521	15755
876.65	15679
876.778	15800
876.906	15618
877.034	15580
877.162	15660
877.29	15545
877.418	15667
877.546	15812
877.674	15663
877.802	15785
877.93	15679
878.058	15675
878.185	15568
878.313	15812
878.441	15682
878.568	15599
878.696	15557
878.824	15766
878.951	15751
879.079	15850
879.206	16010
879.333	15819
879.461	15751
879.588	15755
879.715	15892
879.842	16032
879.97	15781
880.097	15633
880.224	15561
880.351	15557
880.478	15637
880.605	15515
880.732	15606
880.859	15876
880.986	15481
881.112	15660
881.239	15428
881.366	15249
881.493	15230
881.619	15188
881.746	15135
881.872	15218
881.999	15195
882.125	15138
882.252	15382
882.378	15260
882.505	15302
882.631	15252
882.757	15032
882.883	15157
883.01	14998
883.136	14990
883.262	14941
883.388	14853
883.514	15104
883.64	15047
883.766	15020
883.892	14853
884.018	14914
884.143	15051
884.269	15112
884.395	14693
884.52	14739
884.646	14731
884.772	14651
884.897	14610
885.023	14864
885.148	14838
885.274	14891
885.399	14902
885.524	14762
885.65	14754
885.775	14682
885.9	14689
886.025	14872
886.15	14876
886.275	14632
886.4	14644
886.525	14705
886.65	14663
886.775	14762
886.9	14906
887.025	14963
887.149	14720
887.274	14484
887.399	14473
887.523	14560
887.648	14488
887.773	14518
887.897	14598
888.021	14727
888.146	14537
888.27	14613
888.395	14693
888.519	14621
888.643	14667
888.767	14678
888.891	14480
889.015	14457
889.139	14495
889.263	14324
889.387	14499
889.511	14587
889.635	14636
889.759	14450
889.883	14419
890.006	14480
890.13	14427
890.254	14400
890.377	14450
890.501	14225
890.624	14202
890.748	14286
890.871	14168
890.995	14145
891.118	14008
891.241	14187
891.364	14206
891.488	14263
891.611	14134
891.734	14126
891.857	14172
891.98	14199
892.103	14195
892.226	14206
892.349	14119
892.471	14020
892.594	14027
892.717	14183
892.839	14100
892.962	14130
893.085	14199
893.207	14077
893.33	14008
893.452	14145
893.575	14157
893.697	14081
893.819	14374
893.941	14419
894.064	14225
894.186	14050
894.308	14115
894.43	14301
894.552	14381
894.674	14256
894.796	14134
894.918	14180
895.04	14138
895.161	14286
895.283	14313
895.405	14183
895.526	14286
895.648	14252
895.769	14191
895.891	14328
896.012	14317
896.134	14347
896.255	14328
896.376	14286
896.498	14351
896.619	14431
896.74	14309
896.861	14351
896.982	14674
897.103	14792
897.224	14651
897.345	14598
897.466	14564
897.587	14499
897.708	14655
897.828	14613
897.949	14511
898.07	14377
898.19	14476
898.311	14659
898.431	14556
898.552	14625
898.672	14625
898.792	14765
898.913	14697
899.033	14575
899.153	14549
899.273	14446
899.393	14560
899.513	14526
899.633	14476
899.753	14583
899.873	14385
899.993	14590
900.113	14518
900.232	14533
900.352	14526
900.472	14423
900.591	14343
900.711	14415
900.83	14324
900.95	14427
901.069	14457
901.189	14309
901.308	14092
901.427	13959
901.546	14054
901.665	14046
901.784	14058
901.904	13841
902.023	13875
902.141	13769
902.26	13548
902.379	13670
902.498	13636
902.617	13651
902.735	13666
902.854	13552
902.973	13525
903.091	13362
903.21	13304
903.328	13312
903.446	13263
903.565	13164
903.683	13240
903.801	12981
903.919	13228
904.038	13129
904.156	12966
904.274	13034
904.392	13008
904.51	12954
904.627	12966
904.745	13126
904.863	12970
904.981	12825
905.098	12715
905.216	12719
905.334	12677
905.451	12692
905.569	12677
905.686	12726
905.803	12711
905.921	12517
906.038	12650
906.155	12574
906.272	12346
906.389	12403
906.506	12308
906.623	12209
906.74	12254
906.857	12182
906.974	12201
907.091	12296
907.208	12418
907.324	12300
907.441	12292
907.557	12064
907.674	12057
907.79	12038
907.907	12087
908.023	12049
908.139	11988
908.256	11912
908.372	11954
908.488	11950
908.604	11824
908.72	11710
908.836	11836
908.952	11699
909.068	11809
909.184	11878
909.3	11855
909.415	11855
909.531	11794
909.647	11558
909.762	11554
909.878	11524
909.993	11551
910.108	11585
910.224	11539
910.339	11566
910.454	11532
910.57	11326
910.685	11379
910.8	11558
910.915	11570
911.03	11406
911.145	11193
911.259	11239
911.374	11250
911.489	11147
911.604	11181
911.718	10961
911.833	11025
911.947	10858
912.062	10908
912.176	11041
912.291	11003
912.405	10953
912.519	11189
912.633	11216
912.748	11117
912.862	11128
912.976	10900
913.09	10710
913.204	10824
913.318	10915
913.431	10961
913.545	10923
913.659	10976
913.772	10862
913.886	10721
914	10771
914.113	10847
914.226	10881
914.34	10862
914.453	10721
914.566	10790
914.68	10790
914.793	10714
914.906	10558
915.019	10455
915.132	10451
915.245	10516
915.358	10538
915.47	10538
915.583	10554
915.696	10573
915.809	10645
915.921	10710
916.034	10542
916.146	10436
916.259	10451
916.371	10592
916.483	10535
916.595	10428
916.708	10512
916.82	10447
916.932	10352
917.044	10394
917.156	10485
917.268	10390
917.38	10303
917.491	10337
917.603	10402
917.715	10447
917.826	10440
917.938	10253
918.049	10295
918.161	10367
918.272	10462
918.384	10497
918.495	10455
918.606	10242
918.717	10086
918.828	10158
918.939	10276
919.05	10109
919.161	10223
919.272	9987
919.383	10154
919.494	10337
919.604	10424
919.715	10192
919.826	10249
919.936	10173
920.047	10367
920.157	10295
920.267	10428
920.378	10219
920.488	10211
920.598	10478
920.708	10607
920.818	10390
920.928	10424
921.038	10603
921.148	10554
921.258	10299
921.368	10177
921.477	10029
921.587	10032
921.697	9964
921.806	10109
921.916	10010
922.025	9827
922.134	9827
922.244	9690
922.353	9819
922.462	9660
922.571	9698
922.68	9477
922.789	9462
922.898	9462
923.007	9450
923.116	9542
923.224	9572
923.333	9504
923.442	9325
923.55	9351
923.659	9420
923.767	9428
923.876	9332
923.984	9416
924.092	9329
924.201	9363
924.309	9348
924.417	9401
924.525	9294
924.633	9355
924.741	10310
924.849	9138
924.956	9283
925.064	9077
925.172	9043
925.279	9020
925.387	9199
925.494	9184
925.602	9260
925.709	9253
925.816	9062
925.924	9192
926.031	9214
926.138	9211
926.245	9184
926.352	9093
926.459	9161
926.566	9245
926.673	9116
926.779	8960
926.886	9039
926.993	8914
927.099	8853
927.206	8785
927.312	8769
927.419	8918
927.525	8823
927.631	8838
927.737	8716
927.843	8819
927.95	8697
928.056	8777
928.162	8788
928.267	8800
928.373	9367
928.479	8815
928.585	8613
928.69	8705
928.796	8754
928.901	8640
929.007	8560
929.112	8674
929.218	8579
929.323	8613
929.428	8568
929.533	8754
929.638	8503
929.743	8583
929.848	8629
929.953	8511
930.058	8438
930.163	8328
930.267	8336
930.372	8522
930.477	8275
930.581	8568
930.685	8336
930.79	8256
930.894	8377
930.998	8225
931.103	8431
931.207	8073
931.311	7974
931.415	7959
931.519	7822
931.623	7795
