Data from test_V78500241_492.txt Node
Date: Fri Mar 25 14:37:08 CST 2022
User: usil
Spectrometer: V785-0024
Trigger mode: 0
Integration Time (sec): 4.000000E-1
Scans to average: 1
Nonlinearity correction enabled: false
Boxcar width: 0
Storing dark spectrum: false
XAxis mode: Wavelengths
Number of Pixels in Spectrum: 1024
>>>>>Begin Spectral Data<<<<<
801.071	26621
801.214	26453
801.356	26358
801.499	26176
801.641	26122
801.783	26001
801.926	26100
802.068	26035
802.211	25921
802.353	25902
802.496	25597
802.638	25704
802.78	25582
802.923	25502
803.065	25510
803.208	25518
803.35	25472
803.492	25635
803.635	25677
803.777	25609
803.919	25556
804.061	25947
804.204	25632
804.346	25529
804.488	25468
804.63	25594
804.773	25377
804.915	25499
805.057	25742
805.199	25578
805.341	25491
805.483	25772
805.626	25594
805.768	25533
805.91	25510
806.052	25548
806.194	25582
806.336	25757
806.478	25586
806.62	25559
806.762	25655
806.904	25879
807.046	26145
807.188	25940
807.33	25811
807.472	26111
807.614	26005
807.756	25925
807.898	25788
808.04	25799
808.182	25909
808.324	25955
808.465	26008
808.607	26305
808.749	26282
808.891	26594
809.033	26712
809.174	26545
809.316	26503
809.458	26298
809.6	26290
809.741	26332
809.883	26157
810.025	26324
810.166	26248
810.308	26305
810.45	26278
810.591	26221
810.733	25978
810.875	26016
811.016	25902
811.158	25742
811.299	26031
811.441	26031
811.582	26088
811.724	25845
811.865	25898
812.007	25875
812.148	25909
812.29	25803
812.431	25970
812.573	26122
812.714	26328
812.855	26336
812.997	26461
813.138	26590
813.279	26476
813.421	26393
813.562	26161
813.703	26142
813.845	26065
813.986	25890
814.127	25586
814.268	25544
814.41	25426
814.551	25518
814.692	25441
814.833	25411
814.974	25270
815.115	25388
815.256	25110
815.397	25171
815.539	25263
815.68	25263
815.821	25168
815.962	25183
816.103	25164
816.244	25015
816.385	24810
816.526	24878
816.666	24726
816.807	24570
816.948	24540
817.089	24589
817.23	24623
817.371	24604
817.512	24585
817.653	24456
817.793	24498
817.934	24608
818.075	24555
818.216	24471
818.356	24365
818.497	24422
818.638	24133
818.778	24155
818.919	24095
819.06	24273
819.2	24277
819.341	24395
819.481	24380
819.622	24563
819.762	24665
819.903	24642
820.043	24658
820.184	24505
820.324	24528
820.465	24654
820.605	24688
820.746	24452
820.886	24319
821.026	24509
821.167	24407
821.307	24475
821.447	24357
821.588	24239
821.728	24098
821.868	24007
822.008	23824
822.149	23908
822.289	23794
822.429	23665
822.569	23585
822.709	23448
822.849	23398
822.99	23239
823.13	23318
823.27	23174
823.41	23185
823.55	22976
823.69	23121
823.83	23086
823.97	22972
824.11	22873
824.25	22801
824.389	22911
824.529	22896
824.669	22839
824.809	22965
824.949	22957
825.089	23037
825.228	22930
825.368	22805
825.508	22691
825.648	22759
825.787	22717
825.927	22767
826.067	22687
826.206	22748
826.346	22786
826.485	22744
826.625	22717
826.765	22797
826.904	22691
827.044	22417
827.183	22390
827.323	22287
827.462	22337
827.601	22261
827.741	22325
827.88	22341
828.02	22284
828.159	22287
828.298	22325
828.437	22322
828.577	22276
828.716	22478
828.855	22287
828.994	22082
829.134	21998
829.273	22090
829.412	21979
829.551	22010
829.69	21945
829.829	22051
829.968	22143
830.107	22131
830.246	22036
830.385	21903
830.524	21842
830.663	21766
830.802	21667
830.941	21705
831.08	21629
831.219	21656
831.357	21698
831.496	21880
831.635	21625
831.774	21526
831.913	21462
832.051	21389
832.19	21351
832.329	21370
832.467	21332
832.606	21283
832.744	21211
832.883	21203
833.022	21249
833.16	21218
833.299	21306
833.437	21256
833.576	21310
833.714	21355
833.852	21382
833.991	21355
834.129	21374
834.267	21393
834.406	21249
834.544	21378
834.682	21351
834.821	21264
834.959	21473
835.097	21207
835.235	21180
835.373	21245
835.511	21287
835.65	21127
835.788	21138
835.926	20891
836.064	20880
836.202	20906
836.34	21028
836.478	21173
836.615	21062
836.753	21165
836.891	21207
837.029	21096
837.167	21146
837.305	21032
837.443	20963
837.58	20891
837.718	20941
837.856	21028
837.993	20929
838.131	20861
838.269	20807
838.406	20857
838.544	20868
838.681	20720
838.819	20613
838.956	20450
839.094	20594
839.231	20549
839.369	20503
839.506	20811
839.643	20602
839.781	20404
839.918	20278
840.055	20450
840.193	20423
840.33	20252
840.467	20366
840.604	20374
840.742	20579
840.879	20164
841.016	20286
841.153	20145
841.29	20400
841.427	20320
841.564	20195
841.701	20343
841.838	20210
841.975	20309
842.112	20206
842.249	20134
842.385	20012
842.522	20206
842.659	20149
842.796	20027
842.933	19982
843.069	19989
843.206	20073
843.343	20062
843.479	20065
843.616	19993
843.752	19799
843.889	19849
844.025	19959
844.162	19799
844.298	19845
844.435	19811
844.571	19814
844.708	19830
844.844	19944
844.98	20005
845.117	19982
845.253	19841
845.389	19803
845.525	19902
845.661	20039
845.798	20046
845.934	20263
846.07	20263
846.206	20237
846.342	20328
846.478	19887
846.614	19632
846.75	19419
846.886	19350
847.022	19472
847.158	19331
847.294	19312
847.429	19110
847.565	19175
847.701	19483
847.837	18962
847.972	18973
848.108	19148
848.244	19126
848.379	18954
848.515	18795
848.65	18806
848.786	18852
848.921	18859
849.057	18890
849.192	18802
849.328	18787
849.463	18863
849.598	18760
849.734	18738
849.869	18753
850.004	18570
850.14	18452
850.275	18559
850.41	18566
850.545	18532
850.68	18517
850.815	18601
850.95	18585
851.085	18681
851.22	18604
851.355	18570
851.49	18536
851.625	18528
851.76	18490
851.895	18471
852.03	18399
852.165	18517
852.299	18513
852.434	18559
852.569	18547
852.703	18540
852.838	18601
852.973	18661
853.107	18623
853.242	18346
853.376	18304
853.511	18353
853.645	18395
853.78	18391
853.914	18483
854.048	18357
854.183	18384
854.317	18315
854.451	18513
854.585	18311
854.72	18372
854.854	18448
854.988	18247
855.122	18350
855.256	18152
855.39	18319
855.524	18456
855.658	18399
855.792	18361
855.926	18426
856.06	18460
856.194	18494
856.327	18361
856.461	18262
856.595	18372
856.729	18365
856.862	18486
856.996	18376
857.13	18403
857.263	18429
857.397	18448
857.53	18384
857.664	18407
857.797	18315
857.931	18403
858.064	18365
858.197	18319
858.331	18372
858.464	18159
858.597	18224
858.731	18235
858.864	18300
858.997	18273
859.13	18315
859.263	18330
859.396	18369
859.529	18342
859.662	18296
859.795	18311
859.928	18464
860.061	18388
860.194	18460
860.327	18391
860.46	18292
860.592	18407
860.725	18513
860.858	18380
860.99	18251
861.123	18068
861.256	18300
861.388	18296
861.521	18920
861.653	18117
861.786	18152
861.918	18121
862.05	18342
862.183	18300
862.315	18407
862.447	18262
862.58	18315
862.712	18110
862.844	17923
862.976	18155
863.108	18121
863.24	18532
863.372	17992
863.504	17958
863.636	18110
863.768	18007
863.9	18038
864.032	18053
864.164	17946
864.296	18140
864.428	18159
864.559	18167
864.691	17988
864.823	18087
864.954	18026
865.086	18110
865.217	17908
865.349	17939
865.48	17916
865.612	17935
865.743	18163
865.875	18019
866.006	17855
866.137	17908
866.269	17843
866.4	18015
866.531	17950
866.662	17760
866.793	17889
866.924	17828
867.055	18026
867.186	17927
867.317	17783
867.448	17821
867.579	17851
867.71	17870
867.841	17843
867.972	17893
868.103	17817
868.233	17939
868.364	17889
868.495	17980
868.625	18114
868.756	18213
868.886	17999
869.017	18095
869.147	18254
869.278	18209
869.408	18136
869.539	18213
869.669	18171
869.799	18213
869.929	18270
870.06	18247
870.19	18441
870.32	18422
870.45	18353
870.58	18559
870.71	18749
870.84	18544
870.97	18498
871.1	18494
871.23	18707
871.36	18738
871.489	18601
871.619	18589
871.749	18719
871.879	18844
872.008	18825
872.138	18768
872.267	18688
872.397	18635
872.526	18498
872.656	18589
872.785	18551
872.915	18890
873.044	18776
873.173	18681
873.303	18806
873.432	18741
873.561	18806
873.69	18734
873.819	18730
873.948	18738
874.077	18802
874.206	18700
874.335	18764
874.464	18943
874.593	19072
874.722	19065
874.851	19038
874.979	19034
875.108	19129
875.237	18954
875.365	18935
875.494	19015
875.623	19042
875.751	19042
875.88	19053
876.008	19168
876.136	19392
876.265	19480
876.393	19453
876.521	19548
876.65	19396
876.778	19483
876.906	19407
877.034	19316
877.162	19381
877.29	19346
877.418	19449
877.546	19521
877.674	19472
877.802	19415
877.93	19468
878.058	19422
878.185	19274
878.313	19426
878.441	19495
878.568	19400
878.696	19464
878.824	19476
878.951	19674
879.079	19761
879.206	19932
879.333	19830
879.461	19719
879.588	19864
879.715	19856
879.842	19963
879.97	19795
880.097	19620
880.224	19381
880.351	19438
880.478	19289
880.605	19365
880.732	19434
880.859	19548
880.986	19377
881.112	19430
881.239	19263
881.366	19008
881.493	18951
881.619	18970
881.746	18970
881.872	18932
881.999	18894
882.125	18844
882.252	19057
882.378	18947
882.505	19008
882.631	18897
882.757	18635
882.883	18711
883.01	18806
883.136	18776
883.262	18684
883.388	18642
883.514	18669
883.64	18726
883.766	18738
883.892	18448
884.018	18563
884.143	18738
884.269	18783
884.395	18467
884.52	18346
884.646	18418
884.772	18376
884.897	18380
885.023	18338
885.148	18608
885.274	18540
885.399	18525
885.524	18441
885.65	18422
885.775	18429
885.9	18376
886.025	18422
886.15	18418
886.275	18346
886.4	18239
886.525	18205
886.65	18327
886.775	18304
886.9	18422
887.025	18525
887.149	18388
887.274	18190
887.399	18174
887.523	18079
887.648	18057
887.773	18007
887.897	18243
888.021	18163
888.146	18019
888.27	18110
888.395	18300
888.519	18114
888.643	18205
888.767	18152
888.891	18053
889.015	17973
889.139	17954
889.263	17889
889.387	17992
889.511	18117
889.635	18030
889.759	17855
889.883	17767
890.006	17965
890.13	17950
890.254	17870
890.377	17764
890.501	17699
890.624	17703
890.748	17809
890.871	17630
890.995	17547
891.118	17486
891.241	17490
891.364	17539
891.488	17687
891.611	17444
891.734	17455
891.857	17592
891.98	17524
892.103	17642
892.226	17600
892.349	17570
892.471	17364
892.594	17505
892.717	17467
892.839	17505
892.962	17554
893.085	17516
893.207	17577
893.33	17330
893.452	17299
893.575	17505
893.697	17532
893.819	17630
893.941	17592
894.064	17573
894.186	17376
894.308	17440
894.43	17539
894.552	17535
894.674	17615
894.796	17467
894.918	17486
895.04	17440
895.161	17573
895.283	17573
895.405	17501
895.526	17490
895.648	17486
895.769	17543
895.891	17570
896.012	17718
896.134	17467
896.255	17528
896.376	17497
896.498	17520
896.619	17566
896.74	17501
896.861	17649
896.982	18007
897.103	17988
897.224	17874
897.345	17718
897.466	17821
897.587	17752
897.708	18030
897.828	17908
897.949	17790
898.07	17680
898.19	17707
898.311	17863
898.431	17813
898.552	17836
898.672	17942
898.792	17824
898.913	17874
899.033	17668
899.153	17649
899.273	17535
899.393	17524
899.513	17676
899.633	17630
899.753	17608
899.873	17585
899.993	17611
900.113	17528
900.232	17630
900.352	17463
900.472	17547
900.591	17452
900.711	17512
900.83	17360
900.95	17398
901.069	17528
901.189	17376
901.308	17121
901.427	17064
901.546	17052
901.665	17071
901.784	17113
901.904	16889
902.023	16889
902.141	16717
902.26	16554
902.379	16603
902.498	16542
902.617	16554
902.735	16611
902.854	16683
902.973	16523
903.091	16196
903.21	16306
903.328	16295
903.446	16169
903.565	16051
903.683	16074
903.801	15899
903.919	16002
904.038	16032
904.156	15915
904.274	15941
904.392	15888
904.51	15781
904.627	15850
904.745	15930
904.863	15964
904.981	15606
905.098	15447
905.216	15511
905.334	15450
905.451	15538
905.569	15507
905.686	15564
905.803	15492
905.921	15275
906.038	15504
906.155	15340
906.272	15138
906.389	15138
906.506	15077
906.623	15051
906.74	15028
906.857	14986
906.974	15001
907.091	15081
907.208	15127
907.324	15154
907.441	14876
907.557	14807
907.674	14712
907.79	14697
907.907	14750
908.023	14819
908.139	14785
908.256	14632
908.372	14564
908.488	14674
908.604	14545
908.72	14446
908.836	14492
908.952	14374
909.068	14465
909.184	14560
909.3	14454
909.415	14469
909.531	14488
909.647	14161
909.762	14168
909.878	14199
909.993	14164
910.108	14191
910.224	14176
910.339	14259
910.454	14020
910.57	13997
910.685	13944
910.8	14244
910.915	14161
911.03	14012
911.145	13890
911.259	13811
911.374	13849
911.489	13765
911.604	13708
911.718	13556
911.833	13594
911.947	13457
912.062	13438
912.176	13609
912.291	13487
912.405	13548
912.519	13700
912.633	13776
912.748	13548
912.862	13605
912.976	13430
913.09	13331
913.204	13339
913.318	13426
913.431	13502
913.545	13468
913.659	13453
913.772	13411
913.886	13228
914	13190
914.113	13324
914.226	13293
914.34	13365
914.453	13133
914.566	13285
914.68	13202
914.793	13061
914.906	12863
915.019	12951
915.132	12738
915.245	12897
915.358	12894
915.47	12909
915.583	12844
915.696	12985
915.809	13118
915.921	13107
916.034	12913
916.146	12787
916.259	12859
916.371	12935
916.483	12837
916.595	12814
916.708	12684
916.82	12791
916.932	12764
917.044	12772
917.156	12791
917.268	12707
917.38	12597
917.491	12673
917.603	12627
917.715	12726
917.826	12688
917.938	12570
918.049	12509
918.161	12570
918.272	12662
918.384	12783
918.495	12677
918.606	12498
918.717	12372
918.828	12445
918.939	12464
919.05	12365
919.161	12365
919.272	12190
919.383	12395
919.494	12521
919.604	12639
919.715	12448
919.826	12296
919.936	12414
920.047	12471
920.157	12395
920.267	12506
920.378	12365
920.488	12407
920.598	12665
920.708	12700
920.818	12585
920.928	12608
921.038	12734
921.148	12608
921.258	12471
921.368	12323
921.477	12205
921.587	12197
921.697	11984
921.806	12186
921.916	12129
922.025	11992
922.134	11866
922.244	11828
922.353	11851
922.462	11752
922.571	11676
922.68	11532
922.789	11592
922.898	11520
923.007	11486
923.116	11562
923.224	11577
923.333	11482
923.442	11376
923.55	11448
923.659	11421
923.767	11395
923.876	11315
923.984	11433
924.092	11349
924.201	11417
924.309	11303
924.417	11265
924.525	11261
924.633	11299
924.741	12186
924.849	10987
924.956	11216
925.064	11121
925.172	10991
925.279	11006
925.387	11098
925.494	11041
925.602	11201
925.709	11178
925.816	11048
925.924	11071
926.031	11105
926.138	11045
926.245	11086
926.352	10961
926.459	11037
926.566	11113
926.673	10972
926.779	10869
926.886	10824
926.993	10656
927.099	10637
927.206	10615
927.312	10611
927.419	10691
927.525	10580
927.631	10839
927.737	10577
927.843	10481
927.95	10447
928.056	10577
928.162	10550
928.267	10554
928.373	11086
928.479	10668
928.585	10432
928.69	10500
928.796	10584
928.901	10398
929.007	10303
929.112	10405
929.218	10382
929.323	10375
929.428	10413
929.533	10405
929.638	10253
929.743	10261
929.848	10337
929.953	10211
930.058	10200
930.163	10063
930.267	10044
930.372	10082
930.477	10067
930.581	10284
930.685	10109
930.79	9934
930.894	10040
930.998	9975
931.103	9934
931.207	9740
931.311	9637
931.415	9568
931.519	9473
931.623	9351
