Data from test_V78500241_1013.txt Node
Date: Fri Mar 25 14:40:46 CST 2022
User: usil
Spectrometer: V785-0024
Trigger mode: 0
Integration Time (sec): 4.000000E-1
Scans to average: 1
Nonlinearity correction enabled: false
Boxcar width: 0
Storing dark spectrum: false
XAxis mode: Wavelengths
Number of Pixels in Spectrum: 1024
>>>>>Begin Spectral Data<<<<<
801.071	22862
801.214	22961
801.356	22626
801.499	22599
801.641	22508
801.783	22291
801.926	22344
802.068	22402
802.211	22226
802.353	22124
802.496	21892
802.638	21865
802.78	21850
802.923	21949
803.065	21800
803.208	21705
803.35	21618
803.492	21785
803.635	21816
803.777	21743
803.919	21713
804.061	22040
804.204	21804
804.346	21671
804.488	21622
804.63	21618
804.773	21561
804.915	21675
805.057	21686
805.199	21675
805.341	21671
805.483	21755
805.626	21732
805.768	21583
805.91	21701
806.052	21717
806.194	21618
806.336	21880
806.478	21713
806.62	21717
806.762	21808
806.904	21869
807.046	22112
807.188	22055
807.33	22265
807.472	22162
807.614	22162
807.756	22230
807.898	22219
808.04	22166
808.182	22215
808.324	22371
808.465	22478
808.607	22801
808.749	23060
808.891	23200
809.033	23174
809.174	22991
809.316	22843
809.458	22778
809.6	22660
809.741	22577
809.883	22379
810.025	22443
810.166	22573
810.308	22481
810.45	22367
810.591	22295
810.733	22055
810.875	22177
811.016	21899
811.158	21911
811.299	22059
811.441	22078
811.582	22048
811.724	21968
811.865	21823
812.007	21964
812.148	21880
812.29	21797
812.431	22013
812.573	22097
812.714	22173
812.855	22447
812.997	22584
813.138	22736
813.279	22481
813.421	22348
813.562	22371
813.703	22223
813.845	22021
813.986	21724
814.127	21603
814.268	21504
814.41	21481
814.551	21564
814.692	21614
814.833	21458
814.974	21485
815.115	21397
815.256	21192
815.397	21298
815.539	21218
815.68	21119
815.821	21009
815.962	21192
816.103	21211
816.244	20956
816.385	20914
816.526	20887
816.666	20708
816.807	20587
816.948	20655
817.089	20731
817.23	20609
817.371	20514
817.512	20488
817.653	20575
817.793	20427
817.934	20602
818.075	20522
818.216	20587
818.356	20484
818.497	20332
818.638	20187
818.778	20210
818.919	20191
819.06	20256
819.2	20252
819.341	20434
819.481	20343
819.622	20621
819.762	20686
819.903	20625
820.043	20648
820.184	20598
820.324	20530
820.465	20575
820.605	20556
820.746	20579
820.886	20347
821.026	20537
821.167	20514
821.307	20686
821.447	20583
821.588	20229
821.728	20355
821.868	20168
822.008	19898
822.149	19974
822.289	19898
822.429	19761
822.569	19616
822.709	19563
822.849	19476
822.99	19464
823.13	19422
823.27	19175
823.41	19316
823.55	19114
823.69	19304
823.83	19187
823.97	19114
824.11	19019
824.25	18958
824.389	19061
824.529	19042
824.669	19046
824.809	19118
824.949	19148
825.089	19126
825.228	19015
825.368	18776
825.508	18913
825.648	18810
825.787	18776
825.927	18890
826.067	18707
826.206	18734
826.346	18840
826.485	18639
826.625	18783
826.765	18783
826.904	18768
827.044	18528
827.183	18563
827.323	18475
827.462	18574
827.601	18559
827.741	18585
827.88	18509
828.02	18403
828.159	18441
828.298	18486
828.437	18525
828.577	18452
828.716	18555
828.855	18456
828.994	18216
829.134	18270
829.273	18232
829.412	18216
829.551	18186
829.69	18167
829.829	18281
829.968	18357
830.107	18353
830.246	18213
830.385	18205
830.524	18064
830.663	18007
830.802	17904
830.941	17775
831.08	17767
831.219	17965
831.357	17931
831.496	17977
831.635	17813
831.774	17718
831.913	17718
832.051	17627
832.19	17585
832.329	17600
832.467	17611
832.606	17482
832.744	17509
832.883	17539
833.022	17493
833.16	17558
833.299	17592
833.437	17627
833.576	17623
833.714	17699
833.852	17611
833.991	17649
834.129	17680
834.267	17627
834.406	17611
834.544	17718
834.682	17703
834.821	17604
834.959	17832
835.097	17551
835.235	17630
835.373	17668
835.511	17577
835.65	17490
835.788	17539
835.926	17284
836.064	17273
836.202	17303
836.34	17554
836.478	17619
836.615	17448
836.753	17414
836.891	17611
837.029	17558
837.167	17398
837.305	17433
837.443	17372
837.58	17326
837.718	17330
837.856	17277
837.993	17356
838.131	17395
838.269	17212
838.406	17277
838.544	17140
838.681	17075
838.819	16965
838.956	16805
839.094	16805
839.231	16831
839.369	16900
839.506	17345
839.643	17086
839.781	16866
839.918	16854
840.055	16892
840.193	16816
840.33	16801
840.467	16774
840.604	16946
840.742	17098
840.879	16725
841.016	16790
841.153	16767
841.29	16987
841.427	16873
841.564	16881
841.701	16793
841.838	16752
841.975	16790
842.112	16824
842.249	16645
842.385	16596
842.522	16729
842.659	16679
842.796	16573
842.933	16580
843.069	16599
843.206	16611
843.343	16694
843.479	16664
843.616	16679
843.752	16325
843.889	16325
844.025	16538
844.162	16306
844.298	16394
844.435	16306
844.571	16413
844.708	16466
844.844	16561
844.98	16702
845.117	16561
845.253	16531
845.389	16432
845.525	16679
845.661	16919
845.798	17132
845.934	17425
846.07	17353
846.206	17596
846.342	17307
846.478	16809
846.614	16474
846.75	16238
846.886	16147
847.022	16173
847.158	16105
847.294	16067
847.429	16101
847.565	16029
847.701	16147
847.837	15755
847.972	15743
848.108	15819
848.244	15762
848.379	15561
848.515	15568
848.65	15481
848.786	15584
848.921	15587
849.057	15584
849.192	15652
849.328	15622
849.463	15629
849.598	15507
849.734	15412
849.869	15515
850.004	15382
850.14	15355
850.275	15226
850.41	15237
850.545	15233
850.68	15207
850.815	15306
850.95	15245
851.085	15458
851.22	15367
851.355	15401
851.49	15332
851.625	15325
851.76	15161
851.895	15203
852.03	15184
852.165	15291
852.299	15272
852.434	15382
852.569	15291
852.703	15355
852.838	15351
852.973	15431
853.107	15515
853.242	15256
853.376	15230
853.511	15100
853.645	15214
853.78	15370
853.914	15154
854.048	15173
854.183	15039
854.317	15176
854.451	15272
854.585	15173
854.72	15214
854.854	15275
854.988	15154
855.122	15127
855.256	14982
855.39	15161
855.524	15249
855.658	15230
855.792	15169
855.926	15135
856.06	15237
856.194	15169
856.327	15195
856.461	15093
856.595	15169
856.729	15150
856.862	15249
856.996	15169
857.13	15275
857.263	15298
857.397	15226
857.53	15214
857.664	15241
857.797	15233
857.931	15222
858.064	15214
858.197	15302
858.331	15127
858.464	15085
858.597	15093
858.731	15161
858.864	15138
858.997	15093
859.13	15135
859.263	15199
859.396	15161
859.529	15180
859.662	15154
859.795	15157
859.928	15211
860.061	15272
860.194	15329
860.327	15176
860.46	15226
860.592	15287
860.725	15207
860.858	15283
860.99	15313
861.123	15135
861.256	15116
861.388	15150
861.521	15759
861.653	15036
861.786	15009
861.918	14914
862.05	15108
862.183	15085
862.315	15192
862.447	15272
862.58	15081
862.712	15055
862.844	14883
862.976	14925
863.108	14906
863.24	15329
863.372	14895
863.504	14998
863.636	14857
863.768	14944
863.9	14868
864.032	14902
864.164	14929
864.296	14929
864.428	15051
864.559	15009
864.691	14963
864.823	15020
864.954	14944
865.086	14914
865.217	14914
865.349	14762
865.48	14910
865.612	14895
865.743	14956
865.875	14769
866.006	14914
866.137	14788
866.269	14819
866.4	14914
866.531	14868
866.662	14872
866.793	14872
866.924	14910
867.055	14956
867.186	14925
867.317	14834
867.448	14796
867.579	14838
867.71	14750
867.841	14838
867.972	14842
868.103	14937
868.233	14868
868.364	14883
868.495	15013
868.625	15062
868.756	15207
868.886	15089
869.017	15051
869.147	15256
869.278	15199
869.408	15131
869.539	15108
869.669	15203
869.799	15161
869.929	15291
870.06	15302
870.19	15420
870.32	15462
870.45	15466
870.58	15458
870.71	15614
870.84	15614
870.97	15534
871.1	15568
871.23	15663
871.36	15732
871.489	15591
871.619	15694
871.749	15679
871.879	15747
872.008	15819
872.138	15736
872.267	15660
872.397	15641
872.526	15523
872.656	15545
872.785	15515
872.915	15747
873.044	15789
873.173	15827
873.303	15800
873.432	15778
873.561	15850
873.69	15842
873.819	15797
873.948	15873
874.077	15827
874.206	15895
874.335	15869
874.464	15987
874.593	16105
874.722	15930
874.851	16082
874.979	16147
875.108	16090
875.237	15937
875.365	15953
875.494	16032
875.623	16166
875.751	16109
875.88	16154
876.008	16295
876.136	16318
876.265	16542
876.393	16664
876.521	16626
876.65	16554
876.778	16645
876.906	16599
877.034	16451
877.162	16478
877.29	16478
877.418	16538
877.546	16527
877.674	16611
877.802	16398
877.93	16573
878.058	16546
878.185	16451
878.313	16637
878.441	16538
878.568	16500
878.696	16554
878.824	16694
878.951	16831
879.079	16900
879.206	17170
879.333	17064
879.461	17102
879.588	17265
879.715	17334
879.842	17395
879.97	17075
880.097	16778
880.224	16687
880.351	16721
880.478	16637
880.605	16607
880.732	16519
880.859	16763
880.986	16618
881.112	16599
881.239	16455
881.366	16306
881.493	16204
881.619	16246
881.746	16139
881.872	16234
881.999	16204
882.125	16120
882.252	16196
882.378	16223
882.505	16310
882.631	16071
882.757	16082
882.883	16082
883.01	16002
883.136	15880
883.262	15888
883.388	15774
883.514	16063
883.64	15934
883.766	15941
883.892	15743
884.018	15835
884.143	15926
884.269	16048
884.395	15778
884.52	15682
884.646	15660
884.772	15667
884.897	15591
885.023	15641
885.148	15800
885.274	15918
885.399	15812
885.524	15641
885.65	15679
885.775	15587
885.9	15694
886.025	15762
886.15	15713
886.275	15637
886.4	15507
886.525	15606
886.65	15618
886.775	15549
886.9	15701
887.025	15831
887.149	15667
887.274	15424
887.399	15412
887.523	15332
887.648	15420
887.773	15260
887.897	15443
888.021	15458
888.146	15313
888.27	15485
888.395	15622
888.519	15439
888.643	15485
888.767	15519
888.891	15466
889.015	15211
889.139	15195
889.263	15298
889.387	15279
889.511	15401
889.635	15348
889.759	15203
889.883	15150
890.006	15222
890.13	15321
890.254	15184
890.377	15112
890.501	14975
890.624	15001
890.748	15028
890.871	15039
890.995	14902
891.118	14899
891.241	14830
891.364	14891
891.488	15074
891.611	14842
891.734	14899
891.857	14990
891.98	14963
892.103	15055
892.226	14956
892.349	14868
892.471	14864
892.594	14872
892.717	14842
892.839	14838
892.962	14853
893.085	14853
893.207	14876
893.33	14678
893.452	14705
893.575	14906
893.697	14861
893.819	15032
893.941	15062
894.064	14979
894.186	14910
894.308	14754
894.43	14918
894.552	15051
894.674	15047
894.796	14807
894.918	14876
895.04	14906
895.161	15058
895.283	14990
895.405	14887
895.526	14914
895.648	14853
895.769	14895
895.891	14967
896.012	15119
896.134	14941
896.255	14994
896.376	14975
896.498	14979
896.619	15039
896.74	15085
896.861	15032
896.982	15310
897.103	15492
897.224	15340
897.345	15230
897.466	15222
897.587	15188
897.708	15408
897.828	15348
897.949	15218
898.07	15199
898.19	15154
898.311	15450
898.431	15252
898.552	15420
898.672	15412
898.792	15454
898.913	15389
899.033	15306
899.153	15199
899.273	15001
899.393	15104
899.513	15146
899.633	15218
899.753	15192
899.873	15104
899.993	15207
900.113	15127
900.232	15222
900.352	15108
900.472	15097
900.591	14990
900.711	15062
900.83	14941
900.95	15097
901.069	15294
901.189	15085
901.308	14750
901.427	14621
901.546	14689
901.665	14724
901.784	14739
901.904	14598
902.023	14511
902.141	14298
902.26	14271
902.379	14393
902.498	14309
902.617	14123
902.735	14294
902.854	14263
902.973	14199
903.091	14020
903.21	13970
903.328	13986
903.446	13864
903.565	13849
903.683	13826
903.801	13795
903.919	13841
904.038	13830
904.156	13681
904.274	13761
904.392	13677
904.51	13616
904.627	13655
904.745	13708
904.863	13727
904.981	13362
905.098	13362
905.216	13312
905.334	13312
905.451	13285
905.569	13274
905.686	13403
905.803	13278
905.921	13126
906.038	13168
906.155	13149
906.272	13050
906.389	13038
906.506	12890
906.623	12890
906.74	12894
906.857	12882
906.974	12859
907.091	12924
907.208	13053
907.324	12939
907.441	12791
907.557	12673
907.674	12589
907.79	12479
907.907	12513
908.023	12616
908.139	12601
908.256	12544
908.372	12498
908.488	12502
908.604	12441
908.72	12342
908.836	12410
908.952	12285
909.068	12388
909.184	12479
909.3	12342
909.415	12410
909.531	12372
909.647	12140
909.762	12144
909.878	12121
909.993	12171
910.108	12136
910.224	12114
910.339	12114
910.454	11942
910.57	11969
910.685	11882
910.8	12125
910.915	12178
911.03	12041
911.145	11779
911.259	11840
911.374	11805
911.489	11684
911.604	11771
911.718	11524
911.833	11642
911.947	11482
912.062	11429
912.176	11558
912.291	11505
912.405	11619
912.519	11775
912.633	11752
912.748	11619
912.862	11623
912.976	11486
913.09	11326
913.204	11455
913.318	11360
913.431	11562
913.545	11493
913.659	11516
913.772	11444
913.886	11368
914	11296
914.113	11311
914.226	11463
914.34	11436
914.453	11265
914.566	11395
914.68	11284
914.793	11280
914.906	11048
915.019	10984
915.132	10999
915.245	10995
915.358	11064
915.47	11094
915.583	11098
915.696	11075
915.809	11181
915.921	11155
916.034	10991
916.146	11006
916.259	11025
916.371	11041
916.483	11003
916.595	10961
916.708	11010
916.82	10915
916.932	10961
917.044	10957
917.156	10877
917.268	10934
917.38	10854
917.491	10847
917.603	10885
917.715	11029
917.826	10965
917.938	10843
918.049	10759
918.161	10949
918.272	10949
918.384	10957
918.495	10877
918.606	10675
918.717	10675
918.828	10755
918.939	10736
919.05	10618
919.161	10653
919.272	10440
919.383	10656
919.494	10801
919.604	10957
919.715	10748
919.826	10596
919.936	10641
920.047	10862
920.157	10782
920.267	10934
920.378	10748
920.488	10694
920.598	10980
920.708	11056
920.818	10995
920.928	10908
921.038	11124
921.148	11086
921.258	10702
921.368	10660
921.477	10527
921.587	10596
921.697	10500
921.806	10592
921.916	10474
922.025	10318
922.134	10318
922.244	10185
922.353	10299
922.462	10173
922.571	10097
922.68	9987
922.789	9922
922.898	10010
923.007	9876
923.116	9949
923.224	9941
923.333	9934
923.442	9785
923.55	9869
923.659	9823
923.767	9892
923.876	9808
923.984	9850
924.092	9797
924.201	9854
924.309	9774
924.417	9876
924.525	9774
924.633	9732
924.741	10736
924.849	9584
924.956	9679
925.064	9553
925.172	9473
925.279	9603
925.387	9599
925.494	9599
925.602	9781
925.709	9618
925.816	9576
925.924	9595
926.031	9603
926.138	9584
926.245	9610
926.352	9504
926.459	9667
926.566	9637
926.673	9553
926.779	9473
926.886	9431
926.993	9340
927.099	9249
927.206	9199
927.312	9222
927.419	9279
927.525	9180
927.631	9298
927.737	9222
927.843	9157
927.95	9013
928.056	9180
928.162	9184
928.267	9154
928.373	9717
928.479	9268
928.585	9047
928.69	9161
928.796	9184
928.901	9112
929.007	8929
929.112	9070
929.218	9043
929.323	8952
929.428	8986
929.533	9097
929.638	8944
929.743	8998
929.848	9043
929.953	8952
930.058	8849
930.163	8689
930.267	8769
930.372	8887
930.477	8716
930.581	8937
930.685	8766
930.79	8602
930.894	8701
930.998	8655
931.103	8830
931.207	8465
931.311	8370
931.415	8366
931.519	8172
931.623	8244
