Data from test_V78500241_2373.txt Node
Date: Fri Mar 25 14:50:14 CST 2022
User: usil
Spectrometer: V785-0024
Trigger mode: 0
Integration Time (sec): 4.000000E-1
Scans to average: 1
Nonlinearity correction enabled: false
Boxcar width: 0
Storing dark spectrum: false
XAxis mode: Wavelengths
Number of Pixels in Spectrum: 1024
>>>>>Begin Spectral Data<<<<<
801.071	22032
801.214	22032
801.356	21690
801.499	21701
801.641	21549
801.783	21485
801.926	21469
802.068	21477
802.211	21420
802.353	21279
802.496	21116
802.638	20971
802.78	20948
802.923	20861
803.065	20845
803.208	20811
803.35	20937
803.492	20933
803.635	20952
803.777	20777
803.919	20910
804.061	21233
804.204	20811
804.346	20880
804.488	20674
804.63	20781
804.773	20716
804.915	20819
805.057	20712
805.199	20724
805.341	20849
805.483	21032
805.626	20864
805.768	20785
805.91	20777
806.052	20807
806.194	20815
806.336	20834
806.478	20651
806.62	20674
806.762	20857
806.904	20971
807.046	21161
807.188	21157
807.33	21070
807.472	21135
807.614	20944
807.756	20933
807.898	20876
808.04	20693
808.182	20758
808.324	20975
808.465	20773
808.607	21047
808.749	21100
808.891	21188
809.033	21222
809.174	21207
809.316	21093
809.458	21116
809.6	21047
809.741	21195
809.883	21298
810.025	21302
810.166	21218
810.308	21325
810.45	21226
810.591	21112
810.733	20990
810.875	20891
811.016	20792
811.158	20754
811.299	20979
811.441	21165
811.582	21062
811.724	21009
811.865	20876
812.007	20842
812.148	20834
812.29	20883
812.431	21062
812.573	21249
812.714	21332
812.855	21389
812.997	21511
813.138	21629
813.279	21492
813.421	21504
813.562	21298
813.703	21157
813.845	21096
813.986	20777
814.127	20667
814.268	20400
814.41	20545
814.551	20396
814.692	20564
814.833	20404
814.974	20560
815.115	20454
815.256	20271
815.397	20309
815.539	20267
815.68	20362
815.821	19986
815.962	20252
816.103	20149
816.244	20016
816.385	19978
816.526	19784
816.666	19791
816.807	19559
816.948	19693
817.089	19765
817.23	19635
817.371	19567
817.512	19586
817.653	19594
817.793	19567
817.934	19575
818.075	19772
818.216	19624
818.356	19571
818.497	19480
818.638	19187
818.778	19403
818.919	19331
819.06	19202
819.2	19282
819.341	19521
819.481	19460
819.622	19616
819.762	19772
819.903	19761
820.043	19609
820.184	19639
820.324	19544
820.465	19613
820.605	19552
820.746	19407
820.886	19396
821.026	19533
821.167	19533
821.307	19616
821.447	19632
821.588	19362
821.728	19335
821.868	19095
822.008	18993
822.149	19046
822.289	18867
822.429	18601
822.569	18650
822.709	18719
822.849	18445
822.99	18559
823.13	18384
823.27	18490
823.41	18410
823.55	18262
823.69	18369
823.83	18270
823.97	18224
824.11	18038
824.25	17950
824.389	18129
824.529	17988
824.669	18038
824.809	18205
824.949	18076
825.089	18015
825.228	18011
825.368	17878
825.508	17809
825.648	17836
825.787	17855
825.927	17847
826.067	17817
826.206	17722
826.346	17767
826.485	17729
826.625	17920
826.765	17904
826.904	17870
827.044	17558
827.183	17615
827.323	17425
827.462	17570
827.601	17570
827.741	17463
827.88	17577
828.02	17406
828.159	17532
828.298	17512
828.437	17570
828.577	17497
828.716	17558
828.855	17353
828.994	17246
829.134	17334
829.273	17170
829.412	17250
829.551	17239
829.69	17212
829.829	17151
829.968	17284
830.107	17360
830.246	17299
830.385	17071
830.524	17109
830.663	17094
830.802	17014
830.941	16801
831.08	16835
831.219	16942
831.357	16927
831.496	17166
831.635	16862
831.774	16786
831.913	16774
832.051	16580
832.19	16744
832.329	16687
832.467	16611
832.606	16512
832.744	16489
832.883	16538
833.022	16443
833.16	16577
833.299	16542
833.437	16512
833.576	16668
833.714	16615
833.852	16645
833.991	16512
834.129	16630
834.267	16611
834.406	16641
834.544	16710
834.682	16637
834.821	16546
834.959	16793
835.097	16474
835.235	16660
835.373	16561
835.511	16626
835.65	16500
835.788	16527
835.926	16402
836.064	16284
836.202	16306
836.34	16500
836.478	16432
836.615	16455
836.753	16554
836.891	16634
837.029	16615
837.167	16455
837.305	16436
837.443	16272
837.58	16303
837.718	16432
837.856	16291
837.993	16284
838.131	16455
838.269	16253
838.406	16287
838.544	16124
838.681	16109
838.819	16017
838.956	15960
839.094	15846
839.231	15991
839.369	16025
839.506	16303
839.643	16200
839.781	15911
839.918	15800
840.055	15857
840.193	15785
840.33	15793
840.467	15831
840.604	15991
840.742	16200
840.879	15808
841.016	15812
841.153	15819
841.29	16074
841.427	15907
841.564	15956
841.701	15922
841.838	15842
841.975	15800
842.112	15797
842.249	15743
842.385	15679
842.522	15869
842.659	15736
842.796	15648
842.933	15614
843.069	15652
843.206	15610
843.343	15682
843.479	15561
843.616	15694
843.752	15549
843.889	15424
844.025	15705
844.162	15534
844.298	15656
844.435	15454
844.571	15428
844.708	15526
844.844	15545
844.98	15576
845.117	15507
845.253	15393
845.389	15359
845.525	15332
845.661	15393
845.798	15203
845.934	15355
846.07	15287
846.206	15287
846.342	15439
846.478	15241
846.614	15119
846.75	14982
846.886	15013
847.022	15157
847.158	15005
847.294	15077
847.429	15100
847.565	15020
847.701	15256
847.837	14849
847.972	14785
848.108	14941
848.244	14804
848.379	14617
848.515	14587
848.65	14549
848.786	14606
848.921	14651
849.057	14705
849.192	14830
849.328	14640
849.463	14674
849.598	14610
849.734	14575
849.869	14514
850.004	14313
850.14	14412
850.275	14450
850.41	14301
850.545	14362
850.68	14396
850.815	14469
850.95	14343
851.085	14499
851.22	14495
851.355	14438
851.49	14305
851.625	14412
851.76	14362
851.895	14332
852.03	14298
852.165	14419
852.299	14412
852.434	14568
852.569	14503
852.703	14324
852.838	14438
852.973	14602
853.107	14549
853.242	14259
853.376	14290
853.511	14244
853.645	14298
853.78	14370
853.914	14180
854.048	14225
854.183	14309
854.317	14301
854.451	14450
854.585	14218
854.72	14263
854.854	14275
854.988	14221
855.122	14278
855.256	14054
855.39	14301
855.524	14343
855.658	14233
855.792	14294
855.926	14320
856.06	14282
856.194	14298
856.327	14271
856.461	14187
856.595	14240
856.729	14187
856.862	14412
856.996	14309
857.13	14370
857.263	14351
857.397	14370
857.53	14351
857.664	14358
857.797	14313
857.931	14446
858.064	14286
858.197	14332
858.331	14267
858.464	14210
858.597	14187
858.731	14210
858.864	14202
858.997	14153
859.13	14282
859.263	14358
859.396	14366
859.529	14294
859.662	14336
859.795	14320
859.928	14286
860.061	14415
860.194	14412
860.327	14389
860.46	14305
860.592	14370
860.725	14358
860.858	14298
860.99	14290
861.123	14233
861.256	14191
861.388	14271
861.521	14758
861.653	14123
861.786	14096
861.918	14176
862.05	14164
862.183	14176
862.315	14229
862.447	14286
862.58	14259
862.712	14054
862.844	14062
862.976	14138
863.108	14073
863.24	14427
863.372	13883
863.504	14077
863.636	14100
863.768	13997
863.9	14039
864.032	13864
864.164	14005
864.296	14084
864.428	14161
864.559	14126
864.691	14115
864.823	14077
864.954	14062
865.086	13989
865.217	14084
865.349	13955
865.48	13986
865.612	14058
865.743	14130
865.875	14111
866.006	14001
866.137	14008
866.269	13993
866.4	14062
866.531	14039
866.662	13932
866.793	13940
866.924	14050
867.055	14005
867.186	13978
867.317	14138
867.448	13890
867.579	13982
867.71	13928
867.841	13947
867.972	14103
868.103	13963
868.233	13970
868.364	14012
868.495	14149
868.625	14339
868.756	14389
868.886	14263
869.017	14324
869.147	14381
869.278	14400
869.408	14298
869.539	14176
869.669	14298
869.799	14313
869.929	14495
870.06	14301
870.19	14602
870.32	14579
870.45	14575
870.58	14648
870.71	14712
870.84	14769
870.97	14583
871.1	14689
871.23	14800
871.36	14887
871.489	14739
871.619	14849
871.749	14956
871.879	14883
872.008	14914
872.138	14815
872.267	14796
872.397	14682
872.526	14727
872.656	14674
872.785	14701
872.915	14910
873.044	15051
873.173	14960
873.303	14956
873.432	14941
873.561	14921
873.69	14960
873.819	14998
873.948	15009
874.077	14948
874.206	14796
874.335	15066
874.464	15089
874.593	15214
874.722	15157
874.851	15272
874.979	15264
875.108	15344
875.237	15241
875.365	15207
875.494	15146
875.623	15275
875.751	15241
875.88	15256
876.008	15363
876.136	15473
876.265	15648
876.393	15850
876.521	15618
876.65	15770
876.778	15667
876.906	15667
877.034	15629
877.162	15625
877.29	15542
877.418	15584
877.546	15576
877.674	15610
877.802	15610
877.93	15781
878.058	15679
878.185	15504
878.313	15675
878.441	15644
878.568	15496
878.696	15545
878.824	15728
878.951	15743
879.079	15831
879.206	15911
879.333	15907
879.461	15660
879.588	15736
879.715	15816
879.842	15987
879.97	15797
880.097	15694
880.224	15492
880.351	15447
880.478	15462
880.605	15523
880.732	15450
880.859	15766
880.986	15477
881.112	15591
881.239	15393
881.366	15214
881.493	15173
881.619	15184
881.746	15173
881.872	15233
881.999	15112
882.125	15138
882.252	15188
882.378	15188
882.505	15336
882.631	15089
882.757	14994
882.883	15074
883.01	14868
883.136	14842
883.262	14937
883.388	14895
883.514	14933
883.64	15013
883.766	14933
883.892	14762
884.018	14861
884.143	14975
884.269	15138
884.395	14861
884.52	14629
884.646	14670
884.772	14587
884.897	14625
885.023	14640
885.148	14861
885.274	14937
885.399	14826
885.524	14659
885.65	14743
885.775	14716
885.9	14617
886.025	14731
886.15	14746
886.275	14636
886.4	14545
886.525	14640
886.65	14670
886.775	14579
886.9	14727
887.025	14982
887.149	14731
887.274	14503
887.399	14408
887.523	14438
887.648	14469
887.773	14389
887.897	14556
888.021	14571
888.146	14476
888.27	14659
888.395	14632
888.519	14602
888.643	14552
888.767	14621
888.891	14381
889.015	14347
889.139	14351
889.263	14343
889.387	14488
889.511	14655
889.635	14355
889.759	14332
889.883	14328
890.006	14366
890.13	14526
890.254	14286
890.377	14263
890.501	14195
890.624	14206
890.748	14199
890.871	14180
890.995	14088
891.118	13967
891.241	14210
891.364	14054
891.488	14210
891.611	14084
891.734	14069
891.857	14180
891.98	14157
892.103	14134
892.226	14134
892.349	14073
892.471	14012
892.594	14046
892.717	14157
892.839	14039
892.962	14100
893.085	14130
893.207	14027
893.33	13932
893.452	14092
893.575	14191
893.697	14046
893.819	14267
893.941	14218
894.064	14263
894.186	13986
894.308	14111
894.43	14149
894.552	14290
894.674	14248
894.796	14081
894.918	14077
895.04	14100
895.161	14195
895.283	14229
895.405	14180
895.526	14142
895.648	14168
895.769	14119
895.891	14229
896.012	14320
896.134	14237
896.255	14313
896.376	14176
896.498	14237
896.619	14244
896.74	14267
896.861	14328
896.982	14674
897.103	14712
897.224	14530
897.345	14594
897.466	14385
897.587	14465
897.708	14659
897.828	14583
897.949	14533
898.07	14374
898.19	14564
898.311	14716
898.431	14655
898.552	14693
898.672	14617
898.792	14663
898.913	14545
899.033	14583
899.153	14454
899.273	14377
899.393	14446
899.513	14415
899.633	14549
899.753	14438
899.873	14484
899.993	14533
900.113	14442
900.232	14644
900.352	14499
900.472	14339
900.591	14351
900.711	14385
900.83	14183
900.95	14442
901.069	14393
901.189	14271
901.308	14092
901.427	14012
901.546	14012
901.665	14054
901.784	14024
901.904	13852
902.023	13818
902.141	13601
902.26	13556
902.379	13674
902.498	13601
902.617	13506
902.735	13556
902.854	13681
902.973	13483
903.091	13320
903.21	13297
903.328	13259
903.446	13228
903.565	13225
903.683	13141
903.801	13065
903.919	13145
904.038	13088
904.156	12993
904.274	13099
904.392	12989
904.51	12913
904.627	12890
904.745	13069
904.863	12935
904.981	12722
905.098	12585
905.216	12631
905.334	12711
905.451	12589
905.569	12536
905.686	12665
905.803	12635
905.921	12498
906.038	12688
906.155	12490
906.272	12338
906.389	12376
906.506	12292
906.623	12216
906.74	12243
906.857	12125
906.974	12148
907.091	12266
907.208	12403
907.324	12262
907.441	12148
907.557	12022
907.674	12026
907.79	11927
907.907	11969
908.023	12003
908.139	11954
908.256	11904
908.372	11870
908.488	11889
908.604	11805
908.72	11733
908.836	11775
908.952	11714
909.068	11676
909.184	11851
909.3	11752
909.415	11802
909.531	11657
909.647	11501
909.762	11627
909.878	11493
909.993	11505
910.108	11490
910.224	11551
910.339	11452
910.454	11315
910.57	11402
910.685	11288
910.8	11657
910.915	11592
911.03	11372
911.145	11299
911.259	11204
911.374	11254
911.489	11162
911.604	11178
911.718	10961
911.833	10980
911.947	10835
912.062	10858
912.176	11033
912.291	11003
912.405	11071
912.519	11098
912.633	11170
912.748	10991
912.862	10927
912.976	10873
913.09	10744
913.204	10850
913.318	10896
913.431	10934
913.545	10889
913.659	10961
913.772	10854
913.886	10725
914	10645
914.113	10801
914.226	10873
914.34	10862
914.453	10653
914.566	10801
914.68	10771
914.793	10668
914.906	10504
915.019	10466
915.132	10440
915.245	10428
915.358	10538
915.47	10523
915.583	10455
915.696	10535
915.809	10565
915.921	10702
916.034	10508
916.146	10421
916.259	10500
916.371	10421
916.483	10493
916.595	10367
916.708	10386
916.82	10375
916.932	10538
917.044	10405
917.156	10367
917.268	10306
917.38	10367
917.491	10242
917.603	10352
917.715	10382
917.826	10379
917.938	10204
918.049	10120
918.161	10276
918.272	10474
918.384	10508
918.495	10314
918.606	10139
918.717	10105
918.828	10181
918.939	10246
919.05	10090
919.161	10093
919.272	10006
919.383	10055
919.494	10257
919.604	10382
919.715	10207
919.826	10074
919.936	10162
920.047	10253
920.157	10230
920.267	10432
920.378	10227
920.488	10246
920.598	10489
920.708	10535
920.818	10440
920.928	10436
921.038	10565
921.148	10485
921.258	10295
921.368	10169
921.477	10090
921.587	10006
921.697	9960
921.806	10131
921.916	9972
922.025	9766
922.134	9778
922.244	9724
922.353	9846
922.462	9663
922.571	9675
922.68	9477
922.789	9534
922.898	9443
923.007	9447
923.116	9488
923.224	9450
923.333	9485
923.442	9370
923.55	9294
923.659	9359
923.767	9469
923.876	9256
923.984	9405
924.092	9249
924.201	9329
924.309	9302
924.417	9313
924.525	9233
924.633	9249
924.741	10002
924.849	9013
924.956	9272
925.064	9161
925.172	8994
925.279	9085
925.387	9192
925.494	9142
925.602	9188
925.709	9188
925.816	9074
925.924	9135
926.031	9188
926.138	9154
926.245	9180
926.352	9047
926.459	9173
926.566	9180
926.673	9032
926.779	8960
926.886	8914
926.993	8838
927.099	8834
927.206	8811
927.312	8769
927.419	8804
927.525	8811
927.631	8880
927.737	8743
927.843	8762
927.95	8629
928.056	8655
928.162	8800
928.267	8849
928.373	9405
928.479	8773
928.585	8564
928.69	8712
928.796	8724
928.901	8636
929.007	8503
929.112	8636
929.218	8621
929.323	8514
929.428	8499
929.533	8712
929.638	8522
929.743	8495
929.848	8602
929.953	8590
930.058	8457
930.163	8275
930.267	8256
930.372	8427
930.477	8286
930.581	8503
930.685	8320
930.79	8233
930.894	8256
930.998	8191
931.103	8431
931.207	8020
931.311	8035
931.415	7959
931.519	7761
931.623	7712
