Data from test_V78500241_3707.txt Node
Date: Fri Mar 25 14:59:32 CST 2022
User: usil
Spectrometer: V785-0024
Trigger mode: 0
Integration Time (sec): 4.000000E-1
Scans to average: 1
Nonlinearity correction enabled: false
Boxcar width: 0
Storing dark spectrum: false
XAxis mode: Wavelengths
Number of Pixels in Spectrum: 1024
>>>>>Begin Spectral Data<<<<<
801.071	21816
801.214	21694
801.356	21458
801.499	21370
801.641	21359
801.783	21275
801.926	21245
802.068	21222
802.211	21013
802.353	21184
802.496	20826
802.638	20724
802.78	20682
802.923	20678
803.065	20423
803.208	20507
803.35	20621
803.492	20670
803.635	20667
803.777	20594
803.919	20575
804.061	21013
804.204	20609
804.346	20507
804.488	20408
804.63	20530
804.773	20438
804.915	20560
805.057	20594
805.199	20454
805.341	20552
805.483	20499
805.626	20488
805.768	20499
805.91	20450
806.052	20473
806.194	20393
806.336	20609
806.478	20400
806.62	20256
806.762	20667
806.904	20549
807.046	20929
807.188	20758
807.33	20674
807.472	20807
807.614	20720
807.756	20838
807.898	20503
808.04	20602
808.182	20480
808.324	20594
808.465	20537
808.607	20758
808.749	20857
808.891	20937
809.033	21062
809.174	20933
809.316	20792
809.458	21001
809.6	20781
809.741	20902
809.883	20906
810.025	20994
810.166	20952
810.308	20933
810.45	21081
810.591	20834
810.733	20880
810.875	20651
811.016	20473
811.158	20476
811.299	20667
811.441	20663
811.582	20864
811.724	20514
811.865	20560
812.007	20560
812.148	20606
812.29	20594
812.431	20724
812.573	20948
812.714	21077
812.855	21119
812.997	21230
813.138	21428
813.279	21264
813.421	21157
813.562	21146
813.703	20876
813.845	20739
813.986	20484
814.127	20298
814.268	20214
814.41	20263
814.551	20233
814.692	20180
814.833	20145
814.974	20172
815.115	20240
815.256	20031
815.397	20031
815.539	20081
815.68	19978
815.821	19818
815.962	19856
816.103	19856
816.244	19769
816.385	19890
816.526	19510
816.666	19506
816.807	19350
816.948	19354
817.089	19460
817.23	19339
817.371	19187
817.512	19365
817.653	19194
817.793	19278
817.934	19308
818.075	19297
818.216	19316
818.356	19171
818.497	19122
818.638	18867
818.778	18970
818.919	19019
819.06	18993
819.2	19080
819.341	19266
819.481	19152
819.622	19350
819.762	19567
819.903	19491
820.043	19301
820.184	19346
820.324	19289
820.465	19251
820.605	19236
820.746	19232
820.886	19183
821.026	19194
821.167	19266
821.307	19274
821.447	19141
821.588	19118
821.728	19072
821.868	18688
822.008	18669
822.149	18673
822.289	18707
822.429	18399
822.569	18330
822.709	18330
822.849	18273
822.99	18155
823.13	18243
823.27	18133
823.41	17961
823.55	17984
823.69	18007
823.83	17973
823.97	18011
824.11	17760
824.25	17783
824.389	17699
824.529	17805
824.669	17752
824.809	17874
824.949	17885
825.089	17794
825.228	17699
825.368	17581
825.508	17653
825.648	17543
825.787	17642
825.927	17608
826.067	17657
826.206	17482
826.346	17558
826.485	17611
826.625	17345
826.765	17608
826.904	17566
827.044	17311
827.183	17235
827.323	17246
827.462	17364
827.601	17159
827.741	17200
827.88	17208
828.02	17140
828.159	17102
828.298	17261
828.437	17349
828.577	17174
828.716	17254
828.855	17147
828.994	16987
829.134	16972
829.273	17010
829.412	17022
829.551	16972
829.69	17064
829.829	16991
829.968	17048
830.107	16987
830.246	16942
830.385	16995
830.524	16953
830.663	16820
830.802	16759
830.941	16546
831.08	16599
831.219	16740
831.357	16668
831.496	16847
831.635	16580
831.774	16554
831.913	16497
832.051	16580
832.19	16379
832.329	16344
832.467	16318
832.606	16246
832.744	16204
832.883	16280
833.022	16272
833.16	16363
833.299	16417
833.437	16284
833.576	16306
833.714	16398
833.852	16379
833.991	16310
834.129	16306
834.267	16554
834.406	16390
834.544	16470
834.682	16379
834.821	16382
834.959	16493
835.097	16306
835.235	16379
835.373	16306
835.511	16367
835.65	16344
835.788	16356
835.926	16204
836.064	16109
836.202	16192
836.34	16333
836.478	16360
836.615	16299
836.753	16363
836.891	16379
837.029	16310
837.167	16261
837.305	16219
837.443	16211
837.58	16105
837.718	16196
837.856	16169
837.993	16063
838.131	16223
838.269	16097
838.406	16055
838.544	16040
838.681	15892
838.819	15987
838.956	15739
839.094	15762
839.231	15755
839.369	15899
839.506	16135
839.643	16002
839.781	15808
839.918	15667
840.055	15831
840.193	15747
840.33	15747
840.467	15743
840.604	15770
840.742	15960
840.879	15656
841.016	15610
841.153	15701
841.29	15812
841.427	15766
841.564	15854
841.701	15781
841.838	15682
841.975	15675
842.112	15622
842.249	15599
842.385	15443
842.522	15736
842.659	15511
842.796	15500
842.933	15568
843.069	15542
843.206	15374
843.343	15568
843.479	15564
843.616	15576
843.752	15367
843.889	15252
844.025	15469
844.162	15298
844.298	15412
844.435	15355
844.571	15401
844.708	15439
844.844	15469
844.98	15458
845.117	15424
845.253	15241
845.389	15142
845.525	15336
845.661	15199
845.798	15100
845.934	15165
846.07	15127
846.206	15104
846.342	15256
846.478	15116
846.614	14899
846.75	14944
846.886	14853
847.022	15036
847.158	14864
847.294	14891
847.429	14921
847.565	14826
847.701	15142
847.837	14598
847.972	14583
848.108	14727
848.244	14659
848.379	14594
848.515	14434
848.65	14541
848.786	14465
848.921	14427
849.057	14648
849.192	14667
849.328	14396
849.463	14473
849.598	14381
849.734	14423
849.869	14393
850.004	14267
850.14	14183
850.275	14317
850.41	14278
850.545	14252
850.68	14286
850.815	14252
850.95	14145
851.085	14389
851.22	14370
851.355	14275
851.49	14237
851.625	14332
851.76	14153
851.895	14153
852.03	14142
852.165	14176
852.299	14267
852.434	14317
852.569	14309
852.703	14271
852.838	14404
852.973	14419
853.107	14427
853.242	14240
853.376	14180
853.511	14016
853.645	14039
853.78	14301
853.914	14126
854.048	14115
854.183	14107
854.317	14073
854.451	14252
854.585	14134
854.72	14157
854.854	14172
854.988	14069
855.122	14077
855.256	13993
855.39	14153
855.524	14305
855.658	14168
855.792	14134
855.926	14153
856.06	14172
856.194	14164
856.327	14069
856.461	14073
856.595	14043
856.729	14123
856.862	14313
856.996	14130
857.13	14240
857.263	14256
857.397	14218
857.53	14164
857.664	14157
857.797	14225
857.931	14252
858.064	14100
858.197	14240
858.331	14172
858.464	14016
858.597	14024
858.731	14138
858.864	14043
858.997	14153
859.13	14123
859.263	14172
859.396	14210
859.529	14161
859.662	14107
859.795	14138
859.928	14073
860.061	14278
860.194	14309
860.327	14225
860.46	14161
860.592	14309
860.725	14298
860.858	14271
860.99	14084
861.123	14073
861.256	13955
861.388	14157
861.521	14891
861.653	14081
861.786	13925
861.918	13856
862.05	13947
862.183	14054
862.315	14103
862.447	14176
862.58	13982
862.712	13928
862.844	13970
862.976	14005
863.108	13944
863.24	14412
863.372	13791
863.504	13856
863.636	13841
863.768	13925
863.9	13947
864.032	13799
864.164	13887
864.296	14039
864.428	14043
864.559	13955
864.691	14001
864.823	13845
864.954	14001
865.086	13947
865.217	13936
865.349	13833
865.48	13830
865.612	13864
865.743	13963
865.875	14008
866.006	13906
866.137	13993
866.269	13856
866.4	13837
866.531	13856
866.662	13830
866.793	13826
866.924	13864
867.055	13890
867.186	13864
867.317	13925
867.448	13856
867.579	13906
867.71	13833
867.841	13727
867.972	13909
868.103	13879
868.233	13932
868.364	13898
868.495	13963
868.625	14149
868.756	14256
868.886	14077
869.017	14130
869.147	14309
869.278	14237
869.408	14202
869.539	14206
869.669	14309
869.799	14126
869.929	14240
870.06	14161
870.19	14415
870.32	14412
870.45	14511
870.58	14465
870.71	14571
870.84	14602
870.97	14621
871.1	14602
871.23	14693
871.36	14716
871.489	14533
871.619	14667
871.749	14678
871.879	14716
872.008	14823
872.138	14800
872.267	14746
872.397	14594
872.526	14488
872.656	14484
872.785	14621
872.915	14750
873.044	14819
873.173	14872
873.303	14758
873.432	14838
873.561	14800
873.69	14754
873.819	14777
873.948	14804
874.077	14861
874.206	14697
874.335	14883
874.464	14956
874.593	15047
874.722	15005
874.851	15119
874.979	15157
875.108	15173
875.237	15036
875.365	15062
875.494	15108
875.623	15214
875.751	15055
875.88	15161
876.008	15298
876.136	15393
876.265	15488
876.393	15652
876.521	15671
876.65	15633
876.778	15496
876.906	15637
877.034	15469
877.162	15599
877.29	15504
877.418	15538
877.546	15572
877.674	15534
877.802	15466
877.93	15629
878.058	15549
878.185	15450
878.313	15485
878.441	15553
878.568	15348
878.696	15504
878.824	15542
878.951	15656
879.079	15724
879.206	15850
879.333	15797
879.461	15694
879.588	15690
879.715	15766
879.842	15915
879.97	15660
880.097	15466
880.224	15435
880.351	15397
880.478	15462
880.605	15359
880.732	15393
880.859	15686
880.986	15428
881.112	15534
881.239	15340
881.366	15207
881.493	15211
881.619	15116
881.746	15119
881.872	15013
881.999	15036
882.125	15005
882.252	15199
882.378	15123
882.505	15241
882.631	15051
882.757	14906
882.883	14948
883.01	14785
883.136	14815
883.262	14838
883.388	14857
883.514	14830
883.64	14933
883.766	14807
883.892	14765
884.018	14800
884.143	14899
884.269	14971
884.395	14746
884.52	14571
884.646	14583
884.772	14579
884.897	14469
885.023	14579
885.148	14663
885.274	14735
885.399	14701
885.524	14610
885.65	14606
885.775	14579
885.9	14568
886.025	14743
886.15	14678
886.275	14556
886.4	14446
886.525	14533
886.65	14465
886.775	14568
886.9	14842
887.025	14819
887.149	14564
887.274	14423
887.399	14336
887.523	14412
887.648	14366
887.773	14358
887.897	14583
888.021	14499
888.146	14374
888.27	14476
888.395	14579
888.519	14427
888.643	14476
888.767	14454
888.891	14412
889.015	14240
889.139	14278
889.263	14301
889.387	14351
889.511	14583
889.635	14438
889.759	14320
889.883	14244
890.006	14278
890.13	14423
890.254	14263
890.377	14233
890.501	14065
890.624	14043
890.748	14214
890.871	14138
890.995	13974
891.118	13890
891.241	13997
891.364	14043
891.488	14077
891.611	13970
891.734	14020
891.857	14001
891.98	14062
892.103	14123
892.226	14069
892.349	13963
892.471	13822
892.594	14012
892.717	13982
892.839	13989
892.962	14031
893.085	14084
893.207	14008
893.33	14016
893.452	13917
893.575	14096
893.697	13967
893.819	14237
893.941	14248
894.064	14218
894.186	13955
894.308	13951
894.43	14153
894.552	14252
894.674	14191
894.796	13997
894.918	13974
895.04	14031
895.161	14107
895.283	14138
895.405	14107
895.526	14001
895.648	14092
895.769	14088
895.891	14138
896.012	14286
896.134	14157
896.255	14142
896.376	14126
896.498	14142
896.619	14240
896.74	14187
896.861	14210
896.982	14533
897.103	14716
897.224	14415
897.345	14484
897.466	14343
897.587	14362
897.708	14530
897.828	14556
897.949	14324
898.07	14374
898.19	14419
898.311	14613
898.431	14480
898.552	14503
898.672	14541
898.792	14610
898.913	14545
899.033	14533
899.153	14370
899.273	14282
899.393	14290
899.513	14275
899.633	14328
899.753	14412
899.873	14404
899.993	14412
900.113	14301
900.232	14358
900.352	14374
900.472	14237
900.591	14195
900.711	14191
900.83	14183
900.95	14324
901.069	14351
901.189	14202
901.308	13944
901.427	13811
901.546	13894
901.665	13871
901.784	13959
901.904	13841
902.023	13670
902.141	13575
902.26	13434
902.379	13613
902.498	13460
902.617	13407
902.735	13571
902.854	13529
902.973	13419
903.091	13221
903.21	13206
903.328	13320
903.446	13187
903.565	12989
903.683	13023
903.801	12951
903.919	13031
904.038	13099
904.156	12878
904.274	12970
904.392	12996
904.51	12856
904.627	12776
904.745	12962
904.863	12886
904.981	12650
905.098	12532
905.216	12513
905.334	12604
905.451	12585
905.569	12551
905.686	12597
905.803	12642
905.921	12395
906.038	12536
906.155	12319
906.272	12251
906.389	12353
906.506	12186
906.623	12194
906.74	12175
906.857	11961
906.974	12087
907.091	12163
907.208	12292
907.324	12129
907.441	12079
907.557	11935
907.674	11939
907.79	11824
907.907	11923
908.023	11939
908.139	11866
908.256	11847
908.372	11824
908.488	11756
908.604	11638
908.72	11676
908.836	11661
908.952	11630
909.068	11745
909.184	11756
909.3	11710
909.415	11783
909.531	11680
909.647	11455
909.762	11482
909.878	11345
909.993	11410
910.108	11417
910.224	11433
910.339	11421
910.454	11273
910.57	11326
910.685	11159
910.8	11474
910.915	11459
911.03	11242
911.145	11143
911.259	11098
911.374	11113
911.489	10987
911.604	11025
911.718	10843
911.833	10930
911.947	10801
912.062	10767
912.176	10854
912.291	10957
912.405	10930
912.519	11113
912.633	11086
912.748	10980
912.862	10942
912.976	10862
913.09	10672
913.204	10694
913.318	10820
913.431	10824
913.545	10889
913.659	10866
913.772	10752
913.886	10626
914	10634
914.113	10660
914.226	10805
914.34	10866
914.453	10565
914.566	10714
914.68	10565
914.793	10626
914.906	10379
915.019	10310
915.132	10295
915.245	10363
915.358	10470
915.47	10371
915.583	10512
915.696	10470
915.809	10577
915.921	10493
916.034	10413
916.146	10409
916.259	10303
916.371	10428
916.483	10382
916.595	10276
916.708	10413
916.82	10363
916.932	10306
917.044	10329
917.156	10398
917.268	10238
917.38	10291
917.491	10192
917.603	10371
917.715	10398
917.826	10314
917.938	10246
918.049	10128
918.161	10276
918.272	10318
918.384	10398
918.495	10268
918.606	10124
918.717	10010
918.828	10158
918.939	10150
919.05	10006
919.161	10124
919.272	9888
919.383	9956
919.494	10219
919.604	10280
919.715	10162
919.826	10131
919.936	10082
920.047	10253
920.157	10150
920.267	10363
920.378	10162
920.488	10166
920.598	10382
920.708	10519
920.818	10204
920.928	10318
921.038	10542
921.148	10485
921.258	10204
921.368	10055
921.477	10067
921.587	9991
921.697	9915
921.806	10101
921.916	9956
922.025	9751
922.134	9698
922.244	9625
922.353	9751
922.462	9625
922.571	9500
922.68	9447
922.789	9424
922.898	9473
923.007	9332
923.116	9504
923.224	9336
923.333	9454
923.442	9332
923.55	9264
923.659	9294
923.767	9412
923.876	9260
923.984	9302
924.092	9230
924.201	9264
924.309	9233
924.417	9294
924.525	9249
924.633	9218
924.741	10105
924.849	9051
924.956	9207
925.064	9047
925.172	8982
925.279	8960
925.387	9199
925.494	9036
925.602	9226
925.709	9157
925.816	8952
925.924	9032
926.031	9199
926.138	9081
926.245	9089
926.352	9028
926.459	9123
926.566	9188
926.673	9001
926.779	8952
926.886	8899
926.993	8872
927.099	8754
927.206	8750
927.312	8701
927.419	8746
927.525	8758
927.631	8815
927.737	8659
927.843	8678
927.95	8537
928.056	8636
928.162	8716
928.267	8773
928.373	9218
928.479	8754
928.585	8503
928.69	8724
928.796	8708
928.901	8613
929.007	8427
929.112	8621
929.218	8587
929.323	8583
929.428	8469
929.533	8602
929.638	8461
929.743	8457
929.848	8511
929.953	8461
930.058	8305
930.163	8176
930.267	8324
930.372	8480
930.477	8168
930.581	8480
930.685	8305
930.79	8183
930.894	8237
930.998	8172
931.103	8317
931.207	8031
931.311	7967
931.415	7845
931.519	7689
931.623	7685
