Data from test_V78500241_3435.txt Node
Date: Fri Mar 25 14:57:38 CST 2022
User: usil
Spectrometer: V785-0024
Trigger mode: 0
Integration Time (sec): 4.000000E-1
Scans to average: 1
Nonlinearity correction enabled: false
Boxcar width: 0
Storing dark spectrum: false
XAxis mode: Wavelengths
Number of Pixels in Spectrum: 1024
>>>>>Begin Spectral Data<<<<<
801.071	21941
801.214	21793
801.356	21652
801.499	21515
801.641	21241
801.783	21291
801.926	21370
802.068	21272
802.211	21146
802.353	21100
802.496	20834
802.638	20785
802.78	20720
802.923	20693
803.065	20625
803.208	20560
803.35	20750
803.492	20720
803.635	20648
803.777	20549
803.919	20727
804.061	21104
804.204	20636
804.346	20621
804.488	20347
804.63	20541
804.773	20507
804.915	20530
805.057	20530
805.199	20362
805.341	20606
805.483	20636
805.626	20644
805.768	20457
805.91	20526
806.052	20598
806.194	20465
806.336	20651
806.478	20393
806.62	20431
806.762	20651
806.904	20880
807.046	20838
807.188	20712
807.33	20868
807.472	20872
807.614	20800
807.756	20659
807.898	20689
808.04	20511
808.182	20579
808.324	20583
808.465	20613
808.607	20819
808.749	20781
808.891	20929
809.033	20994
809.174	20994
809.316	20849
809.458	20834
809.6	20880
809.741	20990
809.883	20868
810.025	20921
810.166	21028
810.308	21013
810.45	20952
810.591	20838
810.733	20804
810.875	20708
811.016	20518
811.158	20571
811.299	20594
811.441	20811
811.582	20651
811.724	20552
811.865	20625
812.007	20617
812.148	20590
812.29	20693
812.431	20762
812.573	20895
812.714	20891
812.855	21138
812.997	21161
813.138	21279
813.279	21260
813.421	21089
813.562	21142
813.703	20895
813.845	20712
813.986	20560
814.127	20275
814.268	20286
814.41	20130
814.551	20218
814.692	20126
814.833	20142
814.974	20214
815.115	20218
815.256	20081
815.397	20043
815.539	20054
815.68	19909
815.821	19799
815.962	19814
816.103	19849
816.244	19689
816.385	19590
816.526	19643
816.666	19571
816.807	19297
816.948	19407
817.089	19422
817.23	19343
817.371	19293
817.512	19232
817.653	19422
817.793	19247
817.934	19308
818.075	19320
818.216	19339
818.356	19266
818.497	19156
818.638	19004
818.778	18989
818.919	18947
819.06	19042
819.2	19156
819.341	19141
819.481	19148
819.622	19297
819.762	19514
819.903	19411
820.043	19468
820.184	19312
820.324	19297
820.465	19221
820.605	19297
820.746	19362
820.886	19168
821.026	19316
821.167	19263
821.307	19175
821.447	19141
821.588	19129
821.728	18947
821.868	18844
822.008	18684
822.149	18757
822.289	18665
822.429	18410
822.569	18369
822.709	18460
822.849	18216
822.99	18213
823.13	18117
823.27	18140
823.41	18011
823.55	18041
823.69	18019
823.83	18064
823.97	17980
824.11	17824
824.25	17687
824.389	17783
824.529	17783
824.669	17809
824.809	17756
824.949	17813
825.089	17813
825.228	17707
825.368	17528
825.508	17524
825.648	17630
825.787	17627
825.927	17668
826.067	17444
826.206	17509
826.346	17562
826.485	17570
826.625	17551
826.765	17691
826.904	17474
827.044	17280
827.183	17197
827.323	17284
827.462	17288
827.601	17239
827.741	17166
827.88	17242
828.02	17064
828.159	17200
828.298	17280
828.437	17242
828.577	17239
828.716	17402
828.855	17094
828.994	17025
829.134	16953
829.273	16987
829.412	16949
829.551	16911
829.69	16927
829.829	17060
829.968	17048
830.107	16991
830.246	16987
830.385	16942
830.524	16946
830.663	16782
830.802	16801
830.941	16653
831.08	16599
831.219	16717
831.357	16618
831.496	16809
831.635	16565
831.774	16367
831.913	16523
832.051	16352
832.19	16470
832.329	16394
832.467	16398
832.606	16272
832.744	16246
832.883	16341
833.022	16226
833.16	16421
833.299	16413
833.437	16230
833.576	16344
833.714	16276
833.852	16379
833.991	16371
834.129	16523
834.267	16390
834.406	16325
834.544	16440
834.682	16436
834.821	16405
834.959	16538
835.097	16428
835.235	16535
835.373	16352
835.511	16333
835.65	16337
835.788	16291
835.926	16086
836.064	16021
836.202	16128
836.34	16363
836.478	16421
836.615	16306
836.753	16287
836.891	16367
837.029	16386
837.167	16265
837.305	16200
837.443	16162
837.58	16207
837.718	16196
837.856	16154
837.993	16238
838.131	16223
838.269	16112
838.406	16162
838.544	16032
838.681	15960
838.819	15911
838.956	15675
839.094	15785
839.231	15732
839.369	15838
839.506	16124
839.643	15926
839.781	15762
839.918	15656
840.055	15789
840.193	15724
840.33	15747
840.467	15675
840.604	15804
840.742	16071
840.879	15603
841.016	15603
841.153	15595
841.29	15876
841.427	15781
841.564	15751
841.701	15766
841.838	15717
841.975	15690
842.112	15682
842.249	15553
842.385	15545
842.522	15739
842.659	15538
842.796	15591
842.933	15515
843.069	15549
843.206	15500
843.343	15580
843.479	15587
843.616	15549
843.752	15287
843.889	15336
844.025	15443
844.162	15214
844.298	15401
844.435	15306
844.571	15275
844.708	15344
844.844	15450
844.98	15443
845.117	15416
845.253	15260
845.389	15199
845.525	15207
845.661	15154
845.798	15062
845.934	15138
846.07	15112
846.206	15138
846.342	15119
846.478	15146
846.614	14891
846.75	14868
846.886	14792
847.022	14979
847.158	14933
847.294	14853
847.429	14811
847.565	14963
847.701	15150
847.837	14594
847.972	14556
848.108	14712
848.244	14754
848.379	14465
848.515	14423
848.65	14374
848.786	14461
848.921	14552
849.057	14655
849.192	14549
849.328	14556
849.463	14507
849.598	14393
849.734	14385
849.869	14396
850.004	14259
850.14	14305
850.275	14153
850.41	14183
850.545	14172
850.68	14157
850.815	14229
850.95	14225
851.085	14374
851.22	14256
851.355	14252
851.49	14275
851.625	14278
851.76	14256
851.895	14077
852.03	14035
852.165	14271
852.299	14229
852.434	14355
852.569	14305
852.703	14214
852.838	14275
852.973	14362
853.107	14427
853.242	14176
853.376	14111
853.511	13997
853.645	14081
853.78	14180
853.914	14107
854.048	14103
854.183	14183
854.317	14183
854.451	14343
854.585	14100
854.72	14168
854.854	14252
854.988	14084
855.122	14126
855.256	14001
855.39	14123
855.524	14221
855.658	14126
855.792	14058
855.926	14161
856.06	14225
856.194	14233
856.327	14149
856.461	14054
856.595	13959
856.729	14069
856.862	14195
856.996	14195
857.13	14191
857.263	14301
857.397	14195
857.53	14054
857.664	14161
857.797	14252
857.931	14336
858.064	14195
858.197	14145
858.331	14103
858.464	14161
858.597	14111
858.731	14134
858.864	14218
858.997	14027
859.13	14195
859.263	14096
859.396	14187
859.529	14111
859.662	13989
859.795	14058
859.928	14138
860.061	14301
860.194	14317
860.327	14153
860.46	14164
860.592	14218
860.725	14210
860.858	14157
860.99	14092
861.123	14123
861.256	14088
861.388	14210
861.521	14830
861.653	13978
861.786	13894
861.918	14027
862.05	14111
862.183	14001
862.315	14050
862.447	14103
862.58	14073
862.712	13879
862.844	13894
862.976	13940
863.108	14008
863.24	14377
863.372	13890
863.504	13913
863.636	13906
863.768	13921
863.9	13902
864.032	13811
864.164	13826
864.296	13959
864.428	13902
864.559	14084
864.691	13917
864.823	13921
864.954	13925
865.086	13883
865.217	13864
865.349	13913
865.48	13902
865.612	13845
865.743	14084
865.875	13925
866.006	13807
866.137	13917
866.269	13940
866.4	13879
866.531	13833
866.662	13833
866.793	13864
866.924	13811
867.055	13864
867.186	13925
867.317	13871
867.448	13727
867.579	13879
867.71	13788
867.841	13818
867.972	13970
868.103	13841
868.233	13860
868.364	13959
868.495	13830
868.625	14107
868.756	14282
868.886	14050
869.017	14050
869.147	14233
869.278	14248
869.408	14210
869.539	14145
869.669	14218
869.799	14183
869.929	14199
870.06	14233
870.19	14427
870.32	14442
870.45	14473
870.58	14598
870.71	14686
870.84	14590
870.97	14674
871.1	14438
871.23	14693
871.36	14697
871.489	14663
871.619	14651
871.749	14712
871.879	14792
872.008	14792
872.138	14746
872.267	14800
872.397	14583
872.526	14655
872.656	14594
872.785	14541
872.915	14781
873.044	14788
873.173	14830
873.303	14857
873.432	14849
873.561	14895
873.69	14785
873.819	14868
873.948	14826
874.077	14849
874.206	14720
874.335	14842
874.464	14986
874.593	15074
874.722	15123
874.851	15188
874.979	15089
875.108	15176
875.237	15074
875.365	15028
875.494	15039
875.623	15230
875.751	15127
875.88	15157
876.008	15386
876.136	15367
876.265	15504
876.393	15633
876.521	15564
876.65	15660
876.778	15515
876.906	15519
877.034	15428
877.162	15526
877.29	15428
877.418	15519
877.546	15420
877.674	15496
877.802	15572
877.93	15610
878.058	15511
878.185	15424
878.313	15534
878.441	15481
878.568	15367
878.696	15393
878.824	15507
878.951	15656
879.079	15679
879.206	15831
879.333	15724
879.461	15599
879.588	15656
879.715	15705
879.842	15793
879.97	15610
880.097	15329
880.224	15344
880.351	15435
880.478	15454
880.605	15416
880.732	15359
880.859	15610
880.986	15462
881.112	15454
881.239	15344
881.366	15218
881.493	15169
881.619	15047
881.746	15100
881.872	15119
881.999	15009
882.125	15058
882.252	15020
882.378	15074
882.505	15138
882.631	14910
882.757	14914
882.883	14952
883.01	14819
883.136	14823
883.262	14678
883.388	14811
883.514	14883
883.64	14910
883.766	14758
883.892	14701
884.018	14724
884.143	14834
884.269	14895
884.395	14571
884.52	14663
884.646	14629
884.772	14415
884.897	14450
885.023	14552
885.148	14678
885.274	14701
885.399	14670
885.524	14648
885.65	14568
885.775	14613
885.9	14571
886.025	14678
886.15	14636
886.275	14461
886.4	14438
886.525	14469
886.65	14556
886.775	14518
886.9	14648
887.025	14785
887.149	14552
887.274	14408
887.399	14343
887.523	14298
887.648	14355
887.773	14328
887.897	14514
888.021	14454
888.146	14385
888.27	14469
888.395	14495
888.519	14412
888.643	14305
888.767	14434
888.891	14332
889.015	14244
889.139	14347
889.263	14240
889.387	14408
889.511	14431
889.635	14393
889.759	14320
889.883	14202
890.006	14339
890.13	14381
890.254	14153
890.377	14271
890.501	14218
890.624	14039
890.748	14153
890.871	14077
890.995	13928
891.118	13871
891.241	13974
891.364	14001
891.488	14195
891.611	13936
891.734	13963
891.857	14119
891.98	13928
892.103	14096
892.226	13932
892.349	13959
892.471	13750
892.594	13833
892.717	13989
892.839	13936
892.962	14016
893.085	13989
893.207	14050
893.33	13917
893.452	13841
893.575	14046
893.697	13940
893.819	14161
893.941	14240
894.064	14092
894.186	13997
894.308	13906
894.43	14035
894.552	14191
894.674	14161
894.796	13989
894.918	14012
895.04	13997
895.161	14153
895.283	14103
895.405	14046
895.526	14043
895.648	14020
895.769	14088
895.891	14123
896.012	14210
896.134	14123
896.255	14138
896.376	14168
896.498	14123
896.619	14240
896.74	14130
896.861	14142
896.982	14495
897.103	14667
897.224	14366
897.345	14370
897.466	14374
897.587	14370
897.708	14484
897.828	14457
897.949	14267
898.07	14313
898.19	14336
898.311	14617
898.431	14461
898.552	14530
898.672	14682
898.792	14640
898.913	14503
899.033	14503
899.153	14343
899.273	14214
899.393	14282
899.513	14355
899.633	14427
899.753	14374
899.873	14313
899.993	14465
900.113	14366
900.232	14366
900.352	14389
900.472	14301
900.591	14199
900.711	14305
900.83	14176
900.95	14271
901.069	14305
901.189	14183
901.308	13890
901.427	13879
901.546	13856
901.665	13959
901.784	13871
901.904	13799
902.023	13715
902.141	13480
902.26	13460
902.379	13502
902.498	13453
902.617	13430
902.735	13575
902.854	13453
902.973	13346
903.091	13190
903.21	13179
903.328	13209
903.446	13114
903.565	13091
903.683	13057
903.801	12913
903.919	13034
904.038	12962
904.156	12871
904.274	12837
904.392	12856
904.51	12810
904.627	12833
904.745	12882
904.863	12958
904.981	12722
905.098	12673
905.216	12525
905.334	12502
905.451	12570
905.569	12521
905.686	12608
905.803	12544
905.921	12403
906.038	12502
906.155	12456
906.272	12285
906.389	12277
906.506	12079
906.623	12140
906.74	12155
906.857	12057
906.974	12121
907.091	12190
907.208	12266
907.324	12186
907.441	12057
907.557	11904
907.674	11931
907.79	11805
907.907	11836
908.023	11904
908.139	11923
908.256	11756
908.372	11927
908.488	11828
908.604	11779
908.72	11600
908.836	11592
908.952	11592
909.068	11611
909.184	11756
909.3	11672
909.415	11699
909.531	11600
909.647	11376
909.762	11459
909.878	11368
909.993	11417
910.108	11444
910.224	11406
910.339	11326
910.454	11360
910.57	11242
910.685	11136
910.8	11516
910.915	11490
911.03	11235
911.145	11143
911.259	10965
911.374	11109
911.489	11006
911.604	11086
911.718	10885
911.833	10923
911.947	10793
912.062	10763
912.176	10904
912.291	10831
912.405	10862
912.519	11052
912.633	11170
912.748	10881
912.862	10930
912.976	10729
913.09	10611
913.204	10774
913.318	10763
913.431	10835
913.545	10820
913.659	10885
913.772	10824
913.886	10679
914	10653
914.113	10706
914.226	10733
914.34	10706
914.453	10592
914.566	10759
914.68	10554
914.793	10611
914.906	10375
915.019	10341
915.132	10234
915.245	10329
915.358	10341
915.47	10382
915.583	10398
915.696	10470
915.809	10546
915.921	10577
916.034	10314
916.146	10333
916.259	10322
916.371	10447
916.483	10371
916.595	10303
916.708	10272
916.82	10341
916.932	10318
917.044	10352
917.156	10329
917.268	10204
917.38	10265
917.491	10131
917.603	10204
917.715	10257
917.826	10348
917.938	10154
918.049	10143
918.161	10299
918.272	10325
918.384	10371
918.495	10253
918.606	10101
918.717	10044
918.828	10055
918.939	10242
919.05	10017
919.161	10109
919.272	9903
919.383	10017
919.494	10227
919.604	10329
919.715	10124
919.826	9979
919.936	10128
920.047	10135
920.157	10093
920.267	10318
920.378	10207
920.488	10063
920.598	10360
920.708	10443
920.818	10344
920.928	10333
921.038	10542
921.148	10466
921.258	10207
921.368	10055
921.477	9998
921.587	9865
921.697	9835
921.806	10071
921.916	9949
922.025	9701
922.134	9663
922.244	9591
922.353	9720
922.462	9629
922.571	9557
922.68	9370
922.789	9336
922.898	9374
923.007	9351
923.116	9485
923.224	9386
923.333	9283
923.442	9283
923.55	9249
923.659	9272
923.767	9241
923.876	9214
923.984	9241
924.092	9142
924.201	9264
924.309	9203
924.417	9211
924.525	9211
924.633	9260
924.741	10105
924.849	9051
924.956	9192
925.064	9055
925.172	8948
925.279	9043
925.387	9074
925.494	9066
925.602	9142
925.709	9093
925.816	8967
925.924	9043
926.031	9150
926.138	9017
926.245	9085
926.352	9039
926.459	9066
926.566	9154
926.673	9032
926.779	8883
926.886	8883
926.993	8727
927.099	8720
927.206	8739
927.312	8766
927.419	8819
927.525	8785
927.631	8834
927.737	8716
927.843	8746
927.95	8518
928.056	8590
928.162	8678
928.267	8674
928.373	9386
928.479	8758
928.585	8533
928.69	8648
928.796	8659
928.901	8636
929.007	8545
929.112	8518
929.218	8552
929.323	8492
929.428	8556
929.533	8644
929.638	8396
929.743	8461
929.848	8552
929.953	8499
930.058	8461
930.163	8161
930.267	8244
930.372	8377
930.477	8225
930.581	8446
930.685	8328
930.79	8092
930.894	8214
930.998	8187
931.103	8279
931.207	7989
931.311	7967
931.415	7887
931.519	7734
931.623	7776
