Data from test_V78500241_281.txt Node
Date: Fri Mar 25 14:35:40 CST 2022
User: usil
Spectrometer: V785-0024
Trigger mode: 0
Integration Time (sec): 4.000000E-1
Scans to average: 1
Nonlinearity correction enabled: false
Boxcar width: 0
Storing dark spectrum: false
XAxis mode: Wavelengths
Number of Pixels in Spectrum: 1024
>>>>>Begin Spectral Data<<<<<
801.071	27264
801.214	27176
801.356	27009
801.499	26952
801.641	26781
801.783	26640
801.926	26804
802.068	26587
802.211	26522
802.353	26598
802.496	26389
802.638	26339
802.78	26324
802.923	26229
803.065	26176
803.208	26206
803.35	26168
803.492	26237
803.635	26313
803.777	26347
803.919	26294
804.061	26495
804.204	26290
804.346	26256
804.488	26115
804.63	26176
804.773	26065
804.915	26199
805.057	26290
805.199	26168
805.341	26187
805.483	26370
805.626	26298
805.768	26149
805.91	26145
806.052	26469
806.194	26206
806.336	26457
806.478	26271
806.62	26199
806.762	26332
806.904	26412
807.046	26693
807.188	26575
807.33	26541
807.472	26765
807.614	26511
807.756	26659
807.898	26465
808.04	26423
808.182	26431
808.324	26450
808.465	26541
808.607	26583
808.749	26937
808.891	26967
809.033	26971
809.174	27039
809.316	26902
809.458	26868
809.6	26849
809.741	26796
809.883	26769
810.025	26929
810.166	27051
810.308	27077
810.45	26948
810.591	26746
810.733	26689
810.875	26788
811.016	26602
811.158	26530
811.299	26686
811.441	26739
811.582	26788
811.724	26495
811.865	26530
812.007	26632
812.148	26583
812.29	26701
812.431	26750
812.573	26918
812.714	27032
812.855	27017
812.997	27119
813.138	27298
813.279	27176
813.421	27028
813.562	27142
813.703	26853
813.845	26823
813.986	26457
814.127	26396
814.268	26252
814.41	26206
814.551	26115
814.692	26199
814.833	26058
814.974	26176
815.115	26138
815.256	25921
815.397	26084
815.539	26077
815.68	26012
815.821	25932
815.962	26001
816.103	25898
816.244	25811
816.385	25719
816.526	25613
816.666	25392
816.807	25232
816.948	25377
817.089	25392
817.23	25304
817.371	25324
817.512	25392
817.653	25381
817.793	25221
817.934	25255
818.075	25396
818.216	25297
818.356	25388
818.497	25282
818.638	25027
818.778	25012
818.919	24913
819.06	25114
819.2	25103
819.341	25171
819.481	25168
819.622	25354
819.762	25632
819.903	25365
820.043	25274
820.184	25240
820.324	25301
820.465	25308
820.605	25236
820.746	25103
820.886	25160
821.026	25122
821.167	25183
821.307	25308
821.447	25194
821.588	25004
821.728	25065
821.868	24696
822.008	24707
822.149	24601
822.289	24681
822.429	24418
822.569	24304
822.709	24330
822.849	24114
822.99	24125
823.13	24011
823.27	23958
823.41	23851
823.55	23779
823.69	23923
823.83	23794
823.97	23748
824.11	23604
824.25	23649
824.389	23608
824.529	23745
824.669	23707
824.809	23707
824.949	23707
825.089	23733
825.228	23668
825.368	23368
825.508	23395
825.648	23505
825.787	23493
825.927	23516
826.067	23379
826.206	23387
826.346	23547
826.485	23436
826.625	23421
826.765	23509
826.904	23452
827.044	23265
827.183	23067
827.323	23006
827.462	23242
827.601	23105
827.741	23071
827.88	23105
828.02	22900
828.159	22995
828.298	23025
828.437	23166
828.577	23083
828.716	23227
828.855	23067
828.994	22824
829.134	22908
829.273	22839
829.412	22839
829.551	22740
829.69	22733
829.829	22786
829.968	22938
830.107	22767
830.246	22797
830.385	22626
830.524	22691
830.663	22504
830.802	22470
830.941	22356
831.08	22325
831.219	22485
831.357	22409
831.496	22531
831.635	22303
831.774	22322
831.913	22188
832.051	22109
832.19	22154
832.329	22120
832.467	22128
832.606	21937
832.744	21972
832.883	21945
833.022	22025
833.16	21956
833.299	21968
833.437	22063
833.576	22036
833.714	22021
833.852	21983
833.991	22120
834.129	22131
834.267	22029
834.406	22006
834.544	21998
834.682	22059
834.821	22036
834.959	22147
835.097	21972
835.235	22090
835.373	21880
835.511	22025
835.65	21850
835.788	21755
835.926	21663
836.064	21713
836.202	21622
836.34	21937
836.478	21968
836.615	21838
836.753	21785
836.891	21930
837.029	21774
837.167	21865
837.305	21667
837.443	21705
837.58	21690
837.718	21728
837.856	21747
837.993	21519
838.131	21648
838.269	21496
838.406	21515
838.544	21542
838.681	21389
838.819	21207
838.956	21096
839.094	21146
839.231	21154
839.369	21241
839.506	21454
839.643	21332
839.781	21150
839.918	21074
840.055	21131
840.193	21005
840.33	20963
840.467	21020
840.604	21074
840.742	21214
840.879	20902
841.016	20914
841.153	20998
841.29	21058
841.427	20952
841.564	21017
841.701	20982
841.838	20914
841.975	20861
842.112	20910
842.249	20811
842.385	20735
842.522	20880
842.659	20830
842.796	20792
842.933	20682
843.069	20705
843.206	20716
843.343	20788
843.479	20697
843.616	20598
843.752	20667
843.889	20457
844.025	20625
844.162	20499
844.298	20625
844.435	20374
844.571	20385
844.708	20511
844.844	20617
844.98	20549
845.117	20583
845.253	20355
845.389	20336
845.525	20400
845.661	20457
845.798	20412
845.934	20415
846.07	20278
846.206	20419
846.342	20552
846.478	20366
846.614	20100
846.75	19944
846.886	19986
847.022	19970
847.158	19989
847.294	20031
847.429	20164
847.565	19959
847.701	20210
847.837	19662
847.972	19647
848.108	19753
848.244	19731
848.379	19590
848.515	19502
848.65	19453
848.786	19514
848.921	19537
849.057	19655
849.192	19563
849.328	19548
849.463	19556
849.598	19434
849.734	19354
849.869	19358
850.004	19183
850.14	19213
850.275	19289
850.41	19327
850.545	19331
850.68	19194
850.815	19247
850.95	19225
851.085	19407
851.22	19308
851.355	19244
851.49	19175
851.625	19129
851.76	19190
851.895	19190
852.03	19137
852.165	19213
852.299	19099
852.434	19213
852.569	19232
852.703	19236
852.838	19221
852.973	19373
853.107	19346
853.242	19213
853.376	19110
853.511	18882
853.645	19088
853.78	19240
853.914	19069
854.048	19088
854.183	18996
854.317	19053
854.451	19206
854.585	18947
854.72	19019
854.854	19076
854.988	18909
855.122	19046
855.256	18924
855.39	18973
855.524	19152
855.658	18993
855.792	18973
855.926	19046
856.06	19103
856.194	19107
856.327	19004
856.461	19008
856.595	18989
856.729	18920
856.862	19156
856.996	19034
857.13	19034
857.263	19095
857.397	19171
857.53	18981
857.664	18951
857.797	19168
857.931	18993
858.064	19027
858.197	19110
858.331	19015
858.464	18970
858.597	18916
858.731	18962
858.864	19061
858.997	18867
859.13	19042
859.263	19019
859.396	19046
859.529	18935
859.662	18962
859.795	18962
859.928	18882
860.061	19099
860.194	19164
860.327	19012
860.46	18878
860.592	19031
860.725	19050
860.858	19122
860.99	19008
861.123	18916
861.256	18886
861.388	18848
861.521	19594
861.653	18939
861.786	18867
861.918	18814
862.05	18886
862.183	19008
862.315	19050
862.447	19110
862.58	18977
862.712	18814
862.844	18730
862.976	18730
863.108	18738
863.24	19012
863.372	18707
863.504	18768
863.636	18722
863.768	18806
863.9	18635
864.032	18593
864.164	18654
864.296	18722
864.428	18863
864.559	18734
864.691	18760
864.823	18681
864.954	18661
865.086	18684
865.217	18563
865.349	18563
865.48	18597
865.612	18547
865.743	18665
865.875	18604
866.006	18555
866.137	18585
866.269	18612
866.4	18574
866.531	18544
866.662	18494
866.793	18506
866.924	18490
867.055	18623
867.186	18616
867.317	18532
867.448	18471
867.579	18506
867.71	18502
867.841	18422
867.972	18551
868.103	18509
868.233	18635
868.364	18483
868.495	18650
868.625	18848
868.756	18924
868.886	18612
869.017	18700
869.147	18886
869.278	18985
869.408	18852
869.539	18806
869.669	18806
869.799	18833
869.929	18753
870.06	18947
870.19	18954
870.32	19034
870.45	19129
870.58	19190
870.71	19206
870.84	19259
870.97	19118
871.1	19240
871.23	19365
871.36	19289
871.489	19232
871.619	19240
871.749	19179
871.879	19411
872.008	19480
872.138	19324
872.267	19320
872.397	19285
872.526	19099
872.656	19137
872.785	19244
872.915	19324
873.044	19316
873.173	19362
873.303	19255
873.432	19457
873.561	19373
873.69	19396
873.819	19445
873.948	19407
874.077	19449
874.206	19483
874.335	19403
874.464	19521
874.593	19704
874.722	19563
874.851	19746
874.979	19723
875.108	19674
875.237	19620
875.365	19685
875.494	19518
875.623	19742
875.751	19632
875.88	19632
876.008	19925
876.136	19795
876.265	20073
876.393	20206
876.521	20069
876.65	20084
876.778	20126
876.906	19936
877.034	19986
877.162	20142
877.29	19967
877.418	20107
877.546	20031
877.674	20065
877.802	20012
877.93	20138
878.058	19974
878.185	19928
878.313	19974
878.441	19959
878.568	19947
878.696	20145
878.824	20005
878.951	20050
879.079	20237
879.206	20427
879.333	20233
879.461	20149
879.588	20161
879.715	20218
879.842	20518
879.97	20294
880.097	19955
880.224	19864
880.351	20012
880.478	19833
880.605	19947
880.732	19902
880.859	20161
880.986	19989
881.112	19887
881.239	19738
881.366	19635
881.493	19666
881.619	19510
881.746	19411
881.872	19571
881.999	19476
882.125	19411
882.252	19556
882.378	19499
882.505	19624
882.631	19457
882.757	19251
882.883	19343
883.01	19415
883.136	19320
883.262	19129
883.388	19141
883.514	19285
883.64	19247
883.766	19103
883.892	19084
884.018	19145
884.143	19255
884.269	19285
884.395	19076
884.52	18901
884.646	19000
884.772	18859
884.897	18817
885.023	18916
885.148	19023
885.274	19061
885.399	19008
885.524	19057
885.65	18943
885.775	18856
885.9	18825
886.025	18989
886.15	18920
886.275	18810
886.4	18681
886.525	18871
886.65	18863
886.775	18825
886.9	19000
887.025	19110
887.149	18817
887.274	18776
887.399	18684
887.523	18730
887.648	18509
887.773	18566
887.897	18768
888.021	18726
888.146	18631
888.27	18681
888.395	18684
888.519	18696
888.643	18738
888.767	18684
888.891	18673
889.015	18433
889.139	18646
889.263	18422
889.387	18604
889.511	18741
889.635	18544
889.759	18471
889.883	18433
890.006	18486
890.13	18612
890.254	18384
890.377	18384
890.501	18254
890.624	18163
890.748	18194
890.871	18163
890.995	18076
891.118	18019
891.241	18087
891.364	17984
891.488	18167
891.611	18041
891.734	18030
891.857	18148
891.98	18106
892.103	18098
892.226	18060
892.349	17999
892.471	17984
892.594	18087
892.717	18030
892.839	18011
892.962	18057
893.085	18041
893.207	18026
893.33	17836
893.452	17954
893.575	18087
893.697	18060
893.819	18201
893.941	18186
894.064	18098
894.186	17977
894.308	17984
894.43	18098
894.552	18125
894.674	18095
894.796	18019
894.918	18019
895.04	18030
895.161	18076
895.283	18057
895.405	18117
895.526	18136
895.648	18034
895.769	18015
895.891	18136
896.012	18114
896.134	18144
896.255	18064
896.376	18064
896.498	18144
896.619	18053
896.74	18121
896.861	18178
896.982	18357
897.103	18700
897.224	18407
897.345	18342
897.466	18232
897.587	18391
897.708	18399
897.828	18479
897.949	18292
898.07	18281
898.19	18342
898.311	18437
898.431	18232
898.552	18350
898.672	18388
898.792	18467
898.913	18410
899.033	18270
899.153	18083
899.273	18015
899.393	18003
899.513	18194
899.633	18133
899.753	18038
899.873	18019
899.993	18095
900.113	18091
900.232	18167
900.352	17942
900.472	17954
900.591	17920
900.711	17939
900.83	17920
900.95	17980
901.069	17973
901.189	17836
901.308	17634
901.427	17566
901.546	17524
901.665	17604
901.784	17528
901.904	17448
902.023	17318
902.141	17128
902.26	17098
902.379	17208
902.498	17033
902.617	17060
902.735	17102
902.854	17064
902.973	17014
903.091	16786
903.21	16786
903.328	16691
903.446	16656
903.565	16504
903.683	16508
903.801	16516
903.919	16485
904.038	16577
904.156	16268
904.274	16417
904.392	16344
904.51	16329
904.627	16363
904.745	16394
904.863	16337
904.981	16109
905.098	15918
905.216	15888
905.334	15975
905.451	16006
905.569	15945
905.686	16097
905.803	15998
905.921	15739
906.038	15842
906.155	15781
906.272	15629
906.389	15682
906.506	15561
906.623	15587
906.74	15504
906.857	15424
906.974	15397
907.091	15447
907.208	15622
907.324	15591
907.441	15450
907.557	15317
907.674	15165
907.79	15203
907.907	15230
908.023	15268
908.139	15226
908.256	15146
908.372	14998
908.488	15062
908.604	14967
908.72	14944
908.836	14982
908.952	14876
909.068	14948
909.184	15020
909.3	14925
909.415	15039
909.531	15024
909.647	14651
909.762	14663
909.878	14610
909.993	14655
910.108	14644
910.224	14552
910.339	14655
910.454	14541
910.57	14549
910.685	14343
910.8	14587
910.915	14610
911.03	14492
911.145	14282
911.259	14263
911.374	14275
911.489	14195
911.604	14225
911.718	14058
911.833	14073
911.947	13837
912.062	13776
912.176	14050
912.291	14046
912.405	13993
912.519	14164
912.633	14256
912.748	14081
912.862	13978
912.976	13822
913.09	13704
913.204	13864
913.318	13845
913.431	13955
913.545	13932
913.659	13970
913.772	13803
913.886	13677
914	13704
914.113	13772
914.226	13708
914.34	13742
914.453	13521
914.566	13788
914.68	13601
914.793	13525
914.906	13381
915.019	13331
915.132	13304
915.245	13289
915.358	13411
915.47	13377
915.583	13301
915.696	13358
915.809	13483
915.921	13476
916.034	13312
916.146	13236
916.259	13213
916.371	13335
916.483	13304
916.595	13217
916.708	13289
916.82	13198
916.932	13126
917.044	13160
917.156	13122
917.268	13129
917.38	13091
917.491	13031
917.603	13129
917.715	13183
917.826	13114
917.938	13023
918.049	12863
918.161	13015
918.272	13225
918.384	13164
918.495	13046
918.606	12848
918.717	12890
918.828	12962
918.939	12821
919.05	12776
919.161	12909
919.272	12692
919.383	12635
919.494	12833
919.604	13027
919.715	12901
919.826	12734
919.936	12734
920.047	12897
920.157	12817
920.267	13012
920.378	12905
920.488	12783
920.598	12894
920.708	13122
920.818	12962
920.928	13004
921.038	13084
921.148	13065
921.258	12787
921.368	12669
921.477	12551
921.587	12616
921.697	12547
921.806	12585
921.916	12555
922.025	12239
922.134	12289
922.244	12254
922.353	12258
922.462	12114
922.571	12072
922.68	11904
922.789	11843
922.898	11878
923.007	11855
923.116	12003
923.224	11893
923.333	11874
923.442	11851
923.55	11707
923.659	11737
923.767	11779
923.876	11718
923.984	11764
924.092	11642
924.201	11741
924.309	11752
924.417	11760
924.525	11573
924.633	11604
924.741	12570
924.849	11368
924.956	11661
925.064	11330
925.172	11277
925.279	11414
925.387	11383
925.494	11368
925.602	11535
925.709	11516
925.816	11383
925.924	11330
926.031	11467
926.138	11395
926.245	11387
926.352	11296
926.459	11455
926.566	11436
926.673	11330
926.779	11277
926.886	11227
926.993	11014
927.099	11086
927.206	11022
927.312	10946
927.419	11041
927.525	10995
927.631	11052
927.737	10885
927.843	10946
927.95	10755
928.056	10889
928.162	10900
928.267	10957
928.373	11425
928.479	10923
928.585	10721
928.69	10854
928.796	10885
928.901	10755
929.007	10634
929.112	10714
929.218	10782
929.323	10653
929.428	10596
929.533	10767
929.638	10577
929.743	10588
929.848	10694
929.953	10504
930.058	10519
930.163	10333
930.267	10284
930.372	10519
930.477	10268
930.581	10447
930.685	10295
930.79	10253
930.894	10249
930.998	10246
931.103	10322
931.207	9960
931.311	9968
931.415	9850
931.519	9652
931.623	9698
