Data from test_V78500241_521.txt Node
Date: Fri Mar 25 14:37:20 CST 2022
User: usil
Spectrometer: V785-0024
Trigger mode: 0
Integration Time (sec): 4.000000E-1
Scans to average: 1
Nonlinearity correction enabled: false
Boxcar width: 0
Storing dark spectrum: false
XAxis mode: Wavelengths
Number of Pixels in Spectrum: 1024
>>>>>Begin Spectral Data<<<<<
801.071	27005
801.214	26891
801.356	26587
801.499	26587
801.641	26415
801.783	26362
801.926	26393
802.068	26286
802.211	26119
802.353	26115
802.496	25959
802.638	25944
802.78	25932
802.923	25887
803.065	25879
803.208	25799
803.35	25856
803.492	26005
803.635	25928
803.777	25932
803.919	25970
804.061	26252
804.204	25947
804.346	25993
804.488	25852
804.63	25982
804.773	25795
804.915	25902
805.057	25982
805.199	25871
805.341	25883
805.483	25989
805.626	26092
805.768	25959
805.91	26001
806.052	26039
806.194	26100
806.336	26195
806.478	26035
806.62	26134
806.762	26305
806.904	26556
807.046	26887
807.188	26788
807.33	26842
807.472	26929
807.614	27127
807.756	27233
807.898	27332
808.04	27652
808.182	27998
808.324	28455
808.465	29018
808.607	29843
808.749	30338
808.891	30654
809.033	30673
809.174	30224
809.316	29642
809.458	29018
809.6	28512
809.741	27994
809.883	27652
810.025	27530
810.166	27249
810.308	27382
810.45	27135
810.591	26960
810.733	26773
810.875	26609
811.016	26457
811.158	26332
811.299	26533
811.441	26629
811.582	26453
811.724	26263
811.865	26366
812.007	26282
812.148	26328
812.29	26324
812.431	26438
812.573	26609
812.714	26663
812.855	26720
812.997	26842
813.138	26994
813.279	26777
813.421	26838
813.562	26621
813.703	26526
813.845	26461
813.986	26221
814.127	25940
814.268	25719
814.41	25830
814.551	25704
814.692	25822
814.833	25822
814.974	25795
815.115	25765
815.256	25578
815.397	25594
815.539	25586
815.68	25445
815.821	25335
815.962	25613
816.103	25540
816.244	25285
816.385	25164
816.526	25129
816.666	25019
816.807	24890
816.948	24951
817.089	24985
817.23	24814
817.371	24760
817.512	24787
817.653	24814
817.793	24665
817.934	24810
818.075	24817
818.216	24863
818.356	24795
818.497	24585
818.638	24399
818.778	24384
818.919	24525
819.06	24540
819.2	24566
819.341	24730
819.481	24760
819.622	24875
819.762	25019
819.903	24977
820.043	24837
820.184	24840
820.324	24844
820.465	24886
820.605	24715
820.746	24741
820.886	24589
821.026	24825
821.167	24711
821.307	24681
821.447	24776
821.588	24570
821.728	24395
821.868	24209
822.008	24133
822.149	24167
822.289	23996
822.429	23855
822.569	23718
822.709	23863
822.849	23512
822.99	23429
823.13	23425
823.27	23562
823.41	23280
823.55	23197
823.69	23322
823.83	23315
823.97	23246
824.11	23090
824.25	23060
824.389	23006
824.529	23155
824.669	23128
824.809	23227
824.949	23079
825.089	23140
825.228	23075
825.368	22972
825.508	23003
825.648	22885
825.787	22877
825.927	22915
826.067	22831
826.206	22850
826.346	22866
826.485	22850
826.625	22949
826.765	22873
826.904	22957
827.044	22656
827.183	22592
827.323	22546
827.462	22516
827.601	22489
827.741	22478
827.88	22615
828.02	22382
828.159	22504
828.298	22455
828.437	22599
828.577	22451
828.716	22519
828.855	22424
828.994	22299
829.134	22417
829.273	22322
829.412	22310
829.551	22166
829.69	22207
829.829	22211
829.968	22253
830.107	22352
830.246	22249
830.385	22207
830.524	22143
830.663	22082
830.802	21934
830.941	21975
831.08	21793
831.219	21880
831.357	21865
831.496	21960
831.635	21831
831.774	21728
831.913	21766
832.051	21599
832.19	21610
832.329	21690
832.467	21469
832.606	21469
832.744	21458
832.883	21477
833.022	21477
833.16	21496
833.299	21644
833.437	21629
833.576	21652
833.714	21770
833.852	21713
833.991	21625
834.129	21743
834.267	21698
834.406	21679
834.544	21690
834.682	21709
834.821	21671
834.959	21736
835.097	21610
835.235	21545
835.373	21587
835.511	21511
835.65	21359
835.788	21477
835.926	21176
836.064	21245
836.202	21245
836.34	21302
836.478	21435
836.615	21298
836.753	21298
836.891	21439
837.029	21416
837.167	21378
837.305	21279
837.443	21195
837.58	21188
837.718	21268
837.856	21176
837.993	21070
838.131	21199
838.269	21017
838.406	21165
838.544	20887
838.681	20834
838.819	20842
838.956	20625
839.094	20625
839.231	20743
839.369	20735
839.506	20952
839.643	20876
839.781	20606
839.918	20533
840.055	20609
840.193	20526
840.33	20419
840.467	20488
840.604	20507
840.742	20845
840.879	20469
841.016	20408
841.153	20492
841.29	20708
841.427	20526
841.564	20609
841.701	20488
841.838	20415
841.975	20290
842.112	20530
842.249	20362
842.385	20275
842.522	20362
842.659	20328
842.796	20278
842.933	20332
843.069	20267
843.206	20233
843.343	20309
843.479	20256
843.616	20202
843.752	20191
843.889	20031
844.025	20347
844.162	20069
844.298	20267
844.435	20100
844.571	20016
844.708	20210
844.844	20362
844.98	20412
845.117	20590
845.253	20739
845.389	20796
845.525	21447
845.661	22360
845.798	23596
845.934	24639
846.07	24947
846.206	24875
846.342	24098
846.478	22904
846.614	21576
846.75	20739
846.886	20339
847.022	20107
847.158	19856
847.294	19753
847.429	19677
847.565	19658
847.701	19906
847.837	19354
847.972	19266
848.108	19209
848.244	19506
848.379	19122
848.515	19019
848.65	19084
848.786	19133
848.921	19034
849.057	19228
849.192	19145
849.328	19076
849.463	19027
849.598	18973
849.734	19000
849.869	18848
850.004	18962
850.14	18821
850.275	19008
850.41	18715
850.545	18764
850.68	18856
850.815	18802
850.95	18882
851.085	18943
851.22	18856
851.355	18772
851.49	18719
851.625	18684
851.76	18776
851.895	18650
852.03	18684
852.165	18783
852.299	18833
852.434	18859
852.569	18795
852.703	18901
852.838	18867
852.973	18901
853.107	18886
853.242	18806
853.376	18681
853.511	18528
853.645	18711
853.78	18764
853.914	18722
854.048	18593
854.183	18719
854.317	18684
854.451	18772
854.585	18544
854.72	18665
854.854	18661
854.988	18620
855.122	18642
855.256	18509
855.39	18669
855.524	18711
855.658	18681
855.792	18597
855.926	18582
856.06	18722
856.194	18722
856.327	18566
856.461	18578
856.595	18540
856.729	18616
856.862	18677
856.996	18646
857.13	18661
857.263	18738
857.397	18601
857.53	18525
857.664	18585
857.797	18730
857.931	18650
858.064	18635
858.197	18601
858.331	18536
858.464	18506
858.597	18380
858.731	18559
858.864	18509
858.997	18528
859.13	18620
859.263	18601
859.396	18703
859.529	18486
859.662	18536
859.795	18467
859.928	18486
860.061	18547
860.194	18654
860.327	18486
860.46	18570
860.592	18604
860.725	18563
860.858	18658
860.99	18665
861.123	18422
861.256	18509
861.388	18486
861.521	19392
861.653	18456
861.786	18353
861.918	18365
862.05	18620
862.183	18661
862.315	18673
862.447	18544
862.58	18490
862.712	18308
862.844	18266
862.976	18330
863.108	18342
863.24	18802
863.372	18201
863.504	18300
863.636	18273
863.768	18300
863.9	18311
864.032	18239
864.164	18125
864.296	18273
864.428	18296
864.559	18186
864.691	18182
864.823	18213
864.954	18239
865.086	18228
865.217	18262
865.349	17954
865.48	18209
865.612	18060
865.743	18311
865.875	18220
866.006	18152
866.137	18182
866.269	18186
866.4	18224
866.531	18045
866.662	18178
866.793	18072
866.924	18091
867.055	18125
867.186	18117
867.317	18167
867.448	18003
867.579	18019
867.71	17988
867.841	18041
867.972	18121
868.103	18178
868.233	18079
868.364	18125
868.495	18019
868.625	18327
868.756	18547
868.886	18171
869.017	18308
869.147	18414
869.278	18479
869.408	18460
869.539	18289
869.669	18353
869.799	18334
869.929	18422
870.06	18330
870.19	18464
870.32	18711
870.45	18772
870.58	18707
870.71	18715
870.84	18837
870.97	18817
871.1	18734
871.23	18783
871.36	18939
871.489	18920
871.619	18943
871.749	18928
871.879	18943
872.008	19110
872.138	18928
872.267	19042
872.397	18852
872.526	18840
872.656	18798
872.785	18833
872.915	19015
873.044	19099
873.173	19000
873.303	19046
873.432	18954
873.561	19042
873.69	19012
873.819	19019
873.948	19114
874.077	19099
874.206	19072
874.335	19046
874.464	19099
874.593	19381
874.722	19228
874.851	19362
874.979	19396
875.108	19460
875.237	19282
875.365	19400
875.494	19293
875.623	19384
875.751	19308
875.88	19438
876.008	19613
876.136	19590
876.265	19791
876.393	20031
876.521	19959
876.65	20031
876.778	19868
876.906	19845
877.034	19822
877.162	19906
877.29	19959
877.418	20012
877.546	19921
877.674	19909
877.802	19890
877.93	19986
878.058	19936
878.185	19890
878.313	20073
878.441	20096
878.568	20176
878.696	20313
878.824	20488
878.951	20743
879.079	20990
879.206	21572
879.333	21876
879.461	22086
879.588	22451
879.715	22504
879.842	22409
879.97	21827
880.097	21264
880.224	20910
880.351	20678
880.478	20579
880.605	20419
880.732	20396
880.859	20488
880.986	20282
881.112	20343
881.239	20187
881.366	20043
881.493	19906
881.619	19868
881.746	19883
881.872	19837
881.999	19852
882.125	19833
882.252	19932
882.378	19989
882.505	19986
882.631	19788
882.757	19689
882.883	19780
883.01	19662
883.136	19696
883.262	19605
883.388	19590
883.514	19651
883.64	19719
883.766	19658
883.892	19472
884.018	19441
884.143	19616
884.269	19746
884.395	19499
884.52	19358
884.646	19392
884.772	19384
884.897	19168
885.023	19282
885.148	19441
885.274	19548
885.399	19343
885.524	19263
885.65	19346
885.775	19308
885.9	19251
886.025	19270
886.15	19168
886.275	19061
886.4	18981
886.525	19148
886.65	19053
886.775	18905
886.9	19187
887.025	19168
887.149	19061
887.274	18833
887.399	18741
887.523	18829
887.648	18753
887.773	18696
887.897	18871
888.021	18837
888.146	18665
888.27	18734
888.395	18715
888.519	18646
888.643	18593
888.767	18635
888.891	18540
889.015	18517
889.139	18498
889.263	18410
889.387	18620
889.511	18665
889.635	18578
889.759	18467
889.883	18357
890.006	18448
890.13	18369
890.254	18277
890.377	18273
890.501	18095
890.624	18064
890.748	18235
890.871	18026
890.995	17939
891.118	17889
891.241	18038
891.364	17870
891.488	18091
891.611	17904
891.734	18003
891.857	17946
891.98	17984
892.103	17980
892.226	17950
892.349	17927
892.471	17802
892.594	17805
892.717	17783
892.839	17767
892.962	17828
893.085	17798
893.207	17756
893.33	17695
893.452	17760
893.575	17802
893.697	17851
893.819	17923
893.941	17996
894.064	17878
894.186	17657
894.308	17741
894.43	17840
894.552	17992
894.674	17813
894.796	17608
894.918	17710
895.04	17805
895.161	17828
895.283	17866
895.405	17786
895.526	17756
895.648	17760
895.769	17775
895.891	17802
896.012	17897
896.134	17786
896.255	17794
896.376	17726
896.498	17733
896.619	17901
896.74	17866
896.861	17973
896.982	18087
897.103	18270
897.224	18087
897.345	17954
897.466	17984
897.587	18076
897.708	18209
897.828	18038
897.949	18015
898.07	17958
898.19	17958
898.311	18041
898.431	18068
898.552	18068
898.672	18174
898.792	18106
898.913	17977
899.033	17977
899.153	17878
899.273	17764
899.393	17798
899.513	17882
899.633	17851
899.753	17817
899.873	17733
899.993	17874
900.113	17714
900.232	17779
900.352	17771
900.472	17748
900.591	17611
900.711	17703
900.83	17596
900.95	17668
901.069	17687
901.189	17554
901.308	17353
901.427	17178
901.546	17204
901.665	17284
901.784	17204
901.904	17200
902.023	17003
902.141	16847
902.26	16733
902.379	16889
902.498	16748
902.617	16691
902.735	16820
902.854	16691
902.973	16710
903.091	16493
903.21	16447
903.328	16519
903.446	16375
903.565	16303
903.683	16257
903.801	16257
903.919	16219
904.038	16230
904.156	16116
904.274	16192
904.392	15998
904.51	16150
904.627	16036
904.745	15979
904.863	16101
904.981	15850
905.098	15694
905.216	15641
905.334	15701
905.451	15694
905.569	15690
905.686	15770
905.803	15682
905.921	15496
906.038	15656
906.155	15515
906.272	15397
906.389	15431
906.506	15207
906.623	15283
906.74	15351
906.857	15047
906.974	15074
907.091	15302
907.208	15291
907.324	15214
907.441	15089
907.557	14960
907.674	14921
907.79	14872
907.907	14906
908.023	14952
908.139	15009
908.256	14811
908.372	14796
908.488	14727
908.604	14701
908.72	14693
908.836	14640
908.952	14560
909.068	14625
909.184	14762
909.3	14537
909.415	14651
909.531	14568
909.647	14366
909.762	14393
909.878	14351
909.993	14377
910.108	14309
910.224	14301
910.339	14389
910.454	14275
910.57	14237
910.685	14180
910.8	14438
910.915	14309
911.03	14244
911.145	14008
911.259	13913
911.374	13902
911.489	13887
911.604	13883
911.718	13712
911.833	13837
911.947	13677
912.062	13578
912.176	13693
912.291	13731
912.405	13731
912.519	13955
912.633	13868
912.748	13734
912.862	13685
912.976	13533
913.09	13358
913.204	13495
913.318	13540
913.431	13556
913.545	13620
913.659	13636
913.772	13510
913.886	13468
914	13346
914.113	13502
914.226	13441
914.34	13411
914.453	13225
914.566	13510
914.68	13331
914.793	13240
914.906	13129
915.019	13088
915.132	12981
915.245	13175
915.358	13099
915.47	13114
915.583	13152
915.696	13152
915.809	13187
915.921	13225
916.034	13015
916.146	13069
916.259	12932
916.371	13190
916.483	13065
916.595	12928
916.708	12943
916.82	12981
916.932	12970
917.044	12878
917.156	12810
917.268	12802
917.38	12798
917.491	12783
917.603	12840
917.715	12916
917.826	12924
917.938	12745
918.049	12707
918.161	12760
918.272	12878
918.384	12875
918.495	12798
918.606	12620
918.717	12566
918.828	12650
918.939	12654
919.05	12525
919.161	12566
919.272	12418
919.383	12399
919.494	12635
919.604	12821
919.715	12582
919.826	12464
919.936	12536
920.047	12700
920.157	12532
920.267	12757
920.378	12623
920.488	12521
920.598	12856
920.708	12932
920.818	12684
920.928	12741
921.038	12863
921.148	12779
921.258	12585
921.368	12388
921.477	12315
921.587	12350
921.697	12216
921.806	12414
921.916	12266
922.025	12129
922.134	12015
922.244	11912
922.353	12087
922.462	11885
922.571	11840
922.68	11672
922.789	11577
922.898	11707
923.007	11649
923.116	11729
923.224	11615
923.333	11619
923.442	11482
923.55	11482
923.659	11558
923.767	11585
923.876	11509
923.984	11615
924.092	11417
924.201	11486
924.309	11398
924.417	11402
924.525	11421
924.633	11535
924.741	12148
924.849	11216
924.956	11402
925.064	11307
925.172	11121
925.279	11117
925.387	11246
925.494	11212
925.602	11269
925.709	11223
925.816	11105
925.924	11166
926.031	11265
926.138	11193
926.245	11166
926.352	11083
926.459	11155
926.566	11246
926.673	11117
926.779	11033
926.886	10991
926.993	10904
927.099	10835
927.206	10801
927.312	10797
927.419	10759
927.525	10831
927.631	10839
927.737	10748
927.843	10679
927.95	10451
928.056	10714
928.162	10694
928.267	10797
928.373	11307
928.479	10733
928.585	10474
928.69	10569
928.796	10691
928.901	10535
929.007	10474
929.112	10573
929.218	10409
929.323	10409
929.428	10462
929.533	10504
929.638	10379
929.743	10405
929.848	10478
929.953	10390
930.058	10337
930.163	10139
930.267	10105
930.372	10333
930.477	10082
930.581	10322
930.685	10200
930.79	10010
930.894	10120
930.998	9968
931.103	10169
931.207	9823
931.311	9755
931.415	9694
931.519	9519
931.623	9469
