Data from test_V78500241_3276.txt Node
Date: Fri Mar 25 14:56:31 CST 2022
User: usil
Spectrometer: V785-0024
Trigger mode: 0
Integration Time (sec): 4.000000E-1
Scans to average: 1
Nonlinearity correction enabled: false
Boxcar width: 0
Storing dark spectrum: false
XAxis mode: Wavelengths
Number of Pixels in Spectrum: 1024
>>>>>Begin Spectral Data<<<<<
801.071	21926
801.214	21884
801.356	21656
801.499	21496
801.641	21435
801.783	21420
801.926	21431
802.068	21260
802.211	21264
802.353	21161
802.496	20956
802.638	20929
802.78	20815
802.923	20625
803.065	20693
803.208	20545
803.35	20708
803.492	20785
803.635	20838
803.777	20674
803.919	20819
804.061	20944
804.204	20663
804.346	20587
804.488	20541
804.63	20735
804.773	20537
804.915	20640
805.057	20682
805.199	20461
805.341	20602
805.483	20693
805.626	20602
805.768	20571
805.91	20499
806.052	20629
806.194	20457
806.336	20743
806.478	20514
806.62	20511
806.762	20678
806.904	20796
807.046	20963
807.188	20982
807.33	20952
807.472	21013
807.614	20899
807.756	20864
807.898	20670
808.04	20625
808.182	20762
808.324	20629
808.465	20682
808.607	20785
808.749	20910
808.891	20963
809.033	21176
809.174	21051
809.316	20895
809.458	20929
809.6	20796
809.741	21047
809.883	20925
810.025	21085
810.166	20956
810.308	21070
810.45	21039
810.591	21013
810.733	20838
810.875	20693
811.016	20587
811.158	20545
811.299	20838
811.441	20910
811.582	20781
811.724	20689
811.865	20636
812.007	20678
812.148	20773
812.29	20765
812.431	20781
812.573	20960
812.714	21112
812.855	21135
812.997	21306
813.138	21424
813.279	21363
813.421	21252
813.562	21211
813.703	20864
813.845	20941
813.986	20579
814.127	20358
814.268	20332
814.41	20191
814.551	20240
814.692	20339
814.833	20187
814.974	20081
815.115	20191
815.256	20073
815.397	20103
815.539	20054
815.68	20027
815.821	19982
815.962	20077
816.103	19898
816.244	19803
816.385	19624
816.526	19693
816.666	19441
816.807	19434
816.948	19525
817.089	19567
817.23	19460
817.371	19358
817.512	19403
817.653	19301
817.793	19251
817.934	19335
818.075	19384
818.216	19411
818.356	19194
818.497	19137
818.638	19103
818.778	19145
818.919	19015
819.06	19122
819.2	19270
819.341	19183
819.481	19247
819.622	19312
819.762	19533
819.903	19449
820.043	19430
820.184	19358
820.324	19369
820.465	19320
820.605	19369
820.746	19327
820.886	19274
821.026	19312
821.167	19282
821.307	19381
821.447	19270
821.588	19152
821.728	19065
821.868	18985
822.008	18745
822.149	18700
822.289	18753
822.429	18589
822.569	18532
822.709	18498
822.849	18315
822.99	18361
823.13	18144
823.27	18186
823.41	18136
823.55	18003
823.69	18030
823.83	18026
823.97	17969
824.11	17828
824.25	17798
824.389	17908
824.529	17912
824.669	17790
824.809	17882
824.949	18030
825.089	17908
825.228	17767
825.368	17668
825.508	17661
825.648	17703
825.787	17581
825.927	17623
826.067	17585
826.206	17649
826.346	17558
826.485	17676
826.625	17558
826.765	17726
826.904	17581
827.044	17387
827.183	17444
827.323	17277
827.462	17429
827.601	17349
827.741	17288
827.88	17311
828.02	17315
828.159	17315
828.298	17315
828.437	17444
828.577	17284
828.716	17467
828.855	17174
828.994	17025
829.134	17124
829.273	17109
829.412	16991
829.551	17010
829.69	17105
829.829	17079
829.968	17227
830.107	17098
830.246	17079
830.385	16938
830.524	16862
830.663	16767
830.802	16793
830.941	16698
831.08	16607
831.219	16694
831.357	16691
831.496	16793
831.635	16687
831.774	16542
831.913	16550
832.051	16462
832.19	16447
832.329	16569
832.467	16405
832.606	16325
832.744	16405
832.883	16382
833.022	16318
833.16	16382
833.299	16409
833.437	16348
833.576	16398
833.714	16417
833.852	16402
833.991	16428
834.129	16500
834.267	16500
834.406	16295
834.544	16500
834.682	16474
834.821	16356
834.959	16611
835.097	16466
835.235	16626
835.373	16519
835.511	16523
835.65	16436
835.788	16337
835.926	16257
836.064	16200
836.202	16211
836.34	16390
836.478	16451
836.615	16329
836.753	16424
836.891	16386
837.029	16470
837.167	16310
837.305	16291
837.443	16253
837.58	16116
837.718	16280
837.856	16314
837.993	16112
838.131	16261
838.269	16242
838.406	16234
838.544	16150
838.681	15972
838.819	15880
838.956	15895
839.094	15728
839.231	15838
839.369	15876
839.506	16207
839.643	15979
839.781	15804
839.918	15698
840.055	15823
840.193	15766
840.33	15682
840.467	15751
840.604	15713
840.742	15987
840.879	15641
841.016	15679
841.153	15671
841.29	15854
841.427	15884
841.564	15739
841.701	15838
841.838	15701
841.975	15595
842.112	15580
842.249	15584
842.385	15530
842.522	15720
842.659	15633
842.796	15507
842.933	15519
843.069	15450
843.206	15500
843.343	15698
843.479	15606
843.616	15564
843.752	15249
843.889	15359
844.025	15488
844.162	15298
844.298	15447
844.435	15401
844.571	15393
844.708	15481
844.844	15500
844.98	15488
845.117	15443
845.253	15332
845.389	15272
845.525	15214
845.661	15214
845.798	15138
845.934	15245
846.07	15146
846.206	15195
846.342	15256
846.478	15165
846.614	14952
846.75	14868
846.886	14853
847.022	14963
847.158	14944
847.294	14899
847.429	14944
847.565	14902
847.701	15142
847.837	14594
847.972	14636
848.108	14735
848.244	14727
848.379	14469
848.515	14583
848.65	14480
848.786	14450
848.921	14495
849.057	14632
849.192	14682
849.328	14568
849.463	14473
849.598	14461
849.734	14320
849.869	14393
850.004	14313
850.14	14336
850.275	14320
850.41	14176
850.545	14214
850.68	14191
850.815	14244
850.95	14218
851.085	14415
851.22	14427
851.355	14252
851.49	14324
851.625	14206
851.76	14252
851.895	14229
852.03	14058
852.165	14317
852.299	14343
852.434	14317
852.569	14385
852.703	14400
852.838	14320
852.973	14454
853.107	14370
853.242	14172
853.376	14214
853.511	14092
853.645	14149
853.78	14176
853.914	14191
854.048	14035
854.183	14123
854.317	14233
854.451	14290
854.585	14138
854.72	14065
854.854	14256
854.988	14103
855.122	14138
855.256	14092
855.39	14123
855.524	14240
855.658	14142
855.792	14180
855.926	14202
856.06	14214
856.194	14305
856.327	14153
856.461	14043
856.595	14142
856.729	14088
856.862	14275
856.996	14183
857.13	14237
857.263	14225
857.397	14324
857.53	14123
857.664	14298
857.797	14206
857.931	14229
858.064	14259
858.197	14244
858.331	14119
858.464	14054
858.597	14058
858.731	14130
858.864	14111
858.997	14111
859.13	14191
859.263	14142
859.396	14244
859.529	14111
859.662	14084
859.795	14092
859.928	14161
860.061	14317
860.194	14240
860.327	14100
860.46	14172
860.592	14267
860.725	14252
860.858	14172
860.99	14142
861.123	14088
861.256	14103
861.388	14221
861.521	14906
861.653	14012
861.786	14065
861.918	14058
862.05	14088
862.183	14020
862.315	14161
862.447	14157
862.58	14020
862.712	13951
862.844	13928
862.976	14024
863.108	13967
863.24	14256
863.372	13936
863.504	13944
863.636	13936
863.768	13982
863.9	13970
864.032	13986
864.164	13982
864.296	13951
864.428	14031
864.559	14088
864.691	14073
864.823	13978
864.954	13955
865.086	13963
865.217	14012
865.349	13921
865.48	13875
865.612	14035
865.743	14092
865.875	13944
866.006	13868
866.137	13856
866.269	13928
866.4	13902
866.531	13864
866.662	13788
866.793	13811
866.924	13898
867.055	13940
867.186	13955
867.317	13909
867.448	13772
867.579	13917
867.71	13826
867.841	13814
867.972	13898
868.103	13936
868.233	13887
868.364	13890
868.495	13955
868.625	14100
868.756	14138
868.886	14088
869.017	14195
869.147	14256
869.278	14290
869.408	14183
869.539	14145
869.669	14252
869.799	14351
869.929	14256
870.06	14263
870.19	14526
870.32	14484
870.45	14568
870.58	14579
870.71	14762
870.84	14670
870.97	14533
871.1	14514
871.23	14796
871.36	14796
871.489	14724
871.619	14777
871.749	14788
871.879	14754
872.008	14895
872.138	14815
872.267	14800
872.397	14670
872.526	14549
872.656	14549
872.785	14739
872.915	14819
873.044	14838
873.173	14796
873.303	14807
873.432	14876
873.561	14921
873.69	14788
873.819	14834
873.948	14849
874.077	14762
874.206	14811
874.335	14849
874.464	15009
874.593	15093
874.722	15020
874.851	15157
874.979	15188
875.108	15176
875.237	15116
875.365	14979
875.494	15127
875.623	15207
875.751	15100
875.88	15203
876.008	15245
876.136	15439
876.265	15530
876.393	15690
876.521	15629
876.65	15625
876.778	15428
876.906	15599
877.034	15466
877.162	15511
877.29	15462
877.418	15469
877.546	15587
877.674	15519
877.802	15523
877.93	15538
878.058	15553
878.185	15393
878.313	15511
878.441	15500
878.568	15412
878.696	15389
878.824	15534
878.951	15671
879.079	15675
879.206	15793
879.333	15747
879.461	15622
879.588	15614
879.715	15789
879.842	15785
879.97	15557
880.097	15367
880.224	15412
880.351	15389
880.478	15310
880.605	15344
880.732	15393
880.859	15667
880.986	15412
881.112	15488
881.239	15340
881.366	15237
881.493	15070
881.619	15024
881.746	14979
881.872	15074
881.999	15077
882.125	15112
882.252	15207
882.378	15119
882.505	15169
882.631	15036
882.757	14910
882.883	14883
883.01	14880
883.136	14861
883.262	14834
883.388	14724
883.514	14979
883.64	14849
883.766	14899
883.892	14705
884.018	14708
884.143	14826
884.269	14986
884.395	14629
884.52	14568
884.646	14625
884.772	14507
884.897	14587
885.023	14617
885.148	14632
885.274	14621
885.399	14777
885.524	14610
885.65	14648
885.775	14598
885.9	14484
886.025	14678
886.15	14682
886.275	14526
886.4	14461
886.525	14514
886.65	14507
886.775	14488
886.9	14701
887.025	14739
887.149	14598
887.274	14476
887.399	14396
887.523	14366
887.648	14339
887.773	14286
887.897	14473
888.021	14495
888.146	14370
888.27	14450
888.395	14613
888.519	14480
888.643	14381
888.767	14518
888.891	14358
889.015	14183
889.139	14290
889.263	14301
889.387	14396
889.511	14492
889.635	14385
889.759	14301
889.883	14176
890.006	14320
890.13	14328
890.254	14187
890.377	14225
890.501	14119
890.624	14046
890.748	14187
890.871	14065
890.995	13955
891.118	13875
891.241	14024
891.364	14046
891.488	14058
891.611	13986
891.734	13871
891.857	14024
891.98	14073
892.103	14073
892.226	14035
892.349	14062
892.471	13845
892.594	13978
892.717	13974
892.839	13902
892.962	13959
893.085	14016
893.207	13909
893.33	13852
893.452	13932
893.575	14092
893.697	14008
893.819	14130
893.941	14145
894.064	14138
894.186	13963
894.308	13917
894.43	14111
894.552	14252
894.674	14138
894.796	14058
894.918	14024
895.04	13894
895.161	14126
895.283	14008
895.405	14050
895.526	14115
895.648	14020
895.769	14107
895.891	14134
896.012	14183
896.134	14259
896.255	14111
896.376	14149
896.498	14157
896.619	14142
896.74	14237
896.861	14278
896.982	14526
897.103	14705
897.224	14465
897.345	14446
897.466	14404
897.587	14431
897.708	14594
897.828	14427
897.949	14404
898.07	14374
898.19	14362
898.311	14682
898.431	14480
898.552	14526
898.672	14575
898.792	14602
898.913	14514
899.033	14412
899.153	14324
899.273	14271
899.393	14377
899.513	14461
899.633	14408
899.753	14465
899.873	14343
899.993	14488
900.113	14362
900.232	14355
900.352	14229
900.472	14355
900.591	14172
900.711	14275
900.83	14210
900.95	14366
901.069	14320
901.189	14172
901.308	13986
901.427	13887
901.546	13898
901.665	13932
901.784	13978
901.904	13826
902.023	13761
902.141	13586
902.26	13540
902.379	13525
902.498	13495
902.617	13476
902.735	13571
902.854	13476
902.973	13464
903.091	13175
903.21	13301
903.328	13236
903.446	13202
903.565	13099
903.683	13031
903.801	13019
903.919	13072
904.038	13004
904.156	12935
904.274	13088
904.392	12901
904.51	12905
904.627	12943
904.745	12954
904.863	12947
904.981	12692
905.098	12547
905.216	12623
905.334	12574
905.451	12677
905.569	12540
905.686	12585
905.803	12642
905.921	12490
906.038	12551
906.155	12369
906.272	12384
906.389	12395
906.506	12102
906.623	12247
906.74	12163
906.857	12102
906.974	12091
907.091	12205
907.208	12369
907.324	12254
907.441	12155
907.557	11942
907.674	11939
907.79	11870
907.907	11961
908.023	11999
908.139	11923
908.256	11920
908.372	11870
908.488	11813
908.604	11783
908.72	11691
908.836	11737
908.952	11547
909.068	11752
909.184	11794
909.3	11733
909.415	11710
909.531	11779
909.647	11448
909.762	11589
909.878	11459
909.993	11482
910.108	11452
910.224	11387
910.339	11493
910.454	11383
910.57	11311
910.685	11212
910.8	11573
910.915	11516
911.03	11356
911.145	11273
911.259	11166
911.374	11223
911.489	11105
911.604	11010
911.718	10942
911.833	10896
911.947	10892
912.062	10740
912.176	10911
912.291	10930
912.405	10911
912.519	11159
912.633	11083
912.748	11056
912.862	10980
912.976	10828
913.09	10706
913.204	10702
913.318	10740
913.431	10961
913.545	10828
913.659	10972
913.772	10786
913.886	10660
914	10706
914.113	10831
914.226	10828
914.34	10786
914.453	10675
914.566	10820
914.68	10664
914.793	10683
914.906	10497
915.019	10440
915.132	10409
915.245	10405
915.358	10443
915.47	10489
915.583	10440
915.696	10516
915.809	10580
915.921	10523
916.034	10413
916.146	10402
916.259	10337
916.371	10451
916.483	10386
916.595	10371
916.708	10421
916.82	10402
916.932	10363
917.044	10341
917.156	10314
917.268	10223
917.38	10230
917.491	10265
917.603	10306
917.715	10299
917.826	10375
917.938	10249
918.049	10162
918.161	10249
918.272	10402
918.384	10367
918.495	10287
918.606	10169
918.717	10059
918.828	10105
918.939	10211
919.05	10097
919.161	10032
919.272	9975
919.383	9998
919.494	10230
919.604	10375
919.715	10242
919.826	10059
919.936	10143
920.047	10230
920.157	10169
920.267	10386
920.378	10306
920.488	10177
920.598	10352
920.708	10470
920.818	10348
920.928	10398
921.038	10504
921.148	10470
921.258	10185
921.368	10124
921.477	10097
921.587	10029
921.697	9884
921.806	10059
921.916	9865
922.025	9762
922.134	9720
922.244	9736
922.353	9701
922.462	9625
922.571	9656
922.68	9504
922.789	9473
922.898	9477
923.007	9367
923.116	9504
923.224	9488
923.333	9420
923.442	9382
923.55	9310
923.659	9359
923.767	9389
923.876	9313
923.984	9397
924.092	9211
924.201	9302
924.309	9317
924.417	9359
924.525	9233
924.633	9283
924.741	10181
924.849	9039
924.956	9199
925.064	9070
925.172	8941
925.279	9081
925.387	9142
925.494	9062
925.602	9241
925.709	9154
925.816	9093
925.924	9020
926.031	9192
926.138	9093
926.245	9135
926.352	9013
926.459	9211
926.566	9165
926.673	9028
926.779	8891
926.886	8948
926.993	8861
927.099	8842
927.206	8758
927.312	8815
927.419	8834
927.525	8785
927.631	8861
927.737	8674
927.843	8678
927.95	8564
928.056	8655
928.162	8739
928.267	8720
928.373	9192
928.479	8807
928.585	8590
928.69	8621
928.796	8758
928.901	8590
929.007	8476
929.112	8644
929.218	8594
929.323	8545
929.428	8461
929.533	8610
929.638	8488
929.743	8442
929.848	8537
929.953	8545
930.058	8389
930.163	8313
930.267	8412
930.372	8454
930.477	8180
930.581	8427
930.685	8339
930.79	8240
930.894	8328
930.998	8119
931.103	8393
931.207	8008
931.311	7978
931.415	7928
931.519	7742
931.623	7731
