Data from test_V78500241_815.txt Node
Date: Fri Mar 25 14:39:23 CST 2022
User: usil
Spectrometer: V785-0024
Trigger mode: 0
Integration Time (sec): 4.000000E-1
Scans to average: 1
Nonlinearity correction enabled: false
Boxcar width: 0
Storing dark spectrum: false
XAxis mode: Wavelengths
Number of Pixels in Spectrum: 1024
>>>>>Begin Spectral Data<<<<<
801.071	26393
801.214	26240
801.356	26005
801.499	26001
801.641	25837
801.783	25666
801.926	25757
802.068	25624
802.211	25578
802.353	25365
802.496	25263
802.638	25247
802.78	25183
802.923	25190
803.065	25122
803.208	25156
803.35	25133
803.492	25301
803.635	25236
803.777	25187
803.919	25343
804.061	25476
804.204	25263
804.346	25278
804.488	25327
804.63	25316
804.773	25297
804.915	25331
805.057	25468
805.199	25426
805.341	25476
805.483	25704
805.626	25670
805.768	25712
805.91	25898
806.052	25864
806.194	25894
806.336	26256
806.478	26309
806.62	26465
806.762	26541
806.904	26883
807.046	27458
807.188	27526
807.33	27945
807.472	28401
807.614	28664
807.756	29463
807.898	30353
808.04	31274
808.182	32807
808.324	34710
808.465	37004
808.607	39367
808.749	41687
808.891	42863
809.033	43008
809.174	41733
809.316	39336
809.458	37053
809.6	34653
809.741	32560
809.883	30935
810.025	29912
810.166	29147
810.308	28656
810.45	28173
810.591	27656
810.733	27256
810.875	26830
811.016	26625
811.158	26507
811.299	26583
811.441	26606
811.582	26240
811.724	26050
811.865	26005
812.007	25902
812.148	25932
812.29	25947
812.431	25936
812.573	26077
812.714	26081
812.855	26126
812.997	26282
813.138	26259
813.279	26313
813.421	26016
813.562	25951
813.703	25936
813.845	25643
813.986	25369
814.127	25129
814.268	25076
814.41	25004
814.551	24916
814.692	24966
814.833	24783
814.974	24863
815.115	24798
815.256	24726
815.397	24646
815.539	24631
815.68	24551
815.821	24479
815.962	24486
816.103	24471
816.244	24372
816.385	24243
816.526	24167
816.666	24018
816.807	23878
816.948	23863
817.089	23893
817.23	23813
817.371	23748
817.512	23668
817.653	23760
817.793	23771
817.934	23904
818.075	23741
818.216	23665
818.356	23718
818.497	23501
818.638	23406
818.778	23429
818.919	23459
819.06	23421
819.2	23497
819.341	23771
819.481	23634
819.622	23748
819.762	23973
819.903	23847
820.043	23703
820.184	23615
820.324	23611
820.465	23722
820.605	23638
820.746	23478
820.886	23577
821.026	23646
821.167	23611
821.307	23630
821.447	23501
821.588	23463
821.728	23181
821.868	23060
822.008	23014
822.149	22896
822.289	22923
822.429	22736
822.569	22607
822.709	22489
822.849	22413
822.99	22413
823.13	22268
823.27	22329
823.41	22158
823.55	22135
823.69	22196
823.83	22109
823.97	21968
824.11	21953
824.25	21922
824.389	21884
824.529	21934
824.669	21911
824.809	21907
824.949	21960
825.089	21998
825.228	21907
825.368	21701
825.508	21663
825.648	21705
825.787	21823
825.927	21701
826.067	21595
826.206	21739
826.346	21793
826.485	21789
826.625	21633
826.765	21797
826.904	21713
827.044	21416
827.183	21374
827.323	21317
827.462	21348
827.601	21416
827.741	21389
827.88	21332
828.02	21245
828.159	21306
828.298	21340
828.437	21416
828.577	21260
828.716	21435
828.855	21268
828.994	21047
829.134	21081
829.273	21066
829.412	20960
829.551	21013
829.69	20990
829.829	21074
829.968	21066
830.107	21058
830.246	20998
830.385	20948
830.524	20823
830.663	20758
830.802	20648
830.941	20602
831.08	20644
831.219	20674
831.357	20655
831.496	20861
831.635	20609
831.774	20545
831.913	20606
832.051	20434
832.19	20381
832.329	20522
832.467	20473
832.606	20393
832.744	20381
832.883	20313
833.022	20514
833.16	20674
833.299	20674
833.437	20769
833.576	20834
833.714	21001
833.852	21058
833.991	21123
834.129	21287
834.267	21329
834.406	21275
834.544	21230
834.682	21005
834.821	20845
834.959	20975
835.097	20773
835.235	20716
835.373	20667
835.511	20594
835.65	20355
835.788	20294
835.926	20153
836.064	20122
836.202	20092
836.34	20218
836.478	20256
836.615	20187
836.753	20351
836.891	20202
837.029	20134
837.167	20191
837.305	20115
837.443	20107
837.58	19906
837.718	20126
837.856	19913
837.993	19967
838.131	19963
838.269	19723
838.406	19925
838.544	19791
838.681	19537
838.819	19521
838.956	19514
839.094	19365
839.231	19339
839.369	19415
839.506	19742
839.643	19658
839.781	19324
839.918	19411
840.055	19453
840.193	19400
840.33	19415
840.467	19365
840.604	19548
840.742	19647
840.879	19255
841.016	19320
841.153	19232
841.29	19396
841.427	19426
841.564	19491
841.701	19362
841.838	19358
841.975	19362
842.112	19274
842.249	19312
842.385	19278
842.522	19373
842.659	19168
842.796	19274
842.933	19293
843.069	19240
843.206	19278
843.343	19350
843.479	19331
843.616	19407
843.752	19076
843.889	19160
844.025	19270
844.162	19183
844.298	19396
844.435	19377
844.571	19487
844.708	19883
844.844	20088
844.98	20377
845.117	20906
845.253	21526
845.389	22767
845.525	25308
845.661	29531
845.798	34417
845.934	38438
846.07	39979
846.206	39104
846.342	35767
846.478	30738
846.614	26294
846.75	23383
846.886	21644
847.022	20667
847.158	19982
847.294	19419
847.429	19377
847.565	18897
847.701	19095
847.837	18623
847.972	18536
848.108	18589
848.244	18494
848.379	18315
848.515	18220
848.65	18258
848.786	18247
848.921	18262
849.057	18235
849.192	18152
849.328	18186
849.463	18087
849.598	18030
849.734	18095
849.869	17961
850.004	17931
850.14	17878
850.275	17851
850.41	17802
850.545	17756
850.68	17813
850.815	17931
850.95	17904
851.085	17999
851.22	17946
851.355	17802
851.49	17813
851.625	17805
851.76	17901
851.895	17707
852.03	17691
852.165	17847
852.299	17824
852.434	17984
852.569	17946
852.703	17855
852.838	17988
852.973	17946
853.107	17942
853.242	17882
853.376	17863
853.511	17733
853.645	17851
853.78	17999
853.914	17904
854.048	17977
854.183	17931
854.317	17969
854.451	18163
854.585	17882
854.72	17942
854.854	17965
854.988	17901
855.122	17870
855.256	17764
855.39	17802
855.524	17817
855.658	17798
855.792	17809
855.926	17718
856.06	17745
856.194	17783
856.327	17680
856.461	17726
856.595	17558
856.729	17604
856.862	17741
856.996	17676
857.13	17748
857.263	17729
857.397	17783
857.53	17657
857.664	17718
857.797	17672
857.931	17718
858.064	17581
858.197	17695
858.331	17611
858.464	17558
858.597	17417
858.731	17535
858.864	17589
858.997	17558
859.13	17520
859.263	17512
859.396	17623
859.529	17433
859.662	17604
859.795	17551
859.928	17554
860.061	17726
860.194	17691
860.327	17516
860.46	17532
860.592	17646
860.725	17699
860.858	17684
860.99	17558
861.123	17353
861.256	17501
861.388	17497
861.521	18083
861.653	17433
861.786	17334
861.918	17383
862.05	17516
862.183	17436
862.315	17528
862.447	17558
862.58	17425
862.712	17250
862.844	17147
862.976	17315
863.108	17254
863.24	17611
863.372	17143
863.504	17311
863.636	17185
863.768	17296
863.9	17216
864.032	17220
864.164	17147
864.296	17303
864.428	17265
864.559	17277
864.691	17318
864.823	17280
864.954	17307
865.086	17197
865.217	17159
865.349	17006
865.48	17079
865.612	17117
865.743	17341
865.875	17143
866.006	17086
866.137	17090
866.269	17193
866.4	17060
866.531	17147
866.662	17143
866.793	17018
866.924	17136
867.055	16984
867.186	17132
867.317	17083
867.448	16984
867.579	17029
867.71	17090
867.841	17140
867.972	17204
868.103	17010
868.233	17246
868.364	17105
868.495	17185
868.625	17406
868.756	17474
868.886	17254
869.017	17463
869.147	17471
869.278	17596
869.408	17440
869.539	17383
869.669	17528
869.799	17353
869.929	17551
870.06	17467
870.19	17592
870.32	17691
870.45	17729
870.58	17817
870.71	17885
870.84	17923
870.97	17707
871.1	17805
871.23	18030
871.36	17980
871.489	17965
871.619	17973
871.749	18045
871.879	18003
872.008	18182
872.138	18064
872.267	18049
872.397	17946
872.526	17916
872.656	17992
872.785	18034
872.915	18216
873.044	18247
873.173	18239
873.303	18216
873.432	18258
873.561	18304
873.69	18277
873.819	18296
873.948	18422
874.077	18311
874.206	18273
874.335	18330
874.464	18486
874.593	18654
874.722	18658
874.851	18711
874.979	18791
875.108	18825
875.237	18833
875.365	18639
875.494	18837
875.623	18916
875.751	18783
875.88	18897
876.008	19057
876.136	19095
876.265	19335
876.393	19575
876.521	19632
876.65	19525
876.778	19594
876.906	19533
877.034	19605
877.162	19666
877.29	19681
877.418	19830
877.546	19944
877.674	19871
877.802	19989
877.93	20172
878.058	20145
878.185	20278
878.313	20503
878.441	20826
878.568	21032
878.696	21523
878.824	22181
878.951	23113
879.079	24148
879.206	25734
879.333	27093
879.461	28375
879.588	29242
879.715	29315
879.842	28607
879.97	27218
880.097	25400
880.224	24308
880.351	23501
880.478	22786
880.605	22462
880.732	21968
880.859	22166
880.986	21774
881.112	21747
881.239	21534
881.366	21355
881.493	21241
881.619	21317
881.746	21211
881.872	21367
881.999	21378
882.125	21382
882.252	21428
882.378	21542
882.505	21568
882.631	21389
882.757	21359
882.883	21378
883.01	21420
883.136	21275
883.262	21214
883.388	21100
883.514	21275
883.64	21214
883.766	21188
883.892	21108
884.018	21009
884.143	21313
884.269	21302
884.395	21047
884.52	20937
884.646	20986
884.772	21017
884.897	20777
885.023	20979
885.148	20982
885.274	21096
885.399	20887
885.524	20891
885.65	20648
885.775	20598
885.9	20457
886.025	20461
886.15	20476
886.275	20202
886.4	19959
886.525	20054
886.65	19788
886.775	19917
886.9	19841
887.025	19894
887.149	19662
887.274	19430
887.399	19293
887.523	19263
887.648	19114
887.773	18886
887.897	19091
888.021	19042
888.146	18913
888.27	19012
888.395	19004
888.519	18871
888.643	18916
888.767	18916
888.891	18810
889.015	18684
889.139	18642
889.263	18509
889.387	18681
889.511	18627
889.635	18593
889.759	18422
889.883	18399
890.006	18342
890.13	18452
890.254	18224
890.377	18243
890.501	18106
890.624	17965
890.748	18110
890.871	18041
890.995	17790
891.118	17741
891.241	17809
891.364	17779
891.488	17878
891.611	17722
891.734	17790
891.857	17722
891.98	17756
892.103	17646
892.226	17726
892.349	17516
892.471	17433
892.594	17509
892.717	17581
892.839	17516
892.962	17421
893.085	17516
893.207	17535
893.33	17246
893.452	17372
893.575	17417
893.697	17337
893.819	17433
893.941	17516
894.064	17433
894.186	17299
894.308	17212
894.43	17406
894.552	17322
894.674	17326
894.796	17242
894.918	17181
895.04	17155
895.161	17250
895.283	17231
895.405	17128
895.526	17170
895.648	17094
895.769	17102
895.891	17193
896.012	17299
896.134	17284
896.255	17174
896.376	17113
896.498	17189
896.619	17261
896.74	17170
896.861	17162
896.982	17448
897.103	17619
897.224	17440
897.345	17280
897.466	17254
897.587	17421
897.708	17478
897.828	17288
897.949	17414
898.07	17273
898.19	17360
898.311	17482
898.431	17307
898.552	17406
898.672	17429
898.792	17406
898.913	17322
899.033	17299
899.153	17235
899.273	17174
899.393	17292
899.513	17117
899.633	17147
899.753	17140
899.873	17143
899.993	17292
900.113	17212
900.232	17159
900.352	17147
900.472	17037
900.591	16957
900.711	16946
900.83	16980
900.95	17033
901.069	17067
901.189	16889
901.308	16630
901.427	16664
901.546	16653
901.665	16641
901.784	16691
901.904	16462
902.023	16379
902.141	16204
902.26	16128
902.379	16147
902.498	16173
902.617	16048
902.735	16078
902.854	16078
902.973	16074
903.091	15880
903.21	15743
903.328	15690
903.446	15629
903.565	15564
903.683	15618
903.801	15424
903.919	15405
904.038	15416
904.156	15310
904.274	15344
904.392	15222
904.51	15249
904.627	15173
904.745	15294
904.863	15348
904.981	15104
905.098	14948
905.216	14963
905.334	14990
905.451	15001
905.569	14982
905.686	14982
905.803	14842
905.921	14765
906.038	14834
906.155	14697
906.272	14549
906.389	14651
906.506	14533
906.623	14541
906.74	14408
906.857	14374
906.974	14351
907.091	14457
907.208	14503
907.324	14473
907.441	14461
907.557	14210
907.674	14221
907.79	14111
907.907	14084
908.023	14180
908.139	14218
908.256	14096
908.372	13986
908.488	14016
908.604	13947
908.72	13818
908.836	13944
908.952	13887
909.068	13887
909.184	13928
909.3	13875
909.415	13963
909.531	13898
909.647	13689
909.762	13670
909.878	13643
909.993	13658
910.108	13624
910.224	13540
910.339	13807
910.454	13499
910.57	13396
910.685	13491
910.8	13662
910.915	13700
911.03	13415
911.145	13362
911.259	13304
911.374	13244
911.489	13179
911.604	13221
911.718	13015
911.833	13027
911.947	12928
912.062	12852
912.176	12996
912.291	13042
912.405	13069
912.519	13206
912.633	13289
912.748	13050
912.862	12970
912.976	12909
913.09	12886
913.204	12947
913.318	12951
913.431	12977
913.545	13000
913.659	12981
913.772	12886
913.886	12688
914	12707
914.113	12798
914.226	12848
914.34	12787
914.453	12650
914.566	12840
914.68	12696
914.793	12635
914.906	12452
915.019	12460
915.132	12414
915.245	12445
915.358	12467
915.47	12483
915.583	12486
915.696	12494
915.809	12642
915.921	12597
916.034	12414
916.146	12410
916.259	12395
916.371	12532
916.483	12426
916.595	12376
916.708	12464
916.82	12384
916.932	12372
917.044	12342
917.156	12369
917.268	12292
917.38	12216
917.491	12186
917.603	12296
917.715	12395
917.826	12300
917.938	12155
918.049	12057
918.161	12125
918.272	12251
918.384	12277
918.495	12178
918.606	12072
918.717	12015
918.828	12041
918.939	12019
919.05	11882
919.161	11973
919.272	11870
919.383	11847
919.494	11984
919.604	12205
919.715	11954
919.826	11882
919.936	11946
920.047	12060
920.157	12030
920.267	12186
920.378	12041
920.488	11969
920.598	12197
920.708	12281
920.818	12163
920.928	12144
921.038	12369
921.148	12346
921.258	12045
921.368	11958
921.477	11748
921.587	11752
921.697	11653
921.806	11817
921.916	11672
922.025	11497
922.134	11467
922.244	11505
922.353	11478
922.462	11341
922.571	11254
922.68	11181
922.789	11136
922.898	11033
923.007	11079
923.116	11045
923.224	11121
923.333	11056
923.442	11029
923.55	10934
923.659	11033
923.767	11083
923.876	10858
923.984	10991
924.092	10885
924.201	10908
924.309	10972
924.417	11037
924.525	10866
924.633	10839
924.741	11786
924.849	10710
924.956	10854
925.064	10733
925.172	10618
925.279	10611
925.387	10641
925.494	10664
925.602	10820
925.709	10714
925.816	10645
925.924	10664
926.031	10691
926.138	10679
926.245	10683
926.352	10596
926.459	10721
926.566	10744
926.673	10558
926.779	10573
926.886	10436
926.993	10394
927.099	10398
927.206	10268
927.312	10234
927.419	10325
927.525	10402
927.631	10367
927.737	10211
927.843	10185
927.95	10082
928.056	10242
928.162	10204
928.267	10249
928.373	10797
928.479	10299
928.585	10082
928.69	10147
928.796	10261
928.901	10086
929.007	9934
929.112	10128
929.218	10048
929.323	9937
929.428	9991
929.533	10086
929.638	9979
929.743	9926
929.848	9987
929.953	9907
930.058	9797
930.163	9667
930.267	9747
930.372	9812
930.477	9606
930.581	9953
930.685	9698
930.79	9663
930.894	9667
930.998	9603
931.103	9652
931.207	9359
931.311	9321
931.415	9306
931.519	9081
931.623	9066
