Data from test_V78500241_1737.txt Node
Date: Fri Mar 25 14:45:48 CST 2022
User: usil
Spectrometer: V785-0024
Trigger mode: 0
Integration Time (sec): 4.000000E-1
Scans to average: 1
Nonlinearity correction enabled: false
Boxcar width: 0
Storing dark spectrum: false
XAxis mode: Wavelengths
Number of Pixels in Spectrum: 1024
>>>>>Begin Spectral Data<<<<<
801.071	22226
801.214	22147
801.356	21888
801.499	21743
801.641	21564
801.783	21625
801.926	21652
802.068	21477
802.211	21332
802.353	21306
802.496	21173
802.638	21142
802.78	21173
802.923	20902
803.065	20906
803.208	20857
803.35	20876
803.492	20956
803.635	20990
803.777	20845
803.919	20952
804.061	21268
804.204	20998
804.346	20864
804.488	20883
804.63	20925
804.773	20712
804.915	20815
805.057	20910
805.199	20785
805.341	20990
805.483	21100
805.626	20971
805.768	20861
805.91	20823
806.052	20842
806.194	20708
806.336	21032
806.478	20845
806.62	20823
806.762	20845
806.904	21039
807.046	21176
807.188	21211
807.33	21199
807.472	21211
807.614	21180
807.756	21051
807.898	20891
808.04	20845
808.182	20880
808.324	20887
808.465	20960
808.607	21116
808.749	21169
808.891	21393
809.033	21412
809.174	21287
809.316	21291
809.458	21081
809.6	21104
809.741	21249
809.883	21272
810.025	21401
810.166	21363
810.308	21428
810.45	21389
810.591	21252
810.733	21096
810.875	21020
811.016	21055
811.158	20887
811.299	21062
811.441	21138
811.582	21123
811.724	21036
811.865	20963
812.007	20990
812.148	20929
812.29	20921
812.431	21089
812.573	21298
812.714	21447
812.855	21538
812.997	21644
813.138	21713
813.279	21557
813.421	21507
813.562	21435
813.703	21302
813.845	21074
813.986	21005
814.127	20781
814.268	20495
814.41	20670
814.551	20560
814.692	20564
814.833	20568
814.974	20518
815.115	20389
815.256	20541
815.397	20381
815.539	20347
815.68	20305
815.821	20229
815.962	20370
816.103	20153
816.244	20065
816.385	20084
816.526	20058
816.666	19788
816.807	19696
816.948	19860
817.089	19864
817.23	19788
817.371	19750
817.512	19620
817.653	19590
817.793	19597
817.934	19613
818.075	19750
818.216	19753
818.356	19658
818.497	19533
818.638	19400
818.778	19434
818.919	19346
819.06	19373
819.2	19590
819.341	19575
819.481	19559
819.622	19704
819.762	19837
819.903	19746
820.043	19803
820.184	19655
820.324	19689
820.465	19727
820.605	19685
820.746	19590
820.886	19502
821.026	19670
821.167	19499
821.307	19734
821.447	19666
821.588	19472
821.728	19346
821.868	19259
822.008	18977
822.149	18993
822.289	19004
822.429	18966
822.569	18738
822.709	18859
822.849	18528
822.99	18601
823.13	18525
823.27	18460
823.41	18441
823.55	18205
823.69	18319
823.83	18357
823.97	18292
824.11	18235
824.25	18228
824.389	18045
824.529	18178
824.669	18163
824.809	18270
824.949	18235
825.089	18262
825.228	18102
825.368	17965
825.508	17939
825.648	17973
825.787	18003
825.927	18022
826.067	17965
826.206	17999
826.346	17866
826.485	17927
826.625	17904
826.765	18034
826.904	17935
827.044	17699
827.183	17748
827.323	17585
827.462	17657
827.601	17642
827.741	17535
827.88	17646
828.02	17547
828.159	17627
828.298	17623
828.437	17691
828.577	17486
828.716	17710
828.855	17471
828.994	17387
829.134	17383
829.273	17417
829.412	17315
829.551	17220
829.69	17292
829.829	17391
829.968	17539
830.107	17429
830.246	17341
830.385	17292
830.524	17296
830.663	17216
830.802	17124
830.941	16938
831.08	17033
831.219	17159
831.357	16968
831.496	17231
831.635	16942
831.774	16911
831.913	16904
832.051	16744
832.19	16805
832.329	16706
832.467	16725
832.606	16577
832.744	16634
832.883	16664
833.022	16611
833.16	16683
833.299	16641
833.437	16668
833.576	16710
833.714	16717
833.852	16736
833.991	16805
834.129	16713
834.267	16729
834.406	16717
834.544	16824
834.682	16755
834.821	16615
834.959	16938
835.097	16679
835.235	16793
835.373	16797
835.511	16820
835.65	16615
835.788	16729
835.926	16424
836.064	16478
836.202	16500
836.34	16573
836.478	16588
836.615	16641
836.753	16607
836.891	16755
837.029	16668
837.167	16618
837.305	16512
837.443	16645
837.58	16413
837.718	16584
837.856	16504
837.993	16367
838.131	16538
838.269	16478
838.406	16443
838.544	16356
838.681	16246
838.819	16169
838.956	15964
839.094	16067
839.231	16002
839.369	16200
839.506	16341
839.643	16166
839.781	16101
839.918	15983
840.055	16006
840.193	15998
840.33	15991
840.467	16071
840.604	16002
840.742	16314
840.879	15972
841.016	15930
841.153	15922
841.29	16306
841.427	16059
841.564	16055
841.701	16063
841.838	15964
841.975	15918
842.112	16044
842.249	15861
842.385	15732
842.522	15953
842.659	15865
842.796	15743
842.933	15743
843.069	15755
843.206	15751
843.343	15804
843.479	15869
843.616	15888
843.752	15675
843.889	15557
844.025	15808
844.162	15576
844.298	15717
844.435	15637
844.571	15625
844.708	15644
844.844	15717
844.98	15720
845.117	15641
845.253	15629
845.389	15477
845.525	15610
845.661	15538
845.798	15405
845.934	15424
846.07	15329
846.206	15507
846.342	15584
846.478	15454
846.614	15252
846.75	15226
846.886	15195
847.022	15184
847.158	15131
847.294	15310
847.429	15142
847.565	15203
847.701	15492
847.837	14941
847.972	14956
848.108	15017
848.244	14876
848.379	14823
848.515	14785
848.65	14807
848.786	14796
848.921	14758
849.057	14792
849.192	14826
849.328	14720
849.463	14758
849.598	14754
849.734	14636
849.869	14758
850.004	14564
850.14	14568
850.275	14568
850.41	14476
850.545	14465
850.68	14564
850.815	14522
850.95	14514
851.085	14739
851.22	14632
851.355	14541
851.49	14522
851.625	14488
851.76	14511
851.895	14488
852.03	14355
852.165	14473
852.299	14610
852.434	14602
852.569	14587
852.703	14613
852.838	14667
852.973	14629
853.107	14617
853.242	14488
853.376	14404
853.511	14347
853.645	14362
853.78	14488
853.914	14393
854.048	14240
854.183	14400
854.317	14476
854.451	14587
854.585	14366
854.72	14400
854.854	14446
854.988	14339
855.122	14355
855.256	14199
855.39	14339
855.524	14450
855.658	14434
855.792	14396
855.926	14362
856.06	14488
856.194	14465
856.327	14412
856.461	14408
856.595	14320
856.729	14351
856.862	14473
856.996	14549
857.13	14446
857.263	14495
857.397	14617
857.53	14415
857.664	14514
857.797	14442
857.931	14564
858.064	14366
858.197	14469
858.331	14347
858.464	14339
858.597	14320
858.731	14324
858.864	14419
858.997	14324
859.13	14457
859.263	14438
859.396	14533
859.529	14320
859.662	14336
859.795	14259
859.928	14438
860.061	14606
860.194	14659
860.327	14450
860.46	14415
860.592	14488
860.725	14454
860.858	14617
860.99	14393
861.123	14278
861.256	14290
861.388	14415
861.521	15047
861.653	14286
861.786	14218
861.918	14320
862.05	14351
862.183	14423
862.315	14427
862.447	14457
862.58	14317
862.712	14244
862.844	14111
862.976	14199
863.108	14206
863.24	14507
863.372	14119
863.504	14149
863.636	14145
863.768	14210
863.9	14176
864.032	14111
864.164	14123
864.296	14115
864.428	14305
864.559	14278
864.691	14221
864.823	14172
864.954	14233
865.086	14210
865.217	14218
865.349	14126
865.48	14214
865.612	14240
865.743	14385
865.875	14180
866.006	14187
866.137	14172
866.269	14172
866.4	14240
866.531	14183
866.662	14164
866.793	14172
866.924	14168
867.055	14115
867.186	14100
867.317	14172
867.448	14119
867.579	14069
867.71	14088
867.841	14073
867.972	14229
868.103	14039
868.233	14229
868.364	14145
868.495	14142
868.625	14336
868.756	14461
868.886	14305
869.017	14408
869.147	14549
869.278	14499
869.408	14419
869.539	14415
869.669	14431
869.799	14473
869.929	14568
870.06	14560
870.19	14655
870.32	14655
870.45	14708
870.58	14811
870.71	14899
870.84	14826
870.97	14765
871.1	14838
871.23	15047
871.36	14986
871.489	14925
871.619	14960
871.749	15009
871.879	15036
872.008	15180
872.138	14971
872.267	14998
872.397	14872
872.526	14830
872.656	14857
872.785	14777
872.915	15017
873.044	15066
873.173	15036
873.303	15157
873.432	15085
873.561	15203
873.69	15081
873.819	15051
873.948	15112
874.077	15055
874.206	15058
874.335	15093
874.464	15161
874.593	15348
874.722	15260
874.851	15310
874.979	15340
875.108	15450
875.237	15256
875.365	15275
875.494	15268
875.623	15443
875.751	15268
875.88	15424
876.008	15542
876.136	15561
876.265	15743
876.393	15934
876.521	15918
876.65	15842
876.778	15762
876.906	15747
877.034	15633
877.162	15728
877.29	15614
877.418	15816
877.546	15812
877.674	15797
877.802	15774
877.93	15842
878.058	15682
878.185	15774
878.313	15732
878.441	15759
878.568	15622
878.696	15755
878.824	15838
878.951	15793
879.079	15930
879.206	16101
879.333	16021
879.461	15907
879.588	15926
879.715	15991
879.842	16017
879.97	15785
880.097	15644
880.224	15694
880.351	15747
880.478	15629
880.605	15663
880.732	15618
880.859	15953
880.986	15587
881.112	15713
881.239	15542
881.366	15466
881.493	15348
881.619	15306
881.746	15325
881.872	15294
881.999	15245
882.125	15336
882.252	15389
882.378	15230
882.505	15450
882.631	15237
882.757	15142
882.883	15104
883.01	15176
883.136	15039
883.262	14998
883.388	15009
883.514	15154
883.64	15195
883.766	15058
883.892	14933
884.018	14918
884.143	15093
884.269	15081
884.395	14807
884.52	14796
884.646	14830
884.772	14785
884.897	14754
885.023	14762
885.148	14853
885.274	14933
885.399	14941
885.524	14800
885.65	14819
885.775	14807
885.9	14785
886.025	14868
886.15	14864
886.275	14807
886.4	14781
886.525	14674
886.65	14739
886.775	14629
886.9	14937
887.025	15055
887.149	14853
887.274	14735
887.399	14674
887.523	14636
887.648	14564
887.773	14621
887.897	14762
888.021	14697
888.146	14583
888.27	14769
888.395	14773
888.519	14686
888.643	14773
888.767	14727
888.891	14446
889.015	14499
889.139	14545
889.263	14476
889.387	14613
889.511	14686
889.635	14632
889.759	14511
889.883	14545
890.006	14606
890.13	14632
890.254	14457
890.377	14488
890.501	14374
890.624	14336
890.748	14309
890.871	14221
890.995	14103
891.118	14157
891.241	14282
891.364	14210
891.488	14347
891.611	14187
891.734	14161
891.857	14233
891.98	14278
892.103	14324
892.226	14233
892.349	14103
892.471	13982
892.594	14195
892.717	14275
892.839	14218
892.962	14164
893.085	14339
893.207	14180
893.33	14016
893.452	14092
893.575	14237
893.697	14126
893.819	14286
893.941	14454
894.064	14381
894.186	14088
894.308	14092
894.43	14377
894.552	14450
894.674	14225
894.796	14313
894.918	14336
895.04	14187
895.161	14294
895.283	14347
895.405	14218
895.526	14282
895.648	14252
895.769	14381
895.891	14396
896.012	14419
896.134	14351
896.255	14343
896.376	14317
896.498	14427
896.619	14377
896.74	14358
896.861	14370
896.982	14602
897.103	14823
897.224	14648
897.345	14617
897.466	14571
897.587	14632
897.708	14842
897.828	14743
897.949	14564
898.07	14526
898.19	14602
898.311	14735
898.431	14682
898.552	14746
898.672	14796
898.792	14804
898.913	14743
899.033	14724
899.153	14545
899.273	14511
899.393	14499
899.513	14610
899.633	14492
899.753	14625
899.873	14503
899.993	14640
900.113	14564
900.232	14564
900.352	14545
900.472	14469
900.591	14309
900.711	14419
900.83	14404
900.95	14533
901.069	14598
901.189	14393
901.308	14149
901.427	14134
901.546	14100
901.665	14164
901.784	14130
901.904	14024
902.023	13902
902.141	13708
902.26	13712
902.379	13746
902.498	13563
902.617	13613
902.735	13662
902.854	13681
902.973	13651
903.091	13453
903.21	13419
903.328	13445
903.446	13312
903.565	13206
903.683	13316
903.801	13221
903.919	13206
904.038	13164
904.156	13168
904.274	13171
904.392	13095
904.51	13076
904.627	12973
904.745	13080
904.863	13118
904.981	12863
905.098	12738
905.216	12703
905.334	12901
905.451	12795
905.569	12768
905.686	12707
905.803	12867
905.921	12532
906.038	12623
906.155	12498
906.272	12486
906.389	12456
906.506	12323
906.623	12380
906.74	12285
906.857	12213
906.974	12266
907.091	12429
907.208	12479
907.324	12357
907.441	12220
907.557	12125
907.674	12034
907.79	12053
907.907	12049
908.023	12038
908.139	12087
908.256	12091
908.372	12060
908.488	11923
908.604	11874
908.72	11779
908.836	11843
908.952	11893
909.068	11893
909.184	11912
909.3	11863
909.415	11870
909.531	11847
909.647	11638
909.762	11600
909.878	11596
909.993	11627
910.108	11570
910.224	11486
910.339	11604
910.454	11509
910.57	11512
910.685	11414
910.8	11676
910.915	11623
911.03	11532
911.145	11387
911.259	11303
911.374	11307
911.489	11318
911.604	11235
911.718	11151
911.833	11064
911.947	10968
912.062	10942
912.176	10938
912.291	11018
912.405	11029
912.519	11227
912.633	11299
912.748	11147
912.862	11071
912.976	10915
913.09	10797
913.204	10904
913.318	10942
913.431	10984
913.545	11022
913.659	11109
913.772	10911
913.886	10873
914	10816
914.113	10854
914.226	10866
914.34	10904
914.453	10675
914.566	10828
914.68	10839
914.793	10725
914.906	10580
915.019	10531
915.132	10573
915.245	10546
915.358	10569
915.47	10584
915.583	10622
915.696	10577
915.809	10687
915.921	10729
916.034	10577
916.146	10546
916.259	10485
916.371	10607
916.483	10546
916.595	10550
916.708	10519
916.82	10447
916.932	10462
917.044	10447
917.156	10459
917.268	10367
917.38	10394
917.491	10405
917.603	10394
917.715	10481
917.826	10512
917.938	10405
918.049	10329
918.161	10379
918.272	10561
918.384	10504
918.495	10363
918.606	10249
918.717	10185
918.828	10192
918.939	10428
919.05	10177
919.161	10325
919.272	10074
919.383	10139
919.494	10280
919.604	10500
919.715	10310
919.826	10185
919.936	10154
920.047	10261
920.157	10257
920.267	10478
920.378	10268
920.488	10284
920.598	10402
920.708	10634
920.818	10478
920.928	10512
921.038	10702
921.148	10694
921.258	10337
921.368	10287
921.477	10177
921.587	10059
921.697	10078
921.806	10177
921.916	10067
922.025	9854
922.134	9823
922.244	9762
922.353	9873
922.462	9759
922.571	9701
922.68	9595
922.789	9564
922.898	9500
923.007	9530
923.116	9591
923.224	9492
923.333	9458
923.442	9386
923.55	9389
923.659	9450
923.767	9431
923.876	9439
923.984	9515
924.092	9412
924.201	9416
924.309	9450
924.417	9458
924.525	9420
924.633	9336
924.741	10295
924.849	9218
924.956	9329
925.064	9184
925.172	9123
925.279	9081
925.387	9233
925.494	9180
925.602	9268
925.709	9237
925.816	9108
925.924	9188
926.031	9245
926.138	9245
926.245	9256
926.352	9131
926.459	9260
926.566	9325
926.673	9188
926.779	9108
926.886	9074
926.993	8948
927.099	8921
927.206	8876
927.312	8823
927.419	8963
927.525	8876
927.631	8963
927.737	8766
927.843	8769
927.95	8796
928.056	8766
928.162	8815
928.267	8830
928.373	9519
928.479	8910
928.585	8663
928.69	8697
928.796	8762
928.901	8746
929.007	8602
929.112	8712
929.218	8644
929.323	8686
929.428	8629
929.533	8777
929.638	8541
929.743	8571
929.848	8655
929.953	8602
930.058	8438
930.163	8393
930.267	8431
930.372	8495
930.477	8381
930.581	8632
930.685	8511
930.79	8309
930.894	8385
930.998	8267
931.103	8514
931.207	8123
931.311	8035
931.415	7982
931.519	7792
931.623	7792
