Data from test_V78500241_2209.txt Node
Date: Fri Mar 25 14:49:05 CST 2022
User: usil
Spectrometer: V785-0024
Trigger mode: 0
Integration Time (sec): 4.000000E-1
Scans to average: 1
Nonlinearity correction enabled: false
Boxcar width: 0
Storing dark spectrum: false
XAxis mode: Wavelengths
Number of Pixels in Spectrum: 1024
>>>>>Begin Spectral Data<<<<<
801.071	22112
801.214	22196
801.356	21819
801.499	21648
801.641	21477
801.783	21618
801.926	21538
802.068	21526
802.211	21389
802.353	21329
802.496	21116
802.638	21138
802.78	21043
802.923	20743
803.065	20762
803.208	20861
803.35	20948
803.492	21013
803.635	20910
803.777	20845
803.919	21028
804.061	21135
804.204	20887
804.346	20792
804.488	20743
804.63	20864
804.773	20781
804.915	20853
805.057	20883
805.199	20754
805.341	20842
805.483	20872
805.626	20788
805.768	20727
805.91	20796
806.052	20689
806.194	20750
806.336	20971
806.478	20739
806.62	20781
806.762	20727
806.904	21081
807.046	21275
807.188	21180
807.33	20963
807.472	21138
807.614	21108
807.756	20990
807.898	20819
808.04	20842
808.182	20823
808.324	20876
808.465	20887
808.607	21077
808.749	21233
808.891	21272
809.033	21428
809.174	21169
809.316	21157
809.458	21226
809.6	21184
809.741	21291
809.883	21218
810.025	21321
810.166	21317
810.308	21302
810.45	21408
810.591	21386
810.733	21017
810.875	20895
811.016	20887
811.158	20880
811.299	21043
811.441	21070
811.582	20941
811.724	20906
811.865	20823
812.007	20880
812.148	20868
812.29	21009
812.431	21096
812.573	21245
812.714	21348
812.855	21355
812.997	21568
813.138	21629
813.279	21564
813.421	21431
813.562	21481
813.703	21146
813.845	21211
813.986	20826
814.127	20686
814.268	20587
814.41	20450
814.551	20469
814.692	20564
814.833	20446
814.974	20476
815.115	20571
815.256	20389
815.397	20366
815.539	20332
815.68	20305
815.821	20134
815.962	20244
816.103	20214
816.244	20069
816.385	19909
816.526	19913
816.666	19753
816.807	19738
816.948	19712
817.089	19670
817.23	19731
817.371	19571
817.512	19639
817.653	19476
817.793	19537
817.934	19559
818.075	19757
818.216	19662
818.356	19510
818.497	19396
818.638	19320
818.778	19266
818.919	19282
819.06	19411
819.2	19430
819.341	19445
819.481	19514
819.622	19552
819.762	19833
819.903	19674
820.043	19658
820.184	19567
820.324	19685
820.465	19628
820.605	19582
820.746	19590
820.886	19476
821.026	19403
821.167	19483
821.307	19609
821.447	19548
821.588	19480
821.728	19198
821.868	19217
822.008	18932
822.149	19000
822.289	18924
822.429	18654
822.569	18692
822.709	18673
822.849	18528
822.99	18544
823.13	18391
823.27	18407
823.41	18365
823.55	18311
823.69	18410
823.83	18350
823.97	18277
824.11	18076
824.25	17996
824.389	17977
824.529	18121
824.669	18068
824.809	18144
824.949	18133
825.089	18167
825.228	17999
825.368	17920
825.508	17851
825.648	17809
825.787	17889
825.927	17828
826.067	17817
826.206	17840
826.346	17824
826.485	17897
826.625	17809
826.765	17878
826.904	17870
827.044	17551
827.183	17623
827.323	17528
827.462	17714
827.601	17532
827.741	17615
827.88	17585
828.02	17436
828.159	17562
828.298	17551
828.437	17501
828.577	17474
828.716	17646
828.855	17532
828.994	17337
829.134	17280
829.273	17395
829.412	17231
829.551	17105
829.69	17292
829.829	17239
829.968	17246
830.107	17288
830.246	17299
830.385	17212
830.524	17102
830.663	16980
830.802	17029
830.941	17006
831.08	16866
831.219	17006
831.357	16957
831.496	17242
831.635	16790
831.774	16889
831.913	16782
832.051	16790
832.19	16748
832.329	16755
832.467	16558
832.606	16504
832.744	16542
832.883	16634
833.022	16569
833.16	16462
833.299	16664
833.437	16607
833.576	16679
833.714	16554
833.852	16713
833.991	16542
834.129	16835
834.267	16569
834.406	16577
834.544	16607
834.682	16599
834.821	16672
834.959	16759
835.097	16618
835.235	16660
835.373	16672
835.511	16679
835.65	16535
835.788	16569
835.926	16375
836.064	16314
836.202	16367
836.34	16455
836.478	16679
836.615	16470
836.753	16512
836.891	16710
837.029	16512
837.167	16459
837.305	16421
837.443	16344
837.58	16337
837.718	16531
837.856	16421
837.993	16299
838.131	16344
838.269	16310
838.406	16360
838.544	16226
838.681	16181
838.819	16120
838.956	15819
839.094	15922
839.231	15911
839.369	16162
839.506	16314
839.643	16166
839.781	15884
839.918	15835
840.055	15960
840.193	15930
840.33	15922
840.467	15941
840.604	15937
840.742	16234
840.879	15762
841.016	15789
841.153	15895
841.29	16029
841.427	15892
841.564	15918
841.701	15983
841.838	15804
841.975	15937
842.112	15892
842.249	15724
842.385	15755
842.522	15899
842.659	15728
842.796	15743
842.933	15606
843.069	15625
843.206	15667
843.343	15747
843.479	15747
843.616	15743
843.752	15481
843.889	15557
844.025	15526
844.162	15488
844.298	15629
844.435	15469
844.571	15389
844.708	15515
844.844	15637
844.98	15610
845.117	15682
845.253	15469
845.389	15355
845.525	15412
845.661	15466
845.798	15283
845.934	15279
846.07	15222
846.206	15313
846.342	15397
846.478	15355
846.614	15066
846.75	15077
846.886	14910
847.022	15127
847.158	15135
847.294	15161
847.429	15116
847.565	14967
847.701	15283
847.837	14834
847.972	14842
848.108	14876
848.244	14929
848.379	14701
848.515	14644
848.65	14731
848.786	14678
848.921	14682
849.057	14758
849.192	14754
849.328	14674
849.463	14697
849.598	14602
849.734	14602
849.869	14533
850.004	14476
850.14	14469
850.275	14465
850.41	14351
850.545	14275
850.68	14381
850.815	14419
850.95	14461
851.085	14610
851.22	14518
851.355	14450
851.49	14404
851.625	14320
851.76	14427
851.895	14438
852.03	14229
852.165	14438
852.299	14438
852.434	14461
852.569	14484
852.703	14473
852.838	14549
852.973	14629
853.107	14560
853.242	14377
853.376	14275
853.511	14233
853.645	14275
853.78	14404
853.914	14290
854.048	14225
854.183	14256
854.317	14305
854.451	14465
854.585	14419
854.72	14336
854.854	14419
854.988	14271
855.122	14225
855.256	14134
855.39	14286
855.524	14431
855.658	14282
855.792	14396
855.926	14271
856.06	14332
856.194	14446
856.327	14290
856.461	14298
856.595	14294
856.729	14206
856.862	14324
856.996	14370
857.13	14377
857.263	14374
857.397	14412
857.53	14351
857.664	14328
857.797	14408
857.931	14404
858.064	14286
858.197	14423
858.331	14343
858.464	14324
858.597	14191
858.731	14298
858.864	14248
858.997	14259
859.13	14298
859.263	14317
859.396	14355
859.529	14202
859.662	14240
859.795	14202
859.928	14313
860.061	14431
860.194	14499
860.327	14339
860.46	14385
860.592	14450
860.725	14408
860.858	14393
860.99	14267
861.123	14221
861.256	14157
861.388	14286
861.521	14861
861.653	14153
861.786	14115
861.918	14126
862.05	14233
862.183	14275
862.315	14282
862.447	14313
862.58	14218
862.712	14027
862.844	13970
862.976	14020
863.108	14138
863.24	14442
863.372	14031
863.504	14065
863.636	14039
863.768	14088
863.9	13993
864.032	14077
864.164	14134
864.296	14081
864.428	14252
864.559	14229
864.691	14161
864.823	14183
864.954	14164
865.086	14142
865.217	14157
865.349	14008
865.48	14115
865.612	14100
865.743	14164
865.875	14088
866.006	14035
866.137	14092
866.269	14058
866.4	14035
866.531	13982
866.662	13940
866.793	14069
866.924	13951
867.055	14138
867.186	14119
867.317	14138
867.448	13959
867.579	14024
867.71	13959
867.841	14062
867.972	14134
868.103	14031
868.233	14081
868.364	14073
868.495	14084
868.625	14336
868.756	14408
868.886	14294
869.017	14225
869.147	14396
869.278	14400
869.408	14301
869.539	14294
869.669	14438
869.799	14370
869.929	14389
870.06	14492
870.19	14682
870.32	14655
870.45	14541
870.58	14682
870.71	14746
870.84	14819
870.97	14644
871.1	14754
871.23	14853
871.36	14872
871.489	14834
871.619	14910
871.749	14876
871.879	14933
872.008	14971
872.138	14925
872.267	14868
872.397	14773
872.526	14682
872.656	14750
872.785	14758
872.915	14895
873.044	15013
873.173	14975
873.303	14937
873.432	14986
873.561	14967
873.69	14918
873.819	14971
873.948	14990
874.077	14963
874.206	14906
874.335	14982
874.464	15005
874.593	15218
874.722	15077
874.851	15340
874.979	15192
875.108	15283
875.237	15245
875.365	15226
875.494	15264
875.623	15329
875.751	15291
875.88	15344
876.008	15443
876.136	15534
876.265	15705
876.393	15888
876.521	15644
876.65	15770
876.778	15606
876.906	15675
877.034	15637
877.162	15606
877.29	15686
877.418	15686
877.546	15633
877.674	15663
877.802	15675
877.93	15652
878.058	15637
878.185	15553
878.313	15667
878.441	15629
878.568	15507
878.696	15622
878.824	15698
878.951	15762
879.079	15953
879.206	16021
879.333	15911
879.461	15785
879.588	15770
879.715	15835
879.842	16048
879.97	15720
880.097	15576
880.224	15557
880.351	15534
880.478	15576
880.605	15526
880.732	15549
880.859	15751
880.986	15511
881.112	15587
881.239	15329
881.366	15275
881.493	15237
881.619	15184
881.746	15150
881.872	15199
881.999	15249
882.125	15169
882.252	15241
882.378	15207
882.505	15420
882.631	15157
882.757	14887
882.883	15104
883.01	15013
883.136	14921
883.262	14956
883.388	14804
883.514	15043
883.64	15104
883.766	14941
883.892	14872
884.018	14857
884.143	14979
884.269	15070
884.395	14826
884.52	14743
884.646	14750
884.772	14644
884.897	14636
885.023	14720
885.148	14815
885.274	14842
885.399	14845
885.524	14621
885.65	14686
885.775	14682
885.9	14697
886.025	14842
886.15	14864
886.275	14663
886.4	14644
886.525	14632
886.65	14724
886.775	14686
886.9	14781
887.025	15017
887.149	14743
887.274	14541
887.399	14484
887.523	14381
887.648	14492
887.773	14518
887.897	14617
888.021	14571
888.146	14571
888.27	14610
888.395	14689
888.519	14648
888.643	14621
888.767	14632
888.891	14522
889.015	14358
889.139	14492
889.263	14298
889.387	14484
889.511	14640
889.635	14480
889.759	14412
889.883	14393
890.006	14465
890.13	14533
890.254	14362
890.377	14385
890.501	14202
890.624	14221
890.748	14233
890.871	14218
890.995	14069
891.118	14024
891.241	14050
891.364	14123
891.488	14218
891.611	14058
891.734	14119
891.857	14126
891.98	14195
892.103	14191
892.226	14176
892.349	14233
892.471	13970
892.594	14077
892.717	14126
892.839	14103
892.962	14153
893.085	14157
893.207	14153
893.33	13959
893.452	14073
893.575	14134
893.697	14126
893.819	14286
893.941	14298
894.064	14244
894.186	14058
894.308	14001
894.43	14225
894.552	14282
894.674	14202
894.796	14142
894.918	14138
895.04	14100
895.161	14286
895.283	14206
895.405	14221
895.526	14195
895.648	14263
895.769	14324
895.891	14301
896.012	14362
896.134	14290
896.255	14248
896.376	14149
896.498	14271
896.619	14362
896.74	14275
896.861	14332
896.982	14606
897.103	14731
897.224	14583
897.345	14545
897.466	14507
897.587	14537
897.708	14587
897.828	14549
897.949	14503
898.07	14339
898.19	14450
898.311	14644
898.431	14667
898.552	14621
898.672	14739
898.792	14754
898.913	14689
899.033	14648
899.153	14473
899.273	14381
899.393	14488
899.513	14552
899.633	14434
899.753	14606
899.873	14480
899.993	14511
900.113	14438
900.232	14473
900.352	14461
900.472	14275
900.591	14294
900.711	14358
900.83	14366
900.95	14469
901.069	14469
901.189	14252
901.308	14103
901.427	13997
901.546	14008
901.665	14050
901.784	14027
901.904	13887
902.023	13864
902.141	13731
902.26	13655
902.379	13693
902.498	13647
902.617	13502
902.735	13563
902.854	13556
902.973	13525
903.091	13339
903.21	13358
903.328	13403
903.446	13187
903.565	13270
903.683	13259
903.801	13057
903.919	13095
904.038	13149
904.156	12970
904.274	13099
904.392	13004
904.51	12939
904.627	13099
904.745	12993
904.863	12973
904.981	12802
905.098	12726
905.216	12570
905.334	12684
905.451	12677
905.569	12608
905.686	12715
905.803	12601
905.921	12456
906.038	12585
906.155	12414
906.272	12388
906.389	12388
906.506	12247
906.623	12292
906.74	12281
906.857	12140
906.974	12171
907.091	12258
907.208	12391
907.324	12319
907.441	12114
907.557	12060
907.674	12030
907.79	11958
907.907	12045
908.023	12076
908.139	12041
908.256	11920
908.372	11992
908.488	11855
908.604	11832
908.72	11741
908.836	11695
908.952	11802
909.068	11737
909.184	11897
909.3	11741
909.415	11813
909.531	11764
909.647	11573
909.762	11493
909.878	11596
909.993	11486
910.108	11604
910.224	11512
910.339	11535
910.454	11486
910.57	11395
910.685	11280
910.8	11611
910.915	11539
911.03	11410
911.145	11223
911.259	11242
911.374	11197
911.489	11204
911.604	11098
911.718	10987
911.833	11003
911.947	10850
912.062	10778
912.176	11006
912.291	11022
912.405	10980
912.519	11223
912.633	11227
912.748	11067
912.862	10987
912.976	10839
913.09	10752
913.204	10877
913.318	10972
913.431	11003
913.545	10889
913.659	11045
913.772	10942
913.886	10904
914	10687
914.113	10866
914.226	10805
914.34	10881
914.453	10653
914.566	10824
914.68	10721
914.793	10687
914.906	10516
915.019	10455
915.132	10402
915.245	10485
915.358	10493
915.47	10516
915.583	10516
915.696	10588
915.809	10637
915.921	10656
916.034	10512
916.146	10500
916.259	10413
916.371	10489
916.483	10523
916.595	10333
916.708	10440
916.82	10470
916.932	10428
917.044	10352
917.156	10367
917.268	10356
917.38	10329
917.491	10329
917.603	10242
917.715	10443
917.826	10443
917.938	10356
918.049	10230
918.161	10344
918.272	10379
918.384	10409
918.495	10405
918.606	10257
918.717	10116
918.828	10227
918.939	10272
919.05	10112
919.161	10166
919.272	9960
919.383	10051
919.494	10242
919.604	10413
919.715	10177
919.826	10173
919.936	10188
920.047	10333
920.157	10139
920.267	10516
920.378	10303
920.488	10253
920.598	10451
920.708	10580
920.818	10318
920.928	10398
921.038	10554
921.148	10489
921.258	10242
921.368	10150
921.477	10120
921.587	10120
921.697	9956
921.806	10162
921.916	10036
922.025	9911
922.134	9789
922.244	9774
922.353	9850
922.462	9701
922.571	9561
922.68	9523
922.789	9435
922.898	9466
923.007	9466
923.116	9534
923.224	9435
923.333	9431
923.442	9416
923.55	9279
923.659	9351
923.767	9496
923.876	9397
923.984	9428
924.092	9287
924.201	9420
924.309	9389
924.417	9344
924.525	9272
924.633	9302
924.741	10215
924.849	9150
924.956	9298
925.064	9051
925.172	9024
925.279	9070
925.387	9123
925.494	9127
925.602	9245
925.709	9142
925.816	9093
925.924	9138
926.031	9264
926.138	9165
926.245	9157
926.352	9150
926.459	9264
926.566	9222
926.673	9055
926.779	9043
926.886	9039
926.993	8910
927.099	8830
927.206	8788
927.312	8819
927.419	8883
927.525	8895
927.631	8876
927.737	8815
927.843	8724
927.95	8655
928.056	8686
928.162	8754
928.267	8830
928.373	9374
928.479	8754
928.585	8602
928.69	8766
928.796	8724
928.901	8606
929.007	8552
929.112	8629
929.218	8594
929.323	8549
929.428	8549
929.533	8648
929.638	8526
929.743	8514
929.848	8617
929.953	8549
930.058	8457
930.163	8358
930.267	8313
930.372	8450
930.477	8290
930.581	8556
930.685	8446
930.79	8298
930.894	8286
930.998	8317
931.103	8412
931.207	8092
931.311	8008
931.415	7967
931.519	7757
931.623	7757
