Data from test_V78500241_314.txt Node
Date: Fri Mar 25 14:35:54 CST 2022
User: usil
Spectrometer: V785-0024
Trigger mode: 0
Integration Time (sec): 4.000000E-1
Scans to average: 1
Nonlinearity correction enabled: false
Boxcar width: 0
Storing dark spectrum: false
XAxis mode: Wavelengths
Number of Pixels in Spectrum: 1024
>>>>>Begin Spectral Data<<<<<
801.071	27184
801.214	26990
801.356	26826
801.499	26731
801.641	26484
801.783	26609
801.926	26434
802.068	26476
802.211	26313
802.353	26313
802.496	26199
802.638	26122
802.78	26134
802.923	25997
803.065	26062
803.208	25906
803.35	26050
803.492	26050
803.635	26126
803.777	26183
803.919	26176
804.061	26415
804.204	26218
804.346	26012
804.488	25868
804.63	26149
804.773	25856
804.915	26088
805.057	26142
805.199	26058
805.341	25986
805.483	26103
805.626	26149
805.768	26100
805.91	26054
806.052	26084
806.194	26012
806.336	26294
806.478	26077
806.62	26081
806.762	26191
806.904	26240
807.046	26583
807.188	26461
807.33	26469
807.472	26488
807.614	26377
807.756	26298
807.898	26202
808.04	26214
808.182	26290
808.324	26259
808.465	26290
808.607	26556
808.749	26636
808.891	26819
809.033	26925
809.174	26659
809.316	26511
809.458	26682
809.6	26545
809.741	26606
809.883	26556
810.025	26792
810.166	26689
810.308	26758
810.45	26758
810.591	26674
810.733	26492
810.875	26492
811.016	26267
811.158	26476
811.299	26651
811.441	26545
811.582	26457
811.724	26355
811.865	26385
812.007	26309
812.148	26404
812.29	26385
812.431	26530
812.573	26693
812.714	26758
812.855	26842
812.997	27001
813.138	27074
813.279	26861
813.421	26960
813.562	26743
813.703	26609
813.845	26560
813.986	26442
814.127	25974
814.268	25966
814.41	26062
814.551	26107
814.692	26176
814.833	25951
814.974	25871
815.115	25875
815.256	25879
815.397	25761
815.539	25742
815.68	25666
815.821	25715
815.962	25738
816.103	25704
816.244	25613
816.385	25514
816.526	25407
816.666	25266
816.807	25065
816.948	25133
817.089	25289
817.23	25069
817.371	25126
817.512	25080
817.653	25050
817.793	25027
817.934	25080
818.075	25156
818.216	25156
818.356	25000
818.497	24886
818.638	24749
818.778	24867
818.919	24779
819.06	24802
819.2	24859
819.341	24920
819.481	24992
819.622	25175
819.762	25388
819.903	25187
820.043	25152
820.184	25129
820.324	25080
820.465	25103
820.605	24992
820.746	24947
820.886	24829
821.026	25000
821.167	24890
821.307	25053
821.447	24901
821.588	24852
821.728	24787
821.868	24661
822.008	24311
822.149	24414
822.289	24505
822.429	24216
822.569	24011
822.709	24087
822.849	23836
822.99	23916
823.13	23855
823.27	23790
823.41	23680
823.55	23531
823.69	23653
823.83	23707
823.97	23718
824.11	23615
824.25	23349
824.389	23398
824.529	23490
824.669	23383
824.809	23398
824.949	23444
825.089	23433
825.228	23581
825.368	23311
825.508	23288
825.648	23273
825.787	23258
825.927	23326
826.067	23181
826.206	23239
826.346	23193
826.485	23303
826.625	23132
826.765	23307
826.904	23368
827.044	23075
827.183	23086
827.323	22991
827.462	22820
827.601	22866
827.741	22919
827.88	22896
828.02	22687
828.159	22820
828.298	22946
828.437	22919
828.577	22961
828.716	23048
828.855	22828
828.994	22592
829.134	22710
829.273	22736
829.412	22599
829.551	22516
829.69	22546
829.829	22653
829.968	22569
830.107	22706
830.246	22569
830.385	22519
830.524	22367
830.663	22344
830.802	22272
830.941	22223
831.08	22147
831.219	22154
831.357	22257
831.496	22325
831.635	22158
831.774	22223
831.913	22067
832.051	21926
832.19	21850
832.329	21918
832.467	21823
832.606	21774
832.744	21705
832.883	21800
833.022	21808
833.16	21759
833.299	21953
833.437	21774
833.576	21797
833.714	21838
833.852	21812
833.991	21873
834.129	21785
834.267	21884
834.406	21797
834.544	21850
834.682	21903
834.821	21774
834.959	21964
835.097	21629
835.235	21884
835.373	21736
835.511	21755
835.65	21698
835.788	21656
835.926	21492
836.064	21507
836.202	21538
836.34	21603
836.478	21667
836.615	21580
836.753	21667
836.891	21739
837.029	21701
837.167	21587
837.305	21507
837.443	21530
837.58	21542
837.718	21515
837.856	21466
837.993	21424
838.131	21424
838.269	21401
838.406	21393
838.544	21382
838.681	21203
838.819	21161
838.956	20998
839.094	20929
839.231	21039
839.369	21108
839.506	21268
839.643	21237
839.781	20895
839.918	20929
840.055	20933
840.193	20838
840.33	20872
840.467	20845
840.604	20845
840.742	21070
840.879	20663
841.016	20773
841.153	20762
841.29	21028
841.427	20849
841.564	20868
841.701	20765
841.838	20750
841.975	20762
842.112	20758
842.249	20560
842.385	20568
842.522	20800
842.659	20629
842.796	20450
842.933	20552
843.069	20461
843.206	20587
843.343	20594
843.479	20511
843.616	20583
843.752	20339
843.889	20396
844.025	20465
844.162	20298
844.298	20423
844.435	20294
844.571	20210
844.708	20313
844.844	20488
844.98	20495
845.117	20366
845.253	20438
845.389	20138
845.525	20309
845.661	20256
845.798	20176
845.934	20172
846.07	20092
846.206	20237
846.342	20229
846.478	20149
846.614	19989
846.75	19807
846.886	19693
847.022	19814
847.158	19830
847.294	19769
847.429	19811
847.565	19765
847.701	19970
847.837	19480
847.972	19407
848.108	19552
848.244	19624
848.379	19457
848.515	19308
848.65	19316
848.786	19346
848.921	19392
849.057	19373
849.192	19502
849.328	19350
849.463	19422
849.598	19209
849.734	19278
849.869	19160
850.004	19038
850.14	19160
850.275	19057
850.41	18970
850.545	19072
850.68	19088
850.815	19126
850.95	19019
851.085	19179
851.22	19080
851.355	19164
851.49	19012
851.625	18962
851.76	19027
851.895	18993
852.03	18993
852.165	18943
852.299	19095
852.434	19133
852.569	19148
852.703	19050
852.838	18981
852.973	19187
853.107	19118
853.242	19008
853.376	18878
853.511	18783
853.645	18814
853.78	19042
853.914	18894
854.048	18787
854.183	18810
854.317	18867
854.451	19050
854.585	18958
854.72	18753
854.854	18981
854.988	18920
855.122	18852
855.256	18757
855.39	18859
855.524	18878
855.658	18928
855.792	18951
855.926	18863
856.06	18962
856.194	18985
856.327	18852
856.461	18722
856.595	18806
856.729	18760
856.862	18833
856.996	18890
857.13	18920
857.263	18935
857.397	18867
857.53	18863
857.664	18840
857.797	18901
857.931	18943
858.064	18973
858.197	18901
858.331	18768
858.464	18749
858.597	18913
858.731	18776
858.864	18703
858.997	18795
859.13	18795
859.263	18875
859.396	18844
859.529	18798
859.662	18684
859.795	18726
859.928	18783
860.061	18932
860.194	18943
860.327	18779
860.46	18734
860.592	18970
860.725	18875
860.858	18924
860.99	18738
861.123	18760
861.256	18837
861.388	18829
861.521	19544
861.653	18650
861.786	18688
861.918	18734
862.05	18730
862.183	18791
862.315	18829
862.447	18882
862.58	18753
862.712	18627
862.844	18441
862.976	18623
863.108	18582
863.24	18894
863.372	18479
863.504	18486
863.636	18521
863.768	18540
863.9	18570
864.032	18437
864.164	18509
864.296	18467
864.428	18620
864.559	18559
864.691	18574
864.823	18528
864.954	18578
865.086	18509
865.217	18448
865.349	18414
865.48	18464
865.612	18475
865.743	18532
865.875	18414
866.006	18464
866.137	18452
866.269	18490
866.4	18308
866.531	18414
866.662	18346
866.793	18342
866.924	18448
867.055	18422
867.186	18422
867.317	18372
867.448	18308
867.579	18391
867.71	18247
867.841	18380
867.972	18380
868.103	18289
868.233	18365
868.364	18410
868.495	18475
868.625	18551
868.756	18730
868.886	18498
869.017	18540
869.147	18684
869.278	18821
869.408	18627
869.539	18658
869.669	18753
869.799	18646
869.929	18673
870.06	18749
870.19	18943
870.32	18909
870.45	18989
870.58	18916
870.71	19152
870.84	19110
870.97	19084
871.1	19038
871.23	19187
871.36	19202
871.489	18973
871.619	19164
871.749	19057
871.879	19156
872.008	19240
872.138	19274
872.267	19114
872.397	19088
872.526	19095
872.656	19027
872.785	19027
872.915	19202
873.044	19358
873.173	19270
873.303	19304
873.432	19304
873.561	19354
873.69	19316
873.819	19156
873.948	19259
874.077	19297
874.206	19141
874.335	19301
874.464	19339
874.593	19514
874.722	19297
874.851	19529
874.979	19487
875.108	19495
875.237	19460
875.365	19327
875.494	19491
875.623	19571
875.751	19464
875.88	19601
876.008	19609
876.136	19616
876.265	19944
876.393	20054
876.521	19951
876.65	19989
876.778	19890
876.906	19852
877.034	19837
877.162	19887
877.29	19898
877.418	19978
877.546	19860
877.674	19791
877.802	19913
877.93	19890
878.058	19951
878.185	19643
878.313	19883
878.441	19898
878.568	19689
878.696	19890
878.824	19932
878.951	19982
879.079	20153
879.206	20233
879.333	20096
879.461	20008
879.588	20153
879.715	20134
879.842	20161
879.97	19997
880.097	19803
880.224	19761
880.351	19860
880.478	19818
880.605	19723
880.732	19719
880.859	19963
880.986	19719
881.112	19799
881.239	19590
881.366	19449
881.493	19502
881.619	19320
881.746	19331
881.872	19339
881.999	19388
882.125	19354
882.252	19438
882.378	19396
882.505	19449
882.631	19263
882.757	19110
882.883	19270
883.01	19183
883.136	19080
883.262	19042
883.388	18916
883.514	19187
883.64	19137
883.766	19061
883.892	18913
884.018	18989
884.143	19046
884.269	19209
884.395	18973
884.52	18650
884.646	18791
884.772	18681
884.897	18658
885.023	18745
885.148	18814
885.274	19019
885.399	18859
885.524	18776
885.65	18825
885.775	18783
885.9	18646
886.025	18989
886.15	18795
886.275	18692
886.4	18578
886.525	18722
886.65	18608
886.775	18692
886.9	18760
887.025	18947
887.149	18646
887.274	18566
887.399	18483
887.523	18525
887.648	18422
887.773	18475
887.897	18688
888.021	18650
888.146	18456
888.27	18574
888.395	18604
888.519	18658
888.643	18479
888.767	18540
888.891	18509
889.015	18334
889.139	18365
889.263	18327
889.387	18490
889.511	18623
889.635	18403
889.759	18243
889.883	18235
890.006	18437
890.13	18467
890.254	18346
890.377	18182
890.501	18129
890.624	18159
890.748	18152
890.871	17946
890.995	17939
891.118	17878
891.241	17969
891.364	18019
891.488	18026
891.611	17897
891.734	18079
891.857	18079
891.98	18049
892.103	18034
892.226	17927
892.349	17916
892.471	17870
892.594	17760
892.717	17866
892.839	17863
892.962	17961
893.085	17878
893.207	17897
893.33	17882
893.452	17821
893.575	18015
893.697	17904
893.819	18015
893.941	18129
894.064	17969
894.186	17779
894.308	17824
894.43	17908
894.552	18015
894.674	17961
894.796	17779
894.918	17798
895.04	17870
895.161	17980
895.283	17954
895.405	17775
895.526	17923
895.648	17912
895.769	17920
895.891	17980
896.012	17969
896.134	17977
896.255	18003
896.376	17961
896.498	17958
896.619	18015
896.74	17961
896.861	17950
896.982	18235
897.103	18467
897.224	18235
897.345	18281
897.466	18129
897.587	18216
897.708	18308
897.828	18258
897.949	18296
898.07	18038
898.19	18197
898.311	18384
898.431	18262
898.552	18235
898.672	18300
898.792	18319
898.913	18068
899.033	18148
899.153	17942
899.273	17946
899.393	17935
899.513	17923
899.633	18022
899.753	17992
899.873	17779
899.993	17980
900.113	17908
900.232	17920
900.352	17874
900.472	17779
900.591	17752
900.711	17745
900.83	17684
900.95	17794
901.069	17901
901.189	17802
901.308	17520
901.427	17387
901.546	17452
901.665	17383
901.784	17398
901.904	17353
902.023	17246
902.141	17022
902.26	16965
902.379	17045
902.498	16915
902.617	16900
902.735	16877
902.854	16900
902.973	16896
903.091	16694
903.21	16645
903.328	16599
903.446	16481
903.565	16409
903.683	16386
903.801	16363
903.919	16462
904.038	16363
904.156	16268
904.274	16333
904.392	16177
904.51	16135
904.627	16261
904.745	16287
904.863	16169
904.981	15903
905.098	15922
905.216	15888
905.334	15899
905.451	15937
905.569	15812
905.686	15922
905.803	15812
905.921	15766
906.038	15861
906.155	15648
906.272	15614
906.389	15603
906.506	15504
906.623	15447
906.74	15488
906.857	15386
906.974	15370
907.091	15485
907.208	15538
907.324	15325
907.441	15351
907.557	15230
907.674	15123
907.79	15112
907.907	15074
908.023	15154
908.139	15161
908.256	15081
908.372	15047
908.488	15009
908.604	14872
908.72	14861
908.836	14800
908.952	14826
909.068	14720
909.184	14956
909.3	14811
909.415	14830
909.531	14823
909.647	14613
909.762	14514
909.878	14484
909.993	14530
910.108	14492
910.224	14549
910.339	14473
910.454	14393
910.57	14347
910.685	14320
910.8	14579
910.915	14480
911.03	14423
911.145	14237
911.259	14221
911.374	14259
911.489	14138
911.604	14005
911.718	13837
911.833	13902
911.947	13849
912.062	13799
912.176	13871
912.291	13974
912.405	13833
912.519	14142
912.633	14069
912.748	13951
912.862	13856
912.976	13734
913.09	13685
913.204	13799
913.318	13753
913.431	13830
913.545	13814
913.659	13864
913.772	13677
913.886	13632
914	13594
914.113	13704
914.226	13670
914.34	13677
914.453	13518
914.566	13605
914.68	13480
914.793	13472
914.906	13304
915.019	13198
915.132	13126
915.245	13251
915.358	13285
915.47	13225
915.583	13202
915.696	13331
915.809	13396
915.921	13335
916.034	13149
916.146	13263
916.259	13168
916.371	13221
916.483	13141
916.595	13076
916.708	13103
916.82	13145
916.932	13129
917.044	12996
917.156	13091
917.268	12962
917.38	12996
917.491	12894
917.603	12951
917.715	12981
917.826	13023
917.938	12867
918.049	12825
918.161	12897
918.272	13050
918.384	13072
918.495	13004
918.606	12764
918.717	12700
918.828	12787
918.939	12779
919.05	12677
919.161	12779
919.272	12426
919.383	12601
919.494	12757
919.604	12856
919.715	12703
919.826	12658
919.936	12730
920.047	12802
920.157	12692
920.267	12814
920.378	12707
920.488	12772
920.598	12894
920.708	12989
920.818	12814
920.928	12810
921.038	13019
921.148	12932
921.258	12738
921.368	12540
921.477	12346
921.587	12521
921.697	12342
921.806	12395
921.916	12327
922.025	12186
922.134	12167
922.244	12110
922.353	12216
922.462	12053
922.571	11923
922.68	11912
922.789	11889
922.898	11805
923.007	11729
923.116	11802
923.224	11737
923.333	11745
923.442	11668
923.55	11668
923.659	11638
923.767	11786
923.876	11592
923.984	11691
924.092	11543
924.201	11657
924.309	11596
924.417	11596
924.525	11604
924.633	11562
924.741	12281
924.849	11330
924.956	11524
925.064	11376
925.172	11258
925.279	11258
925.387	11330
925.494	11296
925.602	11497
925.709	11372
925.816	11242
925.924	11258
926.031	11433
926.138	11284
926.245	11303
926.352	11181
926.459	11406
926.566	11376
926.673	11189
926.779	11124
926.886	11045
926.993	10900
927.099	10953
927.206	10900
927.312	10892
927.419	11056
927.525	10949
927.631	10889
927.737	10828
927.843	10752
927.95	10778
928.056	10763
928.162	10816
928.267	10877
928.373	11334
928.479	10873
928.585	10793
928.69	10809
928.796	10767
928.901	10645
929.007	10508
929.112	10687
929.218	10641
929.323	10565
929.428	10512
929.533	10645
929.638	10474
929.743	10542
929.848	10535
929.953	10512
930.058	10421
930.163	10265
930.267	10280
930.372	10363
930.477	10188
930.581	10436
930.685	10234
930.79	10158
930.894	10150
930.998	10116
931.103	10249
931.207	9945
931.311	9816
931.415	9766
931.519	9694
931.623	9542
