Data from test_V78500241_2307.txt Node
Date: Fri Mar 25 14:49:46 CST 2022
User: usil
Spectrometer: V785-0024
Trigger mode: 0
Integration Time (sec): 4.000000E-1
Scans to average: 1
Nonlinearity correction enabled: false
Boxcar width: 0
Storing dark spectrum: false
XAxis mode: Wavelengths
Number of Pixels in Spectrum: 1024
>>>>>Begin Spectral Data<<<<<
801.071	22086
801.214	22048
801.356	21770
801.499	21622
801.641	21507
801.783	21561
801.926	21507
802.068	21454
802.211	21412
802.353	21291
802.496	21108
802.638	21005
802.78	21077
802.923	20906
803.065	20853
803.208	20853
803.35	20929
803.492	21089
803.635	20929
803.777	20899
803.919	21020
804.061	21226
804.204	20853
804.346	20785
804.488	20727
804.63	20929
804.773	20720
804.915	20773
805.057	20868
805.199	20800
805.341	20845
805.483	20899
805.626	20830
805.768	20674
805.91	20830
806.052	20849
806.194	20785
806.336	20921
806.478	20762
806.62	20606
806.762	20864
806.904	21070
807.046	21214
807.188	21036
807.33	21070
807.472	21233
807.614	21001
807.756	21005
807.898	20902
808.04	20811
808.182	20819
808.324	20762
808.465	20990
808.607	21100
808.749	21283
808.891	21275
809.033	21321
809.174	21157
809.316	21058
809.458	21131
809.6	21032
809.741	21192
809.883	21298
810.025	21310
810.166	21332
810.308	21294
810.45	21222
810.591	21192
810.733	20990
810.875	21013
811.016	20979
811.158	20823
811.299	20963
811.441	21131
811.582	21043
811.724	21036
811.865	20952
812.007	20857
812.148	20929
812.29	20925
812.431	21119
812.573	21317
812.714	21317
812.855	21351
812.997	21572
813.138	21637
813.279	21469
813.421	21439
813.562	21458
813.703	21302
813.845	21169
813.986	20891
814.127	20640
814.268	20575
814.41	20602
814.551	20492
814.692	20587
814.833	20434
814.974	20415
815.115	20571
815.256	20221
815.397	20328
815.539	20469
815.68	20343
815.821	20172
815.962	20290
816.103	20164
816.244	19997
816.385	19959
816.526	19967
816.666	19856
816.807	19681
816.948	19647
817.089	19704
817.23	19723
817.371	19540
817.512	19571
817.653	19594
817.793	19559
817.934	19594
818.075	19647
818.216	19620
818.356	19537
818.497	19419
818.638	19209
818.778	19324
818.919	19255
819.06	19381
819.2	19320
819.341	19571
819.481	19495
819.622	19563
819.762	19890
819.903	19689
820.043	19742
820.184	19613
820.324	19723
820.465	19685
820.605	19559
820.746	19643
820.886	19407
821.026	19548
821.167	19483
821.307	19681
821.447	19571
821.588	19388
821.728	19285
821.868	19168
822.008	19084
822.149	18970
822.289	18920
822.429	18772
822.569	18658
822.709	18711
822.849	18509
822.99	18372
823.13	18414
823.27	18410
823.41	18285
823.55	18171
823.69	18186
823.83	18296
823.97	18186
824.11	18098
824.25	17984
824.389	17927
824.529	18114
824.669	18098
824.809	18110
824.949	18102
825.089	17977
825.228	18125
825.368	17882
825.508	17878
825.648	17916
825.787	17847
825.927	17851
826.067	17885
826.206	17729
826.346	17828
826.485	17855
826.625	17798
826.765	17908
826.904	17798
827.044	17665
827.183	17516
827.323	17543
827.462	17589
827.601	17493
827.741	17486
827.88	17543
828.02	17368
828.159	17490
828.298	17467
828.437	17630
828.577	17486
828.716	17714
828.855	17471
828.994	17181
829.134	17231
829.273	17307
829.412	17223
829.551	17197
829.69	17239
829.829	17250
829.968	17330
830.107	17223
830.246	17235
830.385	17109
830.524	17155
830.663	17052
830.802	16972
830.941	16927
831.08	16873
831.219	16885
831.357	16828
831.496	17151
831.635	16835
831.774	16713
831.913	16763
832.051	16630
832.19	16672
832.329	16691
832.467	16565
832.606	16516
832.744	16443
832.883	16550
833.022	16504
833.16	16531
833.299	16569
833.437	16500
833.576	16542
833.714	16618
833.852	16649
833.991	16710
834.129	16725
834.267	16691
834.406	16470
834.544	16618
834.682	16615
834.821	16546
834.959	16664
835.097	16531
835.235	16759
835.373	16607
835.511	16603
835.65	16398
835.788	16474
835.926	16371
836.064	16223
836.202	16409
836.34	16508
836.478	16550
836.615	16462
836.753	16436
836.891	16535
837.029	16455
837.167	16390
837.305	16375
837.443	16367
837.58	16306
837.718	16363
837.856	16424
837.993	16352
838.131	16265
838.269	16284
838.406	16265
838.544	16219
838.681	16078
838.819	16044
838.956	15956
839.094	15911
839.231	15968
839.369	15960
839.506	16337
839.643	16185
839.781	15895
839.918	15865
840.055	15975
840.193	15873
840.33	15823
840.467	15888
840.604	15895
840.742	16219
840.879	15812
841.016	15797
841.153	15724
841.29	16036
841.427	15972
841.564	15915
841.701	15892
841.838	15854
841.975	15869
842.112	15831
842.249	15701
842.385	15739
842.522	15850
842.659	15671
842.796	15599
842.933	15713
843.069	15629
843.206	15633
843.343	15747
843.479	15698
843.616	15652
843.752	15488
843.889	15450
844.025	15534
844.162	15420
844.298	15576
844.435	15412
844.571	15329
844.708	15473
844.844	15606
844.98	15652
845.117	15568
845.253	15424
845.389	15412
845.525	15412
845.661	15351
845.798	15184
845.934	15367
846.07	15260
846.206	15431
846.342	15401
846.478	15291
846.614	15062
846.75	15009
846.886	14944
847.022	15154
847.158	15070
847.294	14952
847.429	15127
847.565	15077
847.701	15245
847.837	14716
847.972	14708
848.108	14876
848.244	14735
848.379	14644
848.515	14667
848.65	14617
848.786	14583
848.921	14678
849.057	14682
849.192	14689
849.328	14716
849.463	14716
849.598	14560
849.734	14533
849.869	14450
850.004	14476
850.14	14461
850.275	14434
850.41	14419
850.545	14336
850.68	14377
850.815	14511
850.95	14309
851.085	14594
851.22	14473
851.355	14320
851.49	14454
851.625	14328
851.76	14366
851.895	14187
852.03	14290
852.165	14362
852.299	14434
852.434	14457
852.569	14389
852.703	14351
852.838	14473
852.973	14514
853.107	14613
853.242	14298
853.376	14237
853.511	14180
853.645	14263
853.78	14374
853.914	14305
854.048	14145
854.183	14172
854.317	14305
854.451	14355
854.585	14221
854.72	14240
854.854	14377
854.988	14278
855.122	14267
855.256	14153
855.39	14225
855.524	14396
855.658	14225
855.792	14339
855.926	14244
856.06	14396
856.194	14355
856.327	14309
856.461	14259
856.595	14237
856.729	14240
856.862	14309
856.996	14313
857.13	14343
857.263	14339
857.397	14370
857.53	14336
857.664	14309
857.797	14286
857.931	14343
858.064	14309
858.197	14393
858.331	14202
858.464	14214
858.597	14191
858.731	14351
858.864	14218
858.997	14275
859.13	14332
859.263	14343
859.396	14377
859.529	14256
859.662	14263
859.795	14275
859.928	14362
860.061	14484
860.194	14404
860.327	14339
860.46	14252
860.592	14351
860.725	14457
860.858	14389
860.99	14259
861.123	14244
861.256	14218
861.388	14202
861.521	14777
861.653	14134
861.786	14069
861.918	14206
862.05	14065
862.183	14237
862.315	14199
862.447	14294
862.58	14172
862.712	14069
862.844	14035
862.976	14191
863.108	14126
863.24	14412
863.372	13986
863.504	13963
863.636	14043
863.768	14073
863.9	14202
864.032	13970
864.164	14043
864.296	14153
864.428	14195
864.559	14218
864.691	14180
864.823	14111
864.954	14008
865.086	14092
865.217	14054
865.349	13944
865.48	13986
865.612	14065
865.743	14142
865.875	14058
866.006	14020
866.137	14058
866.269	14062
866.4	14024
866.531	13959
866.662	13951
866.793	13967
866.924	14058
867.055	14065
867.186	14005
867.317	13951
867.448	13932
867.579	13974
867.71	13974
867.841	13997
867.972	13993
868.103	14039
868.233	13955
868.364	14115
868.495	14081
868.625	14218
868.756	14419
868.886	14187
869.017	14252
869.147	14431
869.278	14450
869.408	14332
869.539	14313
869.669	14442
869.799	14358
869.929	14355
870.06	14454
870.19	14587
870.32	14590
870.45	14674
870.58	14720
870.71	14785
870.84	14891
870.97	14651
871.1	14712
871.23	14948
871.36	14963
871.489	14739
871.619	14834
871.749	14842
871.879	14891
872.008	14975
872.138	14918
872.267	14838
872.397	14746
872.526	14834
872.656	14792
872.785	14815
872.915	14963
873.044	15032
873.173	15020
873.303	14941
873.432	14982
873.561	15009
873.69	14921
873.819	14986
873.948	15039
874.077	14948
874.206	14929
874.335	15055
874.464	15100
874.593	15203
874.722	15150
874.851	15321
874.979	15287
875.108	15367
875.237	15226
875.365	15157
875.494	15142
875.623	15374
875.751	15294
875.88	15351
876.008	15245
876.136	15523
876.265	15682
876.393	15835
876.521	15751
876.65	15755
876.778	15671
876.906	15584
877.034	15686
877.162	15724
877.29	15724
877.418	15667
877.546	15755
877.674	15652
877.802	15637
877.93	15698
878.058	15675
878.185	15644
878.313	15618
878.441	15656
878.568	15492
878.696	15515
878.824	15831
878.951	15732
879.079	15850
879.206	15968
879.333	15956
879.461	15812
879.588	15781
879.715	15926
879.842	15998
879.97	15838
880.097	15633
880.224	15473
880.351	15561
880.478	15561
880.605	15439
880.732	15507
880.859	15663
880.986	15595
881.112	15523
881.239	15458
881.366	15310
881.493	15291
881.619	15256
881.746	15161
881.872	15104
881.999	15100
882.125	15180
882.252	15230
882.378	15142
882.505	15264
882.631	15154
882.757	15104
882.883	15081
883.01	15013
883.136	14979
883.262	14925
883.388	14880
883.514	15036
883.64	15100
883.766	14933
883.892	14849
884.018	14792
884.143	14937
884.269	15104
884.395	14724
884.52	14727
884.646	14724
884.772	14693
884.897	14693
885.023	14857
885.148	14819
885.274	14895
885.399	14823
885.524	14716
885.65	14674
885.775	14735
885.9	14682
886.025	14807
886.15	14807
886.275	14727
886.4	14640
886.525	14708
886.65	14743
886.775	14651
886.9	14777
887.025	14948
887.149	14769
887.274	14533
887.399	14526
887.523	14522
887.648	14495
887.773	14385
887.897	14617
888.021	14613
888.146	14507
888.27	14602
888.395	14663
888.519	14568
888.643	14537
888.767	14590
888.891	14438
889.015	14377
889.139	14423
889.263	14412
889.387	14488
889.511	14644
889.635	14507
889.759	14404
889.883	14351
890.006	14423
890.13	14480
890.254	14328
890.377	14366
890.501	14206
890.624	14240
890.748	14286
890.871	14153
890.995	14062
891.118	14054
891.241	14145
891.364	14107
891.488	14199
891.611	14111
891.734	14096
891.857	14115
891.98	14065
892.103	14183
892.226	14073
892.349	14020
892.471	13997
892.594	14077
892.717	14199
892.839	14103
892.962	14153
893.085	14237
893.207	14073
893.33	14001
893.452	13997
893.575	14218
893.697	14092
893.819	14256
893.941	14210
894.064	14240
894.186	14058
894.308	14084
894.43	14263
894.552	14320
894.674	14187
894.796	14027
894.918	14161
895.04	14183
895.161	14282
895.283	14221
895.405	14138
895.526	14206
895.648	14263
895.769	14298
895.891	14218
896.012	14332
896.134	14351
896.255	14202
896.376	14259
896.498	14210
896.619	14381
896.74	14263
896.861	14351
896.982	14629
897.103	14735
897.224	14613
897.345	14571
897.466	14434
897.587	14522
897.708	14693
897.828	14697
897.949	14454
898.07	14442
898.19	14579
898.311	14594
898.431	14587
898.552	14674
898.672	14682
898.792	14746
898.913	14765
899.033	14575
899.153	14450
899.273	14404
899.393	14511
899.513	14415
899.633	14503
899.753	14537
899.873	14469
899.993	14533
900.113	14507
900.232	14522
900.352	14412
900.472	14412
900.591	14370
900.711	14434
900.83	14370
900.95	14488
901.069	14450
901.189	14256
901.308	14157
901.427	14020
901.546	14058
901.665	14020
901.784	14050
901.904	13959
902.023	13894
902.141	13609
902.26	13666
902.379	13689
902.498	13647
902.617	13468
902.735	13613
902.854	13544
902.973	13533
903.091	13468
903.21	13400
903.328	13331
903.446	13251
903.565	13137
903.683	13175
903.801	13080
903.919	13069
904.038	13168
904.156	12985
904.274	13072
904.392	13015
904.51	12977
904.627	13080
904.745	12935
904.863	13038
904.981	12772
905.098	12669
905.216	12757
905.334	12654
905.451	12684
905.569	12677
905.686	12757
905.803	12707
905.921	12540
906.038	12597
906.155	12559
906.272	12384
906.389	12380
906.506	12296
906.623	12319
906.74	12262
906.857	12159
906.974	12136
907.091	12388
907.208	12361
907.324	12342
907.441	12190
907.557	12011
907.674	12030
907.79	11950
907.907	12019
908.023	11942
908.139	12019
908.256	11916
908.372	11965
908.488	11863
908.604	11805
908.72	11707
908.836	11790
908.952	11748
909.068	11756
909.184	11878
909.3	11832
909.415	11828
909.531	11748
909.647	11547
909.762	11535
909.878	11543
909.993	11566
910.108	11516
910.224	11573
910.339	11558
910.454	11448
910.57	11421
910.685	11368
910.8	11558
910.915	11596
911.03	11478
911.145	11277
911.259	11277
911.374	11231
911.489	11204
911.604	11193
911.718	10980
911.833	10999
911.947	10904
912.062	10790
912.176	11025
912.291	11003
912.405	10995
912.519	11223
912.633	11170
912.748	11071
912.862	10976
912.976	10847
913.09	10679
913.204	10820
913.318	10771
913.431	10995
913.545	10908
913.659	10972
913.772	10877
913.886	10824
914	10725
914.113	10828
914.226	10896
914.34	10835
914.453	10656
914.566	10869
914.68	10660
914.793	10706
914.906	10538
915.019	10474
915.132	10485
915.245	10455
915.358	10470
915.47	10424
915.583	10466
915.696	10531
915.809	10740
915.921	10653
916.034	10504
916.146	10493
916.259	10390
916.371	10611
916.483	10542
916.595	10382
916.708	10455
916.82	10443
916.932	10379
917.044	10443
917.156	10402
917.268	10284
917.38	10306
917.491	10325
917.603	10394
917.715	10432
917.826	10382
917.938	10265
918.049	10306
918.161	10295
918.272	10443
918.384	10451
918.495	10352
918.606	10242
918.717	10131
918.828	10215
918.939	10124
919.05	10211
919.161	10143
919.272	10002
919.383	10109
919.494	10219
919.604	10394
919.715	10272
919.826	10124
919.936	10223
920.047	10318
920.157	10169
920.267	10371
920.378	10272
920.488	10238
920.598	10394
920.708	10615
920.818	10443
920.928	10394
921.038	10649
921.148	10538
921.258	10291
921.368	10196
921.477	10200
921.587	10040
921.697	9979
921.806	10158
921.916	9930
922.025	9778
922.134	9800
922.244	9720
922.353	9831
922.462	9709
922.571	9614
922.68	9485
922.789	9469
922.898	9454
923.007	9496
923.116	9534
923.224	9450
923.333	9515
923.442	9325
923.55	9336
923.659	9382
923.767	9378
923.876	9275
923.984	9389
924.092	9283
924.201	9283
924.309	9332
924.417	9401
924.525	9351
924.633	9359
924.741	10257
924.849	9112
924.956	9268
925.064	9176
925.172	9081
925.279	9100
925.387	9146
925.494	9184
925.602	9199
925.709	9256
925.816	9104
925.924	9123
926.031	9253
926.138	9108
926.245	9256
926.352	9066
926.459	9184
926.566	9283
926.673	9097
926.779	9032
926.886	9047
926.993	8868
927.099	8811
927.206	8842
927.312	8826
927.419	8906
927.525	8857
927.631	8883
927.737	8819
927.843	8746
927.95	8632
928.056	8716
928.162	8758
928.267	8811
928.373	9370
928.479	8849
928.585	8625
928.69	8716
928.796	8845
928.901	8701
929.007	8568
929.112	8602
929.218	8606
929.323	8667
929.428	8560
929.533	8655
929.638	8545
929.743	8526
929.848	8564
929.953	8564
930.058	8427
930.163	8279
930.267	8412
930.372	8465
930.477	8256
930.581	8492
930.685	8381
930.79	8233
930.894	8313
930.998	8259
931.103	8457
931.207	8046
931.311	8020
931.415	7974
931.519	7818
931.623	7738
