Data from test_V78500241_381.txt Node
Date: Fri Mar 25 14:36:22 CST 2022
User: usil
Spectrometer: V785-0024
Trigger mode: 0
Integration Time (sec): 4.000000E-1
Scans to average: 1
Nonlinearity correction enabled: false
Boxcar width: 0
Storing dark spectrum: false
XAxis mode: Wavelengths
Number of Pixels in Spectrum: 1024
>>>>>Begin Spectral Data<<<<<
801.071	26648
801.214	26724
801.356	26545
801.499	26343
801.641	26317
801.783	26134
801.926	26130
802.068	26065
802.211	26012
802.353	26001
802.496	25898
802.638	25879
802.78	25715
802.923	25696
803.065	25639
803.208	25681
803.35	25681
803.492	25784
803.635	25860
803.777	25662
803.919	25738
804.061	26100
804.204	25776
804.346	25769
804.488	25689
804.63	25723
804.773	25514
804.915	25639
805.057	25780
805.199	25651
805.341	25605
805.483	25738
805.626	25738
805.768	25742
805.91	25841
806.052	25776
806.194	25620
806.336	25837
806.478	25902
806.62	25738
806.762	25811
806.904	26054
807.046	26286
807.188	26092
807.33	25997
807.472	26142
807.614	25883
807.756	26092
807.898	25826
808.04	25708
808.182	25936
808.324	25993
808.465	25902
808.607	26142
808.749	26172
808.891	26301
809.033	26362
809.174	26351
809.316	26088
809.458	26286
809.6	26233
809.741	26370
809.883	26324
810.025	26621
810.166	26317
810.308	26427
810.45	26225
810.591	26180
810.733	26187
810.875	26161
811.016	25997
811.158	25879
811.299	26240
811.441	26305
811.582	26309
811.724	26020
811.865	25982
812.007	26062
812.148	26062
812.29	26111
812.431	26256
812.573	26210
812.714	26309
812.855	26590
812.997	26762
813.138	26815
813.279	26522
813.421	26568
813.562	26602
813.703	26393
813.845	26343
813.986	25780
814.127	25719
814.268	25628
814.41	25655
814.551	25658
814.692	25731
814.833	25590
814.974	25620
815.115	25613
815.256	25422
815.397	25529
815.539	25506
815.68	25324
815.821	25422
815.962	25312
816.103	25316
816.244	25190
816.385	25072
816.526	25034
816.666	24886
816.807	24734
816.948	24795
817.089	24928
817.23	24802
817.371	24821
817.512	24776
817.653	24783
817.793	24715
817.934	24768
818.075	24817
818.216	24635
818.356	24703
818.497	24597
818.638	24353
818.778	24346
818.919	24429
819.06	24532
819.2	24437
819.341	24688
819.481	24608
819.622	24707
819.762	25084
819.903	24749
820.043	24829
820.184	24825
820.324	24844
820.465	24760
820.605	24825
820.746	24719
820.886	24589
821.026	24517
821.167	24646
821.307	24703
821.447	24616
821.588	24566
821.728	24323
821.868	24254
822.008	24140
822.149	24117
822.289	24106
822.429	23901
822.569	23714
822.709	23741
822.849	23649
822.99	23570
823.13	23501
823.27	23531
823.41	23341
823.55	23208
823.69	23273
823.83	23284
823.97	23178
824.11	23121
824.25	23086
824.389	23083
824.529	23143
824.669	22976
824.809	23185
824.949	23189
825.089	23292
825.228	23090
825.368	22976
825.508	22908
825.648	22828
825.787	22862
825.927	22999
826.067	22919
826.206	22866
826.346	22858
826.485	22946
826.625	22843
826.765	23018
826.904	22908
827.044	22702
827.183	22668
827.323	22596
827.462	22603
827.601	22508
827.741	22535
827.88	22561
828.02	22459
828.159	22455
828.298	22596
828.437	22519
828.577	22470
828.716	22611
828.855	22447
828.994	22462
829.134	22131
829.273	22169
829.412	22177
829.551	22299
829.69	22116
829.829	22261
829.968	22234
830.107	22341
830.246	22268
830.385	22143
830.524	22226
830.663	22059
830.802	21983
830.941	21778
831.08	21667
831.219	21842
831.357	21850
831.496	22029
831.635	21743
831.774	21629
831.913	21739
832.051	21629
832.19	21583
832.329	21580
832.467	21538
832.606	21443
832.744	21374
832.883	21458
833.022	21351
833.16	21557
833.299	21526
833.437	21363
833.576	21500
833.714	21580
833.852	21542
833.991	21481
834.129	21641
834.267	21603
834.406	21606
834.544	21466
834.682	21519
834.821	21420
834.959	21644
835.097	21367
835.235	21507
835.373	21557
835.511	21439
835.65	21462
835.788	21313
835.926	21226
836.064	21142
836.202	21249
836.34	21321
836.478	21488
836.615	21313
836.753	21287
836.891	21291
837.029	21325
837.167	21226
837.305	21279
837.443	21241
837.58	21062
837.718	21252
837.856	21173
837.993	21169
838.131	21199
838.269	21013
838.406	21017
838.544	21051
838.681	20815
838.819	20792
838.956	20674
839.094	20629
839.231	20746
839.369	20743
839.506	21001
839.643	20883
839.781	20518
839.918	20393
840.055	20526
840.193	20606
840.33	20503
840.467	20476
840.604	20594
840.742	20769
840.879	20358
841.016	20564
841.153	20400
841.29	20594
841.427	20575
841.564	20537
841.701	20511
841.838	20358
841.975	20396
842.112	20434
842.249	20328
842.385	20263
842.522	20377
842.659	20294
842.796	20248
842.933	20313
843.069	20180
843.206	20183
843.343	20301
843.479	20225
843.616	20161
843.752	20065
843.889	20073
844.025	20084
844.162	19986
844.298	20119
844.435	20020
844.571	19909
844.708	19970
844.844	20202
844.98	20240
845.117	20046
845.253	19986
845.389	19936
845.525	19917
845.661	19997
845.798	19734
845.934	19841
846.07	19784
846.206	19871
846.342	19837
846.478	19731
846.614	19609
846.75	19445
846.886	19400
847.022	19499
847.158	19586
847.294	19510
847.429	19552
847.565	19495
847.701	19662
847.837	19190
847.972	19110
848.108	19301
848.244	19255
848.379	19038
848.515	19050
848.65	18935
848.786	19008
848.921	19046
849.057	19160
849.192	19114
849.328	19118
849.463	19038
849.598	18928
849.734	18939
849.869	18878
850.004	18779
850.14	18760
850.275	18806
850.41	18726
850.545	18802
850.68	18677
850.815	18722
850.95	18696
851.085	18924
851.22	18878
851.355	18817
851.49	18745
851.625	18772
851.76	18658
851.895	18623
852.03	18585
852.165	18681
852.299	18719
852.434	18764
852.569	18802
852.703	18844
852.838	18795
852.973	18939
853.107	18795
853.242	18661
853.376	18635
853.511	18464
853.645	18563
853.78	18688
853.914	18582
854.048	18623
854.183	18513
854.317	18578
854.451	18696
854.585	18585
854.72	18681
854.854	18517
854.988	18582
855.122	18608
855.256	18551
855.39	18582
855.524	18601
855.658	18616
855.792	18589
855.926	18665
856.06	18525
856.194	18658
856.327	18570
856.461	18555
856.595	18574
856.729	18566
856.862	18681
856.996	18612
857.13	18563
857.263	18639
857.397	18722
857.53	18475
857.664	18623
857.797	18673
857.931	18757
858.064	18627
858.197	18559
858.331	18471
858.464	18410
858.597	18460
858.731	18502
858.864	18448
858.997	18418
859.13	18509
859.263	18517
859.396	18585
859.529	18551
859.662	18483
859.795	18521
859.928	18521
860.061	18642
860.194	18642
860.327	18528
860.46	18528
860.592	18604
860.725	18528
860.858	18582
860.99	18582
861.123	18471
861.256	18391
861.388	18521
861.521	19232
861.653	18433
861.786	18209
861.918	18479
862.05	18448
862.183	18452
862.315	18578
862.447	18574
862.58	18528
862.712	18357
862.844	18220
862.976	18471
863.108	18330
863.24	18703
863.372	18121
863.504	18304
863.636	18346
863.768	18289
863.9	18197
864.032	18133
864.164	18258
864.296	18190
864.428	18311
864.559	18384
864.691	18201
864.823	18110
864.954	18224
865.086	18239
865.217	18216
865.349	18125
865.48	18300
865.612	18110
865.743	18296
865.875	18114
866.006	18091
866.137	18209
866.269	18068
866.4	18182
866.531	18117
866.662	18015
866.793	18201
866.924	18117
867.055	18186
867.186	18083
867.317	18015
867.448	17977
867.579	17992
867.71	18019
867.841	18057
867.972	18167
868.103	18190
868.233	18190
868.364	18159
868.495	18213
868.625	18311
868.756	18414
868.886	18235
869.017	18350
869.147	18433
869.278	18486
869.408	18311
869.539	18308
869.669	18410
869.799	18376
869.929	18448
870.06	18479
870.19	18642
870.32	18604
870.45	18642
870.58	18726
870.71	18802
870.84	18734
870.97	18738
871.1	18677
871.23	18829
871.36	19000
871.489	18859
871.619	18878
871.749	18970
871.879	19000
872.008	19072
872.138	19023
872.267	18920
872.397	18886
872.526	18753
872.656	18783
872.785	18692
872.915	18890
873.044	19072
873.173	18878
873.303	18981
873.432	18928
873.561	18951
873.69	18939
873.819	18970
873.948	19118
874.077	18905
874.206	18871
874.335	18943
874.464	19046
874.593	19297
874.722	19160
874.851	19255
874.979	19198
875.108	19278
875.237	19206
875.365	19141
875.494	19194
875.623	19293
875.751	19259
875.88	19145
876.008	19285
876.136	19491
876.265	19639
876.393	19757
876.521	19662
876.65	19723
876.778	19548
876.906	19575
877.034	19575
877.162	19613
877.29	19529
877.418	19613
877.546	19620
877.674	19594
877.802	19582
877.93	19613
878.058	19643
878.185	19457
878.313	19613
878.441	19620
878.568	19495
878.696	19506
878.824	19620
878.951	19620
879.079	19795
879.206	19849
879.333	19807
879.461	19712
879.588	19788
879.715	19753
879.842	20012
879.97	19719
880.097	19506
880.224	19476
880.351	19434
880.478	19529
880.605	19365
880.732	19468
880.859	19693
880.986	19502
881.112	19502
881.239	19373
881.366	19247
881.493	19308
881.619	19061
881.746	19076
881.872	18973
881.999	19042
882.125	19019
882.252	19168
882.378	19046
882.505	19209
882.631	19053
882.757	18890
882.883	18943
883.01	18791
883.136	18783
883.262	18783
883.388	18726
883.514	18878
883.64	18928
883.766	18909
883.892	18768
884.018	18703
884.143	18859
884.269	18970
884.395	18593
884.52	18532
884.646	18585
884.772	18426
884.897	18456
885.023	18486
885.148	18593
885.274	18669
885.399	18616
885.524	18528
885.65	18517
885.775	18464
885.9	18475
886.025	18601
886.15	18494
886.275	18429
886.4	18410
886.525	18528
886.65	18479
886.775	18445
886.9	18555
887.025	18673
887.149	18426
887.274	18315
887.399	18205
887.523	18216
887.648	18197
887.773	18197
887.897	18292
888.021	18304
888.146	18289
888.27	18342
888.395	18399
888.519	18228
888.643	18251
888.767	18254
888.891	18178
889.015	17999
889.139	18167
889.263	18140
889.387	18201
889.511	18167
889.635	18220
889.759	18102
889.883	18007
890.006	18110
890.13	18011
890.254	18022
890.377	17996
890.501	17824
890.624	17847
890.748	17973
890.871	17809
890.995	17672
891.118	17585
891.241	17714
891.364	17710
891.488	17901
891.611	17809
891.734	17630
891.857	17707
891.98	17748
892.103	17809
892.226	17783
892.349	17665
892.471	17493
892.594	17680
892.717	17646
892.839	17627
892.962	17714
893.085	17718
893.207	17570
893.33	17581
893.452	17554
893.575	17745
893.697	17649
893.819	17771
893.941	17851
894.064	17824
894.186	17554
894.308	17573
894.43	17771
894.552	17786
894.674	17764
894.796	17539
894.918	17699
895.04	17657
895.161	17718
895.283	17722
895.405	17547
895.526	17539
895.648	17589
895.769	17821
895.891	17665
896.012	17813
896.134	17699
896.255	17653
896.376	17752
896.498	17767
896.619	17737
896.74	17680
896.861	17809
896.982	18106
897.103	18220
897.224	18121
897.345	17969
897.466	17973
897.587	18041
897.708	18129
897.828	18068
897.949	17931
898.07	17798
898.19	17764
898.311	18064
898.431	17950
898.552	17958
898.672	18098
898.792	18057
898.913	17912
899.033	17878
899.153	17733
899.273	17661
899.393	17756
899.513	17741
899.633	17695
899.753	17805
899.873	17691
899.993	17802
900.113	17771
900.232	17695
900.352	17691
900.472	17699
900.591	17573
900.711	17520
900.83	17509
900.95	17615
901.069	17646
901.189	17600
901.308	17212
901.427	17216
901.546	17208
901.665	17315
901.784	17212
901.904	17056
902.023	16911
902.141	16797
902.26	16824
902.379	16858
902.498	16725
902.617	16603
902.735	16763
902.854	16710
902.973	16683
903.091	16432
903.21	16390
903.328	16386
903.446	16325
903.565	16185
903.683	16265
903.801	16124
903.919	16242
904.038	16200
904.156	16067
904.274	16036
904.392	15960
904.51	15994
904.627	15983
904.745	16002
904.863	16010
904.981	15781
905.098	15728
905.216	15572
905.334	15610
905.451	15644
905.569	15610
905.686	15667
905.803	15709
905.921	15378
906.038	15568
906.155	15538
906.272	15340
906.389	15420
906.506	15176
906.623	15211
906.74	15230
906.857	15066
906.974	15138
907.091	15203
907.208	15287
907.324	15233
907.441	15036
907.557	14971
907.674	14864
907.79	14994
907.907	14895
908.023	14944
908.139	14872
908.256	14944
908.372	14712
908.488	14762
908.604	14617
908.72	14621
908.836	14689
908.952	14484
909.068	14716
909.184	14712
909.3	14606
909.415	14644
909.531	14636
909.647	14393
909.762	14450
909.878	14324
909.993	14271
910.108	14317
910.224	14351
910.339	14385
910.454	14218
910.57	14210
910.685	14176
910.8	14400
910.915	14324
911.03	14145
911.145	14001
911.259	13944
911.374	13974
911.489	13898
911.604	13860
911.718	13712
911.833	13677
911.947	13613
912.062	13502
912.176	13708
912.291	13734
912.405	13731
912.519	14020
912.633	13883
912.748	13791
912.862	13651
912.976	13556
913.09	13438
913.204	13518
913.318	13468
913.431	13674
913.545	13597
913.659	13693
913.772	13487
913.886	13430
914	13346
914.113	13491
914.226	13502
914.34	13411
914.453	13327
914.566	13438
914.68	13316
914.793	13251
914.906	13065
915.019	13061
915.132	12981
915.245	12993
915.358	13149
915.47	13091
915.583	13038
915.696	13080
915.809	13179
915.921	13160
916.034	13095
916.146	12901
916.259	12977
916.371	13126
916.483	13027
916.595	12954
916.708	12909
916.82	12916
916.932	12947
917.044	12882
917.156	12924
917.268	12833
917.38	12821
917.491	12757
917.603	12791
917.715	12867
917.826	12859
917.938	12772
918.049	12612
918.161	12787
918.272	12954
918.384	12821
918.495	12779
918.606	12578
918.717	12635
918.828	12631
918.939	12559
919.05	12441
919.161	12483
919.272	12262
919.383	12513
919.494	12642
919.604	12738
919.715	12483
919.826	12456
919.936	12532
920.047	12559
920.157	12532
920.267	12772
920.378	12528
920.488	12483
920.598	12753
920.708	12837
920.818	12734
920.928	12631
921.038	12795
921.148	12821
921.258	12509
921.368	12346
921.477	12407
921.587	12422
921.697	12247
921.806	12334
921.916	12201
922.025	12057
922.134	12053
922.244	11931
922.353	12041
922.462	11946
922.571	11783
922.68	11714
922.789	11630
922.898	11649
923.007	11558
923.116	11695
923.224	11596
923.333	11570
923.442	11585
923.55	11516
923.659	11528
923.767	11646
923.876	11448
923.984	11661
924.092	11463
924.201	11490
924.309	11493
924.417	11414
924.525	11417
924.633	11410
924.741	12311
924.849	11250
924.956	11425
925.064	11185
925.172	11189
925.279	11098
925.387	11128
925.494	11204
925.602	11288
925.709	11242
925.816	11086
925.924	11048
926.031	11223
926.138	11189
926.245	11261
926.352	11033
926.459	11227
926.566	11193
926.673	11060
926.779	10934
926.886	10915
926.993	10843
927.099	10816
927.206	10774
927.312	10683
927.419	10755
927.525	10797
927.631	10812
927.737	10691
927.843	10641
927.95	10573
928.056	10645
928.162	10733
928.267	10668
928.373	11292
928.479	10748
928.585	10504
928.69	10679
928.796	10634
928.901	10500
929.007	10405
929.112	10538
929.218	10455
929.323	10443
929.428	10436
929.533	10569
929.638	10375
929.743	10352
929.848	10470
929.953	10394
930.058	10265
930.163	10097
930.267	10131
930.372	10234
930.477	10105
930.581	10291
930.685	10185
930.79	10036
930.894	10086
930.998	10002
931.103	10150
931.207	9808
931.311	9785
931.415	9671
931.519	9481
931.623	9416
