Data from test_V78500241_2221.txt Node
Date: Fri Mar 25 14:49:10 CST 2022
User: usil
Spectrometer: V785-0024
Trigger mode: 0
Integration Time (sec): 4.000000E-1
Scans to average: 1
Nonlinearity correction enabled: false
Boxcar width: 0
Storing dark spectrum: false
XAxis mode: Wavelengths
Number of Pixels in Spectrum: 1024
>>>>>Begin Spectral Data<<<<<
801.071	22196
801.214	22021
801.356	21728
801.499	21698
801.641	21618
801.783	21519
801.926	21641
802.068	21614
802.211	21329
802.353	21340
802.496	21032
802.638	21131
802.78	20880
802.923	20906
803.065	20963
803.208	20823
803.35	20956
803.492	20910
803.635	20906
803.777	20792
803.919	20925
804.061	21283
804.204	20948
804.346	20769
804.488	20705
804.63	20830
804.773	20708
804.915	20815
805.057	20845
805.199	20765
805.341	20895
805.483	20853
805.626	20804
805.768	20781
805.91	20724
806.052	20864
806.194	20739
806.336	20948
806.478	20762
806.62	20743
806.762	20933
806.904	20918
807.046	21329
807.188	21093
807.33	21062
807.472	21150
807.614	20998
807.756	20956
807.898	20807
808.04	20823
808.182	20777
808.324	20967
808.465	20967
808.607	21009
808.749	21154
808.891	21260
809.033	21515
809.174	21245
809.316	21093
809.458	21199
809.6	21009
809.741	21138
809.883	21272
810.025	21416
810.166	21355
810.308	21245
810.45	21291
810.591	21218
810.733	21123
810.875	20849
811.016	20845
811.158	20902
811.299	20998
811.441	21051
811.582	21100
811.724	20845
811.865	20868
812.007	20967
812.148	20925
812.29	20906
812.431	21020
812.573	21268
812.714	21325
812.855	21412
812.997	21515
813.138	21576
813.279	21469
813.421	21298
813.562	21389
813.703	21093
813.845	21058
813.986	20804
814.127	20674
814.268	20541
814.41	20514
814.551	20423
814.692	20488
814.833	20343
814.974	20332
815.115	20446
815.256	20313
815.397	20366
815.539	20347
815.68	20290
815.821	20164
815.962	20240
816.103	20229
816.244	20031
816.385	19978
816.526	19936
816.666	19727
816.807	19559
816.948	19616
817.089	19788
817.23	19693
817.371	19639
817.512	19693
817.653	19670
817.793	19510
817.934	19594
818.075	19662
818.216	19563
818.356	19521
818.497	19499
818.638	19259
818.778	19221
818.919	19350
819.06	19255
819.2	19460
819.341	19544
819.481	19457
819.622	19670
819.762	19803
819.903	19738
820.043	19624
820.184	19681
820.324	19662
820.465	19708
820.605	19563
820.746	19529
820.886	19403
821.026	19578
821.167	19635
821.307	19586
821.447	19510
821.588	19476
821.728	19274
821.868	19221
822.008	19061
822.149	19053
822.289	18954
822.429	18726
822.569	18669
822.709	18722
822.849	18456
822.99	18399
823.13	18448
823.27	18319
823.41	18194
823.55	18216
823.69	18350
823.83	18292
823.97	18224
824.11	18083
824.25	18053
824.389	17996
824.529	18148
824.669	17958
824.809	18254
824.949	18129
825.089	18155
825.228	18038
825.368	17931
825.508	17843
825.648	17840
825.787	17969
825.927	17904
826.067	17771
826.206	17813
826.346	17843
826.485	17893
826.625	17817
826.765	17927
826.904	17866
827.044	17672
827.183	17505
827.323	17452
827.462	17585
827.601	17558
827.741	17668
827.88	17558
828.02	17391
828.159	17455
828.298	17604
828.437	17638
828.577	17421
828.716	17600
828.855	17467
828.994	17223
829.134	17280
829.273	17364
829.412	17330
829.551	17277
829.69	17322
829.829	17307
829.968	17398
830.107	17391
830.246	17307
830.385	17159
830.524	17170
830.663	17064
830.802	17025
830.941	16877
831.08	16812
831.219	17121
831.357	16957
831.496	17052
831.635	16744
831.774	16797
831.913	16752
832.051	16752
832.19	16698
832.329	16778
832.467	16691
832.606	16599
832.744	16611
832.883	16493
833.022	16508
833.16	16656
833.299	16637
833.437	16599
833.576	16618
833.714	16675
833.852	16561
833.991	16611
834.129	16641
834.267	16691
834.406	16554
834.544	16637
834.682	16599
834.821	16622
834.959	16763
835.097	16523
835.235	16645
835.373	16637
835.511	16622
835.65	16569
835.788	16474
835.926	16375
836.064	16295
836.202	16306
836.34	16580
836.478	16615
836.615	16436
836.753	16447
836.891	16588
837.029	16672
837.167	16538
837.305	16421
837.443	16386
837.58	16344
837.718	16478
837.856	16348
837.993	16325
838.131	16382
838.269	16303
838.406	16382
838.544	16268
838.681	16192
838.819	15968
838.956	15903
839.094	15907
839.231	15949
839.369	15953
839.506	16352
839.643	16329
839.781	15968
839.918	15861
840.055	15983
840.193	15907
840.33	15876
840.467	15907
840.604	15934
840.742	16230
840.879	15743
841.016	15880
841.153	15861
841.29	15956
841.427	15880
841.564	15937
841.701	15915
841.838	15819
841.975	15781
842.112	15819
842.249	15800
842.385	15694
842.522	15865
842.659	15759
842.796	15629
842.933	15705
843.069	15679
843.206	15705
843.343	15850
843.479	15781
843.616	15663
843.752	15458
843.889	15405
844.025	15663
844.162	15530
844.298	15481
844.435	15481
844.571	15485
844.708	15549
844.844	15572
844.98	15538
845.117	15549
845.253	15348
845.389	15526
845.525	15416
845.661	15424
845.798	15272
845.934	15302
846.07	15317
846.206	15355
846.342	15443
846.478	15313
846.614	15039
846.75	15005
846.886	15097
847.022	15199
847.158	15123
847.294	14998
847.429	15176
847.565	15074
847.701	15256
847.837	14815
847.972	14815
848.108	14842
848.244	14842
848.379	14731
848.515	14648
848.65	14693
848.786	14617
848.921	14686
849.057	14743
849.192	14689
849.328	14667
849.463	14659
849.598	14636
849.734	14663
849.869	14556
850.004	14450
850.14	14473
850.275	14377
850.41	14377
850.545	14450
850.68	14465
850.815	14541
850.95	14404
851.085	14590
851.22	14495
851.355	14431
851.49	14404
851.625	14396
851.76	14404
851.895	14355
852.03	14343
852.165	14355
852.299	14583
852.434	14503
852.569	14408
852.703	14324
852.838	14507
852.973	14644
853.107	14640
853.242	14415
853.376	14324
853.511	14282
853.645	14225
853.78	14347
853.914	14282
854.048	14328
854.183	14221
854.317	14320
854.451	14431
854.585	14256
854.72	14256
854.854	14336
854.988	14229
855.122	14278
855.256	14126
855.39	14305
855.524	14324
855.658	14343
855.792	14320
855.926	14358
856.06	14290
856.194	14450
856.327	14252
856.461	14301
856.595	14233
856.729	14275
856.862	14374
856.996	14374
857.13	14408
857.263	14427
857.397	14412
857.53	14278
857.664	14434
857.797	14457
857.931	14431
858.064	14332
858.197	14347
858.331	14214
858.464	14225
858.597	14199
858.731	14256
858.864	14267
858.997	14328
859.13	14305
859.263	14358
859.396	14366
859.529	14290
859.662	14138
859.795	14263
859.928	14275
860.061	14484
860.194	14503
860.327	14259
860.46	14328
860.592	14313
860.725	14412
860.858	14294
860.99	14259
861.123	14202
861.256	14237
861.388	14324
861.521	14842
861.653	14142
861.786	14088
861.918	14123
862.05	14138
862.183	14172
862.315	14229
862.447	14347
862.58	14210
862.712	14191
862.844	14062
862.976	14100
863.108	14153
863.24	14408
863.372	14008
863.504	14103
863.636	14145
863.768	14126
863.9	14031
864.032	14039
864.164	14069
864.296	14077
864.428	14214
864.559	14244
864.691	14062
864.823	14164
864.954	14016
865.086	14077
865.217	14027
865.349	14005
865.48	14103
865.612	14031
865.743	14271
865.875	14088
866.006	13986
866.137	14054
866.269	14027
866.4	14039
866.531	14058
866.662	13902
866.793	14081
866.924	13951
867.055	14050
867.186	14031
867.317	13978
867.448	13974
867.579	14001
867.71	13993
867.841	14024
867.972	13913
868.103	13974
868.233	14100
868.364	14050
868.495	14164
868.625	14248
868.756	14408
868.886	14263
869.017	14290
869.147	14442
869.278	14374
869.408	14415
869.539	14362
869.669	14343
869.799	14313
869.929	14495
870.06	14366
870.19	14617
870.32	14568
870.45	14659
870.58	14667
870.71	14754
870.84	14819
870.97	14610
871.1	14773
871.23	14807
871.36	14914
871.489	14785
871.619	14872
871.749	14864
871.879	14929
872.008	14921
872.138	14948
872.267	14864
872.397	14739
872.526	14796
872.656	14648
872.785	14686
872.915	14941
873.044	14941
873.173	14899
873.303	15017
873.432	14979
873.561	14982
873.69	14956
873.819	14887
873.948	15138
874.077	15001
874.206	14876
874.335	14960
874.464	14990
874.593	15321
874.722	15074
874.851	15310
874.979	15294
875.108	15325
875.237	15146
875.365	15123
875.494	15256
875.623	15310
875.751	15302
875.88	15294
876.008	15466
876.136	15466
876.265	15713
876.393	15831
876.521	15671
876.65	15819
876.778	15690
876.906	15743
877.034	15622
877.162	15671
877.29	15599
877.418	15675
877.546	15656
877.674	15603
877.802	15660
877.93	15739
878.058	15755
878.185	15580
878.313	15663
878.441	15603
878.568	15549
878.696	15496
878.824	15694
878.951	15819
879.079	15831
879.206	15979
879.333	15766
879.461	15770
879.588	15785
879.715	15865
879.842	16017
879.97	15732
880.097	15389
880.224	15488
880.351	15625
880.478	15553
880.605	15515
880.732	15462
880.859	15755
880.986	15507
881.112	15557
881.239	15374
881.366	15294
881.493	15161
881.619	15249
881.746	15180
881.872	15237
881.999	15135
882.125	15089
882.252	15116
882.378	15279
882.505	15367
882.631	15135
882.757	15020
882.883	14994
883.01	14971
883.136	15043
883.262	14773
883.388	14765
883.514	14933
883.64	15142
883.766	14895
883.892	14762
884.018	14872
884.143	14971
884.269	15077
884.395	14777
884.52	14686
884.646	14648
884.772	14655
884.897	14522
885.023	14724
885.148	14800
885.274	14838
885.399	14838
885.524	14686
885.65	14701
885.775	14731
885.9	14750
886.025	14891
886.15	14758
886.275	14735
886.4	14636
886.525	14636
886.65	14640
886.775	14720
886.9	14746
887.025	14925
887.149	14590
887.274	14575
887.399	14499
887.523	14594
887.648	14412
887.773	14362
887.897	14568
888.021	14545
888.146	14484
888.27	14632
888.395	14670
888.519	14598
888.643	14667
888.767	14644
888.891	14457
889.015	14370
889.139	14438
889.263	14305
889.387	14495
889.511	14514
889.635	14522
889.759	14374
889.883	14438
890.006	14511
890.13	14484
890.254	14328
890.377	14347
890.501	14176
890.624	14077
890.748	14278
890.871	14111
890.995	14069
891.118	13978
891.241	14119
891.364	14100
891.488	14229
891.611	14119
891.734	14157
891.857	14240
891.98	14073
892.103	14252
892.226	14164
892.349	13967
892.471	13936
892.594	14031
892.717	14142
892.839	14039
892.962	14084
893.085	14092
893.207	14134
893.33	13997
893.452	14153
893.575	14168
893.697	14107
893.819	14298
893.941	14278
894.064	14183
894.186	14100
894.308	14111
894.43	14199
894.552	14229
894.674	14263
894.796	14084
894.918	14233
895.04	14187
895.161	14240
895.283	14233
895.405	14153
895.526	14130
895.648	14252
895.769	14244
895.891	14256
896.012	14286
896.134	14332
896.255	14370
896.376	14176
896.498	14298
896.619	14278
896.74	14263
896.861	14263
896.982	14636
897.103	14674
897.224	14564
897.345	14549
897.466	14355
897.587	14507
897.708	14716
897.828	14541
897.949	14571
898.07	14400
898.19	14442
898.311	14777
898.431	14530
898.552	14579
898.672	14663
898.792	14731
898.913	14758
899.033	14549
899.153	14476
899.273	14355
899.393	14377
899.513	14530
899.633	14514
899.753	14499
899.873	14522
899.993	14438
900.113	14507
900.232	14530
900.352	14419
900.472	14518
900.591	14317
900.711	14336
900.83	14370
900.95	14461
901.069	14450
901.189	14290
901.308	14134
901.427	13902
901.546	13997
901.665	14050
901.784	14107
901.904	14031
902.023	13883
902.141	13639
902.26	13529
902.379	13761
902.498	13616
902.617	13544
902.735	13586
902.854	13518
902.973	13438
903.091	13285
903.21	13247
903.328	13373
903.446	13247
903.565	13206
903.683	13225
903.801	13069
903.919	13110
904.038	13129
904.156	12943
904.274	13133
904.392	12970
904.51	12947
904.627	12966
904.745	13004
904.863	13076
904.981	12791
905.098	12650
905.216	12707
905.334	12650
905.451	12673
905.569	12677
905.686	12726
905.803	12684
905.921	12460
906.038	12570
906.155	12479
906.272	12384
906.389	12414
906.506	12262
906.623	12300
906.74	12239
906.857	12167
906.974	12110
907.091	12285
907.208	12418
907.324	12289
907.441	12079
907.557	12026
907.674	11946
907.79	11901
907.907	12015
908.023	11996
908.139	12034
908.256	11946
908.372	11954
908.488	11889
908.604	11745
908.72	11688
908.836	11733
908.952	11802
909.068	11790
909.184	11889
909.3	11786
909.415	11771
909.531	11710
909.647	11467
909.762	11600
909.878	11444
909.993	11581
910.108	11604
910.224	11421
910.339	11547
910.454	11429
910.57	11372
910.685	11265
910.8	11547
910.915	11630
911.03	11360
911.145	11265
911.259	11250
911.374	11223
911.489	11162
911.604	11056
911.718	10904
911.833	10995
911.947	10847
912.062	10816
912.176	10961
912.291	10904
912.405	10984
912.519	11162
912.633	11223
912.748	11064
912.862	10904
912.976	10889
913.09	10752
913.204	10801
913.318	10892
913.431	11029
913.545	10896
913.659	10980
913.772	10877
913.886	10740
914	10748
914.113	10809
914.226	10957
914.34	10858
914.453	10626
914.566	10797
914.68	10702
914.793	10694
914.906	10554
915.019	10447
915.132	10402
915.245	10478
915.358	10409
915.47	10447
915.583	10512
915.696	10516
915.809	10615
915.921	10626
916.034	10489
916.146	10363
916.259	10409
916.371	10569
916.483	10508
916.595	10386
916.708	10284
916.82	10417
916.932	10421
917.044	10363
917.156	10363
917.268	10337
917.38	10379
917.491	10303
917.603	10314
917.715	10413
917.826	10459
917.938	10280
918.049	10242
918.161	10314
918.272	10470
918.384	10485
918.495	10352
918.606	10219
918.717	10120
918.828	10219
918.939	10215
919.05	10143
919.161	10211
919.272	9979
919.383	10010
919.494	10249
919.604	10443
919.715	10238
919.826	10071
919.936	10200
920.047	10291
920.157	10348
920.267	10443
920.378	10299
920.488	10185
920.598	10443
920.708	10588
920.818	10504
920.928	10481
921.038	10577
921.148	10603
921.258	10299
921.368	10230
921.477	10147
921.587	10063
921.697	9968
921.806	10188
921.916	9998
922.025	9793
922.134	9797
922.244	9762
922.353	9831
922.462	9785
922.571	9625
922.68	9534
922.789	9481
922.898	9504
923.007	9469
923.116	9500
923.224	9557
923.333	9507
923.442	9401
923.55	9389
923.659	9428
923.767	9572
923.876	9401
923.984	9420
924.092	9351
924.201	9412
924.309	9367
924.417	9359
924.525	9374
924.633	9336
924.741	10238
924.849	9123
924.956	9344
925.064	9119
925.172	9062
925.279	9157
925.387	9161
925.494	9161
925.602	9279
925.709	9291
925.816	9119
925.924	9188
926.031	9264
926.138	9100
926.245	9272
926.352	9154
926.459	9188
926.566	9253
926.673	9188
926.779	8986
926.886	9024
926.993	8899
927.099	8864
927.206	8857
927.312	8906
927.419	8925
927.525	8910
927.631	8921
927.737	8811
927.843	8758
927.95	8632
928.056	8815
928.162	8807
928.267	8826
928.373	9492
928.479	8887
928.585	8693
928.69	8739
928.796	8785
928.901	8739
929.007	8571
929.112	8720
929.218	8712
929.323	8648
929.428	8556
929.533	8727
929.638	8518
929.743	8564
929.848	8617
929.953	8598
930.058	8450
930.163	8313
930.267	8328
930.372	8461
930.477	8279
930.581	8541
930.685	8434
930.79	8298
930.894	8366
930.998	8259
931.103	8385
931.207	8164
931.311	8077
931.415	7887
931.519	7814
931.623	7814
