Data from test_V78500241_938.txt Node
Date: Fri Mar 25 14:40:14 CST 2022
User: usil
Spectrometer: V785-0024
Trigger mode: 0
Integration Time (sec): 4.000000E-1
Scans to average: 1
Nonlinearity correction enabled: false
Boxcar width: 0
Storing dark spectrum: false
XAxis mode: Wavelengths
Number of Pixels in Spectrum: 1024
>>>>>Begin Spectral Data<<<<<
801.071	24441
801.214	24251
801.356	24045
801.499	24117
801.641	23855
801.783	23752
801.926	23897
802.068	23672
802.211	23687
802.353	23516
802.496	23337
802.638	23307
802.78	23292
802.923	23231
803.065	23136
803.208	23071
803.35	23197
803.492	23288
803.635	23341
803.777	23124
803.919	23204
804.061	23520
804.204	23254
804.346	23098
804.488	23216
804.63	23147
804.773	22896
804.915	23086
805.057	23265
805.199	23151
805.341	23147
805.483	23379
805.626	23231
805.768	23178
805.91	23166
806.052	23155
806.194	23155
806.336	23410
806.478	23337
806.62	23337
806.762	23364
806.904	23478
807.046	23832
807.188	23733
807.33	23794
807.472	23824
807.614	23828
807.756	24007
807.898	24038
808.04	24155
808.182	24555
808.324	24741
808.465	25274
808.607	25658
808.749	26046
808.891	26343
809.033	26431
809.174	26062
809.316	25719
809.458	25316
809.6	24871
809.741	24768
809.883	24429
810.025	24388
810.166	24270
810.308	24152
810.45	24041
810.591	23923
810.733	23813
810.875	23566
811.016	23516
811.158	23444
811.299	23592
811.441	23646
811.582	23528
811.724	23452
811.865	23421
812.007	23436
812.148	23337
812.29	23490
812.431	23539
812.573	23847
812.714	23657
812.855	23863
812.997	23931
813.138	24216
813.279	23996
813.421	23935
813.562	23695
813.703	23687
813.845	23592
813.986	23311
814.127	23060
814.268	23006
814.41	23064
814.551	22854
814.692	23022
814.833	22820
814.974	22930
815.115	22946
815.256	22771
815.397	22778
815.539	22710
815.68	22679
815.821	22584
815.962	22729
816.103	22577
816.244	22523
816.385	22409
816.526	22352
816.666	22204
816.807	22070
816.948	22116
817.089	22276
817.23	22074
817.371	22070
817.512	21937
817.653	21994
817.793	21918
817.934	21892
818.075	22082
818.216	21994
818.356	21884
818.497	21823
818.638	21625
818.778	21637
818.919	21759
819.06	21667
819.2	21720
819.341	21819
819.481	21873
819.622	21956
819.762	22253
819.903	22173
820.043	22055
820.184	21968
820.324	21949
820.465	22078
820.605	21987
820.746	21899
820.886	21816
821.026	21857
821.167	21888
821.307	21835
821.447	21937
821.588	21663
821.728	21622
821.868	21416
822.008	21363
822.149	21329
822.289	21256
822.429	21055
822.569	20975
822.709	20941
822.849	20724
822.99	20697
823.13	20708
823.27	20834
823.41	20583
823.55	20564
823.69	20568
823.83	20564
823.97	20480
824.11	20389
824.25	20431
824.389	20358
824.529	20507
824.669	20275
824.809	20442
824.949	20488
825.089	20461
825.228	20423
825.368	20119
825.508	19997
825.648	20214
825.787	20267
825.927	20248
826.067	20111
826.206	20149
826.346	20134
826.485	20164
826.625	20153
826.765	20275
826.904	20252
827.044	19940
827.183	19936
827.323	19856
827.462	19894
827.601	19769
827.741	19852
827.88	19890
828.02	19685
828.159	19784
828.298	19788
828.437	19734
828.577	19708
828.716	19890
828.855	19727
828.994	19674
829.134	19537
829.273	19544
829.412	19521
829.551	19403
829.69	19476
829.829	19453
829.968	19689
830.107	19655
830.246	19445
830.385	19483
830.524	19491
830.663	19270
830.802	19225
830.941	19148
831.08	19019
831.219	19148
831.357	19194
831.496	19244
831.635	19137
831.774	18958
831.913	19091
832.051	18848
832.19	18954
832.329	18878
832.467	18871
832.606	18734
832.744	18806
832.883	18863
833.022	18772
833.16	18745
833.299	18844
833.437	18894
833.576	18897
833.714	18962
833.852	18920
833.991	19042
834.129	19069
834.267	19050
834.406	19004
834.544	19038
834.682	18890
834.821	18875
834.959	19012
835.097	18802
835.235	18958
835.373	18859
835.511	18852
835.65	18802
835.788	18642
835.926	18593
836.064	18456
836.202	18479
836.34	18692
836.478	18768
836.615	18726
836.753	18719
836.891	18711
837.029	18703
837.167	18715
837.305	18612
837.443	18555
837.58	18418
837.718	18467
837.856	18536
837.993	18372
838.131	18456
838.269	18498
838.406	18414
838.544	18380
838.681	18087
838.819	18323
838.956	17992
839.094	17977
839.231	18041
839.369	18159
839.506	18380
839.643	18220
839.781	17916
839.918	17988
840.055	18015
840.193	18057
840.33	17920
840.467	18060
840.604	18030
840.742	18277
840.879	17847
841.016	17828
841.153	17874
841.29	18133
841.427	17961
841.564	18041
841.701	17965
841.838	17927
841.975	17939
842.112	17771
842.249	17786
842.385	17600
842.522	17920
842.659	17809
842.796	17756
842.933	17707
843.069	17752
843.206	17649
843.343	17756
843.479	17737
843.616	17733
843.752	17554
843.889	17516
844.025	17687
844.162	17512
844.298	17672
844.435	17592
844.571	17520
844.708	17687
844.844	17843
844.98	17794
845.117	17874
845.253	17828
845.389	17984
845.525	18338
845.661	18954
845.798	19639
845.934	20377
846.07	20663
846.206	20442
846.342	20244
846.478	19278
846.614	18422
846.75	17870
846.886	17577
847.022	17448
847.158	17322
847.294	17155
847.429	17193
847.565	17060
847.701	17322
847.837	16927
847.972	16771
848.108	16896
848.244	16835
848.379	16767
848.515	16637
848.65	16626
848.786	16634
848.921	16645
849.057	16702
849.192	16706
849.328	16626
849.463	16668
849.598	16485
849.734	16577
849.869	16550
850.004	16470
850.14	16363
850.275	16379
850.41	16200
850.545	16379
850.68	16329
850.815	16424
850.95	16443
851.085	16512
851.22	16493
851.355	16363
851.49	16299
851.625	16337
851.76	16322
851.895	16325
852.03	16215
852.165	16394
852.299	16424
852.434	16478
852.569	16348
852.703	16363
852.838	16398
852.973	16531
853.107	16436
853.242	16367
853.376	16246
853.511	16040
853.645	16173
853.78	16299
853.914	16265
854.048	16226
854.183	16242
854.317	16226
854.451	16398
854.585	16219
854.72	16322
854.854	16325
854.988	16188
855.122	16207
855.256	16109
855.39	16249
855.524	16230
855.658	16196
855.792	16276
855.926	16261
856.06	16246
856.194	16329
856.327	16230
856.461	16124
856.595	16162
856.729	16185
856.862	16280
856.996	16257
857.13	16265
857.263	16367
857.397	16287
857.53	16215
857.664	16291
857.797	16287
857.931	16356
858.064	16303
858.197	16249
858.331	16185
858.464	16090
858.597	16078
858.731	16177
858.864	16158
858.997	16112
859.13	16246
859.263	16192
859.396	16322
859.529	16128
859.662	16158
859.795	16116
859.928	16192
860.061	16341
860.194	16379
860.327	16181
860.46	16150
860.592	16314
860.725	16287
860.858	16352
860.99	16226
861.123	16036
861.256	16128
861.388	16211
861.521	16820
861.653	16013
861.786	15998
861.918	15930
862.05	16074
862.183	16166
862.315	16135
862.447	16242
862.58	16139
862.712	15953
862.844	15751
862.976	15991
863.108	15968
863.24	16424
863.372	15937
863.504	15911
863.636	15831
863.768	16010
863.9	15926
864.032	15892
864.164	15854
864.296	15972
864.428	15953
864.559	16055
864.691	15926
864.823	15895
864.954	15861
865.086	16036
865.217	15972
865.349	15804
865.48	15911
865.612	15861
865.743	15892
865.875	15907
866.006	15747
866.137	15930
866.269	15857
866.4	15873
866.531	15789
866.662	15823
866.793	15865
866.924	15846
867.055	15865
867.186	15865
867.317	15922
867.448	15766
867.579	15785
867.71	15755
867.841	15781
867.972	15869
868.103	15778
868.233	15846
868.364	15899
868.495	15808
868.625	16090
868.756	16223
868.886	16048
869.017	16116
869.147	16207
869.278	16207
869.408	16215
869.539	16105
869.669	16101
869.799	16211
869.929	16105
870.06	16219
870.19	16436
870.32	16436
870.45	16519
870.58	16405
870.71	16580
870.84	16588
870.97	16474
871.1	16424
871.23	16637
871.36	16771
871.489	16573
871.619	16626
871.749	16588
871.879	16793
872.008	16774
872.138	16752
872.267	16748
872.397	16675
872.526	16584
872.656	16493
872.785	16565
872.915	16805
873.044	16706
873.173	16713
873.303	16774
873.432	16839
873.561	16835
873.69	16767
873.819	16744
873.948	16816
874.077	16809
874.206	16755
874.335	16774
874.464	16938
874.593	17014
874.722	16953
874.851	17094
874.979	17060
875.108	17166
875.237	17037
875.365	16987
875.494	17025
875.623	17090
875.751	17220
875.88	17121
876.008	17223
876.136	17315
876.265	17535
876.393	17596
876.521	17649
876.65	17676
876.778	17547
876.906	17459
877.034	17505
877.162	17520
877.29	17623
877.418	17634
877.546	17539
877.674	17653
877.802	17608
877.93	17600
878.058	17573
878.185	17589
878.313	17680
878.441	17653
878.568	17680
878.696	17809
878.824	17973
878.951	18064
879.079	18555
879.206	18783
879.333	18856
879.461	18977
879.588	19274
879.715	19266
879.842	19251
879.97	18875
880.097	18315
880.224	18106
880.351	17874
880.478	18041
880.605	17634
880.732	17741
880.859	18041
880.986	17813
881.112	17882
881.239	17558
881.366	17509
881.493	17421
881.619	17341
881.746	17410
881.872	17425
881.999	17326
882.125	17353
882.252	17463
882.378	17372
882.505	17577
882.631	17353
882.757	17136
882.883	17288
883.01	17239
883.136	17128
883.262	17071
883.388	17117
883.514	17208
883.64	17216
883.766	17208
883.892	17022
884.018	16999
884.143	17223
884.269	17330
884.395	16949
884.52	16934
884.646	16915
884.772	16858
884.897	16889
885.023	16828
885.148	17010
885.274	17037
885.399	16991
885.524	16812
885.65	16835
885.775	16885
885.9	16733
886.025	16850
886.15	16900
886.275	16767
886.4	16641
886.525	16771
886.65	16702
886.775	16649
886.9	16755
887.025	16839
887.149	16767
887.274	16542
887.399	16497
887.523	16451
887.648	16417
887.773	16356
887.897	16550
888.021	16421
888.146	16398
888.27	16470
888.395	16481
888.519	16443
888.643	16550
888.767	16352
888.891	16356
889.015	16284
889.139	16246
889.263	16280
889.387	16318
889.511	16508
889.635	16424
889.759	16116
889.883	16131
890.006	16253
890.13	16284
890.254	16162
890.377	16204
890.501	16048
890.624	15949
890.748	16082
890.871	15934
890.995	15850
891.118	15781
891.241	15865
891.364	15960
891.488	15915
891.611	15838
891.734	15922
891.857	15895
891.98	15979
892.103	15895
892.226	15873
892.349	15865
892.471	15694
892.594	15876
892.717	15873
892.839	15717
892.962	15842
893.085	15903
893.207	15827
893.33	15686
893.452	15682
893.575	15755
893.697	15793
893.819	15930
893.941	16006
894.064	15907
894.186	15739
894.308	15732
894.43	15888
894.552	15968
894.674	15968
894.796	15671
894.918	15785
895.04	15675
895.161	15911
895.283	15808
895.405	15686
895.526	15842
895.648	15842
895.769	15827
895.891	15941
896.012	15937
896.134	15960
896.255	15808
896.376	15861
896.498	15838
896.619	15922
896.74	15892
896.861	15964
896.982	16211
897.103	16329
897.224	16147
897.345	16131
897.466	16158
897.587	16150
897.708	16325
897.828	16242
897.949	16063
898.07	16051
898.19	16112
898.311	16333
898.431	16097
898.552	16128
898.672	16276
898.792	16242
898.913	16360
899.033	16105
899.153	16124
899.273	15922
899.393	15911
899.513	16101
899.633	16017
899.753	15983
899.873	15987
899.993	16002
900.113	16013
900.232	16150
900.352	15964
900.472	15918
900.591	15915
900.711	15968
900.83	15873
900.95	15949
901.069	16059
901.189	15816
901.308	15561
901.427	15542
901.546	15488
901.665	15637
901.784	15507
901.904	15447
902.023	15298
902.141	15203
902.26	15070
902.379	15249
902.498	15123
902.617	15119
902.735	15161
902.854	15169
902.973	14979
903.091	14769
903.21	14826
903.328	14705
903.446	14579
903.565	14587
903.683	14659
903.801	14454
903.919	14583
904.038	14530
904.156	14461
904.274	14427
904.392	14415
904.51	14336
904.627	14408
904.745	14450
904.863	14404
904.981	14168
905.098	14031
905.216	14069
905.334	14005
905.451	13936
905.569	13978
905.686	14020
905.803	14081
905.921	13860
906.038	14024
906.155	13921
906.272	13761
906.389	13807
906.506	13651
906.623	13601
906.74	13518
906.857	13441
906.974	13495
907.091	13655
907.208	13647
907.324	13628
907.441	13499
907.557	13388
907.674	13259
907.79	13202
907.907	13304
908.023	13346
908.139	13274
908.256	13266
908.372	13149
908.488	13149
908.604	13023
908.72	13099
908.836	13091
908.952	12947
909.068	13050
909.184	13107
909.3	13038
909.415	13072
909.531	13008
909.647	12871
909.762	12749
909.878	12715
909.993	12871
910.108	12772
910.224	12760
910.339	12768
910.454	12601
910.57	12681
910.685	12525
910.8	12848
910.915	12787
911.03	12597
911.145	12506
911.259	12445
911.374	12479
911.489	12391
911.604	12327
911.718	12182
911.833	12247
911.947	12129
912.062	12076
912.176	12224
912.291	12243
912.405	12155
912.519	12357
912.633	12361
912.748	12289
912.862	12152
912.976	12026
913.09	11946
913.204	12095
913.318	12015
913.431	12182
913.545	12175
913.659	12213
913.772	12003
913.886	11954
914	11931
914.113	12030
914.226	12015
914.34	12015
914.453	11775
914.566	12049
914.68	11794
914.793	11828
914.906	11710
915.019	11608
915.132	11520
915.245	11604
915.358	11627
915.47	11726
915.583	11661
915.696	11733
915.809	11882
915.921	11783
916.034	11600
916.146	11516
916.259	11490
916.371	11577
916.483	11596
916.595	11482
916.708	11524
916.82	11539
916.932	11600
917.044	11558
917.156	11360
917.268	11474
917.38	11398
917.491	11406
917.603	11383
917.715	11532
917.826	11459
917.938	11417
918.049	11284
918.161	11429
918.272	11543
918.384	11482
918.495	11349
918.606	11265
918.717	11216
918.828	11277
918.939	11311
919.05	11166
919.161	11216
919.272	11052
919.383	11155
919.494	11341
919.604	11493
919.715	11246
919.826	11159
919.936	11189
920.047	11299
920.157	11223
920.267	11440
920.378	11353
920.488	11212
920.598	11474
920.708	11524
920.818	11345
920.928	11505
921.038	11539
921.148	11547
921.258	11261
921.368	11197
921.477	11060
921.587	11067
921.697	10953
921.806	11113
921.916	11086
922.025	10744
922.134	10797
922.244	10805
922.353	10740
922.462	10615
922.571	10580
922.68	10432
922.789	10462
922.898	10447
923.007	10382
923.116	10504
923.224	10443
923.333	10390
923.442	10341
923.55	10318
923.659	10352
923.767	10367
923.876	10276
923.984	10417
924.092	10227
924.201	10314
924.309	10325
924.417	10280
924.525	10192
924.633	10154
924.741	10984
924.849	10048
924.956	10200
925.064	10036
925.172	9937
925.279	10029
925.387	10090
925.494	9979
925.602	10185
925.709	10150
925.816	9956
925.924	10048
926.031	10082
926.138	10017
926.245	10139
926.352	9930
926.459	10029
926.566	10071
926.673	9960
926.779	9846
926.886	9827
926.993	9720
927.099	9713
927.206	9690
927.312	9694
927.419	9690
927.525	9648
927.631	9766
927.737	9667
927.843	9568
927.95	9526
928.056	9545
928.162	9644
928.267	9614
928.373	10204
928.479	9713
928.585	9477
928.69	9545
928.796	9633
928.901	9439
929.007	9389
929.112	9549
929.218	9458
929.323	9458
929.428	9435
929.533	9542
929.638	9367
929.743	9321
929.848	9469
929.953	9378
930.058	9344
930.163	9173
930.267	9188
930.372	9287
930.477	9154
930.581	9264
930.685	9192
930.79	9001
930.894	9192
930.998	9055
931.103	9195
931.207	8876
931.311	8815
931.415	8720
931.519	8545
931.623	8594
