Data from test_V78500241_1438.txt Node
Date: Fri Mar 25 14:43:43 CST 2022
User: usil
Spectrometer: V785-0024
Trigger mode: 0
Integration Time (sec): 4.000000E-1
Scans to average: 1
Nonlinearity correction enabled: false
Boxcar width: 0
Storing dark spectrum: false
XAxis mode: Wavelengths
Number of Pixels in Spectrum: 1024
>>>>>Begin Spectral Data<<<<<
801.071	22394
801.214	22344
801.356	22131
801.499	21949
801.641	21800
801.783	21755
801.926	21770
802.068	21656
802.211	21614
802.353	21507
802.496	21310
802.638	21142
802.78	21268
802.923	21112
803.065	21074
803.208	21066
803.35	21066
803.492	21275
803.635	21313
803.777	21173
803.919	21272
804.061	21454
804.204	21230
804.346	21237
804.488	21077
804.63	21131
804.773	21032
804.915	21077
805.057	21138
805.199	20994
805.341	21112
805.483	21131
805.626	21058
805.768	20982
805.91	21032
806.052	21089
806.194	20986
806.336	21264
806.478	21001
806.62	21009
806.762	21188
806.904	21279
807.046	21348
807.188	21370
807.33	21363
807.472	21447
807.614	21340
807.756	21412
807.898	21272
808.04	21294
808.182	21256
808.324	21256
808.465	21549
808.607	21545
808.749	21663
808.891	21781
809.033	21918
809.174	21709
809.316	21705
809.458	21637
809.6	21545
809.741	21686
809.883	21530
810.025	21694
810.166	21682
810.308	21515
810.45	21580
810.591	21526
810.733	21405
810.875	21226
811.016	21093
811.158	21188
811.299	21351
811.441	21424
811.582	21336
811.724	21188
811.865	21199
812.007	21058
812.148	21249
812.29	21408
812.431	21488
812.573	21523
812.714	21591
812.855	21671
812.997	21846
813.138	21945
813.279	21797
813.421	21675
813.562	21694
813.703	21431
813.845	21401
813.986	21135
814.127	20941
814.268	20857
814.41	20807
814.551	20845
814.692	20788
814.833	20773
814.974	20842
815.115	20769
815.256	20697
815.397	20682
815.539	20545
815.68	20537
815.821	20400
815.962	20530
816.103	20438
816.244	20408
816.385	20225
816.526	20199
816.666	20172
816.807	20069
816.948	20073
817.089	20092
817.23	19944
817.371	19944
817.512	19951
817.653	19959
817.793	19909
817.934	19936
818.075	19864
818.216	19955
818.356	19928
818.497	19753
818.638	19552
818.778	19586
818.919	19670
819.06	19594
819.2	19590
819.341	19765
819.481	19917
819.622	20039
819.762	19993
819.903	20138
820.043	20012
820.184	19795
820.324	19822
820.465	19913
820.605	19932
820.746	19826
820.886	19788
821.026	19936
821.167	19902
821.307	19837
821.447	19765
821.588	19750
821.728	19594
821.868	19540
822.008	19339
822.149	19312
822.289	19217
822.429	19034
822.569	18985
822.709	18878
822.849	18749
822.99	18791
823.13	18856
823.27	18757
823.41	18669
823.55	18566
823.69	18616
823.83	18574
823.97	18566
824.11	18384
824.25	18361
824.389	18384
824.529	18391
824.669	18327
824.809	18490
824.949	18494
825.089	18437
825.228	18486
825.368	18171
825.508	18136
825.648	18213
825.787	18243
825.927	18186
826.067	18194
826.206	18034
826.346	18155
826.485	18220
826.625	18262
826.765	18277
826.904	18220
827.044	17927
827.183	17912
827.323	17737
827.462	17950
827.601	17908
827.741	17790
827.88	17912
828.02	17764
828.159	17821
828.298	17870
828.437	17885
828.577	17870
828.716	17984
828.855	17855
828.994	17733
829.134	17661
829.273	17691
829.412	17615
829.551	17600
829.69	17608
829.829	17676
829.968	17722
830.107	17729
830.246	17627
830.385	17672
830.524	17535
830.663	17376
830.802	17208
830.941	17227
831.08	17140
831.219	17303
831.357	17258
831.496	17463
831.635	17280
831.774	17258
831.913	17185
832.051	17018
832.19	17029
832.329	17083
832.467	16934
832.606	16923
832.744	16949
832.883	16889
833.022	16908
833.16	16938
833.299	16904
833.437	16946
833.576	16946
833.714	16919
833.852	16999
833.991	16984
834.129	17064
834.267	17140
834.406	16911
834.544	17037
834.682	17075
834.821	17056
834.959	17136
835.097	16999
835.235	17140
835.373	16999
835.511	16949
835.65	16934
835.788	16946
835.926	16752
836.064	16584
836.202	16809
836.34	16930
836.478	17113
836.615	16904
836.753	16923
836.891	16968
837.029	16987
837.167	16858
837.305	16805
837.443	16812
837.58	16592
837.718	16824
837.856	16721
837.993	16668
838.131	16755
838.269	16603
838.406	16626
838.544	16550
838.681	16440
838.819	16322
838.956	16329
839.094	16219
839.231	16284
839.369	16424
839.506	16603
839.643	16493
839.781	16303
839.918	16154
840.055	16348
840.193	16238
840.33	16211
840.467	16295
840.604	16318
840.742	16519
840.879	16139
841.016	16135
841.153	16162
841.29	16310
841.427	16325
841.564	16375
841.701	16352
841.838	16325
841.975	16272
842.112	16166
842.249	16147
842.385	15975
842.522	16200
842.659	16086
842.796	15998
842.933	16097
843.069	16059
843.206	15937
843.343	16112
843.479	16032
843.616	16067
843.752	15873
843.889	15850
844.025	15960
844.162	15918
844.298	15876
844.435	15854
844.571	15907
844.708	15827
844.844	16036
844.98	15918
845.117	15918
845.253	15873
845.389	15736
845.525	15838
845.661	15857
845.798	15873
845.934	15934
846.07	15869
846.206	15934
846.342	15949
846.478	15804
846.614	15549
846.75	15355
846.886	15370
847.022	15447
847.158	15458
847.294	15416
847.429	15511
847.565	15374
847.701	15629
847.837	15138
847.972	15116
848.108	15252
848.244	15173
848.379	15066
848.515	15055
848.65	15135
848.786	14971
848.921	14918
849.057	15013
849.192	15119
849.328	15055
849.463	14948
849.598	14994
849.734	14963
849.869	14982
850.004	14872
850.14	14796
850.275	14807
850.41	14701
850.545	14712
850.68	14739
850.815	14800
850.95	14701
851.085	14902
851.22	14819
851.355	14845
851.49	14689
851.625	14724
851.76	14712
851.895	14648
852.03	14712
852.165	14648
852.299	14792
852.434	14830
852.569	14750
852.703	14785
852.838	14826
852.973	14986
853.107	14853
853.242	14735
853.376	14727
853.511	14560
853.645	14564
853.78	14663
853.914	14640
854.048	14602
854.183	14621
854.317	14655
854.451	14800
854.585	14648
854.72	14617
854.854	14750
854.988	14514
855.122	14537
855.256	14473
855.39	14579
855.524	14632
855.658	14625
855.792	14712
855.926	14682
856.06	14625
856.194	14636
856.327	14648
856.461	14629
856.595	14617
856.729	14640
856.862	14724
856.996	14598
857.13	14670
857.263	14727
857.397	14804
857.53	14594
857.664	14788
857.797	14693
857.931	14686
858.064	14762
858.197	14750
858.331	14629
858.464	14613
858.597	14549
858.731	14629
858.864	14556
858.997	14606
859.13	14739
859.263	14625
859.396	14727
859.529	14556
859.662	14636
859.795	14590
859.928	14625
860.061	14815
860.194	14792
860.327	14686
860.46	14610
860.592	14773
860.725	14769
860.858	14716
860.99	14606
861.123	14632
861.256	14602
861.388	14720
861.521	15287
861.653	14461
861.786	14492
861.918	14442
862.05	14533
862.183	14568
862.315	14602
862.447	14651
862.58	14575
862.712	14317
862.844	14275
862.976	14522
863.108	14381
863.24	14777
863.372	14328
863.504	14362
863.636	14377
863.768	14370
863.9	14480
864.032	14275
864.164	14358
864.296	14419
864.428	14530
864.559	14450
864.691	14412
864.823	14526
864.954	14393
865.086	14400
865.217	14408
865.349	14419
865.48	14324
865.612	14423
865.743	14530
865.875	14351
866.006	14415
866.137	14415
866.269	14294
866.4	14404
866.531	14374
866.662	14278
866.793	14313
866.924	14404
867.055	14385
867.186	14320
867.317	14446
867.448	14305
867.579	14343
867.71	14275
867.841	14400
867.972	14370
868.103	14366
868.233	14358
868.364	14423
868.495	14442
868.625	14590
868.756	14720
868.886	14537
869.017	14594
869.147	14693
869.278	14796
869.408	14602
869.539	14613
869.669	14686
869.799	14625
869.929	14720
870.06	14807
870.19	14925
870.32	14910
870.45	14925
870.58	15055
870.71	15009
870.84	15097
870.97	15017
871.1	14990
871.23	15256
871.36	15321
871.489	15024
871.619	15207
871.749	15199
871.879	15188
872.008	15397
872.138	15256
872.267	15135
872.397	15036
872.526	15085
872.656	15051
872.785	14986
872.915	15325
873.044	15355
873.173	15245
873.303	15351
873.432	15389
873.561	15329
873.69	15294
873.819	15294
873.948	15401
874.077	15264
874.206	15154
874.335	15256
874.464	15344
874.593	15458
874.722	15549
874.851	15519
874.979	15526
875.108	15591
875.237	15469
875.365	15504
875.494	15603
875.623	15561
875.751	15564
875.88	15584
876.008	15614
876.136	15861
876.265	16006
876.393	16219
876.521	16112
876.65	16036
876.778	16040
876.906	15994
877.034	15945
877.162	15922
877.29	15949
877.418	15998
877.546	16010
877.674	16029
877.802	16036
877.93	16010
878.058	15930
878.185	15907
878.313	15861
878.441	15991
878.568	15895
878.696	16036
878.824	15983
878.951	16006
879.079	16204
879.206	16371
879.333	16337
879.461	16306
879.588	16196
879.715	16291
879.842	16360
879.97	16173
880.097	15949
880.224	15804
880.351	15998
880.478	15930
880.605	15789
880.732	15865
880.859	16090
880.986	15911
881.112	15857
881.239	15778
881.366	15713
881.493	15599
881.619	15443
881.746	15599
881.872	15564
881.999	15538
882.125	15576
882.252	15564
882.378	15519
882.505	15663
882.631	15572
882.757	15332
882.883	15443
883.01	15287
883.136	15313
883.262	15195
883.388	15176
883.514	15306
883.64	15359
883.766	15332
883.892	15165
884.018	15188
884.143	15279
884.269	15443
884.395	15070
884.52	14990
884.646	15108
884.772	14948
884.897	14963
885.023	15066
885.148	15249
885.274	15195
885.399	15161
885.524	14960
885.65	15001
885.775	15116
885.9	14906
886.025	15157
886.15	15112
886.275	14941
886.4	15001
886.525	15024
886.65	15028
886.775	14902
886.9	15135
887.025	15321
887.149	15066
887.274	14834
887.399	14716
887.523	14758
887.648	14804
887.773	14689
887.897	14937
888.021	14834
888.146	14697
888.27	15013
888.395	15005
888.519	14883
888.643	14925
888.767	14861
888.891	14743
889.015	14785
889.139	14731
889.263	14621
889.387	14800
889.511	14891
889.635	14857
889.759	14648
889.883	14651
890.006	14762
890.13	14785
890.254	14663
890.377	14636
890.501	14575
890.624	14457
890.748	14590
890.871	14427
890.995	14343
891.118	14324
891.241	14412
891.364	14408
891.488	14507
891.611	14351
891.734	14313
891.857	14518
891.98	14374
892.103	14393
892.226	14476
892.349	14377
892.471	14278
892.594	14263
892.717	14446
892.839	14298
892.962	14412
893.085	14431
893.207	14404
893.33	14294
893.452	14259
893.575	14419
893.697	14339
893.819	14511
893.941	14571
894.064	14461
894.186	14393
894.308	14271
894.43	14530
894.552	14541
894.674	14488
894.796	14301
894.918	14427
895.04	14412
895.161	14533
895.283	14457
895.405	14438
895.526	14507
895.648	14530
895.769	14526
895.891	14568
896.012	14678
896.134	14518
896.255	14587
896.376	14423
896.498	14552
896.619	14571
896.74	14625
896.861	14590
896.982	14914
897.103	14986
897.224	14796
897.345	14853
897.466	14777
897.587	14838
897.708	14914
897.828	14872
897.949	14792
898.07	14697
898.19	14819
898.311	14921
898.431	14857
898.552	14880
898.672	14902
898.792	14944
898.913	14914
899.033	14804
899.153	14697
899.273	14590
899.393	14655
899.513	14785
899.633	14716
899.753	14804
899.873	14655
899.993	14765
900.113	14735
900.232	14689
900.352	14731
900.472	14640
900.591	14606
900.711	14594
900.83	14594
900.95	14731
901.069	14720
901.189	14568
901.308	14271
901.427	14202
901.546	14282
901.665	14313
901.784	14286
901.904	14229
902.023	14054
902.141	13868
902.26	13849
902.379	13925
902.498	13906
902.617	13734
902.735	13944
902.854	13837
902.973	13761
903.091	13590
903.21	13582
903.328	13582
903.446	13472
903.565	13392
903.683	13480
903.801	13266
903.919	13282
904.038	13396
904.156	13225
904.274	13270
904.392	13259
904.51	13221
904.627	13175
904.745	13206
904.863	13301
904.981	13038
905.098	12840
905.216	12935
905.334	12882
905.451	12954
905.569	12886
905.686	12920
905.803	13004
905.921	12700
906.038	12829
906.155	12806
906.272	12673
906.389	12631
906.506	12479
906.623	12418
906.74	12460
906.857	12330
906.974	12422
907.091	12604
907.208	12639
907.324	12509
907.441	12452
907.557	12262
907.674	12243
907.79	12228
907.907	12334
908.023	12190
908.139	12205
908.256	12205
908.372	12140
908.488	12171
908.604	12079
908.72	11980
908.836	11984
908.952	11980
909.068	11958
909.184	12117
909.3	12030
909.415	12026
909.531	12076
909.647	11779
909.762	11714
909.878	11726
909.993	11741
910.108	11714
910.224	11729
910.339	11790
910.454	11661
910.57	11642
910.685	11543
910.8	11870
910.915	11783
911.03	11665
911.145	11444
911.259	11509
911.374	11478
911.489	11364
911.604	11337
911.718	11136
911.833	11296
911.947	11098
912.062	11124
912.176	11105
912.291	11208
912.405	11113
912.519	11414
912.633	11436
912.748	11254
912.862	11193
912.976	11071
913.09	10976
913.204	11006
913.318	11079
913.431	11109
913.545	11155
913.659	11208
913.772	11102
913.886	10934
914	10904
914.113	11048
914.226	11102
914.34	11006
914.453	10835
914.566	10987
914.68	10923
914.793	10889
914.906	10710
915.019	10694
915.132	10641
915.245	10744
915.358	10675
915.47	10668
915.583	10782
915.696	10698
915.809	10839
915.921	10733
916.034	10706
916.146	10664
916.259	10672
916.371	10744
916.483	10759
916.595	10615
916.708	10630
916.82	10668
916.932	10561
917.044	10603
917.156	10561
917.268	10440
917.38	10546
917.491	10428
917.603	10478
917.715	10664
917.826	10588
917.938	10428
918.049	10443
918.161	10481
918.272	10687
918.384	10668
918.495	10573
918.606	10417
918.717	10287
918.828	10413
918.939	10424
919.05	10333
919.161	10329
919.272	10207
919.383	10318
919.494	10451
919.604	10622
919.715	10405
919.826	10341
919.936	10413
920.047	10462
920.157	10413
920.267	10584
920.378	10443
920.488	10386
920.598	10618
920.708	10790
920.818	10607
920.928	10569
921.038	10790
921.148	10767
921.258	10489
921.368	10436
921.477	10325
921.587	10268
921.697	10101
921.806	10299
921.916	10131
922.025	9960
922.134	9945
922.244	9838
922.353	10048
922.462	9823
922.571	9755
922.68	9660
922.789	9656
922.898	9618
923.007	9595
923.116	9713
923.224	9732
923.333	9656
923.442	9526
923.55	9424
923.659	9572
923.767	9629
923.876	9576
923.984	9595
924.092	9458
924.201	9496
924.309	9435
924.417	9584
924.525	9435
924.633	9515
924.741	10367
924.849	9268
924.956	9412
925.064	9264
925.172	9211
925.279	9275
925.387	9245
925.494	9279
925.602	9538
925.709	9298
925.816	9222
925.924	9195
926.031	9507
926.138	9321
926.245	9332
926.352	9176
926.459	9363
926.566	9431
926.673	9245
926.779	9123
926.886	9138
926.993	8971
927.099	9017
927.206	8990
927.312	8948
927.419	8960
927.525	9001
927.631	9028
927.737	8937
927.843	8948
927.95	8746
928.056	8864
928.162	8906
928.267	8990
928.373	9625
928.479	8956
928.585	8861
928.69	8872
928.796	8925
928.901	8853
929.007	8708
929.112	8796
929.218	8746
929.323	8727
929.428	8678
929.533	8914
929.638	8651
929.743	8678
929.848	8674
929.953	8792
930.058	8693
930.163	8450
930.267	8507
930.372	8564
930.477	8507
930.581	8648
930.685	8590
930.79	8415
930.894	8476
930.998	8400
931.103	8511
931.207	8275
931.311	8081
931.415	8035
931.519	7989
931.623	7871
