Data from test_V78500241_569.txt Node
Date: Fri Mar 25 14:37:40 CST 2022
User: usil
Spectrometer: V785-0024
Trigger mode: 0
Integration Time (sec): 4.000000E-1
Scans to average: 1
Nonlinearity correction enabled: false
Boxcar width: 0
Storing dark spectrum: false
XAxis mode: Wavelengths
Number of Pixels in Spectrum: 1024
>>>>>Begin Spectral Data<<<<<
801.071	27553
801.214	27523
801.356	27279
801.499	27089
801.641	27089
801.783	26944
801.926	26933
802.068	26796
802.211	26769
802.353	26701
802.496	26606
802.638	26499
802.78	26484
802.923	26507
803.065	26332
803.208	26423
803.35	26541
803.492	26575
803.635	26727
803.777	26556
803.919	26598
804.061	26823
804.204	26701
804.346	26602
804.488	26469
804.63	26663
804.773	26480
804.915	26777
805.057	26823
805.199	26651
805.341	26921
805.483	27096
805.626	26960
805.768	26868
805.91	27085
806.052	27062
806.194	26940
806.336	27405
806.478	27237
806.62	27344
806.762	27614
806.904	27876
807.046	28371
807.188	28337
807.33	28645
807.472	28976
807.614	29315
807.756	29608
807.898	30270
808.04	30897
808.182	32187
808.324	33424
808.465	35006
808.607	36833
808.749	38355
808.891	39146
809.033	39279
809.174	38278
809.316	36703
809.458	35006
809.6	33131
809.741	31826
809.883	30802
810.025	30243
810.166	29524
810.308	28946
810.45	28649
810.591	28337
810.733	28131
810.875	27861
811.016	27587
811.158	27637
811.299	27637
811.441	27481
811.582	27568
811.724	27298
811.865	27192
812.007	27359
812.148	27256
812.29	27218
812.431	27420
812.573	27310
812.714	27389
812.855	27473
812.997	27515
813.138	27732
813.279	27580
813.421	27382
813.562	27435
813.703	27161
813.845	27005
813.986	26731
814.127	26511
814.268	26453
814.41	26366
814.551	26366
814.692	26366
814.833	26237
814.974	26286
815.115	26282
815.256	26145
815.397	26161
815.539	26214
815.68	26016
815.821	25932
815.962	25974
816.103	26016
816.244	25830
816.385	25620
816.526	25639
816.666	25426
816.807	25403
816.948	25384
817.089	25407
817.23	25285
817.371	25400
817.512	25343
817.653	25225
817.793	25255
817.934	25183
818.075	25247
818.216	25225
818.356	25061
818.497	25072
818.638	24939
818.778	24916
818.919	24875
819.06	24856
819.2	25156
819.341	25122
819.481	25110
819.622	25358
819.762	25487
819.903	25377
820.043	25400
820.184	25187
820.324	25255
820.465	25221
820.605	25110
820.746	25266
820.886	25042
821.026	25126
821.167	25023
821.307	25110
821.447	25046
821.588	25023
821.728	24802
821.868	24593
822.008	24441
822.149	24490
822.289	24486
822.429	24262
822.569	24098
822.709	24174
822.849	23885
822.99	23946
823.13	23802
823.27	23813
823.41	23638
823.55	23687
823.69	23703
823.83	23756
823.97	23608
824.11	23417
824.25	23486
824.389	23406
824.529	23471
824.669	23376
824.809	23551
824.949	23505
825.089	23558
825.228	23440
825.368	23273
825.508	23318
825.648	23178
825.787	23193
825.927	23337
826.067	23277
826.206	23231
826.346	23277
826.485	23250
826.625	23227
826.765	23220
826.904	23353
827.044	22987
827.183	23010
827.323	22862
827.462	23033
827.601	22976
827.741	22816
827.88	22953
828.02	22809
828.159	22847
828.298	22889
828.437	22843
828.577	22721
828.716	23029
828.855	22733
828.994	22584
829.134	22546
829.273	22679
829.412	22565
829.551	22497
829.69	22618
829.829	22580
829.968	22516
830.107	22668
830.246	22698
830.385	22402
830.524	22546
830.663	22318
830.802	22341
830.941	22067
831.08	22166
831.219	22120
831.357	22124
831.496	22242
831.635	22265
831.774	22051
831.913	22128
832.051	21991
832.19	21994
832.329	22032
832.467	21953
832.606	21941
832.744	21956
832.883	22078
833.022	21998
833.16	22139
833.299	22253
833.437	22249
833.576	22348
833.714	22276
833.852	22462
833.991	22519
834.129	22622
834.267	22421
834.406	22508
834.544	22500
834.682	22443
834.821	22322
834.959	22295
835.097	22169
835.235	22166
835.373	22143
835.511	21998
835.65	21857
835.788	21656
835.926	21644
836.064	21625
836.202	21652
836.34	21720
836.478	21774
836.615	21614
836.753	21739
836.891	21827
837.029	21625
837.167	21603
837.305	21534
837.443	21622
837.58	21622
837.718	21644
837.856	21625
837.993	21583
838.131	21466
838.269	21553
838.406	21511
838.544	21310
838.681	21279
838.819	21188
838.956	20986
839.094	20975
839.231	21024
839.369	21245
839.506	21363
839.643	21112
839.781	21077
839.918	20880
840.055	20956
840.193	20887
840.33	20887
840.467	20845
840.604	20986
840.742	21207
840.879	20754
841.016	20830
841.153	20781
841.29	20986
841.427	20811
841.564	20941
841.701	20967
841.838	20849
841.975	20769
842.112	20826
842.249	20712
842.385	20579
842.522	20765
842.659	20678
842.796	20632
842.933	20556
843.069	20568
843.206	20594
843.343	20773
843.479	20746
843.616	20845
843.752	20556
843.889	20568
844.025	20811
844.162	20617
844.298	20811
844.435	20727
844.571	20739
844.708	21055
844.844	21363
844.98	21504
845.117	21804
845.253	22177
845.389	23162
845.525	24894
845.661	27720
845.798	31141
845.934	33994
846.07	35174
846.206	34767
846.342	32415
846.478	28771
846.614	25563
846.75	23524
846.886	22013
847.022	21477
847.158	21043
847.294	20625
847.429	20507
847.565	20339
847.701	20377
847.837	19974
847.972	19811
848.108	19860
848.244	19814
848.379	19635
848.515	19556
848.65	19518
848.786	19544
848.921	19635
849.057	19670
849.192	19540
849.328	19411
849.463	19449
849.598	19400
849.734	19438
849.869	19377
850.004	19324
850.14	19225
850.275	19255
850.41	19179
850.545	19171
850.68	19194
850.815	19251
850.95	19187
851.085	19331
851.22	19217
851.355	19274
851.49	19255
851.625	19225
851.76	19080
851.895	19084
852.03	19168
852.165	19164
852.299	19244
852.434	19228
852.569	19171
852.703	19282
852.838	19358
852.973	19293
853.107	19483
853.242	19213
853.376	19228
853.511	18985
853.645	19118
853.78	19183
853.914	19274
854.048	19194
854.183	19251
854.317	19430
854.451	19343
854.585	19255
854.72	19217
854.854	19240
854.988	19099
855.122	19285
855.256	19019
855.39	19072
855.524	19213
855.658	19012
855.792	19266
855.926	19099
856.06	19069
856.194	19133
856.327	19148
856.461	18890
856.595	18966
856.729	19080
856.862	19152
856.996	19091
857.13	19084
857.263	19061
857.397	19019
857.53	18856
857.664	19107
857.797	19122
857.931	19019
858.064	19042
858.197	18954
858.331	18844
858.464	18947
858.597	18928
858.731	18905
858.864	18973
858.997	18848
859.13	18966
859.263	18977
859.396	19110
859.529	18913
859.662	18924
859.795	18871
859.928	18954
860.061	18985
860.194	19019
860.327	18993
860.46	18829
860.592	19076
860.725	19008
860.858	19000
860.99	18916
861.123	18878
861.256	18817
861.388	18916
861.521	19491
861.653	18791
861.786	18692
861.918	18673
862.05	18863
862.183	18871
862.315	19015
862.447	19084
862.58	19015
862.712	18681
862.844	18700
862.976	18654
863.108	18722
863.24	19027
863.372	18547
863.504	18612
863.636	18669
863.768	18509
863.9	18547
864.032	18578
864.164	18612
864.296	18669
864.428	18684
864.559	18707
864.691	18616
864.823	18627
864.954	18661
865.086	18536
865.217	18612
865.349	18445
865.48	18593
865.612	18479
865.743	18639
865.875	18570
866.006	18452
866.137	18563
866.269	18509
866.4	18494
866.531	18460
866.662	18509
866.793	18502
866.924	18327
867.055	18475
867.186	18441
867.317	18365
867.448	18384
867.579	18525
867.71	18407
867.841	18391
867.972	18426
868.103	18517
868.233	18372
868.364	18361
868.495	18589
868.625	18639
868.756	18711
868.886	18688
869.017	18776
869.147	18798
869.278	18795
869.408	18726
869.539	18741
869.669	18821
869.799	18719
869.929	18897
870.06	18829
870.19	19034
870.32	18932
870.45	19148
870.58	19240
870.71	19304
870.84	19255
870.97	19141
871.1	19156
871.23	19365
871.36	19403
871.489	19381
871.619	19362
871.749	19457
871.879	19388
872.008	19449
872.138	19422
872.267	19373
872.397	19289
872.526	19228
872.656	19304
872.785	19209
872.915	19445
873.044	19616
873.173	19422
873.303	19559
873.432	19575
873.561	19620
873.69	19457
873.819	19548
873.948	19655
874.077	19567
874.206	19468
874.335	19605
874.464	19674
874.593	19841
874.722	19776
874.851	19978
874.979	19936
875.108	20054
875.237	19864
875.365	19887
875.494	19963
875.623	20103
875.751	19982
875.88	20058
876.008	20183
876.136	20309
876.265	20560
876.393	20644
876.521	20655
876.65	20708
876.778	20655
876.906	20560
877.034	20644
877.162	20587
877.29	20670
877.418	20743
877.546	20880
877.674	20842
877.802	20975
877.93	21009
878.058	21135
878.185	21165
878.313	21313
878.441	21496
878.568	21580
878.696	21937
878.824	22314
878.951	22976
879.079	23748
879.206	25053
879.333	26031
879.461	26940
879.588	27660
879.715	27530
879.842	27104
879.97	26016
880.097	24985
880.224	24011
880.351	23379
880.478	22938
880.605	22611
880.732	22322
880.859	22436
880.986	22200
881.112	22139
881.239	22021
881.366	21907
881.493	21736
881.619	21606
881.746	21770
881.872	21724
881.999	21732
882.125	21755
882.252	21857
882.378	21812
882.505	21949
882.631	21720
882.757	21610
882.883	21652
883.01	21542
883.136	21587
883.262	21496
883.388	21443
883.514	21530
883.64	21610
883.766	21435
883.892	21370
884.018	21447
884.143	21618
884.269	21629
884.395	21329
884.52	21176
884.646	21184
884.772	21233
884.897	21169
885.023	21317
885.148	21287
885.274	21443
885.399	21283
885.524	21138
885.65	21093
885.775	20982
885.9	20891
886.025	20975
886.15	20941
886.275	20720
886.4	20583
886.525	20568
886.65	20336
886.775	20381
886.9	20415
887.025	20415
887.149	20126
887.274	20111
887.399	20016
887.523	19944
887.648	19849
887.773	19769
887.897	19913
888.021	19879
888.146	19734
888.27	19738
888.395	19788
888.519	19693
888.643	19571
888.767	19647
888.891	19655
889.015	19430
889.139	19419
889.263	19396
889.387	19464
889.511	19662
889.635	19381
889.759	19335
889.883	19183
890.006	19247
890.13	19365
890.254	18958
890.377	19171
890.501	19107
890.624	18909
890.748	18928
890.871	18810
890.995	18734
891.118	18639
891.241	18730
891.364	18707
891.488	18776
891.611	18631
891.734	18669
891.857	18757
891.98	18711
892.103	18585
892.226	18570
892.349	18627
892.471	18460
892.594	18407
892.717	18467
892.839	18502
892.962	18460
893.085	18574
893.207	18479
893.33	18304
893.452	18388
893.575	18369
893.697	18346
893.819	18566
893.941	18551
894.064	18429
894.186	18353
894.308	18232
894.43	18315
894.552	18452
894.674	18479
894.796	18152
894.918	18315
895.04	18262
895.161	18224
895.283	18140
895.405	18106
895.526	18224
895.648	18102
895.769	18319
895.891	18300
896.012	18277
896.134	18311
896.255	18228
896.376	18163
896.498	18342
896.619	18281
896.74	18330
896.861	18308
896.982	18658
897.103	18665
897.224	18502
897.345	18517
897.466	18403
897.587	18479
897.708	18494
897.828	18467
897.949	18361
898.07	18167
898.19	18372
898.311	18578
898.431	18323
898.552	18361
898.672	18494
898.792	18441
898.913	18513
899.033	18194
899.153	18232
899.273	18171
899.393	18117
899.513	18228
899.633	18182
899.753	18220
899.873	18087
899.993	18258
900.113	18079
900.232	18213
900.352	18045
900.472	18148
900.591	17851
900.711	18087
900.83	18072
900.95	18068
901.069	18121
901.189	17927
901.308	17608
901.427	17577
901.546	17642
901.665	17665
901.784	17627
901.904	17452
902.023	17353
902.141	17151
902.26	17197
902.379	17216
902.498	16968
902.617	17018
902.735	17113
902.854	17025
902.973	17006
903.091	16744
903.21	16725
903.328	16740
903.446	16683
903.565	16561
903.683	16637
903.801	16382
903.919	16527
904.038	16424
904.156	16299
904.274	16356
904.392	16451
904.51	16246
904.627	16382
904.745	16238
904.863	16287
904.981	16067
905.098	15922
905.216	15895
905.334	15960
905.451	15930
905.569	16055
905.686	15937
905.803	16051
905.921	15770
906.038	15918
906.155	15804
906.272	15652
906.389	15774
906.506	15553
906.623	15466
906.74	15507
906.857	15447
906.974	15382
907.091	15576
907.208	15603
907.324	15557
907.441	15374
907.557	15203
907.674	15298
907.79	15180
907.907	15161
908.023	15279
908.139	15260
908.256	15230
908.372	15104
908.488	15119
908.604	14994
908.72	14921
908.836	14967
908.952	14914
909.068	14948
909.184	14921
909.3	14792
909.415	14956
909.531	14876
909.647	14663
909.762	14682
909.878	14693
909.993	14693
910.108	14625
910.224	14526
910.339	14590
910.454	14473
910.57	14465
910.685	14393
910.8	14724
910.915	14625
911.03	14503
911.145	14328
911.259	14286
911.374	14313
911.489	14168
911.604	14145
911.718	14016
911.833	13986
911.947	13856
912.062	13871
912.176	13909
912.291	14024
912.405	13932
912.519	14142
912.633	14199
912.748	13928
912.862	13959
912.976	13822
913.09	13776
913.204	13791
913.318	13776
913.431	13921
913.545	13852
913.659	13909
913.772	13852
913.886	13632
914	13655
914.113	13890
914.226	13833
914.34	13814
914.453	13639
914.566	13712
914.68	13616
914.793	13529
914.906	13441
915.019	13339
915.132	13316
915.245	13320
915.358	13392
915.47	13365
915.583	13419
915.696	13403
915.809	13483
915.921	13468
916.034	13270
916.146	13266
916.259	13266
916.371	13369
916.483	13388
916.595	13251
916.708	13187
916.82	13244
916.932	13251
917.044	13297
917.156	13232
917.268	13141
917.38	13122
917.491	13095
917.603	13137
917.715	13091
917.826	13190
917.938	13061
918.049	12981
918.161	13034
918.272	13255
918.384	13149
918.495	13031
918.606	12878
918.717	12817
918.828	12776
918.939	12977
919.05	12821
919.161	12844
919.272	12585
919.383	12688
919.494	12897
919.604	13023
919.715	12890
919.826	12726
919.936	12745
920.047	12901
920.157	12871
920.267	13072
920.378	12840
920.488	12749
920.598	12973
920.708	13080
920.818	12928
920.928	12973
921.038	13141
921.148	13072
921.258	12764
921.368	12604
921.477	12631
921.587	12604
921.697	12608
921.806	12540
921.916	12441
922.025	12262
922.134	12270
922.244	12190
922.353	12239
922.462	12053
922.571	12091
922.68	11836
922.789	11931
922.898	11851
923.007	11836
923.116	11988
923.224	11859
923.333	11874
923.442	11786
923.55	11726
923.659	11847
923.767	11882
923.876	11718
923.984	11764
924.092	11627
924.201	11733
924.309	11615
924.417	11615
924.525	11649
924.633	11611
924.741	12414
924.849	11360
924.956	11570
925.064	11452
925.172	11360
925.279	11334
925.387	11528
925.494	11395
925.602	11455
925.709	11486
925.816	11334
925.924	11337
926.031	11459
926.138	11334
926.245	11429
926.352	11318
926.459	11474
926.566	11433
926.673	11353
926.779	11227
926.886	11212
926.993	11064
927.099	10999
927.206	10942
927.312	10938
927.419	11010
927.525	11029
927.631	11071
927.737	10946
927.843	10862
927.95	10805
928.056	10793
928.162	10915
928.267	10927
928.373	11471
928.479	10919
928.585	10691
928.69	10923
928.796	10854
928.901	10729
929.007	10653
929.112	10725
929.218	10736
929.323	10634
929.428	10649
929.533	10793
929.638	10622
929.743	10615
929.848	10626
929.953	10573
930.058	10596
930.163	10348
930.267	10341
930.372	10519
930.477	10329
930.581	10580
930.685	10478
930.79	10211
930.894	10295
930.998	10268
931.103	10337
931.207	9960
931.311	9930
931.415	9869
931.519	9618
931.623	9686
