Data from test_V78500241_2172.txt Node
Date: Fri Mar 25 14:48:50 CST 2022
User: usil
Spectrometer: V785-0024
Trigger mode: 0
Integration Time (sec): 4.000000E-1
Scans to average: 1
Nonlinearity correction enabled: false
Boxcar width: 0
Storing dark spectrum: false
XAxis mode: Wavelengths
Number of Pixels in Spectrum: 1024
>>>>>Begin Spectral Data<<<<<
801.071	22173
801.214	21930
801.356	21641
801.499	21656
801.641	21618
801.783	21420
801.926	21450
802.068	21515
802.211	21272
802.353	21287
802.496	21207
802.638	21020
802.78	20956
802.923	20834
803.065	20678
803.208	20838
803.35	20876
803.492	20937
803.635	21009
803.777	20918
803.919	20944
804.061	21192
804.204	20876
804.346	20804
804.488	20804
804.63	20876
804.773	20644
804.915	20689
805.057	20910
805.199	20602
805.341	20720
805.483	21013
805.626	20811
805.768	20792
805.91	20701
806.052	20849
806.194	20682
806.336	20998
806.478	20777
806.62	20754
806.762	20857
806.904	20982
807.046	21203
807.188	21096
807.33	21135
807.472	21077
807.614	21013
807.756	21013
807.898	20826
808.04	20857
808.182	20857
808.324	20682
808.465	20857
808.607	20979
808.749	21085
808.891	21173
809.033	21192
809.174	21260
809.316	21157
809.458	21146
809.6	21157
809.741	21233
809.883	21142
810.025	21313
810.166	21351
810.308	21268
810.45	21332
810.591	21211
810.733	21039
810.875	20960
811.016	20773
811.158	20796
811.299	20967
811.441	21081
811.582	21081
811.724	20906
811.865	20838
812.007	20895
812.148	20998
812.29	20986
812.431	21032
812.573	21294
812.714	21424
812.855	21374
812.997	21564
813.138	21637
813.279	21443
813.421	21458
813.562	21287
813.703	21199
813.845	21077
813.986	20769
814.127	20621
814.268	20499
814.41	20629
814.551	20393
814.692	20568
814.833	20366
814.974	20309
815.115	20484
815.256	20377
815.397	20377
815.539	20267
815.68	20256
815.821	20130
815.962	20256
816.103	20084
816.244	20027
816.385	20020
816.526	19947
816.666	19719
816.807	19605
816.948	19769
817.089	19742
817.23	19605
817.371	19597
817.512	19578
817.653	19567
817.793	19529
817.934	19586
818.075	19643
818.216	19601
818.356	19514
818.497	19434
818.638	19213
818.778	19388
818.919	19266
819.06	19346
819.2	19483
819.341	19533
819.481	19476
819.622	19662
819.762	19788
819.903	19666
820.043	19658
820.184	19647
820.324	19624
820.465	19753
820.605	19655
820.746	19586
820.886	19369
821.026	19491
821.167	19411
821.307	19525
821.447	19499
821.588	19324
821.728	19266
821.868	19065
822.008	19027
822.149	19015
822.289	18962
822.429	18639
822.569	18574
822.709	18551
822.849	18486
822.99	18426
823.13	18456
823.27	18361
823.41	18327
823.55	18197
823.69	18254
823.83	18407
823.97	18194
824.11	17996
824.25	18087
824.389	18057
824.529	18098
824.669	18072
824.809	18098
824.949	18098
825.089	18110
825.228	18022
825.368	17969
825.508	17916
825.648	17901
825.787	17878
825.927	17977
826.067	17855
826.206	17779
826.346	17847
826.485	17908
826.625	17760
826.765	17950
826.904	17832
827.044	17516
827.183	17490
827.323	17520
827.462	17463
827.601	17554
827.741	17520
827.88	17585
828.02	17436
828.159	17543
828.298	17539
828.437	17665
828.577	17471
828.716	17627
828.855	17505
828.994	17353
829.134	17326
829.273	17330
829.412	17261
829.551	17303
829.69	17284
829.829	17273
829.968	17292
830.107	17318
830.246	17197
830.385	17227
830.524	17166
830.663	17048
830.802	17033
830.941	16866
831.08	16797
831.219	16889
831.357	16999
831.496	17121
831.635	16873
831.774	16752
831.913	16702
832.051	16672
832.19	16664
832.329	16786
832.467	16679
832.606	16500
832.744	16519
832.883	16603
833.022	16512
833.16	16622
833.299	16656
833.437	16603
833.576	16569
833.714	16558
833.852	16710
833.991	16634
834.129	16691
834.267	16778
834.406	16622
834.544	16637
834.682	16645
834.821	16535
834.959	16847
835.097	16523
835.235	16698
835.373	16679
835.511	16660
835.65	16516
835.788	16554
835.926	16371
836.064	16329
836.202	16344
836.34	16542
836.478	16573
836.615	16573
836.753	16485
836.891	16660
837.029	16706
837.167	16436
837.305	16417
837.443	16329
837.58	16382
837.718	16379
837.856	16371
837.993	16322
838.131	16382
838.269	16325
838.406	16272
838.544	16246
838.681	16071
838.819	16067
838.956	15964
839.094	16055
839.231	16090
839.369	16109
839.506	16356
839.643	16226
839.781	16044
839.918	15911
840.055	16040
840.193	15949
840.33	15831
840.467	15869
840.604	15979
840.742	16188
840.879	15873
841.016	15854
841.153	15812
841.29	16139
841.427	15956
841.564	15987
841.701	15960
841.838	15983
841.975	15915
842.112	15804
842.249	15724
842.385	15656
842.522	16002
842.659	15816
842.796	15663
842.933	15766
843.069	15686
843.206	15652
843.343	15736
843.479	15713
843.616	15842
843.752	15523
843.889	15481
844.025	15656
844.162	15443
844.298	15568
844.435	15504
844.571	15420
844.708	15485
844.844	15633
844.98	15698
845.117	15599
845.253	15450
845.389	15424
845.525	15450
845.661	15382
845.798	15351
845.934	15332
846.07	15283
846.206	15389
846.342	15420
846.478	15256
846.614	15123
846.75	15089
846.886	14986
847.022	15112
847.158	15154
847.294	15100
847.429	15081
847.565	15062
847.701	15283
847.837	14796
847.972	14758
848.108	14963
848.244	14990
848.379	14674
848.515	14613
848.65	14674
848.786	14598
848.921	14743
849.057	14769
849.192	14823
849.328	14735
849.463	14758
849.598	14579
849.734	14522
849.869	14514
850.004	14473
850.14	14530
850.275	14526
850.41	14328
850.545	14347
850.68	14412
850.815	14446
850.95	14484
851.085	14473
851.22	14587
851.355	14461
851.49	14362
851.625	14415
851.76	14305
851.895	14320
852.03	14259
852.165	14450
852.299	14492
852.434	14530
852.569	14442
852.703	14461
852.838	14541
852.973	14556
853.107	14602
853.242	14400
853.376	14374
853.511	14214
853.645	14282
853.78	14393
853.914	14317
854.048	14252
854.183	14252
854.317	14286
854.451	14389
854.585	14259
854.72	14275
854.854	14355
854.988	14176
855.122	14210
855.256	14130
855.39	14282
855.524	14374
855.658	14309
855.792	14412
855.926	14313
856.06	14336
856.194	14457
856.327	14256
856.461	14237
856.595	14202
856.729	14328
856.862	14374
856.996	14336
857.13	14408
857.263	14438
857.397	14457
857.53	14351
857.664	14457
857.797	14442
857.931	14434
858.064	14427
858.197	14423
858.331	14290
858.464	14187
858.597	14248
858.731	14358
858.864	14256
858.997	14244
859.13	14355
859.263	14313
859.396	14362
859.529	14320
859.662	14214
859.795	14339
859.928	14381
860.061	14522
860.194	14427
860.327	14343
860.46	14301
860.592	14366
860.725	14377
860.858	14450
860.99	14317
861.123	14298
861.256	14225
861.388	14358
861.521	14887
861.653	14218
861.786	14073
861.918	14221
862.05	14202
862.183	14180
862.315	14298
862.447	14305
862.58	14332
862.712	14115
862.844	14069
862.976	14172
863.108	14191
863.24	14473
863.372	14008
863.504	14092
863.636	14020
863.768	14130
863.9	14100
864.032	13997
864.164	14065
864.296	14081
864.428	14206
864.559	14172
864.691	14206
864.823	14058
864.954	14130
865.086	14145
865.217	14088
865.349	14001
865.48	14115
865.612	14077
865.743	14191
865.875	13982
866.006	14062
866.137	14157
866.269	14054
866.4	14039
866.531	14035
866.662	13963
866.793	13997
866.924	14046
867.055	14043
867.186	14016
867.317	13970
867.448	13849
867.579	13974
867.71	14039
867.841	14081
867.972	14115
868.103	14069
868.233	14119
868.364	14142
868.495	14199
868.625	14229
868.756	14320
868.886	14206
869.017	14229
869.147	14457
869.278	14446
869.408	14332
869.539	14317
869.669	14355
869.799	14332
869.929	14499
870.06	14511
870.19	14712
870.32	14594
870.45	14667
870.58	14830
870.71	14765
870.84	14777
870.97	14674
871.1	14655
871.23	14845
871.36	14883
871.489	14758
871.619	14914
871.749	14864
871.879	14868
872.008	15123
872.138	14929
872.267	14861
872.397	14815
872.526	14796
872.656	14720
872.785	14708
872.915	14963
873.044	15017
873.173	14982
873.303	14998
873.432	15013
873.561	15001
873.69	14963
873.819	14925
873.948	15051
874.077	14899
874.206	14944
874.335	15047
874.464	15089
874.593	15302
874.722	15199
874.851	15222
874.979	15336
875.108	15321
875.237	15214
875.365	15283
875.494	15275
875.623	15351
875.751	15203
875.88	15447
876.008	15412
876.136	15348
876.265	15622
876.393	15694
876.521	15717
876.65	15766
876.778	15785
876.906	15542
877.034	15675
877.162	15717
877.29	15580
877.418	15766
877.546	15713
877.674	15732
877.802	15675
877.93	15705
878.058	15641
878.185	15587
878.313	15686
878.441	15724
878.568	15572
878.696	15568
878.824	15717
878.951	15709
879.079	15831
879.206	16017
879.333	15766
879.461	15819
879.588	15842
879.715	15918
879.842	15926
879.97	15770
880.097	15538
880.224	15507
880.351	15515
880.478	15606
880.605	15530
880.732	15515
880.859	15728
880.986	15599
881.112	15633
881.239	15504
881.366	15367
881.493	15287
881.619	15104
881.746	15199
881.872	15142
881.999	15298
882.125	15241
882.252	15302
882.378	15237
882.505	15367
882.631	15169
882.757	15036
882.883	15097
883.01	14971
883.136	14990
883.262	14842
883.388	14910
883.514	14990
883.64	15028
883.766	15024
883.892	14811
884.018	14838
884.143	14979
884.269	15188
884.395	14773
884.52	14610
884.646	14720
884.772	14625
884.897	14689
885.023	14762
885.148	14777
885.274	14952
885.399	14868
885.524	14735
885.65	14720
885.775	14667
885.9	14727
886.025	14823
886.15	14724
886.275	14670
886.4	14606
886.525	14678
886.65	14659
886.775	14602
886.9	14769
887.025	14921
887.149	14731
887.274	14518
887.399	14632
887.523	14476
887.648	14556
887.773	14400
887.897	14686
888.021	14606
888.146	14579
888.27	14651
888.395	14636
888.519	14537
888.643	14693
888.767	14556
888.891	14488
889.015	14415
889.139	14408
889.263	14377
889.387	14446
889.511	14632
889.635	14419
889.759	14404
889.883	14343
890.006	14415
890.13	14492
890.254	14362
890.377	14400
890.501	14290
890.624	14221
890.748	14294
890.871	14202
890.995	14134
891.118	13963
891.241	14126
891.364	14145
891.488	14176
891.611	14130
891.734	14138
891.857	14214
891.98	14145
892.103	14069
892.226	14138
892.349	14168
892.471	14031
892.594	14092
892.717	14046
892.839	14054
892.962	14046
893.085	14199
893.207	14084
893.33	14016
893.452	13997
893.575	14142
893.697	14130
893.819	14214
893.941	14290
894.064	14324
894.186	14062
894.308	14016
894.43	14218
894.552	14305
894.674	14305
894.796	14065
894.918	14142
895.04	14062
895.161	14278
895.283	14199
895.405	14199
895.526	14221
895.648	14210
895.769	14263
895.891	14317
896.012	14221
896.134	14355
896.255	14320
896.376	14256
896.498	14176
896.619	14339
896.74	14259
896.861	14408
896.982	14560
897.103	14788
897.224	14655
897.345	14545
897.466	14461
897.587	14545
897.708	14686
897.828	14518
897.949	14465
898.07	14461
898.19	14537
898.311	14617
898.431	14522
898.552	14644
898.672	14754
898.792	14663
898.913	14682
899.033	14545
899.153	14381
899.273	14313
899.393	14492
899.513	14431
899.633	14454
899.753	14556
899.873	14457
899.993	14492
900.113	14537
900.232	14530
900.352	14480
900.472	14450
900.591	14347
900.711	14328
900.83	14320
900.95	14400
901.069	14415
901.189	14385
901.308	14100
901.427	13936
901.546	14039
901.665	14088
901.784	14103
901.904	13986
902.023	13822
902.141	13632
902.26	13518
902.379	13651
902.498	13525
902.617	13548
902.735	13548
902.854	13537
902.973	13476
903.091	13320
903.21	13289
903.328	13335
903.446	13244
903.565	13168
903.683	13164
903.801	13027
903.919	13084
904.038	13179
904.156	12996
904.274	13038
904.392	12909
904.51	12951
904.627	12954
904.745	13019
904.863	13004
904.981	12795
905.098	12700
905.216	12677
905.334	12658
905.451	12669
905.569	12635
905.686	12757
905.803	12719
905.921	12471
906.038	12566
906.155	12528
906.272	12448
906.389	12315
906.506	12273
906.623	12277
906.74	12216
906.857	12114
906.974	12175
907.091	12399
907.208	12376
907.324	12407
907.441	12213
907.557	12076
907.674	11927
907.79	11942
907.907	12015
908.023	12022
908.139	12087
908.256	11996
908.372	12019
908.488	12003
908.604	11809
908.72	11828
908.836	11764
908.952	11737
909.068	11847
909.184	11908
909.3	11756
909.415	11809
909.531	11805
909.647	11592
909.762	11573
909.878	11551
909.993	11634
910.108	11535
910.224	11535
910.339	11547
910.454	11501
910.57	11383
910.685	11406
910.8	11668
910.915	11604
911.03	11444
911.145	11337
911.259	11254
911.374	11337
911.489	11227
911.604	11227
911.718	11090
911.833	10972
911.947	10942
912.062	10858
912.176	10984
912.291	10930
912.405	10999
912.519	11227
912.633	11269
912.748	11128
912.862	11079
912.976	10957
913.09	10854
913.204	10896
913.318	10908
913.431	10961
913.545	11003
913.659	10972
913.772	10984
913.886	10809
914	10877
914.113	10889
914.226	10881
914.34	10889
914.453	10774
914.566	10877
914.68	10740
914.793	10729
914.906	10523
915.019	10485
915.132	10455
915.245	10516
915.358	10561
915.47	10592
915.583	10687
915.696	10626
915.809	10645
915.921	10755
916.034	10637
916.146	10470
916.259	10455
916.371	10592
916.483	10580
916.595	10531
916.708	10523
916.82	10466
916.932	10481
917.044	10417
917.156	10371
917.268	10356
917.38	10394
917.491	10325
917.603	10424
917.715	10470
917.826	10546
917.938	10382
918.049	10238
918.161	10356
918.272	10596
918.384	10493
918.495	10447
918.606	10276
918.717	10223
918.828	10227
918.939	10257
919.05	10158
919.161	10207
919.272	10063
919.383	10120
919.494	10341
919.604	10554
919.715	10249
919.826	10219
919.936	10185
920.047	10329
920.157	10227
920.267	10535
920.378	10325
920.488	10280
920.598	10470
920.708	10611
920.818	10485
920.928	10550
921.038	10611
921.148	10596
921.258	10246
921.368	10188
921.477	10143
921.587	10090
921.697	9983
921.806	10128
921.916	10017
922.025	9888
922.134	9823
922.244	9785
922.353	9865
922.462	9660
922.571	9698
922.68	9466
922.789	9526
922.898	9507
923.007	9534
923.116	9595
923.224	9511
923.333	9523
923.442	9412
923.55	9351
923.659	9466
923.767	9462
923.876	9351
923.984	9424
924.092	9329
924.201	9367
924.309	9401
924.417	9378
924.525	9313
924.633	9378
924.741	10036
924.849	9169
924.956	9291
925.064	9123
925.172	9017
925.279	9165
925.387	9241
925.494	9131
925.602	9287
925.709	9203
925.816	9165
925.924	9195
926.031	9241
926.138	9157
926.245	9283
926.352	9070
926.459	9260
926.566	9211
926.673	9135
926.779	9047
926.886	9005
926.993	8899
927.099	8918
927.206	8750
927.312	8830
927.419	8899
927.525	8906
927.631	8941
927.737	8739
927.843	8739
927.95	8724
928.056	8800
928.162	8807
928.267	8872
928.373	9485
928.479	8883
928.585	8651
928.69	8735
928.796	8796
928.901	8705
929.007	8575
929.112	8651
929.218	8682
929.323	8590
929.428	8621
929.533	8788
929.638	8537
929.743	8610
929.848	8644
929.953	8545
930.058	8568
930.163	8396
930.267	8396
930.372	8514
930.477	8328
930.581	8556
930.685	8518
930.79	8294
930.894	8332
930.998	8317
931.103	8457
931.207	8107
931.311	8084
931.415	7940
931.519	7750
931.623	7811
