Data from test_V78500241_3506.txt Node
Date: Fri Mar 25 14:58:07 CST 2022
User: usil
Spectrometer: V785-0024
Trigger mode: 0
Integration Time (sec): 4.000000E-1
Scans to average: 1
Nonlinearity correction enabled: false
Boxcar width: 0
Storing dark spectrum: false
XAxis mode: Wavelengths
Number of Pixels in Spectrum: 1024
>>>>>Begin Spectral Data<<<<<
801.071	21884
801.214	21694
801.356	21481
801.499	21435
801.641	21222
801.783	21283
801.926	21363
802.068	21119
802.211	21176
802.353	20929
802.496	20853
802.638	20708
802.78	20708
802.923	20674
803.065	20480
803.208	20556
803.35	20560
803.492	20781
803.635	20689
803.777	20693
803.919	20705
804.061	20819
804.204	20731
804.346	20469
804.488	20488
804.63	20492
804.773	20427
804.915	20495
805.057	20560
805.199	20530
805.341	20571
805.483	20537
805.626	20632
805.768	20503
805.91	20461
806.052	20514
806.194	20404
806.336	20571
806.478	20473
806.62	20393
806.762	20579
806.904	20735
807.046	20880
807.188	20944
807.33	20895
807.472	20830
807.614	20754
807.756	20724
807.898	20644
808.04	20632
808.182	20412
808.324	20571
808.465	20636
808.607	20746
808.749	20777
808.891	20918
809.033	20998
809.174	20933
809.316	20815
809.458	20815
809.6	20743
809.741	20948
809.883	20929
810.025	21032
810.166	20963
810.308	20982
810.45	20956
810.591	20823
810.733	20693
810.875	20724
811.016	20488
811.158	20587
811.299	20651
811.441	20746
811.582	20594
811.724	20579
811.865	20609
812.007	20526
812.148	20571
812.29	20678
812.431	20796
812.573	20868
812.714	21028
812.855	21131
812.997	21230
813.138	21351
813.279	21089
813.421	21131
813.562	21020
813.703	20967
813.845	20758
813.986	20480
814.127	20313
814.268	20195
814.41	20138
814.551	20058
814.692	20153
814.833	20077
814.974	20180
815.115	20176
815.256	20024
815.397	20008
815.539	19997
815.68	19887
815.821	19993
815.962	19955
816.103	19925
816.244	19750
816.385	19689
816.526	19552
816.666	19381
816.807	19282
816.948	19365
817.089	19392
817.23	19324
817.371	19327
817.512	19232
817.653	19308
817.793	19209
817.934	19217
818.075	19369
818.216	19350
818.356	19225
818.497	19141
818.638	18901
818.778	19084
818.919	18985
819.06	18989
819.2	19099
819.341	19213
819.481	19179
819.622	19384
819.762	19369
819.903	19403
820.043	19278
820.184	19285
820.324	19236
820.465	19362
820.605	19301
820.746	19297
820.886	19152
821.026	19114
821.167	19232
821.307	19324
821.447	19244
821.588	19110
821.728	19023
821.868	18837
822.008	18616
822.149	18825
822.289	18741
822.429	18395
822.569	18350
822.709	18334
822.849	18216
822.99	18289
823.13	18167
823.27	18159
823.41	18011
823.55	17977
823.69	17908
823.83	18041
823.97	17897
824.11	17771
824.25	17604
824.389	17676
824.529	17828
824.669	17771
824.809	17855
824.949	17794
825.089	17733
825.228	17813
825.368	17551
825.508	17611
825.648	17505
825.787	17608
825.927	17592
826.067	17516
826.206	17589
826.346	17516
826.485	17551
826.625	17558
826.765	17619
826.904	17592
827.044	17315
827.183	17284
827.323	17261
827.462	17170
827.601	17292
827.741	17166
827.88	17258
828.02	17147
828.159	17277
828.298	17200
828.437	17360
828.577	17239
828.716	17303
828.855	17155
828.994	16995
829.134	16984
829.273	17197
829.412	16889
829.551	17029
829.69	16938
829.829	17033
829.968	17056
830.107	16953
830.246	16972
830.385	16877
830.524	16816
830.663	16778
830.802	16679
830.941	16577
831.08	16580
831.219	16721
831.357	16618
831.496	16797
831.635	16626
831.774	16478
831.913	16611
832.051	16421
832.19	16432
832.329	16497
832.467	16306
832.606	16215
832.744	16303
832.883	16253
833.022	16265
833.16	16348
833.299	16352
833.437	16341
833.576	16341
833.714	16337
833.852	16474
833.991	16363
834.129	16390
834.267	16474
834.406	16325
834.544	16329
834.682	16337
834.821	16424
834.959	16584
835.097	16344
835.235	16424
835.373	16398
835.511	16341
835.65	16192
835.788	16314
835.926	16116
836.064	15994
836.202	16143
836.34	16314
836.478	16360
836.615	16215
836.753	16310
836.891	16375
837.029	16386
837.167	16257
837.305	16268
837.443	16265
837.58	16147
837.718	16291
837.856	16173
837.993	16128
838.131	16253
838.269	16105
838.406	16109
838.544	16017
838.681	15888
838.819	15869
838.956	15743
839.094	15644
839.231	15743
839.369	15869
839.506	16166
839.643	16025
839.781	15854
839.918	15648
840.055	15717
840.193	15766
840.33	15682
840.467	15709
840.604	15701
840.742	15987
840.879	15557
841.016	15568
841.153	15587
841.29	15838
841.427	15762
841.564	15698
841.701	15762
841.838	15686
841.975	15504
842.112	15584
842.249	15538
842.385	15473
842.522	15728
842.659	15511
842.796	15492
842.933	15462
843.069	15458
843.206	15526
843.343	15542
843.479	15466
843.616	15545
843.752	15214
843.889	15275
844.025	15416
844.162	15218
844.298	15355
844.435	15306
844.571	15272
844.708	15321
844.844	15485
844.98	15408
845.117	15382
845.253	15233
845.389	15222
845.525	15165
845.661	15173
845.798	15051
845.934	15062
846.07	15085
846.206	15176
846.342	15131
846.478	15112
846.614	14845
846.75	14823
846.886	14883
847.022	14933
847.158	14883
847.294	14967
847.429	14876
847.565	14853
847.701	15108
847.837	14610
847.972	14571
848.108	14697
848.244	14632
848.379	14522
848.515	14400
848.65	14476
848.786	14404
848.921	14507
849.057	14545
849.192	14610
849.328	14533
849.463	14526
849.598	14434
849.734	14343
849.869	14408
850.004	14221
850.14	14396
850.275	14210
850.41	14161
850.545	14153
850.68	14210
850.815	14320
850.95	14195
851.085	14389
851.22	14320
851.355	14267
851.49	14244
851.625	14225
851.76	14282
851.895	14012
852.03	14138
852.165	14161
852.299	14263
852.434	14278
852.569	14202
852.703	14275
852.838	14278
852.973	14423
853.107	14324
853.242	14244
853.376	14161
853.511	14012
853.645	14115
853.78	14240
853.914	14138
854.048	14126
854.183	14111
854.317	14183
854.451	14298
854.585	14103
854.72	14062
854.854	14153
854.988	13997
855.122	14062
855.256	13970
855.39	14107
855.524	14168
855.658	14153
855.792	14244
855.926	14206
856.06	14111
856.194	14244
856.327	14100
856.461	14073
856.595	14024
856.729	14107
856.862	14138
856.996	14142
857.13	14100
857.263	14176
857.397	14252
857.53	14016
857.664	14180
857.797	14290
857.931	14233
858.064	14058
858.197	14119
858.331	14126
858.464	14058
858.597	13993
858.731	14096
858.864	14077
858.997	14123
859.13	14107
859.263	14157
859.396	14191
859.529	14130
859.662	14103
859.795	14111
859.928	14081
860.061	14225
860.194	14332
860.327	14149
860.46	14020
860.592	14142
860.725	14214
860.858	14248
860.99	14115
861.123	14096
861.256	14054
861.388	14256
861.521	14880
861.653	13932
861.786	13875
861.918	13974
862.05	14020
862.183	14073
862.315	14115
862.447	14210
862.58	14100
862.712	13967
862.844	13734
862.976	13955
863.108	13982
863.24	14267
863.372	13902
863.504	13776
863.636	13856
863.768	13944
863.9	13879
864.032	13795
864.164	13765
864.296	13871
864.428	14020
864.559	14005
864.691	14119
864.823	13875
864.954	13894
865.086	13921
865.217	13917
865.349	13818
865.48	13883
865.612	13898
865.743	14088
865.875	13883
866.006	13772
866.137	13967
866.269	13883
866.4	13860
866.531	13830
866.662	13898
866.793	13879
866.924	13837
867.055	13883
867.186	13913
867.317	13811
867.448	13769
867.579	13856
867.71	13791
867.841	13894
867.972	13890
868.103	13902
868.233	13849
868.364	13898
868.495	13986
868.625	14119
868.756	14187
868.886	14001
869.017	14206
869.147	14271
869.278	14225
869.408	14149
869.539	14278
869.669	14187
869.799	14210
869.929	14275
870.06	14183
870.19	14400
870.32	14450
870.45	14423
870.58	14533
870.71	14678
870.84	14556
870.97	14632
871.1	14602
871.23	14686
871.36	14754
871.489	14636
871.619	14754
871.749	14659
871.879	14727
872.008	14800
872.138	14746
872.267	14678
872.397	14621
872.526	14537
872.656	14583
872.785	14613
872.915	14864
873.044	14823
873.173	14743
873.303	14838
873.432	14815
873.561	14887
873.69	14811
873.819	14792
873.948	14804
874.077	14823
874.206	14819
874.335	14853
874.464	14876
874.593	15009
874.722	14982
874.851	15077
874.979	15165
875.108	15237
875.237	15058
875.365	15032
875.494	15039
875.623	15119
875.751	15100
875.88	15097
876.008	15310
876.136	15329
876.265	15526
876.393	15603
876.521	15587
876.65	15591
876.778	15564
876.906	15622
877.034	15553
877.162	15515
877.29	15564
877.418	15618
877.546	15587
877.674	15595
877.802	15538
877.93	15447
878.058	15439
878.185	15435
878.313	15454
878.441	15542
878.568	15313
878.696	15420
878.824	15553
878.951	15610
879.079	15717
879.206	15823
879.333	15614
879.461	15584
879.588	15667
879.715	15751
879.842	15759
879.97	15587
880.097	15393
880.224	15386
880.351	15344
880.478	15420
880.605	15329
880.732	15363
880.859	15709
880.986	15450
881.112	15469
881.239	15291
881.366	15230
881.493	15005
881.619	15028
881.746	15043
881.872	15077
881.999	15005
882.125	14975
882.252	15218
882.378	15051
882.505	15207
882.631	15051
882.757	14845
882.883	14929
883.01	14864
883.136	14876
883.262	14651
883.388	14697
883.514	14895
883.64	14933
883.766	14792
883.892	14750
884.018	14613
884.143	14815
884.269	14906
884.395	14488
884.52	14541
884.646	14552
884.772	14526
884.897	14454
885.023	14644
885.148	14648
885.274	14804
885.399	14701
885.524	14492
885.65	14594
885.775	14590
885.9	14613
886.025	14701
886.15	14579
886.275	14518
886.4	14465
886.525	14495
886.65	14522
886.775	14511
886.9	14606
887.025	14838
887.149	14590
887.274	14434
887.399	14263
887.523	14358
887.648	14309
887.773	14294
887.897	14514
888.021	14419
888.146	14324
888.27	14389
888.395	14663
888.519	14419
888.643	14358
888.767	14434
888.891	14290
889.015	14252
889.139	14305
889.263	14225
889.387	14488
889.511	14522
889.635	14271
889.759	14244
889.883	14229
890.006	14199
890.13	14396
890.254	14172
890.377	14218
890.501	14153
890.624	14046
890.748	14145
890.871	14020
890.995	13909
891.118	13932
891.241	13944
891.364	13925
891.488	14035
891.611	13951
891.734	13993
891.857	14119
891.98	13928
892.103	14046
892.226	14054
892.349	13879
892.471	13837
892.594	13860
892.717	13993
892.839	13875
892.962	13936
893.085	14058
893.207	13936
893.33	13826
893.452	13871
893.575	14050
893.697	13909
893.819	14199
893.941	14187
894.064	14134
894.186	14012
894.308	13989
894.43	14077
894.552	14107
894.674	14123
894.796	13868
894.918	14069
895.04	13989
895.161	14157
895.283	14054
895.405	13967
895.526	14027
895.648	14058
895.769	14096
895.891	14065
896.012	14187
896.134	14259
896.255	14195
896.376	14073
896.498	14134
896.619	14221
896.74	14100
896.861	14214
896.982	14480
897.103	14575
897.224	14457
897.345	14358
897.466	14412
897.587	14427
897.708	14526
897.828	14461
897.949	14450
898.07	14332
898.19	14324
898.311	14488
898.431	14549
898.552	14476
898.672	14480
898.792	14545
898.913	14545
899.033	14514
899.153	14271
899.273	14229
899.393	14343
899.513	14339
899.633	14336
899.753	14450
899.873	14301
899.993	14454
900.113	14263
900.232	14370
900.352	14301
900.472	14221
900.591	14195
900.711	14199
900.83	14225
900.95	14275
901.069	14275
901.189	14233
901.308	13974
901.427	13860
901.546	13879
901.665	13890
901.784	13860
901.904	13772
902.023	13616
902.141	13483
902.26	13419
902.379	13499
902.498	13350
902.617	13384
902.735	13525
902.854	13464
902.973	13324
903.091	13225
903.21	13255
903.328	13190
903.446	13141
903.565	12989
903.683	12954
903.801	12928
903.919	12924
904.038	12928
904.156	12909
904.274	12863
904.392	12817
904.51	12791
904.627	12798
904.745	12875
904.863	12837
904.981	12734
905.098	12498
905.216	12585
905.334	12559
905.451	12494
905.569	12528
905.686	12536
905.803	12502
905.921	12369
906.038	12460
906.155	12414
906.272	12201
906.389	12338
906.506	12148
906.623	12102
906.74	12163
906.857	11980
906.974	12110
907.091	12205
907.208	12319
907.324	12175
907.441	12136
907.557	11923
907.674	11843
907.79	11760
907.907	11836
908.023	11897
908.139	11882
908.256	11851
908.372	11813
908.488	11752
908.604	11726
908.72	11570
908.836	11672
908.952	11619
909.068	11665
909.184	11901
909.3	11646
909.415	11707
909.531	11691
909.647	11486
909.762	11391
909.878	11372
909.993	11417
910.108	11433
910.224	11395
910.339	11334
910.454	11315
910.57	11318
910.685	11227
910.8	11577
910.915	11414
911.03	11395
911.145	11105
911.259	11071
911.374	11064
911.489	11045
911.604	10934
911.718	10839
911.833	10919
911.947	10843
912.062	10774
912.176	10896
912.291	10900
912.405	10816
912.519	11162
912.633	11117
912.748	10980
912.862	10858
912.976	10706
913.09	10706
913.204	10664
913.318	10774
913.431	10877
913.545	10828
913.659	10820
913.772	10793
913.886	10687
914	10611
914.113	10706
914.226	10752
914.34	10714
914.453	10607
914.566	10637
914.68	10588
914.793	10615
914.906	10363
915.019	10398
915.132	10310
915.245	10402
915.358	10394
915.47	10436
915.583	10367
915.696	10428
915.809	10523
915.921	10618
916.034	10413
916.146	10249
916.259	10375
916.371	10428
916.483	10348
916.595	10322
916.708	10249
916.82	10303
916.932	10344
917.044	10310
917.156	10268
917.268	10211
917.38	10295
917.491	10234
917.603	10227
917.715	10318
917.826	10337
917.938	10150
918.049	10128
918.161	10204
918.272	10371
918.384	10386
918.495	10230
918.606	10097
918.717	10017
918.828	10059
918.939	10116
919.05	9994
919.161	10112
919.272	9915
919.383	9934
919.494	10143
919.604	10242
919.715	10124
919.826	9968
919.936	10097
920.047	10211
920.157	10200
920.267	10268
920.378	10128
920.488	10112
920.598	10363
920.708	10535
920.818	10276
920.928	10303
921.038	10500
921.148	10447
921.258	10143
921.368	10131
921.477	10032
921.587	9918
921.697	9785
921.806	10067
921.916	9857
922.025	9686
922.134	9724
922.244	9633
922.353	9732
922.462	9511
922.571	9477
922.68	9302
922.789	9412
922.898	9340
923.007	9370
923.116	9443
923.224	9447
923.333	9332
923.442	9298
923.55	9192
923.659	9230
923.767	9325
923.876	9218
923.984	9275
924.092	9245
924.201	9344
924.309	9283
924.417	9279
924.525	9211
924.633	9241
924.741	9983
924.849	8990
924.956	9207
925.064	8986
925.172	8929
925.279	9032
925.387	9055
925.494	9077
925.602	9207
925.709	9104
925.816	9001
925.924	9047
926.031	9192
926.138	9047
926.245	9047
926.352	8975
926.459	9119
926.566	9081
926.673	9028
926.779	8880
926.886	8883
926.993	8792
927.099	8758
927.206	8678
927.312	8693
927.419	8861
927.525	8758
927.631	8845
927.737	8708
927.843	8651
927.95	8556
928.056	8621
928.162	8655
928.267	8716
928.373	9329
928.479	8663
928.585	8560
928.69	8632
928.796	8678
928.901	8560
929.007	8473
929.112	8613
929.218	8442
929.323	8507
929.428	8457
929.533	8617
929.638	8374
929.743	8438
929.848	8552
929.953	8461
930.058	8339
930.163	8218
930.267	8328
930.372	8347
930.477	8248
930.581	8423
930.685	8396
930.79	8206
930.894	8168
930.998	8180
931.103	8309
931.207	7970
931.311	7917
931.415	7932
931.519	7681
931.623	7689
