Data from test_V78500241_1619.txt Node
Date: Fri Mar 25 14:44:59 CST 2022
User: usil
Spectrometer: V785-0024
Trigger mode: 0
Integration Time (sec): 4.000000E-1
Scans to average: 1
Nonlinearity correction enabled: false
Boxcar width: 0
Storing dark spectrum: false
XAxis mode: Wavelengths
Number of Pixels in Spectrum: 1024
>>>>>Begin Spectral Data<<<<<
801.071	22356
801.214	22192
801.356	21998
801.499	21907
801.641	21720
801.783	21561
801.926	21694
802.068	21663
802.211	21682
802.353	21481
802.496	21294
802.638	21093
802.78	21146
802.923	21001
803.065	20906
803.208	21047
803.35	21001
803.492	21218
803.635	21214
803.777	21039
803.919	21047
804.061	21344
804.204	21028
804.346	20944
804.488	20910
804.63	20960
804.773	20887
804.915	21013
805.057	21093
805.199	20918
805.341	21047
805.483	21192
805.626	21077
805.768	20979
805.91	20998
806.052	20982
806.194	20925
806.336	21062
806.478	20952
806.62	20876
806.762	20952
806.904	21142
807.046	21317
807.188	21207
807.33	21321
807.472	21325
807.614	21226
807.756	21222
807.898	21119
808.04	21066
808.182	21104
808.324	21195
808.465	21096
808.607	21188
808.749	21412
808.891	21473
809.033	21583
809.174	21492
809.316	21283
809.458	21389
809.6	21374
809.741	21424
809.883	21393
810.025	21747
810.166	21656
810.308	21523
810.45	21397
810.591	21397
810.733	21211
810.875	21180
811.016	21043
811.158	21119
811.299	21256
811.441	21294
811.582	21241
811.724	21131
811.865	21093
812.007	21207
812.148	21146
812.29	21180
812.431	21313
812.573	21507
812.714	21542
812.855	21686
812.997	21720
813.138	21888
813.279	21762
813.421	21705
813.562	21606
813.703	21291
813.845	21370
813.986	21055
814.127	20842
814.268	20731
814.41	20857
814.551	20716
814.692	20689
814.833	20708
814.974	20712
815.115	20632
815.256	20629
815.397	20613
815.539	20568
815.68	20355
815.821	20465
815.962	20412
816.103	20446
816.244	20305
816.385	20142
816.526	20096
816.666	19967
816.807	19852
816.948	19906
817.089	20005
817.23	19986
817.371	19753
817.512	19822
817.653	19807
817.793	19883
817.934	19887
818.075	19909
818.216	19894
818.356	19712
818.497	19655
818.638	19491
818.778	19464
818.919	19620
819.06	19590
819.2	19677
819.341	19651
819.481	19632
819.622	19818
819.762	19974
819.903	19967
820.043	19860
820.184	19818
820.324	19811
820.465	19830
820.605	19784
820.746	19803
820.886	19620
821.026	19742
821.167	19780
821.307	19856
821.447	19826
821.588	19582
821.728	19422
821.868	19358
822.008	19072
822.149	19183
822.289	19198
822.429	18875
822.569	18886
822.709	18848
822.849	18688
822.99	18627
823.13	18559
823.27	18597
823.41	18540
823.55	18464
823.69	18513
823.83	18559
823.97	18418
824.11	18289
824.25	18319
824.389	18171
824.529	18388
824.669	18319
824.809	18403
824.949	18357
825.089	18289
825.228	18388
825.368	18262
825.508	18106
825.648	18038
825.787	18167
825.927	18041
826.067	18072
826.206	17988
826.346	18087
826.485	18148
826.625	18079
826.765	18178
826.904	18060
827.044	17741
827.183	17752
827.323	17699
827.462	17817
827.601	17665
827.741	17752
827.88	17779
828.02	17676
828.159	17756
828.298	17684
828.437	17817
828.577	17699
828.716	17863
828.855	17687
828.994	17493
829.134	17448
829.273	17570
829.412	17497
829.551	17296
829.69	17520
829.829	17532
829.968	17501
830.107	17505
830.246	17493
830.385	17337
830.524	17322
830.663	17349
830.802	17216
830.941	17113
831.08	17174
831.219	17159
831.357	17208
831.496	17322
831.635	17094
831.774	17006
831.913	16881
832.051	16835
832.19	16850
832.329	16923
832.467	16782
832.606	16660
832.744	16782
832.883	16740
833.022	16797
833.16	16752
833.299	16786
833.437	16828
833.576	16797
833.714	16911
833.852	16858
833.991	16824
834.129	16927
834.267	16934
834.406	16885
834.544	16915
834.682	16774
834.821	16763
834.959	16972
835.097	16816
835.235	16828
835.373	16866
835.511	16801
835.65	16660
835.788	16767
835.926	16630
836.064	16573
836.202	16531
836.34	16752
836.478	16755
836.615	16748
836.753	16645
836.891	16778
837.029	16683
837.167	16592
837.305	16561
837.443	16660
837.58	16599
837.718	16611
837.856	16698
837.993	16485
838.131	16660
838.269	16512
838.406	16500
838.544	16440
838.681	16329
838.819	16246
838.956	16109
839.094	16071
839.231	16226
839.369	16318
839.506	16451
839.643	16474
839.781	16097
839.918	15975
840.055	16105
840.193	16204
840.33	16048
840.467	16192
840.604	16101
840.742	16390
840.879	16078
841.016	15930
841.153	15998
841.29	16154
841.427	16166
841.564	16192
841.701	16101
841.838	16086
841.975	16078
842.112	16067
842.249	15991
842.385	15911
842.522	16029
842.659	15926
842.796	15918
842.933	15873
843.069	15778
843.206	15816
843.343	15972
843.479	15857
843.616	15945
843.752	15694
843.889	15663
844.025	15888
844.162	15622
844.298	15785
844.435	15599
844.571	15690
844.708	15747
844.844	15888
844.98	15808
845.117	15736
845.253	15629
845.389	15572
845.525	15595
845.661	15610
845.798	15591
845.934	15629
846.07	15504
846.206	15576
846.342	15766
846.478	15481
846.614	15325
846.75	15226
846.886	15184
847.022	15329
847.158	15230
847.294	15298
847.429	15283
847.565	15256
847.701	15523
847.837	14975
847.972	14933
848.108	15058
848.244	15055
848.379	14933
848.515	14891
848.65	14796
848.786	14853
848.921	14826
849.057	14918
849.192	14971
849.328	14910
849.463	14956
849.598	14872
849.734	14842
849.869	14754
850.004	14579
850.14	14773
850.275	14571
850.41	14564
850.545	14651
850.68	14651
850.815	14564
850.95	14640
851.085	14819
851.22	14762
851.355	14613
851.49	14594
851.625	14621
851.76	14644
851.895	14499
852.03	14488
852.165	14537
852.299	14705
852.434	14754
852.569	14750
852.703	14674
852.838	14735
852.973	14804
853.107	14834
853.242	14579
853.376	14564
853.511	14594
853.645	14480
853.78	14663
853.914	14575
854.048	14480
854.183	14469
854.317	14556
854.451	14708
854.585	14503
854.72	14560
854.854	14651
854.988	14317
855.122	14564
855.256	14419
855.39	14518
855.524	14610
855.658	14549
855.792	14530
855.926	14575
856.06	14602
856.194	14625
856.327	14545
856.461	14442
856.595	14465
856.729	14522
856.862	14552
856.996	14568
857.13	14568
857.263	14511
857.397	14629
857.53	14476
857.664	14754
857.797	14530
857.931	14651
858.064	14617
858.197	14651
858.331	14514
858.464	14457
858.597	14473
858.731	14552
858.864	14571
858.997	14545
859.13	14476
859.263	14480
859.396	14674
859.529	14499
859.662	14499
859.795	14484
859.928	14602
860.061	14659
860.194	14731
860.327	14488
860.46	14503
860.592	14602
860.725	14674
860.858	14610
860.99	14526
861.123	14415
861.256	14427
861.388	14518
861.521	15252
861.653	14473
861.786	14389
861.918	14377
862.05	14507
862.183	14412
862.315	14492
862.447	14541
862.58	14484
862.712	14358
862.844	14130
862.976	14393
863.108	14358
863.24	14724
863.372	14210
863.504	14351
863.636	14320
863.768	14389
863.9	14275
864.032	14161
864.164	14343
864.296	14328
864.428	14495
864.559	14320
864.691	14381
864.823	14358
864.954	14271
865.086	14313
865.217	14313
865.349	14172
865.48	14149
865.612	14252
865.743	14423
865.875	14282
866.006	14275
866.137	14309
866.269	14305
866.4	14244
866.531	14278
866.662	14244
866.793	14161
866.924	14218
867.055	14282
867.186	14290
867.317	14191
867.448	14161
867.579	14214
867.71	14240
867.841	14176
867.972	14123
868.103	14271
868.233	14423
868.364	14286
868.495	14332
868.625	14480
868.756	14583
868.886	14324
869.017	14568
869.147	14636
869.278	14670
869.408	14568
869.539	14526
869.669	14575
869.799	14545
869.929	14686
870.06	14571
870.19	14948
870.32	14773
870.45	14914
870.58	14914
870.71	14956
870.84	15039
870.97	14849
871.1	14834
871.23	14941
871.36	15142
871.489	15036
871.619	15165
871.749	15047
871.879	15188
872.008	15131
872.138	15062
872.267	15036
872.397	15043
872.526	15058
872.656	14956
872.785	14975
872.915	15150
873.044	15169
873.173	15180
873.303	15184
873.432	15199
873.561	15222
873.69	15108
873.819	15207
873.948	15230
874.077	15230
874.206	15131
874.335	15135
874.464	15397
874.593	15416
874.722	15477
874.851	15462
874.979	15412
875.108	15466
875.237	15348
875.365	15325
875.494	15420
875.623	15568
875.751	15447
875.88	15526
876.008	15576
876.136	15739
876.265	15972
876.393	16048
876.521	15991
876.65	15991
876.778	15911
876.906	15827
877.034	15838
877.162	15827
877.29	15781
877.418	15804
877.546	15895
877.674	15892
877.802	15827
877.93	16006
878.058	15831
878.185	15717
878.313	15854
878.441	15903
878.568	15808
878.696	15797
878.824	15861
878.951	15960
879.079	16029
879.206	16268
879.333	16067
879.461	15918
879.588	16006
879.715	16067
879.842	16249
879.97	16002
880.097	15781
880.224	15736
880.351	15816
880.478	15679
880.605	15751
880.732	15732
880.859	15945
880.986	15755
881.112	15694
881.239	15637
881.366	15447
881.493	15359
881.619	15310
881.746	15458
881.872	15492
881.999	15431
882.125	15386
882.252	15504
882.378	15481
882.505	15534
882.631	15336
882.757	15317
882.883	15241
883.01	15344
883.136	15203
883.262	15051
883.388	15119
883.514	15173
883.64	15275
883.766	15108
883.892	15051
884.018	15097
884.143	15180
884.269	15264
884.395	14994
884.52	14819
884.646	14918
884.772	14849
884.897	14834
885.023	14937
885.148	15043
885.274	15150
885.399	15058
885.524	14857
885.65	14956
885.775	14979
885.9	14918
886.025	15055
886.15	15005
886.275	14929
886.4	14823
886.525	14823
886.65	14830
886.775	14746
886.9	14986
887.025	15157
887.149	14910
887.274	14838
887.399	14670
887.523	14746
887.648	14667
887.773	14689
887.897	14807
888.021	14796
888.146	14743
888.27	14678
888.395	14804
888.519	14727
888.643	14857
888.767	14921
888.891	14579
889.015	14606
889.139	14678
889.263	14480
889.387	14712
889.511	14792
889.635	14682
889.759	14610
889.883	14511
890.006	14590
890.13	14678
890.254	14503
890.377	14575
890.501	14339
890.624	14298
890.748	14465
890.871	14423
890.995	14290
891.118	14187
891.241	14256
891.364	14244
891.488	14404
891.611	14275
891.734	14263
891.857	14355
891.98	14366
892.103	14385
892.226	14351
892.349	14263
892.471	14138
892.594	14256
892.717	14237
892.839	14180
892.962	14298
893.085	14408
893.207	14336
893.33	14088
893.452	14191
893.575	14374
893.697	14218
893.819	14450
893.941	14648
894.064	14507
894.186	14210
894.308	14263
894.43	14408
894.552	14465
894.674	14400
894.796	14278
894.918	14362
895.04	14301
895.161	14469
895.283	14412
895.405	14328
895.526	14355
895.648	14309
895.769	14393
895.891	14396
896.012	14476
896.134	14454
896.255	14473
896.376	14385
896.498	14419
896.619	14503
896.74	14446
896.861	14499
896.982	14746
897.103	14941
897.224	14758
897.345	14693
897.466	14613
897.587	14674
897.708	14796
897.828	14724
897.949	14617
898.07	14617
898.19	14697
898.311	14861
898.431	14686
898.552	14765
898.672	14891
898.792	14906
898.913	14819
899.033	14686
899.153	14659
899.273	14476
899.393	14655
899.513	14667
899.633	14769
899.753	14659
899.873	14613
899.993	14651
900.113	14621
900.232	14746
900.352	14499
900.472	14621
900.591	14545
900.711	14575
900.83	14469
900.95	14610
901.069	14629
901.189	14503
901.308	14298
901.427	14103
901.546	14176
901.665	14183
901.784	14252
901.904	14180
902.023	14035
902.141	13830
902.26	13769
902.379	13841
902.498	13784
902.617	13784
902.735	13769
902.854	13750
902.973	13670
903.091	13567
903.21	13495
903.328	13346
903.446	13388
903.565	13266
903.683	13377
903.801	13266
903.919	13373
904.038	13240
904.156	13122
904.274	13202
904.392	13118
904.51	13015
904.627	13137
904.745	13126
904.863	13217
904.981	12962
905.098	12871
905.216	12844
905.334	12966
905.451	12772
905.569	12856
905.686	12939
905.803	12768
905.921	12627
906.038	12741
906.155	12692
906.272	12475
906.389	12589
906.506	12395
906.623	12410
906.74	12464
906.857	12285
906.974	12327
907.091	12426
907.208	12521
907.324	12407
907.441	12342
907.557	12186
907.674	12098
907.79	12087
907.907	12133
908.023	12270
908.139	12171
908.256	12175
908.372	12060
908.488	12034
908.604	11836
908.72	11931
908.836	11920
908.952	11859
909.068	11935
909.184	12053
909.3	11836
909.415	12003
909.531	11893
909.647	11710
909.762	11703
909.878	11668
909.993	11638
910.108	11695
910.224	11676
910.339	11672
910.454	11577
910.57	11493
910.685	11482
910.8	11737
910.915	11710
911.03	11539
911.145	11406
911.259	11360
911.374	11364
911.489	11277
911.604	11223
911.718	11090
911.833	11132
911.947	10995
912.062	10908
912.176	11090
912.291	11223
912.405	11223
912.519	11414
912.633	11258
912.748	11170
912.862	11189
912.976	10976
913.09	10900
913.204	10984
913.318	11010
913.431	11117
913.545	11117
913.659	11083
913.772	11033
913.886	10953
914	10847
914.113	10953
914.226	11056
914.34	10957
914.453	10755
914.566	11010
914.68	10801
914.793	10923
914.906	10565
915.019	10588
915.132	10535
915.245	10660
915.358	10649
915.47	10618
915.583	10672
915.696	10656
915.809	10797
915.921	10896
916.034	10637
916.146	10538
916.259	10645
916.371	10733
916.483	10683
916.595	10504
916.708	10588
916.82	10508
916.932	10588
917.044	10584
917.156	10584
917.268	10447
917.38	10485
917.491	10443
917.603	10462
917.715	10573
917.826	10561
917.938	10489
918.049	10367
918.161	10451
918.272	10569
918.384	10599
918.495	10451
918.606	10352
918.717	10291
918.828	10318
918.939	10333
919.05	10249
919.161	10295
919.272	10181
919.383	10265
919.494	10413
919.604	10634
919.715	10443
919.826	10348
919.936	10375
920.047	10474
920.157	10360
920.267	10512
920.378	10413
920.488	10390
920.598	10660
920.708	10729
920.818	10615
920.928	10672
921.038	10755
921.148	10710
921.258	10459
921.368	10394
921.477	10196
921.587	10204
921.697	10131
921.806	10291
921.916	10093
922.025	9911
922.134	9949
922.244	9899
922.353	10010
922.462	9823
922.571	9740
922.68	9656
922.789	9614
922.898	9667
923.007	9545
923.116	9686
923.224	9587
923.333	9599
923.442	9549
923.55	9492
923.659	9542
923.767	9545
923.876	9519
923.984	9584
924.092	9424
924.201	9519
924.309	9538
924.417	9523
924.525	9374
924.633	9416
924.741	10265
924.849	9294
924.956	9420
925.064	9253
925.172	9207
925.279	9157
925.387	9249
925.494	9214
925.602	9336
925.709	9378
925.816	9226
925.924	9253
926.031	9355
926.138	9230
926.245	9321
926.352	9214
926.459	9287
926.566	9310
926.673	9260
926.779	9195
926.886	9142
926.993	9039
927.099	8929
927.206	8921
927.312	8910
927.419	9028
927.525	8906
927.631	8994
927.737	8937
927.843	8918
927.95	8826
928.056	8849
928.162	8883
928.267	8910
928.373	9454
928.479	9009
928.585	8800
928.69	8762
928.796	8826
928.901	8819
929.007	8686
929.112	8746
929.218	8735
929.323	8739
929.428	8659
929.533	8861
929.638	8625
929.743	8716
929.848	8754
929.953	8712
930.058	8602
930.163	8465
930.267	8511
930.372	8575
930.477	8412
930.581	8632
930.685	8549
930.79	8347
930.894	8503
930.998	8370
931.103	8549
931.207	8195
931.311	8123
931.415	8001
931.519	7860
931.623	7856
