Data from test_V78500241_126.txt Node
Date: Fri Mar 25 14:34:36 CST 2022
User: usil
Spectrometer: V785-0024
Trigger mode: 0
Integration Time (sec): 4.000000E-1
Scans to average: 1
Nonlinearity correction enabled: false
Boxcar width: 0
Storing dark spectrum: false
XAxis mode: Wavelengths
Number of Pixels in Spectrum: 1024
>>>>>Begin Spectral Data<<<<<
801.071	30030
801.214	29748
801.356	29756
801.499	29539
801.641	29482
801.783	29509
801.926	29455
802.068	29440
802.211	29349
802.353	29383
802.496	29159
802.638	29151
802.78	29079
802.923	29162
803.065	29037
803.208	29083
803.35	29048
803.492	29246
803.635	29349
803.777	29261
803.919	29288
804.061	29722
804.204	29421
804.346	29345
804.488	29231
804.63	29406
804.773	29200
804.915	29570
805.057	29741
805.199	29474
805.341	29760
805.483	29756
805.626	29748
805.768	29783
805.91	29912
806.052	30018
806.194	30034
806.336	30380
806.478	30369
806.62	30426
806.762	30806
806.904	31050
807.046	31689
807.188	31818
807.33	32005
807.472	32701
807.614	33089
807.756	33831
807.898	34504
808.04	35832
808.182	37187
808.324	39332
808.465	41706
808.607	44244
808.749	46143
808.891	47596
809.033	47661
809.174	46310
809.316	44183
809.458	41516
809.6	38697
809.741	36909
809.883	35360
810.025	34287
810.166	33405
810.308	32826
810.45	32252
810.591	31734
810.733	31422
810.875	31133
811.016	30795
811.158	30791
811.299	30913
811.441	30669
811.582	30658
811.724	30201
811.865	30334
812.007	30106
812.148	30216
812.29	30243
812.431	30205
812.573	30365
812.714	30262
812.855	30353
812.997	30403
813.138	30635
813.279	30498
813.421	30410
813.562	30129
813.703	30041
813.845	29851
813.986	29452
814.127	29341
814.268	29166
814.41	29326
814.551	29197
814.692	29223
814.833	29041
814.974	29067
815.115	29090
815.256	28824
815.397	28908
815.539	28820
815.68	28812
815.821	28653
815.962	28763
816.103	28634
816.244	28554
816.385	28508
816.526	28215
816.666	28234
816.807	28059
816.948	28124
817.089	28131
817.23	28002
817.371	27975
817.512	28059
817.653	28021
817.793	27823
817.934	27983
818.075	27884
818.216	27869
818.356	27812
818.497	27789
818.638	27610
818.778	27682
818.919	27755
819.06	27694
819.2	27728
819.341	27857
819.481	27884
819.622	28048
819.762	28131
819.903	27903
820.043	27998
820.184	27816
820.324	27922
820.465	27888
820.605	27869
820.746	27732
820.886	27675
821.026	27842
821.167	27686
821.307	27781
821.447	27469
821.588	27542
821.728	27283
821.868	27131
822.008	27017
822.149	27123
822.289	26990
822.429	26773
822.569	26826
822.709	26693
822.849	26590
822.99	26708
823.13	26366
823.27	26469
823.41	26202
823.55	26271
823.69	26225
823.83	26248
823.97	26119
824.11	25928
824.25	26081
824.389	26016
824.529	26134
824.669	26001
824.809	26039
824.949	25989
825.089	26092
825.228	26050
825.368	25814
825.508	25871
825.648	25887
825.787	25746
825.927	25944
826.067	25791
826.206	25795
826.346	25822
826.485	25879
826.625	25723
826.765	25978
826.904	25856
827.044	25586
827.183	25643
827.323	25350
827.462	25540
827.601	25479
827.741	25537
827.88	25655
828.02	25263
828.159	25460
828.298	25468
828.437	25430
828.577	25362
828.716	25438
828.855	25266
828.994	25255
829.134	25145
829.273	25202
829.412	25126
829.551	25072
829.69	25202
829.829	25103
829.968	25164
830.107	25194
830.246	25072
830.385	25057
830.524	24992
830.663	24920
830.802	24947
830.941	24863
831.08	24757
831.219	24730
831.357	24806
831.496	24970
831.635	24741
831.774	24719
831.913	24498
832.051	24429
832.19	24452
832.329	24498
832.467	24502
832.606	24441
832.744	24513
832.883	24509
833.022	24528
833.16	24631
833.299	24776
833.437	24817
833.576	24924
833.714	24947
833.852	25133
833.991	25301
834.129	25289
834.267	25365
834.406	25198
834.544	25194
834.682	25110
834.821	24966
834.959	25057
835.097	24639
835.235	24837
835.373	24574
835.511	24635
835.65	24224
835.788	24460
835.926	24114
836.064	24060
836.202	23973
836.34	24091
836.478	24414
836.615	24110
836.753	24129
836.891	24209
837.029	24159
837.167	24121
837.305	24049
837.443	24053
837.58	23901
837.718	24011
837.856	23984
837.993	23813
838.131	23851
838.269	23756
838.406	23904
838.544	23703
838.681	23570
838.819	23543
838.956	23463
839.094	23200
839.231	23372
839.369	23493
839.506	23756
839.643	23452
839.781	23239
839.918	23269
840.055	23261
840.193	23239
840.33	23025
840.467	23212
840.604	23292
840.742	23436
840.879	23136
841.016	23006
841.153	23094
841.29	23349
841.427	23231
841.564	23204
841.701	23216
841.838	23052
841.975	22953
842.112	23128
842.249	23056
842.385	22946
842.522	23105
842.659	23025
842.796	23162
842.933	23067
843.069	22995
843.206	22953
843.343	23200
843.479	23006
843.616	22904
843.752	22980
843.889	23022
844.025	23102
844.162	22930
844.298	23113
844.435	23147
844.571	23242
844.708	23554
844.844	24045
844.98	24285
845.117	24661
845.253	25346
845.389	26773
845.525	29395
845.661	33930
845.798	38960
845.934	42985
846.07	44533
846.206	43575
846.342	40013
846.478	34744
846.614	30144
846.75	27104
846.886	25510
847.022	24330
847.158	23665
847.294	23239
847.429	22991
847.565	22755
847.701	22858
847.837	22265
847.972	22322
848.108	22124
848.244	22139
848.379	22074
848.515	21846
848.65	21876
848.786	21930
848.921	21884
849.057	21873
849.192	21873
849.328	21762
849.463	21770
849.598	21724
849.734	21701
849.869	21618
850.004	21435
850.14	21526
850.275	21473
850.41	21485
850.545	21359
850.68	21389
850.815	21450
850.95	21462
851.085	21572
851.22	21507
851.355	21439
851.49	21450
851.625	21420
851.76	21477
851.895	21340
852.03	21279
852.165	21496
852.299	21496
852.434	21553
852.569	21507
852.703	21557
852.838	21507
852.973	21595
853.107	21500
853.242	21466
853.376	21454
853.511	21313
853.645	21420
853.78	21561
853.914	21542
854.048	21534
854.183	21526
854.317	21625
854.451	21671
854.585	21629
854.72	21492
854.854	21641
854.988	21367
855.122	21397
855.256	21272
855.39	21275
855.524	21458
855.658	21466
855.792	21268
855.926	21302
856.06	21310
856.194	21386
856.327	21241
856.461	21138
856.595	21268
856.729	21176
856.862	21294
856.996	21184
857.13	21268
857.263	21287
857.397	21370
857.53	21180
857.664	21188
857.797	21260
857.931	21241
858.064	21089
858.197	21199
858.331	21051
858.464	20986
858.597	20963
858.731	21180
858.864	20963
858.997	21081
859.13	21043
859.263	21135
859.396	21123
859.529	20998
859.662	20952
859.795	20944
859.928	21047
860.061	21211
860.194	21287
860.327	20986
860.46	20990
860.592	21070
860.725	21291
860.858	21116
860.99	21043
861.123	20792
861.256	20982
861.388	20910
861.521	21690
861.653	20960
861.786	20853
861.918	21096
862.05	20986
862.183	21062
862.315	21055
862.447	21116
862.58	21024
862.712	20838
862.844	20807
862.976	20963
863.108	20796
863.24	21116
863.372	20667
863.504	20746
863.636	20807
863.768	20765
863.9	20712
864.032	20720
864.164	20583
864.296	20731
864.428	20731
864.559	20712
864.691	20804
864.823	20781
864.954	20663
865.086	20670
865.217	20655
865.349	20473
865.48	20564
865.612	20488
865.743	20716
865.875	20484
866.006	20678
866.137	20617
866.269	20606
866.4	20579
866.531	20480
866.662	20400
866.793	20514
866.924	20431
867.055	20450
867.186	20511
867.317	20488
867.448	20446
867.579	20533
867.71	20404
867.841	20511
867.972	20465
868.103	20549
868.233	20484
868.364	20594
868.495	20621
868.625	20693
868.756	20830
868.886	20724
869.017	20838
869.147	20796
869.278	20773
869.408	20796
869.539	20765
869.669	20815
869.799	20872
869.929	20842
870.06	20834
870.19	21173
870.32	21100
870.45	21283
870.58	21169
870.71	21275
870.84	21222
870.97	21245
871.1	21291
871.23	21424
871.36	21416
871.489	21420
871.619	21428
871.749	21511
871.879	21488
872.008	21496
872.138	21538
872.267	21515
872.397	21363
872.526	21332
872.656	21256
872.785	21351
872.915	21572
873.044	21610
873.173	21553
873.303	21648
873.432	21633
873.561	21656
873.69	21709
873.819	21667
873.948	21774
874.077	21747
874.206	21663
874.335	21797
874.464	21934
874.593	22067
874.722	22139
874.851	22067
874.979	22185
875.108	22131
875.237	22082
875.365	22082
875.494	22169
875.623	22246
875.751	22276
875.88	22322
876.008	22421
876.136	22565
876.265	22702
876.393	22881
876.521	22885
876.65	22957
876.778	23018
876.906	23006
877.034	22930
877.162	23044
877.29	23117
877.418	23067
877.546	23166
877.674	23296
877.802	23387
877.93	23558
878.058	23554
878.185	23535
878.313	23969
878.441	24186
878.568	24525
878.696	24882
878.824	25571
878.951	26393
879.079	27618
879.206	29258
879.333	30848
879.461	32050
879.588	33013
879.715	32929
879.842	32362
879.97	30924
880.097	29181
880.224	27914
880.351	27047
880.478	26320
880.605	25898
880.732	25643
880.859	25655
880.986	25259
881.112	25221
881.239	25183
881.366	24985
881.493	24943
881.619	24772
881.746	24821
881.872	24753
881.999	24776
882.125	24734
882.252	24916
882.378	24886
882.505	24981
882.631	24875
882.757	24700
882.883	24741
883.01	24722
883.136	24719
883.262	24665
883.388	24612
883.514	24639
883.64	24631
883.766	24528
883.892	24369
884.018	24441
884.143	24631
884.269	24608
884.395	24388
884.52	24289
884.646	24300
884.772	24357
884.897	24308
885.023	24281
885.148	24517
885.274	24380
885.399	24262
885.524	24133
885.65	24083
885.775	23992
885.9	23798
886.025	23855
886.15	23718
886.275	23543
886.4	23326
886.525	23360
886.65	23166
886.775	23102
886.9	23204
887.025	23170
887.149	22805
887.274	22744
887.399	22440
887.523	22348
887.648	22390
887.773	22143
887.897	22310
888.021	22360
888.146	22177
888.27	22226
888.395	22223
888.519	22150
888.643	22010
888.767	21960
888.891	21838
889.015	21713
889.139	21656
889.263	21637
889.387	21690
889.511	21854
889.635	21736
889.759	21534
889.883	21576
890.006	21587
890.13	21549
890.254	21443
890.377	21367
890.501	21233
890.624	21165
890.748	21230
890.871	21009
890.995	20876
891.118	20883
891.241	20967
891.364	20910
891.488	20918
891.611	20849
891.734	20773
891.857	20853
891.98	20743
892.103	20720
892.226	20686
892.349	20609
892.471	20404
892.594	20575
892.717	20530
892.839	20579
892.962	20545
893.085	20507
893.207	20522
893.33	20202
893.452	20381
893.575	20412
893.697	20366
893.819	20507
893.941	20602
894.064	20495
894.186	20294
894.308	20252
894.43	20355
894.552	20358
894.674	20290
894.796	20126
894.918	20256
895.04	20111
895.161	20096
895.283	20225
895.405	20172
895.526	20142
895.648	20100
895.769	20187
895.891	20039
896.012	20229
896.134	20103
896.255	20084
896.376	19955
896.498	20065
896.619	20138
896.74	20145
896.861	20092
896.982	20332
897.103	20514
897.224	20336
897.345	20332
897.466	20248
897.587	20358
897.708	20294
897.828	20317
897.949	20096
898.07	20180
898.19	20153
898.311	20275
898.431	20161
898.552	20214
898.672	20286
898.792	20256
898.913	20168
899.033	20054
899.153	19989
899.273	19814
899.393	19944
899.513	19940
899.633	19978
899.753	19947
899.873	19811
899.993	19894
900.113	19841
900.232	19871
900.352	19814
900.472	19772
900.591	19521
900.711	19670
900.83	19605
900.95	19841
901.069	19734
901.189	19487
901.308	19434
901.427	19297
901.546	19304
901.665	19365
901.784	19152
901.904	19137
902.023	19023
902.141	18837
902.26	18798
902.379	18825
902.498	18650
902.617	18635
902.735	18703
902.854	18566
902.973	18483
903.091	18342
903.21	18388
903.328	18277
903.446	18247
903.565	18155
903.683	18117
903.801	18087
903.919	17996
904.038	18117
904.156	17897
904.274	17870
904.392	17779
904.51	17851
904.627	17756
904.745	17866
904.863	17920
904.981	17672
905.098	17604
905.216	17490
905.334	17467
905.451	17474
905.569	17395
905.686	17425
905.803	17398
905.921	17223
906.038	17254
906.155	17265
906.272	17220
906.389	17132
906.506	16892
906.623	16995
906.74	17006
906.857	16793
906.974	16885
907.091	16991
907.208	17090
907.324	16915
907.441	16866
907.557	16656
907.674	16668
907.79	16550
907.907	16634
908.023	16622
908.139	16558
908.256	16592
908.372	16489
908.488	16535
908.604	16382
908.72	16249
908.836	16382
908.952	16337
909.068	16314
909.184	16348
909.3	16341
909.415	16341
909.531	16360
909.647	16071
909.762	16010
909.878	16036
909.993	16051
910.108	16006
910.224	15998
910.339	16025
910.454	15873
910.57	15884
910.685	15800
910.8	16067
910.915	15918
911.03	15751
911.145	15705
911.259	15625
911.374	15675
911.489	15511
911.604	15534
911.718	15367
911.833	15511
911.947	15321
912.062	15260
912.176	15336
912.291	15268
912.405	15325
912.519	15599
912.633	15500
912.748	15336
912.862	15405
912.976	15233
913.09	15085
913.204	15192
913.318	15157
913.431	15226
913.545	15218
913.659	15382
913.772	15108
913.886	15036
914	14921
914.113	15150
914.226	15074
914.34	15020
914.453	14895
914.566	15066
914.68	14864
914.793	14769
914.906	14724
915.019	14632
915.132	14674
915.245	14651
915.358	14701
915.47	14777
915.583	14629
915.696	14693
915.809	14773
915.921	14735
916.034	14625
916.146	14583
916.259	14514
916.371	14716
916.483	14613
916.595	14461
916.708	14530
916.82	14571
916.932	14568
917.044	14492
917.156	14488
917.268	14332
917.38	14404
917.491	14305
917.603	14362
917.715	14362
917.826	14450
917.938	14218
918.049	14206
918.161	14286
918.272	14358
918.384	14347
918.495	14218
918.606	14088
918.717	14043
918.828	13982
918.939	14111
919.05	13906
919.161	14043
919.272	13894
919.383	13967
919.494	14115
919.604	14096
919.715	14005
919.826	13928
919.936	13959
920.047	14077
920.157	13974
920.267	14187
920.378	13989
920.488	13932
920.598	14073
920.708	14229
920.818	14046
920.928	14081
921.038	14336
921.148	14244
921.258	13894
921.368	13811
921.477	13757
921.587	13624
921.697	13578
921.806	13704
921.916	13559
922.025	13403
922.134	13407
922.244	13289
922.353	13411
922.462	13145
922.571	13118
922.68	12932
922.789	13046
922.898	13057
923.007	12985
923.116	12981
923.224	12943
923.333	13004
923.442	12844
923.55	12776
923.659	12802
923.767	12916
923.876	12700
923.984	12787
924.092	12726
924.201	12719
924.309	12745
924.417	12665
924.525	12684
924.633	12563
924.741	13594
924.849	12574
924.956	12578
925.064	12536
925.172	12422
925.279	12422
925.387	12365
925.494	12471
925.602	12532
925.709	12399
925.816	12338
925.924	12327
926.031	12490
926.138	12380
926.245	12376
926.352	12232
926.459	12342
926.566	12395
926.673	12315
926.779	12114
926.886	12201
926.993	12011
927.099	12106
927.206	11912
927.312	11908
927.419	12076
927.525	12057
927.631	12068
927.737	11821
927.843	11824
927.95	11855
928.056	11748
928.162	11897
928.267	11939
928.373	12395
928.479	11916
928.585	11748
928.69	11809
928.796	11813
928.901	11691
929.007	11543
929.112	11657
929.218	11653
929.323	11600
929.428	11509
929.533	11668
929.638	11570
929.743	11452
929.848	11543
929.953	11444
930.058	11368
930.163	11181
930.267	11208
930.372	11406
930.477	11246
930.581	11406
930.685	11223
930.79	11079
930.894	11037
930.998	11121
931.103	11246
931.207	10908
931.311	10809
931.415	10698
931.519	10554
931.623	10421
