Data from test_V78500241_3463.txt Node
Date: Fri Mar 25 14:57:49 CST 2022
User: usil
Spectrometer: V785-0024
Trigger mode: 0
Integration Time (sec): 4.000000E-1
Scans to average: 1
Nonlinearity correction enabled: false
Boxcar width: 0
Storing dark spectrum: false
XAxis mode: Wavelengths
Number of Pixels in Spectrum: 1024
>>>>>Begin Spectral Data<<<<<
801.071	21911
801.214	21797
801.356	21690
801.499	21492
801.641	21340
801.783	21245
801.926	21340
802.068	21298
802.211	21104
802.353	21150
802.496	20811
802.638	20845
802.78	20716
802.923	20632
803.065	20590
803.208	20594
803.35	20587
803.492	20686
803.635	20705
803.777	20583
803.919	20655
804.061	21017
804.204	20503
804.346	20526
804.488	20381
804.63	20457
804.773	20393
804.915	20533
805.057	20594
805.199	20507
805.341	20537
805.483	20537
805.626	20575
805.768	20492
805.91	20503
806.052	20587
806.194	20385
806.336	20667
806.478	20526
806.62	20358
806.762	20629
806.904	20648
807.046	20918
807.188	20906
807.33	20781
807.472	20849
807.614	20785
807.756	20750
807.898	20568
808.04	20442
808.182	20495
808.324	20522
808.465	20640
808.607	20762
808.749	20716
808.891	20982
809.033	20925
809.174	20883
809.316	20750
809.458	20891
809.6	20724
809.741	20864
809.883	20891
810.025	20834
810.166	21001
810.308	21001
810.45	20834
810.591	20754
810.733	20712
810.875	20511
811.016	20716
811.158	20492
811.299	20609
811.441	20697
811.582	20830
811.724	20587
811.865	20701
812.007	20518
812.148	20602
812.29	20648
812.431	20765
812.573	20914
812.714	21055
812.855	21142
812.997	21176
813.138	21420
813.279	21176
813.421	21043
813.562	21066
813.703	20944
813.845	20693
813.986	20492
814.127	20252
814.268	20282
814.41	20206
814.551	20164
814.692	20168
814.833	20077
814.974	20210
815.115	20199
815.256	19932
815.397	19947
815.539	20008
815.68	19940
815.821	19898
815.962	19947
816.103	19898
816.244	19639
816.385	19632
816.526	19499
816.666	19403
816.807	19255
816.948	19415
817.089	19335
817.23	19297
817.371	19377
817.512	19240
817.653	19225
817.793	19187
817.934	19301
818.075	19339
818.216	19270
818.356	19190
818.497	19190
818.638	18901
818.778	18996
818.919	18920
819.06	18977
819.2	19137
819.341	19168
819.481	19255
819.622	19274
819.762	19491
819.903	19460
820.043	19308
820.184	19301
820.324	19251
820.465	19164
820.605	19160
820.746	19232
820.886	19122
821.026	19217
821.167	19198
821.307	19278
821.447	19225
821.588	19152
821.728	18981
821.868	18867
822.008	18604
822.149	18620
822.289	18620
822.429	18429
822.569	18262
822.709	18270
822.849	18232
822.99	18174
823.13	18216
823.27	18098
823.41	17996
823.55	17927
823.69	17927
823.83	18072
823.97	17946
824.11	17756
824.25	17745
824.389	17745
824.529	17908
824.669	17729
824.809	17756
824.949	17851
825.089	17885
825.228	17699
825.368	17490
825.508	17497
825.648	17490
825.787	17642
825.927	17577
826.067	17433
826.206	17486
826.346	17505
826.485	17463
826.625	17516
826.765	17638
826.904	17532
827.044	17239
827.183	17273
827.323	17193
827.462	17303
827.601	17269
827.741	17102
827.88	17178
828.02	17140
828.159	17113
828.298	17227
828.437	17292
828.577	17124
828.716	17307
828.855	17185
828.994	17025
829.134	16938
829.273	16987
829.412	16923
829.551	16953
829.69	16965
829.829	16995
829.968	17056
830.107	16965
830.246	16877
830.385	17014
830.524	16885
830.663	16713
830.802	16702
830.941	16599
831.08	16584
831.219	16630
831.357	16569
831.496	16869
831.635	16649
831.774	16588
831.913	16550
832.051	16421
832.19	16413
832.329	16409
832.467	16265
832.606	16230
832.744	16238
832.883	16284
833.022	16291
833.16	16265
833.299	16386
833.437	16405
833.576	16356
833.714	16287
833.852	16432
833.991	16379
834.129	16436
834.267	16329
834.406	16303
834.544	16432
834.682	16348
834.821	16310
834.959	16485
835.097	16341
835.235	16500
835.373	16432
835.511	16428
835.65	16219
835.788	16276
835.926	16257
836.064	16055
836.202	16147
836.34	16325
836.478	16356
836.615	16166
836.753	16314
836.891	16428
837.029	16375
837.167	16257
837.305	16246
837.443	16162
837.58	15987
837.718	16211
837.856	16211
837.993	16082
838.131	16215
838.269	16017
838.406	16124
838.544	16082
838.681	15922
838.819	15892
838.956	15759
839.094	15660
839.231	15808
839.369	15941
839.506	16013
839.643	15934
839.781	15736
839.918	15698
840.055	15690
840.193	15698
840.33	15808
840.467	15675
840.604	15610
840.742	15987
840.879	15629
841.016	15542
841.153	15660
841.29	15842
841.427	15778
841.564	15759
841.701	15747
841.838	15781
841.975	15690
842.112	15629
842.249	15515
842.385	15523
842.522	15732
842.659	15538
842.796	15416
842.933	15439
843.069	15504
843.206	15545
843.343	15625
843.479	15580
843.616	15576
843.752	15370
843.889	15268
844.025	15412
844.162	15188
844.298	15424
844.435	15298
844.571	15260
844.708	15332
844.844	15500
844.98	15348
845.117	15359
845.253	15211
845.389	15104
845.525	15252
845.661	15100
845.798	14952
845.934	15051
846.07	15123
846.206	15135
846.342	15097
846.478	15195
846.614	14872
846.75	14929
846.886	14834
847.022	14990
847.158	14937
847.294	14895
847.429	14933
847.565	14861
847.701	15043
847.837	14640
847.972	14587
848.108	14739
848.244	14598
848.379	14522
848.515	14488
848.65	14469
848.786	14461
848.921	14408
849.057	14632
849.192	14461
849.328	14495
849.463	14454
849.598	14423
849.734	14412
849.869	14358
850.004	14320
850.14	14377
850.275	14218
850.41	14191
850.545	14199
850.68	14221
850.815	14271
850.95	14168
851.085	14366
851.22	14358
851.355	14328
851.49	14244
851.625	14183
851.76	14366
851.895	14168
852.03	14077
852.165	14225
852.299	14214
852.434	14305
852.569	14271
852.703	14221
852.838	14362
852.973	14431
853.107	14320
853.242	14271
853.376	14092
853.511	14043
853.645	14012
853.78	14164
853.914	14092
854.048	14119
854.183	14142
854.317	14103
854.451	14218
854.585	14096
854.72	14084
854.854	14138
854.988	14058
855.122	14157
855.256	13932
855.39	14035
855.524	14176
855.658	14092
855.792	14161
855.926	14168
856.06	14187
856.194	14233
856.327	14172
856.461	13967
856.595	14115
856.729	14005
856.862	14142
856.996	14096
857.13	14153
857.263	14130
857.397	14263
857.53	14115
857.664	14138
857.797	14161
857.931	14218
858.064	14062
858.197	14256
858.331	14138
858.464	14054
858.597	13986
858.731	14107
858.864	14107
858.997	14058
859.13	14145
859.263	14164
859.396	14157
859.529	14039
859.662	14115
859.795	14084
859.928	14081
860.061	14309
860.194	14267
860.327	14081
860.46	14176
860.592	14229
860.725	14256
860.858	14134
860.99	14130
861.123	14046
861.256	14115
861.388	14058
861.521	14792
861.653	14054
861.786	13909
861.918	14012
862.05	14062
862.183	14084
862.315	14077
862.447	14244
862.58	14012
862.712	13868
862.844	13780
862.976	13970
863.108	13951
863.24	14332
863.372	13803
863.504	13852
863.636	13883
863.768	13974
863.9	13974
864.032	13841
864.164	13864
864.296	13837
864.428	14035
864.559	13959
864.691	13967
864.823	13955
864.954	13959
865.086	13936
865.217	13887
865.349	13890
865.48	13932
865.612	13932
865.743	13993
865.875	13795
866.006	13852
866.137	13860
866.269	13784
866.4	13890
866.531	13875
866.662	13845
866.793	13963
866.924	13776
867.055	13845
867.186	13887
867.317	13928
867.448	13693
867.579	13772
867.71	13784
867.841	13868
867.972	13852
868.103	13890
868.233	13917
868.364	13875
868.495	13955
868.625	14073
868.756	14233
868.886	14092
869.017	14164
869.147	14221
869.278	14305
869.408	14103
869.539	14187
869.669	14244
869.799	14199
869.929	14256
870.06	14225
870.19	14412
870.32	14480
870.45	14556
870.58	14583
870.71	14579
870.84	14708
870.97	14530
871.1	14522
871.23	14777
871.36	14811
871.489	14674
871.619	14682
871.749	14678
871.879	14815
872.008	14872
872.138	14693
872.267	14746
872.397	14610
872.526	14522
872.656	14503
872.785	14625
872.915	14815
873.044	14906
873.173	14670
873.303	14849
873.432	14750
873.561	14857
873.69	14792
873.819	14739
873.948	14872
874.077	14765
874.206	14746
874.335	14811
874.464	14925
874.593	15085
874.722	15066
874.851	15157
874.979	15169
875.108	15203
875.237	15062
875.365	15047
875.494	15176
875.623	15150
875.751	15058
875.88	15157
876.008	15226
876.136	15268
876.265	15538
876.393	15610
876.521	15660
876.65	15629
876.778	15557
876.906	15542
877.034	15466
877.162	15496
877.29	15363
877.418	15557
877.546	15553
877.674	15477
877.802	15557
877.93	15523
878.058	15462
878.185	15428
878.313	15439
878.441	15530
878.568	15450
878.696	15408
878.824	15504
878.951	15587
879.079	15682
879.206	15800
879.333	15652
879.461	15610
879.588	15682
879.715	15755
879.842	15884
879.97	15595
880.097	15405
880.224	15340
880.351	15306
880.478	15428
880.605	15336
880.732	15351
880.859	15622
880.986	15420
881.112	15386
881.239	15283
881.366	15188
881.493	15119
881.619	14956
881.746	15150
881.872	14982
881.999	15097
882.125	14937
882.252	15074
882.378	15066
882.505	15127
882.631	15009
882.757	14788
882.883	14956
883.01	15001
883.136	14788
883.262	14743
883.388	14739
883.514	14872
883.64	14868
883.766	14823
883.892	14746
884.018	14689
884.143	14876
884.269	14910
884.395	14590
884.52	14514
884.646	14564
884.772	14499
884.897	14488
885.023	14507
885.148	14659
885.274	14750
885.399	14556
885.524	14518
885.65	14587
885.775	14594
885.9	14606
886.025	14693
886.15	14648
886.275	14598
886.4	14473
886.525	14533
886.65	14606
886.775	14518
886.9	14621
887.025	14731
887.149	14587
887.274	14396
887.399	14385
887.523	14339
887.648	14339
887.773	14328
887.897	14492
888.021	14442
888.146	14320
888.27	14503
888.395	14606
888.519	14469
888.643	14431
888.767	14484
888.891	14305
889.015	14252
889.139	14278
889.263	14313
889.387	14282
889.511	14404
889.635	14393
889.759	14278
889.883	14199
890.006	14252
890.13	14305
890.254	14191
890.377	14187
890.501	14111
890.624	14062
890.748	14210
890.871	13955
890.995	13894
891.118	13917
891.241	14035
891.364	13925
891.488	14084
891.611	13951
891.734	13944
891.857	14092
891.98	13967
892.103	13993
892.226	14024
892.349	13982
892.471	13871
892.594	13837
892.717	13989
892.839	13925
892.962	13959
893.085	14008
893.207	14035
893.33	13856
893.452	13963
893.575	13970
893.697	13989
893.819	14123
893.941	14195
894.064	14096
894.186	13898
894.308	13856
894.43	14084
894.552	14107
894.674	14088
894.796	13970
894.918	14035
895.04	13928
895.161	14134
895.283	14081
895.405	14054
895.526	14092
895.648	14092
895.769	14195
895.891	14142
896.012	14176
896.134	14157
896.255	14016
896.376	14073
896.498	14199
896.619	14244
896.74	14065
896.861	14195
896.982	14427
897.103	14659
897.224	14488
897.345	14423
897.466	14267
897.587	14324
897.708	14564
897.828	14480
897.949	14385
898.07	14366
898.19	14438
898.311	14564
898.431	14347
898.552	14480
898.672	14564
898.792	14629
898.913	14564
899.033	14473
899.153	14248
899.273	14244
899.393	14377
899.513	14366
899.633	14336
899.753	14370
899.873	14362
899.993	14415
900.113	14317
900.232	14320
900.352	14339
900.472	14362
900.591	14134
900.711	14225
900.83	14103
900.95	14328
901.069	14286
901.189	14157
901.308	13944
901.427	13814
901.546	13852
901.665	13963
901.784	13837
901.904	13670
902.023	13636
902.141	13525
902.26	13373
902.379	13556
902.498	13331
902.617	13419
902.735	13457
902.854	13411
902.973	13396
903.091	13213
903.21	13168
903.328	13213
903.446	13107
903.565	12989
903.683	13015
903.801	12977
903.919	13019
904.038	13034
904.156	12848
904.274	13015
904.392	12837
904.51	12802
904.627	12806
904.745	12852
904.863	12924
904.981	12585
905.098	12479
905.216	12559
905.334	12585
905.451	12563
905.569	12551
905.686	12532
905.803	12540
905.921	12338
906.038	12403
906.155	12418
906.272	12254
906.389	12357
906.506	12178
906.623	12125
906.74	12095
906.857	12007
906.974	12114
907.091	12270
907.208	12289
907.324	12205
907.441	12041
907.557	11824
907.674	11897
907.79	11859
907.907	11863
908.023	11927
908.139	11920
908.256	11821
908.372	11790
908.488	11722
908.604	11604
908.72	11608
908.836	11566
908.952	11611
909.068	11691
909.184	11684
909.3	11570
909.415	11649
909.531	11661
909.647	11402
909.762	11448
909.878	11376
909.993	11516
910.108	11402
910.224	11379
910.339	11395
910.454	11360
910.57	11273
910.685	11227
910.8	11539
910.915	11429
911.03	11318
911.145	11052
911.259	11090
911.374	11086
911.489	11014
911.604	10980
911.718	10854
911.833	10843
911.947	10755
912.062	10702
912.176	10847
912.291	10869
912.405	10854
912.519	11124
912.633	11143
912.748	10961
912.862	10919
912.976	10744
913.09	10615
913.204	10710
913.318	10755
913.431	10877
913.545	10843
913.659	10919
913.772	10797
913.886	10615
914	10687
914.113	10774
914.226	10809
914.34	10694
914.453	10538
914.566	10771
914.68	10569
914.793	10588
914.906	10413
915.019	10371
915.132	10356
915.245	10402
915.358	10451
915.47	10436
915.583	10379
915.696	10436
915.809	10493
915.921	10504
916.034	10352
916.146	10329
916.259	10333
916.371	10497
916.483	10432
916.595	10299
916.708	10306
916.82	10341
916.932	10314
917.044	10272
917.156	10329
917.268	10200
917.38	10181
917.491	10181
917.603	10284
917.715	10322
917.826	10379
917.938	10200
918.049	10147
918.161	10230
918.272	10375
918.384	10390
918.495	10242
918.606	10093
918.717	10048
918.828	10120
918.939	10120
919.05	10036
919.161	10124
919.272	9903
919.383	9934
919.494	10162
919.604	10344
919.715	10211
919.826	10105
919.936	10090
920.047	10242
920.157	10116
920.267	10405
920.378	10139
920.488	10105
920.598	10303
920.708	10402
920.818	10306
920.928	10272
921.038	10459
921.148	10436
921.258	10158
921.368	10044
921.477	10036
921.587	9991
921.697	9861
921.806	10071
921.916	9846
922.025	9713
922.134	9679
922.244	9644
922.353	9717
922.462	9614
922.571	9572
922.68	9443
922.789	9351
922.898	9412
923.007	9340
923.116	9428
923.224	9348
923.333	9416
923.442	9211
923.55	9203
923.659	9279
923.767	9389
923.876	9302
923.984	9332
924.092	9195
924.201	9272
924.309	9237
924.417	9313
924.525	9218
924.633	9218
924.741	10143
924.849	9036
924.956	9154
925.064	9043
925.172	8990
925.279	8986
925.387	9058
925.494	9070
925.602	9157
925.709	9169
925.816	8986
925.924	9009
926.031	9108
926.138	9093
926.245	9116
926.352	8971
926.459	9081
926.566	9150
926.673	9009
926.779	8967
926.886	8933
926.993	8800
927.099	8750
927.206	8754
927.312	8670
927.419	8785
927.525	8788
927.631	8785
927.737	8682
927.843	8613
927.95	8541
928.056	8594
928.162	8651
928.267	8720
928.373	9344
928.479	8750
928.585	8511
928.69	8644
928.796	8693
928.901	8533
929.007	8431
929.112	8552
929.218	8499
929.323	8492
929.428	8495
929.533	8632
929.638	8389
929.743	8473
929.848	8499
929.953	8537
930.058	8396
930.163	8244
930.267	8271
930.372	8355
930.477	8282
930.581	8427
930.685	8347
930.79	8229
930.894	8233
930.998	8142
931.103	8298
931.207	8008
931.311	7925
931.415	7890
931.519	7689
931.623	7746
