Data from test_V78500241_2948.txt Node
Date: Fri Mar 25 14:54:14 CST 2022
User: usil
Spectrometer: V785-0024
Trigger mode: 0
Integration Time (sec): 4.000000E-1
Scans to average: 1
Nonlinearity correction enabled: false
Boxcar width: 0
Storing dark spectrum: false
XAxis mode: Wavelengths
Number of Pixels in Spectrum: 1024
>>>>>Begin Spectral Data<<<<<
801.071	22226
801.214	21949
801.356	21793
801.499	21553
801.641	21523
801.783	21469
801.926	21507
802.068	21355
802.211	21283
802.353	21233
802.496	21089
802.638	20895
802.78	20956
802.923	20815
803.065	20750
803.208	20743
803.35	20739
803.492	20883
803.635	20956
803.777	20807
803.919	20880
804.061	21150
804.204	20937
804.346	20640
804.488	20640
804.63	20834
804.773	20792
804.915	20682
805.057	20773
805.199	20545
805.341	20861
805.483	20838
805.626	20743
805.768	20648
805.91	20697
806.052	20674
806.194	20640
806.336	20906
806.478	20575
806.62	20686
806.762	20811
806.904	20861
807.046	21112
807.188	21119
807.33	21116
807.472	21058
807.614	20918
807.756	20933
807.898	20975
808.04	20872
808.182	20731
808.324	20644
808.465	20796
808.607	20948
808.749	21051
808.891	21252
809.033	21256
809.174	21096
809.316	21070
809.458	21005
809.6	20971
809.741	21032
809.883	21116
810.025	21310
810.166	21188
810.308	21180
810.45	21161
810.591	21039
810.733	20982
810.875	20815
811.016	20781
811.158	20727
811.299	20925
811.441	20952
811.582	20952
811.724	20952
811.865	20826
812.007	20746
812.148	20868
812.29	20933
812.431	20906
812.573	21165
812.714	21192
812.855	21252
812.997	21393
813.138	21652
813.279	21477
813.421	21416
813.562	21260
813.703	21066
813.845	20944
813.986	20648
814.127	20541
814.268	20469
814.41	20385
814.551	20404
814.692	20347
814.833	20317
814.974	20434
815.115	20423
815.256	20332
815.397	20240
815.539	20301
815.68	20225
815.821	20077
815.962	20024
816.103	20157
816.244	19909
816.385	19841
816.526	19807
816.666	19670
816.807	19491
816.948	19567
817.089	19738
817.23	19544
817.371	19537
817.512	19552
817.653	19556
817.793	19529
817.934	19453
818.075	19491
818.216	19430
818.356	19400
818.497	19358
818.638	19187
818.778	19129
818.919	19225
819.06	19194
819.2	19377
819.341	19381
819.481	19430
819.622	19590
819.762	19712
819.903	19727
820.043	19521
820.184	19460
820.324	19563
820.465	19575
820.605	19480
820.746	19537
820.886	19301
821.026	19529
821.167	19434
821.307	19441
821.447	19430
821.588	19293
821.728	19270
821.868	19129
822.008	18890
822.149	18970
822.289	18916
822.429	18631
822.569	18563
822.709	18650
822.849	18475
822.99	18273
823.13	18372
823.27	18270
823.41	18220
823.55	18110
823.69	18194
823.83	18174
823.97	18190
824.11	17882
824.25	18022
824.389	17996
824.529	18171
824.669	18038
824.809	18072
824.949	18019
825.089	18110
825.228	17931
825.368	17863
825.508	17741
825.648	17798
825.787	17707
825.927	17855
826.067	17691
826.206	17863
826.346	17680
826.485	17824
826.625	17745
826.765	17897
826.904	17733
827.044	17486
827.183	17570
827.323	17535
827.462	17486
827.601	17391
827.741	17360
827.88	17425
828.02	17303
828.159	17353
828.298	17467
828.437	17516
828.577	17459
828.716	17535
828.855	17349
828.994	17239
829.134	17136
829.273	17147
829.412	17197
829.551	17094
829.69	17178
829.829	17102
829.968	17269
830.107	17292
830.246	17117
830.385	17006
830.524	17022
830.663	17048
830.802	16938
830.941	16850
831.08	16847
831.219	16854
831.357	16854
831.496	17056
831.635	16691
831.774	16694
831.913	16626
832.051	16569
832.19	16493
832.329	16546
832.467	16516
832.606	16428
832.744	16379
832.883	16451
833.022	16421
833.16	16577
833.299	16508
833.437	16440
833.576	16561
833.714	16462
833.852	16550
833.991	16516
834.129	16596
834.267	16607
834.406	16519
834.544	16542
834.682	16527
834.821	16615
834.959	16687
835.097	16440
835.235	16527
835.373	16569
835.511	16447
835.65	16443
835.788	16481
835.926	16348
836.064	16268
836.202	16238
836.34	16375
836.478	16363
836.615	16443
836.753	16375
836.891	16516
837.029	16428
837.167	16382
837.305	16417
837.443	16344
837.58	16337
837.718	16405
837.856	16428
837.993	16234
838.131	16272
838.269	16200
838.406	16318
838.544	16185
838.681	15964
838.819	15994
838.956	15857
839.094	15778
839.231	15770
839.369	15953
839.506	16166
839.643	16177
839.781	15892
839.918	15842
840.055	15838
840.193	15880
840.33	15713
840.467	15880
840.604	15899
840.742	16116
840.879	15789
841.016	15690
841.153	15759
841.29	15968
841.427	15785
841.564	15812
841.701	15831
841.838	15720
841.975	15637
842.112	15724
842.249	15652
842.385	15633
842.522	15686
842.659	15587
842.796	15675
842.933	15591
843.069	15591
843.206	15606
843.343	15644
843.479	15690
843.616	15724
843.752	15473
843.889	15329
844.025	15584
844.162	15443
844.298	15515
844.435	15397
844.571	15332
844.708	15534
844.844	15591
844.98	15538
845.117	15481
845.253	15344
845.389	15226
845.525	15367
845.661	15317
845.798	15150
845.934	15256
846.07	15123
846.206	15211
846.342	15370
846.478	15222
846.614	15066
846.75	14941
846.886	15024
847.022	15009
847.158	15093
847.294	14975
847.429	14960
847.565	15024
847.701	15173
847.837	14674
847.972	14731
848.108	14849
848.244	14746
848.379	14587
848.515	14606
848.65	14484
848.786	14575
848.921	14598
849.057	14686
849.192	14648
849.328	14533
849.463	14575
849.598	14533
849.734	14533
849.869	14408
850.004	14347
850.14	14412
850.275	14309
850.41	14294
850.545	14286
850.68	14309
850.815	14374
850.95	14275
851.085	14438
851.22	14412
851.355	14263
851.49	14294
851.625	14347
851.76	14282
851.895	14240
852.03	14149
852.165	14286
852.299	14317
852.434	14377
852.569	14298
852.703	14374
852.838	14370
852.973	14488
853.107	14454
853.242	14336
853.376	14210
853.511	14092
853.645	14115
853.78	14358
853.914	14161
854.048	14142
854.183	14218
854.317	14153
854.451	14374
854.585	14149
854.72	14134
854.854	14275
854.988	14153
855.122	14176
855.256	14046
855.39	14172
855.524	14278
855.658	14286
855.792	14259
855.926	14237
856.06	14210
856.194	14309
856.327	14161
856.461	14058
856.595	14084
856.729	14161
856.862	14301
856.996	14370
857.13	14256
857.263	14275
857.397	14362
857.53	14195
857.664	14294
857.797	14271
857.931	14267
858.064	14259
858.197	14328
858.331	14199
858.464	14183
858.597	14058
858.731	14161
858.864	14229
858.997	14164
859.13	14153
859.263	14244
859.396	14305
859.529	14084
859.662	14206
859.795	14164
859.928	14218
860.061	14298
860.194	14415
860.327	14240
860.46	14176
860.592	14252
860.725	14294
860.858	14301
860.99	14180
861.123	14164
861.256	14157
861.388	14210
861.521	14712
861.653	14145
861.786	14069
861.918	14024
862.05	14176
862.183	14168
862.315	14153
862.447	14142
862.58	14164
862.712	14012
862.844	13860
862.976	14157
863.108	14012
863.24	14366
863.372	13879
863.504	13944
863.636	13959
863.768	14001
863.9	13967
864.032	13830
864.164	14073
864.296	13989
864.428	14111
864.559	14035
864.691	14054
864.823	14024
864.954	13997
865.086	13947
865.217	13967
865.349	13837
865.48	13947
865.612	14039
865.743	14134
865.875	13967
866.006	13993
866.137	14012
866.269	13989
866.4	13868
866.531	13909
866.662	13868
866.793	13993
866.924	13913
867.055	14008
867.186	13959
867.317	13879
867.448	13845
867.579	13978
867.71	13917
867.841	13868
867.972	13951
868.103	13959
868.233	14012
868.364	13967
868.495	14119
868.625	14142
868.756	14294
868.886	14210
869.017	14168
869.147	14229
869.278	14267
869.408	14237
869.539	14278
869.669	14248
869.799	14237
869.929	14286
870.06	14393
870.19	14499
870.32	14541
870.45	14583
870.58	14636
870.71	14735
870.84	14754
870.97	14507
871.1	14518
871.23	14686
871.36	14834
871.489	14678
871.619	14724
871.749	14815
871.879	14758
872.008	14906
872.138	14811
872.267	14750
872.397	14708
872.526	14560
872.656	14644
872.785	14575
872.915	14739
873.044	15013
873.173	14868
873.303	14887
873.432	14887
873.561	14941
873.69	14895
873.819	14807
873.948	14876
874.077	14929
874.206	14849
874.335	14929
874.464	15047
874.593	15093
874.722	15127
874.851	15161
874.979	15283
875.108	15180
875.237	15135
875.365	15135
875.494	15135
875.623	15157
875.751	15161
875.88	15245
876.008	15291
876.136	15367
876.265	15606
876.393	15717
876.521	15686
876.65	15755
876.778	15591
876.906	15709
877.034	15488
877.162	15622
877.29	15504
877.418	15637
877.546	15648
877.674	15660
877.802	15545
877.93	15561
878.058	15542
878.185	15401
878.313	15538
878.441	15469
878.568	15462
878.696	15412
878.824	15587
878.951	15671
879.079	15876
879.206	15911
879.333	15728
879.461	15599
879.588	15705
879.715	15705
879.842	15968
879.97	15595
880.097	15424
880.224	15367
880.351	15481
880.478	15549
880.605	15348
880.732	15454
880.859	15686
880.986	15386
881.112	15500
881.239	15329
881.366	15169
881.493	15108
881.619	15188
881.746	15070
881.872	15097
881.999	15039
882.125	15062
882.252	15173
882.378	15097
882.505	15249
882.631	14956
882.757	14975
882.883	14975
883.01	14861
883.136	14811
883.262	14777
883.388	14815
883.514	15024
883.64	14963
883.766	14861
883.892	14678
884.018	14754
884.143	14864
884.269	15100
884.395	14727
884.52	14651
884.646	14644
884.772	14610
884.897	14537
885.023	14629
885.148	14636
885.274	14785
885.399	14678
885.524	14659
885.65	14526
885.775	14629
885.9	14587
886.025	14701
886.15	14663
886.275	14545
886.4	14469
886.525	14663
886.65	14545
886.775	14594
886.9	14796
887.025	14868
887.149	14594
887.274	14492
887.399	14465
887.523	14442
887.648	14438
887.773	14313
887.897	14522
888.021	14533
888.146	14377
888.27	14602
888.395	14556
888.519	14438
888.643	14427
888.767	14457
888.891	14404
889.015	14225
889.139	14332
889.263	14286
889.387	14476
889.511	14541
889.635	14556
889.759	14237
889.883	14438
890.006	14275
890.13	14533
890.254	14252
890.377	14244
890.501	14115
890.624	14062
890.748	14225
890.871	14024
890.995	13852
891.118	13906
891.241	14008
891.364	14134
891.488	14123
891.611	13967
891.734	14081
891.857	14126
891.98	14020
892.103	14092
892.226	14058
892.349	13986
892.471	13841
892.594	14096
892.717	14062
892.839	13989
892.962	13940
893.085	13974
893.207	13936
893.33	13826
893.452	13993
893.575	14008
893.697	13993
893.819	14225
893.941	14164
894.064	14172
894.186	13970
894.308	13928
894.43	14123
894.552	14256
894.674	14176
894.796	13902
894.918	14123
895.04	14065
895.161	14157
895.283	14225
895.405	14115
895.526	14164
895.648	14039
895.769	14149
895.891	14180
896.012	14244
896.134	14256
896.255	14210
896.376	14103
896.498	14157
896.619	14271
896.74	14164
896.861	14191
896.982	14530
897.103	14731
897.224	14522
897.345	14438
897.466	14400
897.587	14454
897.708	14613
897.828	14457
897.949	14465
898.07	14423
898.19	14450
898.311	14617
898.431	14579
898.552	14533
898.672	14655
898.792	14651
898.913	14632
899.033	14484
899.153	14533
899.273	14339
899.393	14366
899.513	14415
899.633	14438
899.753	14423
899.873	14419
899.993	14450
900.113	14389
900.232	14503
900.352	14404
900.472	14206
900.591	14259
900.711	14271
900.83	14218
900.95	14381
901.069	14393
901.189	14191
901.308	13989
901.427	13997
901.546	13963
901.665	13989
901.784	14001
901.904	13837
902.023	13738
902.141	13533
902.26	13537
902.379	13556
902.498	13537
902.617	13411
902.735	13586
902.854	13449
902.973	13464
903.091	13251
903.21	13308
903.328	13255
903.446	13198
903.565	13065
903.683	13103
903.801	12954
903.919	13175
904.038	13107
904.156	12932
904.274	12977
904.392	12875
904.51	12894
904.627	12867
904.745	12913
904.863	12920
904.981	12616
905.098	12669
905.216	12555
905.334	12703
905.451	12635
905.569	12593
905.686	12544
905.803	12547
905.921	12391
906.038	12506
906.155	12471
906.272	12262
906.389	12327
906.506	12273
906.623	12194
906.74	12171
906.857	12011
906.974	12117
907.091	12205
907.208	12410
907.324	12232
907.441	12087
907.557	11980
907.674	12007
907.79	11840
907.907	11946
908.023	11916
908.139	11931
908.256	11866
908.372	11863
908.488	11783
908.604	11764
908.72	11699
908.836	11684
908.952	11680
909.068	11627
909.184	11748
909.3	11707
909.415	11775
909.531	11764
909.647	11387
909.762	11524
909.878	11455
909.993	11478
910.108	11448
910.224	11482
910.339	11440
910.454	11398
910.57	11341
910.685	11204
910.8	11570
910.915	11535
911.03	11364
911.145	11140
911.259	11239
911.374	11181
911.489	11079
911.604	11010
911.718	10965
911.833	10862
911.947	10816
912.062	10733
912.176	10869
912.291	10900
912.405	10885
912.519	11060
912.633	11102
912.748	11071
912.862	10927
912.976	10706
913.09	10672
913.204	10755
913.318	10854
913.431	10881
913.545	10923
913.659	10946
913.772	10847
913.886	10679
914	10675
914.113	10668
914.226	10862
914.34	10812
914.453	10637
914.566	10744
914.68	10637
914.793	10546
914.906	10447
915.019	10390
915.132	10268
915.245	10409
915.358	10432
915.47	10474
915.583	10497
915.696	10516
915.809	10535
915.921	10573
916.034	10386
916.146	10379
916.259	10367
916.371	10390
916.483	10386
916.595	10394
916.708	10352
916.82	10333
916.932	10329
917.044	10284
917.156	10363
917.268	10246
917.38	10261
917.491	10227
917.603	10280
917.715	10394
917.826	10428
917.938	10246
918.049	10162
918.161	10276
918.272	10409
918.384	10455
918.495	10272
918.606	10150
918.717	10067
918.828	10067
918.939	10135
919.05	10067
919.161	10078
919.272	9907
919.383	10010
919.494	10227
919.604	10405
919.715	10230
919.826	10120
919.936	10230
920.047	10280
920.157	10162
920.267	10371
920.378	10280
920.488	10150
920.598	10405
920.708	10459
920.818	10322
920.928	10303
921.038	10527
921.148	10432
921.258	10234
921.368	10097
921.477	10059
921.587	10044
921.697	9846
921.806	10063
921.916	9945
922.025	9740
922.134	9652
922.244	9656
922.353	9709
922.462	9599
922.571	9576
922.68	9431
922.789	9458
922.898	9443
923.007	9367
923.116	9447
923.224	9435
923.333	9405
923.442	9359
923.55	9325
923.659	9279
923.767	9367
923.876	9279
923.984	9378
924.092	9222
924.201	9321
924.309	9317
924.417	9302
924.525	9203
924.633	9294
924.741	10188
924.849	8982
924.956	9214
925.064	9070
925.172	8975
925.279	9089
925.387	9058
925.494	9112
925.602	9283
925.709	9161
925.816	9062
925.924	9047
926.031	9135
926.138	9036
926.245	9066
926.352	8994
926.459	9055
926.566	9249
926.673	9055
926.779	8971
926.886	8914
926.993	8819
927.099	8777
927.206	8811
927.312	8766
927.419	8823
927.525	8807
927.631	8895
927.737	8667
927.843	8701
927.95	8568
928.056	8705
928.162	8686
928.267	8762
928.373	9329
928.479	8804
928.585	8594
928.69	8659
928.796	8708
928.901	8632
929.007	8480
929.112	8617
929.218	8602
929.323	8518
929.428	8465
929.533	8670
929.638	8461
929.743	8495
929.848	8511
929.953	8526
930.058	8374
930.163	8252
930.267	8317
930.372	8446
930.477	8225
930.581	8564
930.685	8355
930.79	8202
930.894	8244
930.998	8244
931.103	8355
931.207	7993
931.311	8001
931.415	7928
931.519	7677
931.623	7738
