Data from test_V78500241_378.txt Node
Date: Fri Mar 25 14:36:21 CST 2022
User: usil
Spectrometer: V785-0024
Trigger mode: 0
Integration Time (sec): 4.000000E-1
Scans to average: 1
Nonlinearity correction enabled: false
Boxcar width: 0
Storing dark spectrum: false
XAxis mode: Wavelengths
Number of Pixels in Spectrum: 1024
>>>>>Begin Spectral Data<<<<<
801.071	26800
801.214	26735
801.356	26461
801.499	26347
801.641	26259
801.783	26290
801.926	26202
802.068	26301
802.211	26126
802.353	26142
802.496	25883
802.638	25852
802.78	25765
802.923	25731
803.065	25662
803.208	25594
803.35	25662
803.492	25624
803.635	25921
803.777	25750
803.919	25772
804.061	26244
804.204	25883
804.346	25696
804.488	25670
804.63	25681
804.773	25506
804.915	25647
805.057	25860
805.199	25605
805.341	25731
805.483	25769
805.626	25696
805.768	25696
805.91	25681
806.052	25734
806.194	25715
806.336	25959
806.478	25666
806.62	25784
806.762	25693
806.904	26043
807.046	26199
807.188	26115
807.33	26100
807.472	26168
807.614	26092
807.756	26077
807.898	25917
808.04	25852
808.182	26001
808.324	25921
808.465	25940
808.607	26020
808.749	26256
808.891	26442
809.033	26404
809.174	26355
809.316	26256
809.458	26256
809.6	26161
809.741	26210
809.883	26313
810.025	26453
810.166	26396
810.308	26396
810.45	26271
810.591	26374
810.733	26088
810.875	26187
811.016	25997
811.158	26065
811.299	26237
811.441	26240
811.582	26153
811.724	26065
811.865	26142
812.007	26077
812.148	26187
812.29	26142
812.431	26195
812.573	26343
812.714	26290
812.855	26587
812.997	26564
813.138	26750
813.279	26602
813.421	26636
813.562	26659
813.703	26320
813.845	26275
813.986	25814
814.127	25837
814.268	25727
814.41	25552
814.551	25578
814.692	25628
814.833	25586
814.974	25540
815.115	25689
815.256	25438
815.397	25396
815.539	25540
815.68	25548
815.821	25236
815.962	25403
816.103	25381
816.244	25179
816.385	25225
816.526	25194
816.666	24894
816.807	24757
816.948	24852
817.089	24730
817.23	24863
817.371	24928
817.512	24817
817.653	24863
817.793	24684
817.934	24707
818.075	24776
818.216	24772
818.356	24642
818.497	24490
818.638	24361
818.778	24418
818.919	24448
819.06	24521
819.2	24574
819.341	24570
819.481	24677
819.622	24924
819.762	24901
819.903	24973
820.043	24840
820.184	24817
820.324	24779
820.465	24776
820.605	24738
820.746	24703
820.886	24677
821.026	24642
821.167	24650
821.307	24833
821.447	24681
821.588	24494
821.728	24574
821.868	24361
822.008	24114
822.149	24015
822.289	24072
822.429	23752
822.569	23897
822.709	23608
822.849	23611
822.99	23646
823.13	23455
823.27	23376
823.41	23356
823.55	23261
823.69	23436
823.83	23349
823.97	23246
824.11	23113
824.25	23109
824.389	23044
824.529	23140
824.669	22968
824.809	23216
824.949	23155
825.089	23151
825.228	23117
825.368	22900
825.508	22915
825.648	23090
825.787	22908
825.927	22957
826.067	22938
826.206	22908
826.346	22946
826.485	22889
826.625	22904
826.765	23003
826.904	22835
827.044	22755
827.183	22641
827.323	22675
827.462	22634
827.601	22523
827.741	22512
827.88	22538
828.02	22402
828.159	22508
828.298	22622
828.437	22569
828.577	22413
828.716	22687
828.855	22485
828.994	22238
829.134	22226
829.273	22284
829.412	22181
829.551	22112
829.69	22265
829.829	22226
829.968	22238
830.107	22356
830.246	22284
830.385	22242
830.524	22177
830.663	22040
830.802	21895
830.941	21907
831.08	21854
831.219	21888
831.357	21994
831.496	22029
831.635	21759
831.774	21789
831.913	21622
832.051	21500
832.19	21641
832.329	21629
832.467	21595
832.606	21469
832.744	21496
832.883	21504
833.022	21386
833.16	21504
833.299	21488
833.437	21412
833.576	21534
833.714	21553
833.852	21553
833.991	21553
834.129	21603
834.267	21614
834.406	21500
834.544	21492
834.682	21469
834.821	21473
834.959	21648
835.097	21340
835.235	21523
835.373	21458
835.511	21450
835.65	21291
835.788	21344
835.926	21135
836.064	21188
836.202	21032
836.34	21336
836.478	21393
836.615	21306
836.753	21344
836.891	21428
837.029	21401
837.167	21306
837.305	21230
837.443	21279
837.58	21184
837.718	21211
837.856	21222
837.993	21039
838.131	21169
838.269	21074
838.406	21055
838.544	21009
838.681	20861
838.819	20769
838.956	20686
839.094	20754
839.231	20663
839.369	20853
839.506	20971
839.643	20720
839.781	20545
839.918	20606
840.055	20724
840.193	20598
840.33	20522
840.467	20465
840.604	20682
840.742	20819
840.879	20343
841.016	20530
841.153	20408
841.29	20575
841.427	20651
841.564	20518
841.701	20473
841.838	20507
841.975	20423
842.112	20434
842.249	20343
842.385	20389
842.522	20381
842.659	20324
842.796	20206
842.933	20309
843.069	20278
843.206	20069
843.343	20267
843.479	20282
843.616	20393
843.752	20077
843.889	20054
844.025	20199
844.162	19963
844.298	20130
844.435	19959
844.571	19928
844.708	20043
844.844	20138
844.98	20058
845.117	20153
845.253	19906
845.389	19811
845.525	19978
845.661	19967
845.798	19841
845.934	19788
846.07	19769
846.206	19837
846.342	19947
846.478	19837
846.614	19601
846.75	19533
846.886	19609
847.022	19590
847.158	19445
847.294	19392
847.429	19552
847.565	19373
847.701	19639
847.837	19187
847.972	19152
848.108	19232
848.244	19320
848.379	19175
848.515	19152
848.65	19019
848.786	19065
848.921	19118
849.057	19122
849.192	19145
849.328	19008
849.463	19065
849.598	18932
849.734	18958
849.869	19004
850.004	18848
850.14	18741
850.275	18715
850.41	18837
850.545	18795
850.68	18661
850.815	18829
850.95	18779
851.085	18993
851.22	18833
851.355	18768
851.49	18696
851.625	18795
851.76	18665
851.895	18574
852.03	18665
852.165	18658
852.299	18817
852.434	18829
852.569	18863
852.703	18734
852.838	18920
852.973	18844
853.107	18894
853.242	18764
853.376	18559
853.511	18350
853.645	18593
853.78	18658
853.914	18646
854.048	18555
854.183	18551
854.317	18506
854.451	18791
854.585	18585
854.72	18642
854.854	18738
854.988	18521
855.122	18441
855.256	18544
855.39	18555
855.524	18578
855.658	18639
855.792	18460
855.926	18604
856.06	18654
856.194	18585
856.327	18608
856.461	18608
856.595	18475
856.729	18715
856.862	18692
856.996	18612
857.13	18593
857.263	18730
857.397	18642
857.53	18593
857.664	18661
857.797	18707
857.931	18646
858.064	18635
858.197	18585
858.331	18547
858.464	18502
858.597	18285
858.731	18544
858.864	18414
858.997	18445
859.13	18483
859.263	18631
859.396	18566
859.529	18384
859.662	18528
859.795	18559
859.928	18601
860.061	18677
860.194	18620
860.327	18521
860.46	18372
860.592	18631
860.725	18703
860.858	18642
860.99	18544
861.123	18433
861.256	18448
861.388	18593
861.521	19217
861.653	18384
861.786	18346
861.918	18353
862.05	18589
862.183	18521
862.315	18593
862.447	18536
862.58	18528
862.712	18266
862.844	18319
862.976	18372
863.108	18258
863.24	18791
863.372	18273
863.504	18213
863.636	18285
863.768	18174
863.9	18209
864.032	18163
864.164	18270
864.296	18243
864.428	18285
864.559	18315
864.691	18403
864.823	18232
864.954	18178
865.086	18247
865.217	18140
865.349	18095
865.48	18129
865.612	18216
865.743	18281
865.875	18201
866.006	18121
866.137	18083
866.269	18205
866.4	18197
866.531	18064
866.662	18125
866.793	17980
866.924	18076
867.055	18091
867.186	18133
867.317	18057
867.448	17946
867.579	18026
867.71	18011
867.841	18091
867.972	18144
868.103	18034
868.233	18087
868.364	18098
868.495	18083
868.625	18308
868.756	18414
868.886	18205
869.017	18304
869.147	18460
869.278	18460
869.408	18441
869.539	18388
869.669	18456
869.799	18163
869.929	18612
870.06	18475
870.19	18521
870.32	18726
870.45	18692
870.58	18738
870.71	18863
870.84	18856
870.97	18814
871.1	18798
871.23	18890
871.36	18989
871.489	18791
871.619	18871
871.749	18924
871.879	19027
872.008	19008
872.138	18913
872.267	18943
872.397	18886
872.526	18825
872.656	18810
872.785	18768
872.915	19004
873.044	19034
873.173	18871
873.303	19042
873.432	19126
873.561	19076
873.69	19061
873.819	19019
873.948	18996
874.077	19038
874.206	18916
874.335	18970
874.464	19164
874.593	19312
874.722	19175
874.851	19263
874.979	19247
875.108	19335
875.237	19293
875.365	19206
875.494	19293
875.623	19331
875.751	19263
875.88	19343
876.008	19362
876.136	19468
876.265	19731
876.393	19780
876.521	19685
876.65	19719
876.778	19647
876.906	19628
877.034	19533
877.162	19712
877.29	19658
877.418	19731
877.546	19518
877.674	19480
877.802	19632
877.93	19647
878.058	19677
878.185	19567
878.313	19632
878.441	19635
878.568	19533
878.696	19643
878.824	19674
878.951	19731
879.079	19811
879.206	19967
879.333	19944
879.461	19578
879.588	19712
879.715	19955
879.842	19974
879.97	19719
880.097	19559
880.224	19563
880.351	19597
880.478	19480
880.605	19575
880.732	19537
880.859	19708
880.986	19457
881.112	19518
881.239	19449
881.366	19331
881.493	19168
881.619	19209
881.746	19316
881.872	19198
881.999	19046
882.125	19164
882.252	19122
882.378	19137
882.505	19263
882.631	19084
882.757	18878
882.883	19110
883.01	18935
883.136	18875
883.262	18760
883.388	18810
883.514	18901
883.64	18913
883.766	18852
883.892	18730
884.018	18753
884.143	18859
884.269	18958
884.395	18707
884.52	18547
884.646	18593
884.772	18426
884.897	18475
885.023	18654
885.148	18589
885.274	18730
885.399	18612
885.524	18544
885.65	18616
885.775	18642
885.9	18589
886.025	18570
886.15	18589
886.275	18563
886.4	18464
886.525	18502
886.65	18498
886.775	18513
886.9	18692
887.025	18757
887.149	18551
887.274	18361
887.399	18273
887.523	18342
887.648	18167
887.773	18064
887.897	18342
888.021	18384
888.146	18205
888.27	18410
888.395	18273
888.519	18273
888.643	18369
888.767	18330
888.891	18159
889.015	18129
889.139	18159
889.263	18148
889.387	18144
889.511	18311
889.635	18289
889.759	18121
889.883	18087
890.006	18110
890.13	18167
890.254	18079
890.377	18030
890.501	17840
890.624	17840
890.748	17920
890.871	17847
890.995	17699
891.118	17642
891.241	17710
891.364	17878
891.488	17874
891.611	17699
891.734	17707
891.857	17824
891.98	17767
892.103	17729
892.226	17741
892.349	17729
892.471	17554
892.594	17600
892.717	17748
892.839	17703
892.962	17756
893.085	17794
893.207	17695
893.33	17649
893.452	17543
893.575	17707
893.697	17695
893.819	17745
893.941	17874
894.064	17737
894.186	17794
894.308	17558
894.43	17699
894.552	17794
894.674	17851
894.796	17726
894.918	17764
895.04	17653
895.161	17809
895.283	17737
895.405	17611
895.526	17581
895.648	17771
895.769	17722
895.891	17756
896.012	17828
896.134	17935
896.255	17729
896.376	17699
896.498	17832
896.619	17889
896.74	17821
896.861	17859
896.982	18114
897.103	18239
897.224	18117
897.345	18041
897.466	17958
897.587	17923
897.708	18239
897.828	18049
897.949	17939
898.07	17832
898.19	17794
898.311	18007
898.431	17908
898.552	18057
898.672	18076
898.792	18038
898.913	17950
899.033	17942
899.153	17771
899.273	17684
899.393	17748
899.513	17798
899.633	17802
899.753	17794
899.873	17672
899.993	17775
900.113	17710
900.232	17775
900.352	17745
900.472	17794
900.591	17630
900.711	17573
900.83	17539
900.95	17718
901.069	17680
901.189	17497
901.308	17345
901.427	17280
901.546	17223
901.665	17143
901.784	17280
901.904	17079
902.023	17064
902.141	16763
902.26	16771
902.379	16862
902.498	16687
902.617	16759
902.735	16744
902.854	16713
902.973	16664
903.091	16561
903.21	16459
903.328	16428
903.446	16402
903.565	16276
903.683	16211
903.801	16169
903.919	16223
904.038	16158
904.156	15979
904.274	16101
904.392	16013
904.51	15926
904.627	16040
904.745	16013
904.863	16097
904.981	15816
905.098	15705
905.216	15766
905.334	15663
905.451	15660
905.569	15717
905.686	15644
905.803	15629
905.921	15382
906.038	15572
906.155	15538
906.272	15389
906.389	15473
906.506	15211
906.623	15287
906.74	15218
906.857	15032
906.974	15066
907.091	15264
907.208	15287
907.324	15340
907.441	15180
907.557	14941
907.674	15043
907.79	14918
907.907	14979
908.023	14887
908.139	14864
908.256	14963
908.372	14887
908.488	14807
908.604	14655
908.72	14659
908.836	14670
908.952	14541
909.068	14686
909.184	14765
909.3	14686
909.415	14697
909.531	14640
909.647	14377
909.762	14362
909.878	14328
909.993	14427
910.108	14351
910.224	14286
910.339	14309
910.454	14324
910.57	14088
910.685	14157
910.8	14454
910.915	14309
911.03	14199
911.145	14031
911.259	14039
911.374	14005
911.489	13947
911.604	13826
911.718	13769
911.833	13734
911.947	13639
912.062	13620
912.176	13689
912.291	13685
912.405	13715
912.519	13871
912.633	13890
912.748	13788
912.862	13708
912.976	13655
913.09	13521
913.204	13559
913.318	13586
913.431	13616
913.545	13567
913.659	13689
913.772	13533
913.886	13426
914	13506
914.113	13537
914.226	13578
914.34	13457
914.453	13343
914.566	13567
914.68	13331
914.793	13335
914.906	13137
915.019	13091
915.132	13015
915.245	13091
915.358	13088
915.47	13107
915.583	13152
915.696	13129
915.809	13202
915.921	13232
916.034	12989
916.146	13107
916.259	12954
916.371	13050
916.483	13042
916.595	12897
916.708	12996
916.82	13000
916.932	12913
917.044	12901
917.156	12913
917.268	12791
917.38	12939
917.491	12745
917.603	12757
917.715	12856
917.826	12871
917.938	12757
918.049	12722
918.161	12783
918.272	12920
918.384	12947
918.495	12741
918.606	12646
918.717	12570
918.828	12604
918.939	12635
919.05	12494
919.161	12597
919.272	12490
919.383	12464
919.494	12608
919.604	12692
919.715	12627
919.826	12521
919.936	12555
920.047	12642
920.157	12547
920.267	12745
920.378	12597
920.488	12536
920.598	12779
920.708	12856
920.818	12707
920.928	12639
921.038	12863
921.148	12844
921.258	12559
921.368	12460
921.477	12403
921.587	12346
921.697	12152
921.806	12319
921.916	12201
922.025	12038
922.134	11958
922.244	11999
922.353	12019
922.462	11908
922.571	11813
922.68	11661
922.789	11638
922.898	11722
923.007	11623
923.116	11764
923.224	11623
923.333	11630
923.442	11592
923.55	11528
923.659	11452
923.767	11665
923.876	11410
923.984	11554
924.092	11433
924.201	11547
924.309	11505
924.417	11482
924.525	11391
924.633	11509
924.741	12319
924.849	11223
924.956	11326
925.064	11235
925.172	11181
925.279	11155
925.387	11201
925.494	11250
925.602	11307
925.709	11273
925.816	11113
925.924	11166
926.031	11231
926.138	11193
926.245	11189
926.352	11018
926.459	11170
926.566	11239
926.673	11140
926.779	10995
926.886	11003
926.993	10809
927.099	10824
927.206	10710
927.312	10809
927.419	10911
927.525	10793
927.631	10797
927.737	10706
927.843	10675
927.95	10561
928.056	10637
928.162	10702
928.267	10744
928.373	11299
928.479	10752
928.585	10577
928.69	10615
928.796	10740
928.901	10569
929.007	10485
929.112	10618
929.218	10527
929.323	10459
929.428	10409
929.533	10561
929.638	10360
929.743	10417
929.848	10466
929.953	10447
930.058	10390
930.163	10166
930.267	10192
930.372	10314
930.477	10166
930.581	10394
930.685	10177
930.79	10071
930.894	10074
930.998	10059
931.103	10120
931.207	9888
931.311	9785
931.415	9618
931.519	9462
931.623	9511
