Data from test_V78500241_774.txt Node
Date: Fri Mar 25 14:39:06 CST 2022
User: usil
Spectrometer: V785-0024
Trigger mode: 0
Integration Time (sec): 4.000000E-1
Scans to average: 1
Nonlinearity correction enabled: false
Boxcar width: 0
Storing dark spectrum: false
XAxis mode: Wavelengths
Number of Pixels in Spectrum: 1024
>>>>>Begin Spectral Data<<<<<
801.071	26762
801.214	26777
801.356	26476
801.499	26419
801.641	26298
801.783	26244
801.926	26259
802.068	26043
802.211	26130
802.353	25852
802.496	25753
802.638	25795
802.78	25655
802.923	25586
803.065	25670
803.208	25605
803.35	25807
803.492	25879
803.635	25845
803.777	25742
803.919	25860
804.061	26218
804.204	26039
804.346	25791
804.488	25845
804.63	25993
804.773	25864
804.915	26001
805.057	26119
805.199	26202
805.341	26237
805.483	26396
805.626	26404
805.768	26438
805.91	26480
806.052	26606
806.194	26727
806.336	27047
806.478	27066
806.62	27195
806.762	27694
806.904	27835
807.046	28440
807.188	28790
807.33	29098
807.472	29570
807.614	30304
807.756	31194
807.898	32229
808.04	33485
808.182	35387
808.324	38164
808.465	40835
808.607	43963
808.749	46691
808.891	48486
809.033	48711
809.174	47022
809.316	44244
809.458	41052
809.6	37746
809.741	35216
809.883	33055
810.025	31658
810.166	30616
810.308	29798
810.45	29356
810.591	28793
810.733	28246
810.875	27854
811.016	27492
811.158	27332
811.299	27367
811.441	27195
811.582	27180
811.724	26910
811.865	26606
812.007	26617
812.148	26564
812.29	26583
812.431	26613
812.573	26686
812.714	26716
812.855	26777
812.997	26727
813.138	26724
813.279	26785
813.421	26678
813.562	26552
813.703	26336
813.845	26084
813.986	25814
814.127	25506
814.268	25556
814.41	25487
814.551	25388
814.692	25578
814.833	25324
814.974	25198
815.115	25225
815.256	25240
815.397	25031
815.539	25042
815.68	25053
815.821	24863
815.962	24943
816.103	24795
816.244	24734
816.385	24661
816.526	24601
816.666	24540
816.807	24239
816.948	24216
817.089	24346
817.23	24285
817.371	24254
817.512	24197
817.653	24167
817.793	24171
817.934	24190
818.075	24098
818.216	24197
818.356	24136
818.497	23969
818.638	23824
818.778	23954
818.919	23882
819.06	23965
819.2	23965
819.341	24045
819.481	24003
819.622	24224
819.762	24334
819.903	24235
820.043	24125
820.184	24068
820.324	24213
820.465	24068
820.605	23923
820.746	23942
820.886	23863
821.026	24011
821.167	23866
821.307	23923
821.447	23805
821.588	23562
821.728	23608
821.868	23345
822.008	23246
822.149	23166
822.289	23235
822.429	23136
822.569	22854
822.709	22991
822.849	22649
822.99	22839
823.13	22649
823.27	22656
823.41	22664
823.55	22306
823.69	22386
823.83	22489
823.97	22337
824.11	22219
824.25	22185
824.389	22166
824.529	22257
824.669	22238
824.809	22295
824.949	22268
825.089	22257
825.228	22215
825.368	22032
825.508	22006
825.648	21987
825.787	22139
825.927	22070
826.067	21949
826.206	22101
826.346	21987
826.485	22010
826.625	21956
826.765	22143
826.904	22086
827.044	21831
827.183	21770
827.323	21747
827.462	21793
827.601	21622
827.741	21652
827.88	21717
828.02	21526
828.159	21557
828.298	21614
828.437	21774
828.577	21660
828.716	21774
828.855	21515
828.994	21431
829.134	21412
829.273	21397
829.412	21496
829.551	21306
829.69	21283
829.829	21374
829.968	21450
830.107	21401
830.246	21302
830.385	21310
830.524	21165
830.663	21157
830.802	21039
830.941	20963
831.08	20986
831.219	21127
831.357	21036
831.496	21112
831.635	20967
831.774	20823
831.913	20925
832.051	20883
832.19	20701
832.329	20769
832.467	20807
832.606	20804
832.744	20804
832.883	20880
833.022	20811
833.16	21032
833.299	21173
833.437	21074
833.576	21351
833.714	21549
833.852	21679
833.991	21774
834.129	21831
834.267	21850
834.406	21720
834.544	21743
834.682	21603
834.821	21481
834.959	21557
835.097	21256
835.235	21192
835.373	21024
835.511	20994
835.65	20807
835.788	20743
835.926	20621
836.064	20404
836.202	20442
836.34	20716
836.478	20629
836.615	20560
836.753	20503
836.891	20716
837.029	20526
837.167	20434
837.305	20393
837.443	20465
837.58	20290
837.718	20400
837.856	20305
837.993	20240
838.131	20244
838.269	20191
838.406	20355
838.544	20069
838.681	19864
838.819	20008
838.956	19788
839.094	19704
839.231	19776
839.369	19811
839.506	20122
839.643	20035
839.781	19719
839.918	19613
840.055	19670
840.193	19575
840.33	19624
840.467	19727
840.604	19712
840.742	19928
840.879	19601
841.016	19613
841.153	19476
841.29	19944
841.427	19742
841.564	19727
841.701	19681
841.838	19616
841.975	19594
842.112	19674
842.249	19464
842.385	19457
842.522	19635
842.659	19548
842.796	19426
842.933	19548
843.069	19533
843.206	19537
843.343	19613
843.479	19575
843.616	19647
843.752	19506
843.889	19609
844.025	19731
844.162	19548
844.298	19799
844.435	19826
844.571	20092
844.708	20492
844.844	20891
844.98	21287
845.117	21713
845.253	22656
845.389	24433
845.525	27808
845.661	33329
845.798	39895
845.934	44743
846.07	46440
846.206	45287
846.342	40755
846.478	34310
846.614	28672
846.75	24951
846.886	22904
847.022	21633
847.158	20708
847.294	20107
847.429	19837
847.565	19677
847.701	19647
847.837	19042
847.972	18878
848.108	18954
848.244	18783
848.379	18711
848.515	18578
848.65	18578
848.786	18547
848.921	18544
849.057	18566
849.192	18654
849.328	18498
849.463	18494
849.598	18315
849.734	18338
849.869	18247
850.004	18155
850.14	18304
850.275	18163
850.41	17977
850.545	18098
850.68	18140
850.815	18155
850.95	18133
851.085	18323
851.22	18129
851.355	18330
851.49	18079
851.625	18224
851.76	18197
851.895	18034
852.03	17984
852.165	18140
852.299	18266
852.434	18270
852.569	18205
852.703	18262
852.838	18308
852.973	18273
853.107	18300
853.242	18228
853.376	18087
853.511	18072
853.645	18194
853.78	18372
853.914	18308
854.048	18308
854.183	18327
854.317	18418
854.451	18521
854.585	18361
854.72	18216
854.854	18399
854.988	18216
855.122	18254
855.256	18167
855.39	18228
855.524	18258
855.658	18152
855.792	18205
855.926	18057
856.06	18091
856.194	18102
856.327	18068
856.461	18026
856.595	17980
856.729	18015
856.862	18144
856.996	18068
857.13	18079
857.263	18064
857.397	18079
857.53	17950
857.664	18057
857.797	17920
857.931	18026
858.064	17958
858.197	17939
858.331	17889
858.464	17813
858.597	17840
858.731	17836
858.864	17802
858.997	17771
859.13	17836
859.263	17920
859.396	17893
859.529	17874
859.662	17908
859.795	17821
859.928	17904
860.061	17984
860.194	17977
860.327	17901
860.46	17927
860.592	18034
860.725	17935
860.858	18011
860.99	17813
861.123	17775
861.256	17767
861.388	17783
861.521	18475
861.653	17737
861.786	17691
861.918	17657
862.05	17729
862.183	17798
862.315	17817
862.447	17908
862.58	17771
862.712	17649
862.844	17474
862.976	17619
863.108	17615
863.24	18068
863.372	17505
863.504	17512
863.636	17478
863.768	17623
863.9	17570
864.032	17585
864.164	17490
864.296	17543
864.428	17627
864.559	17516
864.691	17623
864.823	17524
864.954	17478
865.086	17543
865.217	17474
865.349	17414
865.48	17474
865.612	17512
865.743	17566
865.875	17455
866.006	17429
866.137	17512
866.269	17471
866.4	17520
866.531	17395
866.662	17455
866.793	17376
866.924	17284
867.055	17341
867.186	17334
867.317	17398
867.448	17387
867.579	17353
867.71	17330
867.841	17334
867.972	17463
868.103	17398
868.233	17402
868.364	17417
868.495	17436
868.625	17684
868.756	17638
868.886	17585
869.017	17710
869.147	17798
869.278	17703
869.408	17752
869.539	17783
869.669	17783
869.799	17783
869.929	17771
870.06	17817
870.19	18053
870.32	18125
870.45	18022
870.58	18098
870.71	18190
870.84	18209
870.97	18186
871.1	18129
871.23	18209
871.36	18266
871.489	18285
871.619	18384
871.749	18399
871.879	18422
872.008	18433
872.138	18582
872.267	18422
872.397	18213
872.526	18281
872.656	18277
872.785	18216
872.915	18582
873.044	18570
873.173	18608
873.303	18642
873.432	18582
873.561	18749
873.69	18589
873.819	18738
873.948	18696
874.077	18563
874.206	18806
874.335	18707
874.464	18856
874.593	19008
874.722	18970
874.851	19080
874.979	19202
875.108	19289
875.237	19137
875.365	19114
875.494	19221
875.623	19403
875.751	19270
875.88	19392
876.008	19537
876.136	19620
876.265	19982
876.393	20020
876.521	20103
876.65	20126
876.778	20149
876.906	20301
877.034	20119
877.162	20317
877.29	20267
877.418	20431
877.546	20526
877.674	20632
877.802	20727
877.93	20899
878.058	21058
878.185	21066
878.313	21435
878.441	21774
878.568	21991
878.696	22717
878.824	23433
878.951	24418
879.079	25989
879.206	27987
879.333	29954
879.461	31552
879.588	32522
879.715	32621
879.842	31784
879.97	29958
880.097	28040
880.224	26313
880.351	25209
880.478	24452
880.605	23783
880.732	23410
880.859	23566
880.986	23010
881.112	22976
881.239	22839
881.366	22664
881.493	22470
881.619	22554
881.746	22611
881.872	22599
881.999	22535
882.125	22675
882.252	22809
882.378	22805
882.505	22908
882.631	22710
882.757	22485
882.883	22759
883.01	22615
883.136	22443
883.262	22424
883.388	22375
883.514	22584
883.64	22577
883.766	22417
883.892	22272
884.018	22287
884.143	22481
884.269	22584
884.395	22402
884.52	22280
884.646	22306
884.772	22196
884.897	22272
885.023	22303
885.148	22382
885.274	22287
885.399	22268
885.524	22048
885.65	21975
885.775	21816
885.9	21698
886.025	21743
886.15	21523
886.275	21203
886.4	21074
886.525	21047
886.65	20864
886.775	20743
886.9	20800
887.025	20891
887.149	20499
887.274	20282
887.399	20062
887.523	20096
887.648	19986
887.773	19894
887.897	19925
888.021	19883
888.146	19666
888.27	19746
888.395	19655
888.519	19586
888.643	19616
888.767	19506
888.891	19346
889.015	19202
889.139	19088
889.263	19019
889.387	19289
889.511	19354
889.635	19160
889.759	18966
889.883	18985
890.006	18943
890.13	18993
890.254	18734
890.377	18859
890.501	18646
890.624	18623
890.748	18635
890.871	18452
890.995	18330
891.118	18285
891.241	18315
891.364	18205
891.488	18403
891.611	18163
891.734	18281
891.857	18388
891.98	18076
892.103	18152
892.226	18152
892.349	18087
892.471	17851
892.594	18030
892.717	17999
892.839	17916
892.962	17939
893.085	18068
893.207	17870
893.33	17813
893.452	17687
893.575	17878
893.697	17733
893.819	17859
893.941	17931
894.064	17817
894.186	17592
894.308	17608
894.43	17878
894.552	17741
894.674	17764
894.796	17501
894.918	17539
895.04	17570
895.161	17661
895.283	17562
895.405	17547
895.526	17467
895.648	17585
895.769	17425
895.891	17497
896.012	17611
896.134	17665
896.255	17592
896.376	17414
896.498	17482
896.619	17486
896.74	17337
896.861	17509
896.982	17741
897.103	17897
897.224	17687
897.345	17714
897.466	17661
897.587	17642
897.708	17786
897.828	17703
897.949	17680
898.07	17528
898.19	17520
898.311	17771
898.431	17687
898.552	17703
898.672	17847
898.792	17722
898.913	17653
899.033	17630
899.153	17448
899.273	17383
899.393	17490
899.513	17406
899.633	17429
899.753	17482
899.873	17345
899.993	17452
900.113	17455
900.232	17372
900.352	17509
900.472	17292
900.591	17235
900.711	17277
900.83	17254
900.95	17356
901.069	17398
901.189	17166
901.308	16972
901.427	16877
901.546	16866
901.665	16805
901.784	16904
901.904	16691
902.023	16596
902.141	16341
902.26	16409
902.379	16417
902.498	16295
902.617	16150
902.735	16337
902.854	16276
902.973	16265
903.091	16025
903.21	15922
903.328	15953
903.446	15922
903.565	15827
903.683	15865
903.801	15641
903.919	15751
904.038	15667
904.156	15477
904.274	15595
904.392	15530
904.51	15485
904.627	15545
904.745	15549
904.863	15519
904.981	15230
905.098	15119
905.216	15165
905.334	15249
905.451	15169
905.569	15074
905.686	15188
905.803	15112
905.921	15001
906.038	15036
906.155	14880
906.272	14902
906.389	14864
906.506	14629
906.623	14636
906.74	14712
906.857	14526
906.974	14575
907.091	14632
907.208	14788
907.324	14606
907.441	14644
907.557	14393
907.674	14385
907.79	14218
907.907	14343
908.023	14400
908.139	14317
908.256	14313
908.372	14339
908.488	14210
908.604	14164
908.72	14164
908.836	14164
908.952	14054
909.068	14103
909.184	14248
909.3	14084
909.415	14176
909.531	14084
909.647	13780
909.762	13849
909.878	13677
909.993	13822
910.108	13814
910.224	13811
910.339	13826
910.454	13712
910.57	13651
910.685	13632
910.8	13875
910.915	13791
911.03	13674
911.145	13537
911.259	13426
911.374	13483
911.489	13369
911.604	13441
911.718	13259
911.833	13339
911.947	13137
912.062	13084
912.176	13255
912.291	13168
912.405	13168
912.519	13457
912.633	13369
912.748	13274
912.862	13282
912.976	13099
913.09	12989
913.204	13069
913.318	13103
913.431	13168
913.545	13103
913.659	13183
913.772	13076
913.886	13012
914	12909
914.113	13004
914.226	13110
914.34	13031
914.453	12920
914.566	13000
914.68	12817
914.793	12867
914.906	12669
915.019	12635
915.132	12551
915.245	12654
915.358	12608
915.47	12639
915.583	12623
915.696	12688
915.809	12753
915.921	12810
916.034	12631
916.146	12635
916.259	12597
916.371	12696
916.483	12692
916.595	12597
916.708	12559
916.82	12658
916.932	12547
917.044	12582
917.156	12494
917.268	12407
917.38	12513
917.491	12407
917.603	12372
917.715	12429
917.826	12513
917.938	12376
918.049	12228
918.161	12391
918.272	12498
918.384	12498
918.495	12327
918.606	12266
918.717	12068
918.828	12152
918.939	12209
919.05	12140
919.161	12201
919.272	11920
919.383	12007
919.494	12159
919.604	12330
919.715	12155
919.826	12076
919.936	12136
920.047	12228
920.157	12155
920.267	12353
920.378	12228
920.488	12064
920.598	12235
920.708	12460
920.818	12330
920.928	12289
921.038	12498
921.148	12475
921.258	12152
921.368	12079
921.477	11950
921.587	11999
921.697	11802
921.806	11912
921.916	11805
922.025	11577
922.134	11638
922.244	11539
922.353	11653
922.462	11501
922.571	11402
922.68	11315
922.789	11296
922.898	11242
923.007	11220
923.116	11334
923.224	11258
923.333	11208
923.442	11136
923.55	11121
923.659	11204
923.767	11185
923.876	11094
923.984	11124
924.092	11128
924.201	11151
924.309	11113
924.417	11155
924.525	11048
924.633	10995
924.741	11843
924.849	10778
924.956	10957
925.064	10847
925.172	10774
925.279	10763
925.387	10828
925.494	10911
925.602	11045
925.709	10942
925.816	10790
925.924	10801
926.031	10892
926.138	10790
926.245	10896
926.352	10736
926.459	10919
926.566	10896
926.673	10782
926.779	10645
926.886	10637
926.993	10580
927.099	10546
927.206	10474
927.312	10424
927.419	10584
927.525	10474
927.631	10558
927.737	10428
927.843	10371
927.95	10242
928.056	10303
928.162	10314
928.267	10497
928.373	10991
928.479	10443
928.585	10204
928.69	10379
928.796	10341
928.901	10268
929.007	10082
929.112	10284
929.218	10276
929.323	10166
929.428	10101
929.533	10284
929.638	10025
929.743	10120
929.848	10063
929.953	10067
930.058	10025
930.163	9838
930.267	9918
930.372	10006
930.477	9789
930.581	10109
930.685	9892
930.79	9762
930.894	9808
930.998	9785
931.103	9960
931.207	9606
931.311	9500
931.415	9466
931.519	9272
931.623	9237
