Data from test_V78500241_637.txt Node
Date: Fri Mar 25 14:38:09 CST 2022
User: usil
Spectrometer: V785-0024
Trigger mode: 0
Integration Time (sec): 4.000000E-1
Scans to average: 1
Nonlinearity correction enabled: false
Boxcar width: 0
Storing dark spectrum: false
XAxis mode: Wavelengths
Number of Pixels in Spectrum: 1024
>>>>>Begin Spectral Data<<<<<
801.071	27911
801.214	27686
801.356	27386
801.499	27363
801.641	27169
801.783	27260
801.926	27272
802.068	27260
802.211	26918
802.353	26979
802.496	26758
802.638	26804
802.78	26762
802.923	26648
803.065	26697
803.208	26701
803.35	26731
803.492	26811
803.635	26921
803.777	26769
803.919	26823
804.061	27214
804.204	26861
804.346	26861
804.488	26796
804.63	26880
804.773	26830
804.915	26960
805.057	27093
805.199	27062
805.341	27207
805.483	27393
805.626	27405
805.768	27473
805.91	27454
806.052	27542
806.194	27587
806.336	27876
806.478	27888
806.62	28082
806.762	28242
806.904	28637
807.046	29185
807.188	29482
807.33	29722
807.472	30171
807.614	30639
807.756	31415
807.898	32339
808.04	33519
808.182	35261
808.324	37343
808.465	39751
808.607	42509
808.749	44925
808.891	46333
809.033	46440
809.174	44902
809.316	42639
809.458	39823
809.6	37072
809.741	34862
809.883	33123
810.025	31993
810.166	31129
810.308	30494
810.45	29946
810.591	29455
810.733	28938
810.875	28702
811.016	28318
811.158	28257
811.299	28318
811.441	28120
811.582	28029
811.724	27800
811.865	27686
812.007	27641
812.148	27473
812.29	27580
812.431	27599
812.573	27701
812.714	27903
812.855	27785
812.997	27918
813.138	28002
813.279	27865
813.421	27804
813.562	27751
813.703	27340
813.845	27310
813.986	26952
814.127	26739
814.268	26545
814.41	26484
814.551	26518
814.692	26743
814.833	26442
814.974	26423
815.115	26434
815.256	26305
815.397	26278
815.539	26282
815.68	26168
815.821	26115
815.962	26054
816.103	25959
816.244	25955
816.385	25913
816.526	25826
816.666	25510
816.807	25339
816.948	25487
817.089	25727
817.23	25419
817.371	25472
817.512	25282
817.653	25358
817.793	25244
817.934	25339
818.075	25247
818.216	25354
818.356	25327
818.497	25171
818.638	24954
818.778	25065
818.919	24943
819.06	25076
819.2	25129
819.341	25190
819.481	25259
819.622	25312
819.762	25426
819.903	25487
820.043	25381
820.184	25247
820.324	25206
820.465	25251
820.605	25270
820.746	25110
820.886	25019
821.026	25012
821.167	25050
821.307	25179
821.447	25091
821.588	24981
821.728	24802
821.868	24635
822.008	24467
822.149	24418
822.289	24300
822.429	24213
822.569	24144
822.709	24087
822.849	24038
822.99	24011
823.13	24003
823.27	23798
823.41	23672
823.55	23611
823.69	23699
823.83	23600
823.97	23691
824.11	23497
824.25	23402
824.389	23471
824.529	23360
824.669	23353
824.809	23478
824.949	23623
825.089	23539
825.228	23425
825.368	23258
825.508	23170
825.648	23197
825.787	23307
825.927	23269
826.067	23143
826.206	23239
826.346	23242
826.485	23197
826.625	23094
826.765	23353
826.904	23208
827.044	23079
827.183	22995
827.323	22869
827.462	22930
827.601	22889
827.741	22900
827.88	22828
828.02	22706
828.159	22835
828.298	22809
828.437	22850
828.577	22755
828.716	22892
828.855	22839
828.994	22557
829.134	22584
829.273	22584
829.412	22497
829.551	22531
829.69	22481
829.829	22554
829.968	22523
830.107	22668
830.246	22462
830.385	22459
830.524	22481
830.663	22257
830.802	22234
830.941	22124
831.08	22067
831.219	22200
831.357	22139
831.496	22314
831.635	22135
831.774	22082
831.913	21972
832.051	21926
832.19	21972
832.329	22055
832.467	21934
832.606	21915
832.744	21869
832.883	21998
833.022	22059
833.16	22101
833.299	22185
833.437	22333
833.576	22421
833.714	22466
833.852	22691
833.991	22858
834.129	22908
834.267	22892
834.406	22801
834.544	22725
834.682	22691
834.821	22523
834.959	22641
835.097	22284
835.235	22234
835.373	22177
835.511	22105
835.65	21987
835.788	22013
835.926	21751
836.064	21610
836.202	21580
836.34	21808
836.478	21873
836.615	21637
836.753	21766
836.891	21835
837.029	21591
837.167	21633
837.305	21545
837.443	21416
837.58	21359
837.718	21519
837.856	21530
837.993	21382
838.131	21412
838.269	21222
838.406	21325
838.544	21310
838.681	21009
838.819	21157
838.956	21005
839.094	20834
839.231	20967
839.369	21066
839.506	21294
839.643	21146
839.781	20800
839.918	20853
840.055	20925
840.193	20781
840.33	20849
840.467	20819
840.604	20845
840.742	21036
840.879	20663
841.016	20788
841.153	20682
841.29	20937
841.427	20868
841.564	20887
841.701	20788
841.838	20788
841.975	20720
842.112	20735
842.249	20682
842.385	20541
842.522	20853
842.659	20697
842.796	20568
842.933	20686
843.069	20640
843.206	20678
843.343	20796
843.479	20735
843.616	20625
843.752	20579
843.889	20606
844.025	20796
844.162	20678
844.298	20868
844.435	20941
844.571	21085
844.708	21283
844.844	21736
844.98	21994
845.117	22660
845.253	23277
845.389	24582
845.525	27545
845.661	32309
845.798	37890
845.934	42133
846.07	43559
846.206	42646
846.342	38834
846.478	33325
846.614	28348
846.75	25202
846.886	23292
847.022	22249
847.158	21519
847.294	21146
847.429	20689
847.565	20621
847.701	20663
847.837	20081
847.972	19997
848.108	20016
848.244	19879
848.379	19772
848.515	19712
848.65	19670
848.786	19651
848.921	19643
849.057	19696
849.192	19647
849.328	19590
849.463	19521
849.598	19384
849.734	19411
849.869	19293
850.004	19240
850.14	19308
850.275	19145
850.41	19160
850.545	19217
850.68	19217
850.815	19270
850.95	19110
851.085	19217
851.22	19255
851.355	19126
851.49	19206
851.625	19236
851.76	19278
851.895	19057
852.03	19080
852.165	19228
852.299	19228
852.434	19266
852.569	19285
852.703	19247
852.838	19266
852.973	19495
853.107	19346
853.242	19263
853.376	19175
853.511	19209
853.645	19206
853.78	19381
853.914	19392
854.048	19247
854.183	19324
854.317	19419
854.451	19559
854.585	19320
854.72	19400
854.854	19365
854.988	19209
855.122	19247
855.256	19103
855.39	19213
855.524	19244
855.658	19198
855.792	19156
855.926	19118
856.06	19110
856.194	19042
856.327	18989
856.461	19046
856.595	19042
856.729	18981
856.862	19187
856.996	18954
857.13	18981
857.263	19031
857.397	19088
857.53	18920
857.664	19046
857.797	19027
857.931	19080
858.064	18916
858.197	19122
858.331	18928
858.464	18833
858.597	18726
858.731	18996
858.864	18772
858.997	18920
859.13	18962
859.263	18890
859.396	18966
859.529	18856
859.662	18760
859.795	18859
859.928	19023
860.061	19004
860.194	19042
860.327	18844
860.46	18859
860.592	18913
860.725	18981
860.858	18825
860.99	18970
861.123	18738
861.256	18730
861.388	18776
861.521	19438
861.653	18730
861.786	18688
861.918	18681
862.05	18715
862.183	18856
862.315	18821
862.447	18856
862.58	18768
862.712	18509
862.844	18604
862.976	18642
863.108	18760
863.24	18844
863.372	18563
863.504	18464
863.636	18544
863.768	18498
863.9	18608
864.032	18365
864.164	18429
864.296	18665
864.428	18483
864.559	18574
864.691	18661
864.823	18570
864.954	18506
865.086	18502
865.217	18433
865.349	18369
865.48	18433
865.612	18426
865.743	18684
865.875	18403
866.006	18483
866.137	18399
866.269	18403
866.4	18456
866.531	18422
866.662	18422
866.793	18350
866.924	18315
867.055	18479
867.186	18391
867.317	18330
867.448	18285
867.579	18311
867.71	18342
867.841	18365
867.972	18384
868.103	18350
868.233	18426
868.364	18490
868.495	18445
868.625	18578
868.756	18764
868.886	18597
869.017	18661
869.147	18692
869.278	18696
869.408	18627
869.539	18661
869.669	18863
869.799	18768
869.929	18859
870.06	18738
870.19	19023
870.32	18852
870.45	19053
870.58	19175
870.71	19156
870.84	19183
870.97	19008
871.1	19129
871.23	19312
871.36	19343
871.489	19255
871.619	19377
871.749	19297
871.879	19537
872.008	19567
872.138	19381
872.267	19419
872.397	19362
872.526	19240
872.656	19217
872.785	19282
872.915	19464
873.044	19666
873.173	19468
873.303	19556
873.432	19491
873.561	19704
873.69	19571
873.819	19605
873.948	19765
874.077	19712
874.206	19628
874.335	19594
874.464	19780
874.593	20016
874.722	19951
874.851	20031
874.979	20062
875.108	20130
875.237	20111
875.365	20286
875.494	20103
875.623	20343
875.751	20252
875.88	20244
876.008	20374
876.136	20530
876.265	20750
876.393	20883
876.521	20902
876.65	20963
876.778	21005
876.906	21005
877.034	21039
877.162	21074
877.29	21039
877.418	21264
877.546	21245
877.674	21363
877.802	21492
877.93	21530
878.058	21671
878.185	21736
878.313	22017
878.441	22390
878.568	22656
878.696	23033
878.824	23824
878.951	24776
879.079	26012
879.206	27766
879.333	29429
879.461	30840
879.588	31708
879.715	31795
879.842	31061
879.97	29467
880.097	27736
880.224	26294
880.351	25396
880.478	24684
880.605	24011
880.732	23710
880.859	23775
880.986	23425
881.112	23414
881.239	23200
881.366	23140
881.493	23090
881.619	22965
881.746	22877
881.872	23056
881.999	22942
882.125	22965
882.252	23006
882.378	23159
882.505	23105
882.631	23029
882.757	22866
882.883	23041
883.01	23041
883.136	22961
883.262	22862
883.388	22778
883.514	23140
883.64	22889
883.766	22725
883.892	22668
884.018	22752
884.143	22938
884.269	22987
884.395	22759
884.52	22519
884.646	22721
884.772	22584
884.897	22462
885.023	22615
885.148	22668
885.274	22634
885.399	22645
885.524	22379
885.65	22238
885.775	22169
885.9	22181
886.025	22109
886.15	21922
886.275	21660
886.4	21580
886.525	21530
886.65	21363
886.775	21283
886.9	21359
887.025	21367
887.149	21169
887.274	20849
887.399	20720
887.523	20629
887.648	20484
887.773	20438
887.897	20636
888.021	20503
888.146	20355
888.27	20507
888.395	20362
888.519	20298
888.643	20180
888.767	20263
888.891	20050
889.015	19906
889.139	19989
889.263	19791
889.387	19963
889.511	20031
889.635	20046
889.759	19727
889.883	19780
890.006	19696
890.13	19719
890.254	19628
890.377	19567
890.501	19476
890.624	19301
890.748	19365
890.871	19118
890.995	19152
891.118	19110
891.241	19053
891.364	19015
891.488	19164
891.611	18981
891.734	19069
891.857	19012
891.98	19008
892.103	19015
892.226	18856
892.349	18852
892.471	18760
892.594	18764
892.717	18825
892.839	18692
892.962	18764
893.085	18707
893.207	18604
893.33	18642
893.452	18578
893.575	18654
893.697	18486
893.819	18787
893.941	18817
894.064	18711
894.186	18467
894.308	18369
894.43	18612
894.552	18620
894.674	18490
894.796	18296
894.918	18369
895.04	18391
895.161	18429
895.283	18471
895.405	18213
895.526	18395
895.648	18292
895.769	18308
895.891	18441
896.012	18441
896.134	18262
896.255	18273
896.376	18277
896.498	18311
896.619	18308
896.74	18205
896.861	18319
896.982	18677
897.103	18730
897.224	18612
897.345	18635
897.466	18399
897.587	18517
897.708	18608
897.828	18601
897.949	18532
898.07	18369
898.19	18429
898.311	18608
898.431	18403
898.552	18566
898.672	18620
898.792	18483
898.913	18502
899.033	18353
899.153	18270
899.273	18224
899.393	18277
899.513	18342
899.633	18296
899.753	18308
899.873	18182
899.993	18289
900.113	18209
900.232	18273
900.352	18178
900.472	18117
900.591	17958
900.711	18129
900.83	17980
900.95	18083
901.069	18140
901.189	18064
901.308	17783
901.427	17653
901.546	17729
901.665	17665
901.784	17638
901.904	17528
902.023	17467
902.141	17258
902.26	17200
902.379	17212
902.498	17162
902.617	17006
902.735	17075
902.854	17124
902.973	16984
903.091	16839
903.21	16805
903.328	16729
903.446	16592
903.565	16565
903.683	16519
903.801	16512
903.919	16512
904.038	16398
904.156	16352
904.274	16352
904.392	16344
904.51	16344
904.627	16204
904.745	16310
904.863	16211
904.981	15956
905.098	15926
905.216	15960
905.334	16017
905.451	15899
905.569	15930
905.686	15888
905.803	15892
905.921	15728
906.038	15816
906.155	15705
906.272	15679
906.389	15595
906.506	15473
906.623	15534
906.74	15348
906.857	15351
906.974	15329
907.091	15477
907.208	15580
907.324	15568
907.441	15408
907.557	15192
907.674	15173
907.79	15142
907.907	15013
908.023	15157
908.139	15051
908.256	15081
908.372	15085
908.488	14948
908.604	14792
908.72	14769
908.836	14899
908.952	14853
909.068	14830
909.184	14944
909.3	14857
909.415	14899
909.531	14872
909.647	14594
909.762	14613
909.878	14469
909.993	14648
910.108	14602
910.224	14507
910.339	14556
910.454	14503
910.57	14332
910.685	14320
910.8	14613
910.915	14465
911.03	14415
911.145	14252
911.259	14130
911.374	14195
911.489	14145
911.604	14020
911.718	13883
911.833	13921
911.947	13864
912.062	13822
912.176	14001
912.291	13936
912.405	13913
912.519	14031
912.633	14103
912.748	13997
912.862	13986
912.976	13795
913.09	13696
913.204	13772
913.318	13761
913.431	13784
913.545	13860
913.659	13772
913.772	13776
913.886	13681
914	13639
914.113	13803
914.226	13731
914.34	13712
914.453	13609
914.566	13696
914.68	13460
914.793	13563
914.906	13282
915.019	13297
915.132	13282
915.245	13293
915.358	13365
915.47	13301
915.583	13270
915.696	13434
915.809	13460
915.921	13491
916.034	13316
916.146	13194
916.259	13285
916.371	13358
916.483	13331
916.595	13297
916.708	13282
916.82	13255
916.932	13228
917.044	13164
917.156	13076
917.268	13042
917.38	13110
917.491	13080
917.603	13091
917.715	13053
917.826	13114
917.938	13031
918.049	12954
918.161	12966
918.272	13149
918.384	13133
918.495	13004
918.606	12848
918.717	12703
918.828	12837
918.939	12890
919.05	12779
919.161	12768
919.272	12612
919.383	12650
919.494	12764
919.604	12989
919.715	12776
919.826	12730
919.936	12707
920.047	12791
920.157	12738
920.267	12966
920.378	12852
920.488	12825
920.598	12966
920.708	13095
920.818	12913
920.928	12863
921.038	13126
921.148	12996
921.258	12688
921.368	12654
921.477	12601
921.587	12517
921.697	12456
921.806	12528
921.916	12369
922.025	12201
922.134	12224
922.244	12254
922.353	12228
922.462	12076
922.571	11923
922.68	11870
922.789	11790
922.898	11828
923.007	11775
923.116	11859
923.224	11802
923.333	11817
923.442	11741
923.55	11634
923.659	11653
923.767	11847
923.876	11699
923.984	11718
924.092	11585
924.201	11672
924.309	11649
924.417	11619
924.525	11573
924.633	11585
924.741	12346
924.849	11402
924.956	11505
925.064	11395
925.172	11326
925.279	11341
925.387	11326
925.494	11322
925.602	11417
925.709	11417
925.816	11337
925.924	11353
926.031	11444
926.138	11269
926.245	11341
926.352	11216
926.459	11341
926.566	11322
926.673	11242
926.779	11121
926.886	11189
926.993	11006
927.099	11022
927.206	10900
927.312	10904
927.419	11006
927.525	10965
927.631	10930
927.737	10839
927.843	10809
927.95	10755
928.056	10790
928.162	10908
928.267	10995
928.373	11414
928.479	10911
928.585	10733
928.69	10755
928.796	10934
928.901	10752
929.007	10603
929.112	10714
929.218	10656
929.323	10607
929.428	10546
929.533	10729
929.638	10474
929.743	10561
929.848	10618
929.953	10535
930.058	10504
930.163	10318
930.267	10394
930.372	10447
930.477	10306
930.581	10523
930.685	10360
930.79	10265
930.894	10169
930.998	10185
931.103	10352
931.207	10048
931.311	9915
931.415	9888
931.519	9644
931.623	9622
