Data from test_V78500241_1051.txt Node
Date: Fri Mar 25 14:41:02 CST 2022
User: usil
Spectrometer: V785-0024
Trigger mode: 0
Integration Time (sec): 4.000000E-1
Scans to average: 1
Nonlinearity correction enabled: false
Boxcar width: 0
Storing dark spectrum: false
XAxis mode: Wavelengths
Number of Pixels in Spectrum: 1024
>>>>>Begin Spectral Data<<<<<
801.071	22930
801.214	22656
801.356	22519
801.499	22409
801.641	22090
801.783	22230
801.926	22287
802.068	22226
802.211	22090
802.353	21956
802.496	21842
802.638	21747
802.78	21861
802.923	21595
803.065	21549
803.208	21545
803.35	21580
803.492	21755
803.635	21667
803.777	21644
803.919	21698
804.061	21937
804.204	21595
804.346	21481
804.488	21481
804.63	21504
804.773	21477
804.915	21507
805.057	21572
805.199	21564
805.341	21511
805.483	21622
805.626	21587
805.768	21405
805.91	21473
806.052	21504
806.194	21458
806.336	21652
806.478	21561
806.62	21542
806.762	21671
806.904	21781
807.046	22063
807.188	22055
807.33	21960
807.472	21956
807.614	21842
807.756	21899
807.898	21846
808.04	21854
808.182	21918
808.324	21865
808.465	22086
808.607	22337
808.749	22637
808.891	22687
809.033	22668
809.174	22687
809.316	22470
809.458	22242
809.6	22226
809.741	22181
809.883	22204
810.025	22318
810.166	22200
810.308	22173
810.45	22116
810.591	22067
810.733	21960
810.875	21915
811.016	21675
811.158	21663
811.299	21915
811.441	21819
811.582	21884
811.724	21644
811.865	21641
812.007	21660
812.148	21667
812.29	21838
812.431	21903
812.573	21991
812.714	22013
812.855	22105
812.997	22333
813.138	22508
813.279	22242
813.421	22211
813.562	22249
813.703	21918
813.845	21819
813.986	21564
814.127	21420
814.268	21397
814.41	21298
814.551	21355
814.692	21408
814.833	21131
814.974	21173
815.115	21241
815.256	21131
815.397	21039
815.539	21100
815.68	21043
815.821	20891
815.962	20979
816.103	21009
816.244	20804
816.385	20693
816.526	20693
816.666	20530
816.807	20404
816.948	20438
817.089	20541
817.23	20412
817.371	20412
817.512	20450
817.653	20431
817.793	20305
817.934	20434
818.075	20377
818.216	20374
818.356	20339
818.497	20298
818.638	20065
818.778	20134
818.919	20195
819.06	20054
819.2	20138
819.341	20347
819.481	20237
819.622	20404
819.762	20625
819.903	20632
820.043	20427
820.184	20476
820.324	20374
820.465	20511
820.605	20404
820.746	20431
820.886	20237
821.026	20370
821.167	20351
821.307	20336
821.447	20301
821.588	20214
821.728	19951
821.868	19978
822.008	19833
822.149	19818
822.289	19845
822.429	19419
822.569	19540
822.709	19445
822.849	19278
822.99	19297
823.13	19175
823.27	19316
823.41	19042
823.55	19027
823.69	19069
823.83	18996
823.97	18981
824.11	18890
824.25	18932
824.389	18840
824.529	18962
824.669	18837
824.809	18913
824.949	18913
825.089	18916
825.228	18848
825.368	18707
825.508	18604
825.648	18673
825.787	18749
825.927	18734
826.067	18528
826.206	18528
826.346	18779
826.485	18593
826.625	18589
826.765	18787
826.904	18661
827.044	18391
827.183	18448
827.323	18403
827.462	18372
827.601	18391
827.741	18220
827.88	18296
828.02	18167
828.159	18281
828.298	18277
828.437	18422
828.577	18235
828.716	18395
828.855	18235
828.994	18068
829.134	18091
829.273	18144
829.412	18148
829.551	17912
829.69	17988
829.829	18064
829.968	18220
830.107	18186
830.246	18117
830.385	18064
830.524	17999
830.663	17897
830.802	17729
830.941	17752
831.08	17714
831.219	17699
831.357	17748
831.496	17855
831.635	17680
831.774	17718
831.913	17474
832.051	17512
832.19	17554
832.329	17509
832.467	17478
832.606	17288
832.744	17467
832.883	17478
833.022	17311
833.16	17356
833.299	17490
833.437	17509
833.576	17486
833.714	17482
833.852	17467
833.991	17577
834.129	17528
834.267	17467
834.406	17581
834.544	17463
834.682	17509
834.821	17391
834.959	17638
835.097	17402
835.235	17672
835.373	17372
835.511	17493
835.65	17315
835.788	17280
835.926	17121
836.064	17140
836.202	17143
836.34	17383
836.478	17459
836.615	17341
836.753	17402
836.891	17497
837.029	17368
837.167	17395
837.305	17292
837.443	17178
837.58	17277
837.718	17147
837.856	17212
837.993	17067
838.131	17151
838.269	17113
838.406	17113
838.544	17022
838.681	16843
838.819	16843
838.956	16691
839.094	16713
839.231	16816
839.369	16820
839.506	17048
839.643	17018
839.781	16744
839.918	16683
840.055	16812
840.193	16634
840.33	16656
840.467	16706
840.604	16736
840.742	16999
840.879	16683
841.016	16596
841.153	16637
841.29	16831
841.427	16793
841.564	16611
841.701	16774
841.838	16744
841.975	16588
842.112	16615
842.249	16561
842.385	16386
842.522	16702
842.659	16428
842.796	16428
842.933	16466
843.069	16440
843.206	16398
843.343	16558
843.479	16470
843.616	16538
843.752	16291
843.889	16344
844.025	16421
844.162	16181
844.298	16390
844.435	16352
844.571	16143
844.708	16417
844.844	16554
844.98	16611
845.117	16409
845.253	16421
845.389	16344
845.525	16481
845.661	16436
845.798	16615
845.934	16858
846.07	16942
846.206	16831
846.342	16866
846.478	16546
846.614	16200
846.75	15998
846.886	15937
847.022	16040
847.158	15953
847.294	15800
847.429	15918
847.565	15835
847.701	16021
847.837	15633
847.972	15492
848.108	15682
848.244	15584
848.379	15454
848.515	15408
848.65	15351
848.786	15507
848.921	15393
849.057	15538
849.192	15526
849.328	15473
849.463	15458
849.598	15382
849.734	15340
849.869	15233
850.004	15226
850.14	15199
850.275	15294
850.41	15123
850.545	15142
850.68	15180
850.815	15287
850.95	15173
851.085	15336
851.22	15363
851.355	15252
851.49	15089
851.625	15100
851.76	15226
851.895	15097
852.03	15135
852.165	15154
852.299	15173
852.434	15287
852.569	15291
852.703	15249
852.838	15344
852.973	15302
853.107	15325
853.242	15241
853.376	15127
853.511	14929
853.645	14979
853.78	15150
853.914	15043
854.048	15081
854.183	15017
854.317	15070
854.451	15245
854.585	15127
854.72	15131
854.854	15249
854.988	15017
855.122	14998
855.256	14998
855.39	15055
855.524	15097
855.658	15165
855.792	15112
855.926	15173
856.06	15070
856.194	15222
856.327	15116
856.461	15017
856.595	14925
856.729	14963
856.862	15188
856.996	15135
857.13	15116
857.263	15233
857.397	15176
857.53	15108
857.664	15195
857.797	15157
857.931	15211
858.064	15203
858.197	15233
858.331	15066
858.464	15001
858.597	15089
858.731	15077
858.864	14990
858.997	15055
859.13	15062
859.263	15100
859.396	15230
859.529	15055
859.662	15142
859.795	15051
859.928	15108
860.061	15203
860.194	15260
860.327	15062
860.46	15112
860.592	15131
860.725	15203
860.858	15165
860.99	15131
861.123	15116
861.256	14967
861.388	15127
861.521	15759
861.653	14986
861.786	14937
861.918	14971
862.05	15093
862.183	15070
862.315	15108
862.447	15097
862.58	15036
862.712	14876
862.844	14815
862.976	14963
863.108	14887
863.24	15275
863.372	14872
863.504	14853
863.636	14864
863.768	14861
863.9	14918
864.032	14861
864.164	14887
864.296	14883
864.428	14876
864.559	14899
864.691	14994
864.823	14925
864.954	14883
865.086	14834
865.217	14861
865.349	14773
865.48	14819
865.612	14834
865.743	15005
865.875	14849
866.006	14758
866.137	14853
866.269	14864
866.4	14811
866.531	14705
866.662	14861
866.793	14743
866.924	14826
867.055	14777
867.186	14743
867.317	14689
867.448	14644
867.579	14701
867.71	14712
867.841	14739
867.972	14861
868.103	14883
868.233	14785
868.364	14823
868.495	14994
868.625	15058
868.756	15154
868.886	14979
869.017	14971
869.147	15184
869.278	15184
869.408	15142
869.539	15142
869.669	15017
869.799	15104
869.929	15184
870.06	15207
870.19	15302
870.32	15363
870.45	15450
870.58	15469
870.71	15526
870.84	15580
870.97	15485
871.1	15488
871.23	15629
871.36	15629
871.489	15564
871.619	15599
871.749	15622
871.879	15724
872.008	15739
872.138	15614
872.267	15644
872.397	15542
872.526	15462
872.656	15519
872.785	15534
872.915	15629
873.044	15751
873.173	15720
873.303	15717
873.432	15789
873.561	15812
873.69	15812
873.819	15682
873.948	15751
874.077	15705
874.206	15705
874.335	15816
874.464	15846
874.593	15903
874.722	15972
874.851	16013
874.979	16055
875.108	15960
875.237	16010
875.365	15922
875.494	16025
875.623	16135
875.751	16002
875.88	16093
876.008	16116
876.136	16192
876.265	16375
876.393	16538
876.521	16481
876.65	16493
876.778	16523
876.906	16409
877.034	16348
877.162	16443
877.29	16356
877.418	16428
877.546	16466
877.674	16470
877.802	16508
877.93	16440
878.058	16382
878.185	16405
878.313	16428
878.441	16466
878.568	16314
878.696	16474
878.824	16569
878.951	16656
879.079	16679
879.206	16828
879.333	16801
879.461	16847
879.588	17033
879.715	16938
879.842	17006
879.97	16869
880.097	16558
880.224	16405
880.351	16489
880.478	16417
880.605	16386
880.732	16409
880.859	16569
880.986	16478
881.112	16375
881.239	16211
881.366	16173
881.493	16101
881.619	15926
881.746	15956
881.872	16086
881.999	15991
882.125	15918
882.252	16097
882.378	16040
882.505	16166
882.631	15972
882.757	15816
882.883	15850
883.01	15819
883.136	15728
883.262	15778
883.388	15724
883.514	15873
883.64	15880
883.766	15739
883.892	15644
884.018	15701
884.143	15770
884.269	15895
884.395	15614
884.52	15492
884.646	15568
884.772	15492
884.897	15412
885.023	15500
885.148	15610
885.274	15675
885.399	15660
885.524	15648
885.65	15488
885.775	15515
885.9	15523
886.025	15675
886.15	15412
886.275	15435
886.4	15355
886.525	15477
886.65	15389
886.775	15367
886.9	15580
887.025	15808
887.149	15408
887.274	15351
887.399	15279
887.523	15264
887.648	15283
887.773	15211
887.897	15424
888.021	15363
888.146	15306
888.27	15443
888.395	15321
888.519	15382
888.643	15386
888.767	15336
888.891	15233
889.015	15138
889.139	15161
889.263	15135
889.387	15306
889.511	15397
889.635	15138
889.759	15180
889.883	15104
890.006	15169
890.13	15222
890.254	15024
890.377	14986
890.501	14876
890.624	14910
890.748	14906
890.871	14750
890.995	14735
891.118	14720
891.241	14785
891.364	14804
891.488	14967
891.611	14830
891.734	14769
891.857	14758
891.98	14845
892.103	14849
892.226	14826
892.349	14727
892.471	14644
892.594	14750
892.717	14861
892.839	14788
892.962	14750
893.085	14811
893.207	14788
893.33	14598
893.452	14731
893.575	14796
893.697	14720
893.819	14994
893.941	14933
894.064	14925
894.186	14792
894.308	14701
894.43	14842
894.552	14994
894.674	14979
894.796	14648
894.918	14845
895.04	14716
895.161	14990
895.283	14880
895.405	14781
895.526	14819
895.648	14864
895.769	14857
895.891	14853
896.012	14944
896.134	14986
896.255	14910
896.376	14891
896.498	14899
896.619	14994
896.74	14937
896.861	14979
896.982	15332
897.103	15329
897.224	15237
897.345	15173
897.466	15066
897.587	15195
897.708	15222
897.828	15355
897.949	15058
898.07	15108
898.19	15127
898.311	15264
898.431	15233
898.552	15165
898.672	15268
898.792	15393
898.913	15294
899.033	15214
899.153	15074
899.273	14937
899.393	15093
899.513	15066
899.633	15123
899.753	15169
899.873	15081
899.993	15203
900.113	15138
900.232	15104
900.352	15062
900.472	14982
900.591	14979
900.711	15081
900.83	14815
900.95	15127
901.069	15047
901.189	14891
901.308	14674
901.427	14556
901.546	14640
901.665	14632
901.784	14617
901.904	14533
902.023	14450
902.141	14210
902.26	14248
902.379	14290
902.498	14206
902.617	14096
902.735	14221
902.854	14153
902.973	14100
903.091	13913
903.21	13925
903.328	13986
903.446	13742
903.565	13776
903.683	13723
903.801	13655
903.919	13704
904.038	13780
904.156	13537
904.274	13624
904.392	13544
904.51	13518
904.627	13590
904.745	13540
904.863	13544
904.981	13381
905.098	13285
905.216	13278
905.334	13312
905.451	13244
905.569	13198
905.686	13282
905.803	13244
905.921	13095
906.038	13183
906.155	13008
906.272	12981
906.389	13034
906.506	12859
906.623	12871
906.74	12840
906.857	12707
906.974	12764
907.091	12791
907.208	12958
907.324	12897
907.441	12722
907.557	12642
907.674	12604
907.79	12486
907.907	12460
908.023	12677
908.139	12566
908.256	12490
908.372	12460
908.488	12414
908.604	12327
908.72	12270
908.836	12346
908.952	12296
909.068	12407
909.184	12445
909.3	12315
909.415	12395
909.531	12304
909.647	12041
909.762	12064
909.878	12133
909.993	12053
910.108	12129
910.224	12034
910.339	12011
910.454	11980
910.57	11885
910.685	11878
910.8	12117
910.915	12144
911.03	11901
911.145	11729
911.259	11767
911.374	11771
911.489	11676
911.604	11653
911.718	11543
911.833	11505
911.947	11383
912.062	11269
912.176	11478
912.291	11638
912.405	11452
912.519	11619
912.633	11729
912.748	11528
912.862	11532
912.976	11402
913.09	11258
913.204	11360
913.318	11349
913.431	11482
913.545	11478
913.659	11543
913.772	11429
913.886	11208
914	11299
914.113	11299
914.226	11349
914.34	11364
914.453	11178
914.566	11322
914.68	11212
914.793	11220
914.906	10995
915.019	10946
915.132	10911
915.245	11006
915.358	10980
915.47	10938
915.583	10999
915.696	11083
915.809	11143
915.921	11143
916.034	10991
916.146	10911
916.259	10881
916.371	11010
916.483	11075
916.595	10915
916.708	10866
916.82	10934
916.932	10881
917.044	10881
917.156	10900
917.268	10786
917.38	10801
917.491	10755
917.603	10831
917.715	10828
917.826	11006
917.938	10797
918.049	10668
918.161	10843
918.272	10915
918.384	10938
918.495	10839
918.606	10660
918.717	10592
918.828	10710
918.939	10755
919.05	10615
919.161	10710
919.272	10447
919.383	10508
919.494	10691
919.604	10843
919.715	10641
919.826	10527
919.936	10637
920.047	10729
920.157	10675
920.267	10930
920.378	10717
920.488	10721
920.598	10839
920.708	10934
920.818	10915
920.928	10847
921.038	11048
921.148	10961
921.258	10721
921.368	10615
921.477	10443
921.587	10580
921.697	10413
921.806	10546
921.916	10394
922.025	10234
922.134	10093
922.244	10139
922.353	10318
922.462	10112
922.571	10040
922.68	9869
922.789	9945
922.898	9987
923.007	9785
923.116	9911
923.224	9895
923.333	9888
923.442	9736
923.55	9759
923.659	9797
923.767	9827
923.876	9751
923.984	9804
924.092	9671
924.201	9762
924.309	9694
924.417	9827
924.525	9682
924.633	9686
924.741	10577
924.849	9614
924.956	9641
925.064	9557
925.172	9500
925.279	9481
925.387	9515
925.494	9564
925.602	9637
925.709	9519
925.816	9496
925.924	9473
926.031	9591
926.138	9534
926.245	9610
926.352	9488
926.459	9610
926.566	9610
926.673	9450
926.779	9336
926.886	9344
926.993	9256
927.099	9226
927.206	9150
927.312	9203
927.419	9233
927.525	9291
927.631	9294
927.737	9207
927.843	9043
927.95	8982
928.056	9214
928.162	9135
928.267	9176
928.373	9797
928.479	9214
928.585	9009
928.69	9062
928.796	9135
928.901	9070
929.007	8895
929.112	9047
929.218	9024
929.323	8876
929.428	8941
929.533	9074
929.638	8857
929.743	8929
929.848	8994
929.953	8868
930.058	8891
930.163	8693
930.267	8716
930.372	8895
930.477	8590
930.581	8990
930.685	8792
930.79	8712
930.894	8655
930.998	8667
931.103	8777
931.207	8393
931.311	8336
931.415	8248
931.519	8134
931.623	8054
