Data from test_V78500241_821.txt Node
Date: Fri Mar 25 14:39:26 CST 2022
User: usil
Spectrometer: V785-0024
Trigger mode: 0
Integration Time (sec): 4.000000E-1
Scans to average: 1
Nonlinearity correction enabled: false
Boxcar width: 0
Storing dark spectrum: false
XAxis mode: Wavelengths
Number of Pixels in Spectrum: 1024
>>>>>Begin Spectral Data<<<<<
801.071	26180
801.214	26202
801.356	25898
801.499	25826
801.641	25696
801.783	25559
801.926	25639
802.068	25441
802.211	25339
802.353	25426
802.496	25012
802.638	25122
802.78	25164
802.923	25175
803.065	25019
803.208	25050
803.35	25148
803.492	25080
803.635	25266
803.777	25122
803.919	25168
804.061	25449
804.204	25266
804.346	25202
804.488	25148
804.63	25236
804.773	25217
804.915	25183
805.057	25506
805.199	25472
805.341	25533
805.483	25537
805.626	25559
805.768	25624
805.91	25708
806.052	25841
806.194	25742
806.336	26035
806.478	26088
806.62	26187
806.762	26415
806.904	26872
807.046	27264
807.188	27401
807.33	27808
807.472	28097
807.614	28584
807.756	29265
807.898	29954
808.04	31000
808.182	32503
808.324	34257
808.465	36258
808.607	38842
808.749	40744
808.891	42053
809.033	42053
809.174	40839
809.316	38819
809.458	36490
809.6	34120
809.741	32027
809.883	30749
810.025	29676
810.166	28927
810.308	28375
810.45	27797
810.591	27530
810.733	26998
810.875	26716
811.016	26408
811.158	26195
811.299	26355
811.441	26400
811.582	26168
811.724	26016
811.865	25849
812.007	25708
812.148	25868
812.29	25731
812.431	25799
812.573	26084
812.714	26050
812.855	26081
812.997	26233
813.138	26172
813.279	26145
813.421	26020
813.562	25959
813.703	25738
813.845	25586
813.986	25240
814.127	25004
814.268	24935
814.41	24806
814.551	24787
814.692	24970
814.833	24795
814.974	24753
815.115	24760
815.256	24623
815.397	24585
815.539	24475
815.68	24403
815.821	24399
815.962	24452
816.103	24270
816.244	24300
816.385	24060
816.526	24098
816.666	23927
816.807	23703
816.948	23927
817.089	23958
817.23	23901
817.371	23714
817.512	23729
817.653	23695
817.793	23558
817.934	23760
818.075	23714
818.216	23577
818.356	23722
818.497	23387
818.638	23452
818.778	23410
818.919	23349
819.06	23535
819.2	23459
819.341	23482
819.481	23558
819.622	23649
819.762	23935
819.903	23764
820.043	23657
820.184	23707
820.324	23627
820.465	23573
820.605	23531
820.746	23516
820.886	23440
821.026	23433
821.167	23512
821.307	23524
821.447	23592
821.588	23414
821.728	23105
821.868	23003
822.008	22885
822.149	22980
822.289	22744
822.429	22645
822.569	22607
822.709	22428
822.849	22265
822.99	22318
823.13	22204
823.27	22242
823.41	22082
823.55	22082
823.69	22044
823.83	22074
823.97	22002
824.11	21994
824.25	21842
824.389	21869
824.529	21789
824.669	21823
824.809	21960
824.949	21964
825.089	21915
825.228	21945
825.368	21648
825.508	21717
825.648	21717
825.787	21652
825.927	21724
826.067	21595
826.206	21606
826.346	21618
826.485	21629
826.625	21713
826.765	21751
826.904	21709
827.044	21386
827.183	21340
827.323	21275
827.462	21230
827.601	21283
827.741	21264
827.88	21279
828.02	21195
828.159	21188
828.298	21298
828.437	21408
828.577	21150
828.716	21393
828.855	21264
828.994	20960
829.134	21043
829.273	21127
829.412	20960
829.551	20864
829.69	20971
829.829	21028
829.968	21070
830.107	20956
830.246	20902
830.385	20979
830.524	20819
830.663	20868
830.802	20686
830.941	20594
831.08	20533
831.219	20670
831.357	20583
831.496	20834
831.635	20659
831.774	20503
831.913	20541
832.051	20381
832.19	20396
832.329	20347
832.467	20427
832.606	20374
832.744	20290
832.883	20305
833.022	20442
833.16	20552
833.299	20545
833.437	20743
833.576	20777
833.714	20891
833.852	20982
833.991	21096
834.129	21218
834.267	21173
834.406	21039
834.544	21085
834.682	21055
834.821	20902
834.959	20937
835.097	20587
835.235	20708
835.373	20530
835.511	20457
835.65	20389
835.788	20275
835.926	20191
836.064	19989
836.202	19940
836.34	20199
836.478	20271
836.615	20210
836.753	20172
836.891	20237
837.029	20130
837.167	20024
837.305	19970
837.443	19967
837.58	19849
837.718	19913
837.856	19875
837.993	19871
838.131	19898
838.269	19837
838.406	19909
838.544	19845
838.681	19605
838.819	19582
838.956	19362
839.094	19381
839.231	19441
839.369	19594
839.506	19799
839.643	19670
839.781	19384
839.918	19213
840.055	19335
840.193	19282
840.33	19327
840.467	19365
840.604	19335
840.742	19529
840.879	19297
841.016	19362
841.153	19335
841.29	19468
841.427	19365
841.564	19327
841.701	19407
841.838	19293
841.975	19206
842.112	19289
842.249	19095
842.385	18993
842.522	19289
842.659	19251
842.796	19141
842.933	19228
843.069	19133
843.206	19171
843.343	19240
843.479	19148
843.616	19335
843.752	19091
843.889	19148
844.025	19221
844.162	19129
844.298	19331
844.435	19422
844.571	19339
844.708	19769
844.844	20027
844.98	20320
845.117	20788
845.253	21306
845.389	22481
845.525	24958
845.661	28839
845.798	33599
845.934	37377
846.07	38982
846.206	37986
846.342	34896
846.478	30262
846.614	25951
846.75	22999
846.886	21450
847.022	20556
847.158	19852
847.294	19441
847.429	19118
847.565	19008
847.701	19194
847.837	18585
847.972	18536
848.108	18426
848.244	18376
848.379	18273
848.515	18159
848.65	18163
848.786	18148
848.921	18121
849.057	18220
849.192	18254
849.328	18117
849.463	18068
849.598	18114
849.734	18022
849.869	17760
850.004	17726
850.14	17737
850.275	17847
850.41	17676
850.545	17661
850.68	17771
850.815	17817
850.95	17619
851.085	17984
851.22	17851
851.355	17798
851.49	17798
851.625	17710
851.76	17729
851.895	17729
852.03	17729
852.165	17764
852.299	17756
852.434	17855
852.569	17946
852.703	17813
852.838	17908
852.973	17920
853.107	17866
853.242	17779
853.376	17821
853.511	17600
853.645	17695
853.78	17904
853.914	17779
854.048	17851
854.183	17901
854.317	17916
854.451	18034
854.585	17821
854.72	17832
854.854	17935
854.988	17767
855.122	17745
855.256	17661
855.39	17786
855.524	17687
855.658	17741
855.792	17649
855.926	17809
856.06	17638
856.194	17775
856.327	17649
856.461	17528
856.595	17592
856.729	17547
856.862	17619
856.996	17570
857.13	17623
857.263	17707
857.397	17653
857.53	17642
857.664	17649
857.797	17672
857.931	17703
858.064	17532
858.197	17623
858.331	17512
858.464	17467
858.597	17482
858.731	17505
858.864	17417
858.997	17573
859.13	17539
859.263	17532
859.396	17592
859.529	17539
859.662	17505
859.795	17455
859.928	17497
860.061	17566
860.194	17570
860.327	17558
860.46	17452
860.592	17615
860.725	17547
860.858	17630
860.99	17448
861.123	17402
861.256	17486
861.388	17372
861.521	17950
861.653	17383
861.786	17318
861.918	17299
862.05	17448
862.183	17379
862.315	17425
862.447	17471
862.58	17337
862.712	17170
862.844	17117
862.976	17322
863.108	17360
863.24	17493
863.372	17128
863.504	17143
863.636	17124
863.768	17174
863.9	17212
864.032	17151
864.164	17151
864.296	17216
864.428	17292
864.559	17220
864.691	17265
864.823	17143
864.954	17121
865.086	17147
865.217	17094
865.349	17067
865.48	17105
865.612	17090
865.743	17113
865.875	17124
866.006	16965
866.137	17132
866.269	17136
866.4	17075
866.531	17010
866.662	17022
866.793	16961
866.924	17083
867.055	17155
867.186	17083
867.317	16976
867.448	16995
867.579	17022
867.71	16942
867.841	16938
867.972	17117
868.103	17117
868.233	17140
868.364	17170
868.495	17151
868.625	17174
868.756	17414
868.886	17311
869.017	17356
869.147	17436
869.278	17444
869.408	17353
869.539	17463
869.669	17467
869.799	17417
869.929	17436
870.06	17311
870.19	17627
870.32	17566
870.45	17794
870.58	17703
870.71	17786
870.84	17893
870.97	17779
871.1	17687
871.23	17980
871.36	18041
871.489	17878
871.619	17999
871.749	17961
871.879	18083
872.008	18083
872.138	17939
872.267	18026
872.397	17958
872.526	17893
872.656	17752
872.785	17942
872.915	18030
873.044	18155
873.173	18152
873.303	18224
873.432	18140
873.561	18247
873.69	18186
873.819	18254
873.948	18376
874.077	18330
874.206	18289
874.335	18258
874.464	18422
874.593	18597
874.722	18612
874.851	18681
874.979	18722
875.108	18692
875.237	18612
875.365	18700
875.494	18673
875.623	18878
875.751	18738
875.88	18837
876.008	19004
876.136	18954
876.265	19438
876.393	19430
876.521	19540
876.65	19609
876.778	19464
876.906	19453
877.034	19487
877.162	19601
877.29	19620
877.418	19624
877.546	19788
877.674	19822
877.802	19909
877.93	19959
878.058	20142
878.185	20180
878.313	20408
878.441	20651
878.568	20883
878.696	21412
878.824	21915
878.951	22793
879.079	23847
879.206	25316
879.333	26872
879.461	27968
879.588	28809
879.715	28774
879.842	28295
879.97	26743
880.097	25179
880.224	24011
880.351	23155
880.478	22554
880.605	22070
880.732	21873
880.859	21998
880.986	21526
881.112	21538
881.239	21382
881.366	21252
881.493	21233
881.619	21066
881.746	21070
881.872	21157
881.999	21169
882.125	21203
882.252	21264
882.378	21287
882.505	21412
882.631	21211
882.757	21058
882.883	21336
883.01	21135
883.136	21074
883.262	21013
883.388	20914
883.514	21051
883.64	21192
883.766	21123
883.892	20781
884.018	20975
884.143	20941
884.269	21116
884.395	20807
884.52	20811
884.646	20823
884.772	20777
884.897	20743
885.023	20777
885.148	20883
885.274	20857
885.399	20731
885.524	20556
885.65	20636
885.775	20499
885.9	20366
886.025	20275
886.15	20168
886.275	19982
886.4	19830
886.525	19791
886.65	19704
886.775	19651
886.9	19681
887.025	19772
887.149	19354
887.274	19213
887.399	19244
887.523	19103
887.648	18951
887.773	18924
887.897	19053
888.021	19015
888.146	18848
888.27	18951
888.395	18996
888.519	18844
888.643	18703
888.767	18719
888.891	18608
889.015	18418
889.139	18509
889.263	18429
889.387	18452
889.511	18521
889.635	18441
889.759	18315
889.883	18361
890.006	18292
890.13	18334
890.254	18076
890.377	18106
890.501	17904
890.624	17859
890.748	17996
890.871	17737
890.995	17665
891.118	17543
891.241	17710
891.364	17726
891.488	17805
891.611	17589
891.734	17554
891.857	17611
891.98	17653
892.103	17695
892.226	17577
892.349	17493
892.471	17429
892.594	17379
892.717	17532
892.839	17398
892.962	17448
893.085	17486
893.207	17353
893.33	17261
893.452	17341
893.575	17406
893.697	17200
893.819	17376
893.941	17368
894.064	17307
894.186	17239
894.308	17181
894.43	17353
894.552	17436
894.674	17265
894.796	17132
894.918	17200
895.04	17029
895.161	17162
895.283	17155
895.405	17041
895.526	17083
895.648	17083
895.769	17090
895.891	17280
896.012	17330
896.134	17140
896.255	17094
896.376	17155
896.498	17162
896.619	17121
896.74	17094
896.861	17197
896.982	17379
897.103	17551
897.224	17429
897.345	17284
897.466	17273
897.587	17181
897.708	17318
897.828	17493
897.949	17178
898.07	17132
898.19	17208
898.311	17383
898.431	17208
898.552	17406
898.672	17417
898.792	17360
898.913	17345
899.033	17227
899.153	17170
899.273	16987
899.393	17159
899.513	17064
899.633	17159
899.753	17220
899.873	17071
899.993	17216
900.113	17071
900.232	17136
900.352	17003
900.472	17014
900.591	16911
900.711	17056
900.83	16919
900.95	17029
901.069	17094
901.189	16877
901.308	16584
901.427	16531
901.546	16535
901.665	16497
901.784	16607
901.904	16462
902.023	16253
902.141	16162
902.26	16071
902.379	15991
902.498	16150
902.617	15873
902.735	16078
902.854	15972
902.973	15949
903.091	15671
903.21	15644
903.328	15644
903.446	15591
903.565	15534
903.683	15523
903.801	15359
903.919	15519
904.038	15439
904.156	15207
904.274	15302
904.392	15230
904.51	15173
904.627	15188
904.745	15325
904.863	15279
904.981	14990
905.098	14937
905.216	14914
905.334	14895
905.451	14906
905.569	14861
905.686	15032
905.803	14853
905.921	14644
906.038	14796
906.155	14689
906.272	14598
906.389	14594
906.506	14499
906.623	14374
906.74	14431
906.857	14271
906.974	14442
907.091	14423
907.208	14549
907.324	14442
907.441	14286
907.557	14168
907.674	14103
907.79	14050
907.907	14157
908.023	14187
908.139	14180
908.256	14100
908.372	14107
908.488	14054
908.604	13947
908.72	13879
908.836	13780
908.952	13887
909.068	13936
909.184	13921
909.3	13860
909.415	13917
909.531	13849
909.647	13696
909.762	13533
909.878	13499
909.993	13616
910.108	13632
910.224	13590
910.339	13586
910.454	13441
910.57	13392
910.685	13419
910.8	13753
910.915	13601
911.03	13495
911.145	13392
911.259	13202
911.374	13324
911.489	13198
911.604	13145
911.718	13050
911.833	13004
911.947	12947
912.062	12753
912.176	12939
912.291	12935
912.405	12985
912.519	13190
912.633	13156
912.748	13072
912.862	12939
912.976	12837
913.09	12787
913.204	12852
913.318	12821
913.431	12970
913.545	12954
913.659	12909
913.772	12817
913.886	12665
914	12715
914.113	12848
914.226	12905
914.34	12768
914.453	12635
914.566	12825
914.68	12582
914.793	12669
914.906	12445
915.019	12422
915.132	12334
915.245	12414
915.358	12490
915.47	12380
915.583	12433
915.696	12429
915.809	12601
915.921	12673
916.034	12391
916.146	12350
916.259	12350
916.371	12483
916.483	12399
916.595	12403
916.708	12311
916.82	12395
916.932	12258
917.044	12311
917.156	12254
917.268	12186
917.38	12197
917.491	12251
917.603	12251
917.715	12346
917.826	12353
917.938	12098
918.049	12076
918.161	12190
918.272	12308
918.384	12216
918.495	12239
918.606	11927
918.717	11984
918.828	11904
918.939	12049
919.05	11885
919.161	11939
919.272	11805
919.383	11843
919.494	11950
919.604	12201
919.715	11916
919.826	11878
919.936	11931
920.047	12053
920.157	12087
920.267	12129
920.378	11965
920.488	12015
920.598	12140
920.708	12247
920.818	12083
920.928	12049
921.038	12254
921.148	12251
921.258	12019
921.368	11847
921.477	11760
921.587	11745
921.697	11657
921.806	11729
921.916	11710
922.025	11493
922.134	11486
922.244	11341
922.353	11474
922.462	11372
922.571	11235
922.68	11147
922.789	11090
922.898	11143
923.007	10999
923.116	11121
923.224	11060
923.333	11037
923.442	11029
923.55	10987
923.659	10938
923.767	11003
923.876	10923
923.984	11010
924.092	10850
924.201	10915
924.309	10938
924.417	10889
924.525	10801
924.633	10858
924.741	11771
924.849	10706
924.956	10717
925.064	10569
925.172	10558
925.279	10584
925.387	10664
925.494	10645
925.602	10774
925.709	10763
925.816	10645
925.924	10672
926.031	10733
926.138	10634
926.245	10691
926.352	10580
926.459	10618
926.566	10691
926.673	10637
926.779	10436
926.886	10459
926.993	10363
927.099	10276
927.206	10310
927.312	10257
927.419	10276
927.525	10257
927.631	10348
927.737	10223
927.843	10124
927.95	10025
928.056	10147
928.162	10090
928.267	10280
928.373	10740
928.479	10303
928.585	10105
928.69	10147
928.796	10185
928.901	10128
929.007	9911
929.112	10059
929.218	10078
929.323	9979
929.428	9945
929.533	10074
929.638	9903
929.743	9922
929.848	9968
929.953	9941
930.058	9838
930.163	9690
930.267	9648
930.372	9831
930.477	9652
930.581	9907
930.685	9705
930.79	9637
930.894	9667
930.998	9599
931.103	9766
931.207	9378
931.311	9313
931.415	9264
931.519	9013
931.623	9108
