Data from test_V78500241_1804.txt Node
Date: Fri Mar 25 14:46:16 CST 2022
User: usil
Spectrometer: V785-0024
Trigger mode: 0
Integration Time (sec): 4.000000E-1
Scans to average: 1
Nonlinearity correction enabled: false
Boxcar width: 0
Storing dark spectrum: false
XAxis mode: Wavelengths
Number of Pixels in Spectrum: 1024
>>>>>Begin Spectral Data<<<<<
801.071	22200
801.214	22082
801.356	21800
801.499	21793
801.641	21618
801.783	21473
801.926	21530
802.068	21431
802.211	21382
802.353	21294
802.496	21089
802.638	21062
802.78	20971
802.923	21028
803.065	20857
803.208	20815
803.35	20823
803.492	20948
803.635	20975
803.777	20842
803.919	21001
804.061	21287
804.204	20899
804.346	20746
804.488	20788
804.63	20811
804.773	20807
804.915	20819
805.057	20906
805.199	20716
805.341	20785
805.483	20941
805.626	20902
805.768	20735
805.91	20735
806.052	20758
806.194	20716
806.336	20994
806.478	20777
806.62	20712
806.762	20933
806.904	21043
807.046	21256
807.188	21230
807.33	21154
807.472	20998
807.614	20967
807.756	21043
807.898	20887
808.04	20758
808.182	20845
808.324	20823
808.465	20925
808.607	21032
808.749	21184
808.891	21256
809.033	21264
809.174	21173
809.316	21169
809.458	21199
809.6	21161
809.741	21096
809.883	21275
810.025	21443
810.166	21370
810.308	21405
810.45	21325
810.591	21275
810.733	21020
810.875	21036
811.016	20823
811.158	20937
811.299	21005
811.441	21047
811.582	21039
811.724	20918
811.865	20910
812.007	20883
812.148	20883
812.29	21009
812.431	21077
812.573	21363
812.714	21367
812.855	21291
812.997	21595
813.138	21542
813.279	21542
813.421	21519
813.562	21351
813.703	21119
813.845	21116
813.986	20785
814.127	20686
814.268	20602
814.41	20613
814.551	20476
814.692	20503
814.833	20514
814.974	20415
815.115	20465
815.256	20267
815.397	20301
815.539	20290
815.68	20202
815.821	20164
815.962	20282
816.103	20252
816.244	20081
816.385	20024
816.526	19982
816.666	19807
816.807	19594
816.948	19700
817.089	19799
817.23	19696
817.371	19693
817.512	19704
817.653	19704
817.793	19491
817.934	19700
818.075	19772
818.216	19582
818.356	19533
818.497	19457
818.638	19327
818.778	19324
818.919	19381
819.06	19407
819.2	19419
819.341	19502
819.481	19464
819.622	19639
819.762	19849
819.903	19769
820.043	19647
820.184	19518
820.324	19533
820.465	19742
820.605	19639
820.746	19655
820.886	19396
821.026	19609
821.167	19594
821.307	19586
821.447	19571
821.588	19525
821.728	19320
821.868	19133
822.008	19031
822.149	18970
822.289	19034
822.429	18711
822.569	18703
822.709	18745
822.849	18475
822.99	18509
823.13	18536
823.27	18464
823.41	18251
823.55	18323
823.69	18289
823.83	18323
823.97	18273
824.11	18171
824.25	18041
824.389	18110
824.529	18235
824.669	18140
824.809	18163
824.949	18205
825.089	17977
825.228	17954
825.368	17836
825.508	17912
825.648	18068
825.787	17843
825.927	17958
826.067	17767
826.206	17828
826.346	17965
826.485	17916
826.625	17843
826.765	17912
826.904	17771
827.044	17649
827.183	17703
827.323	17634
827.462	17524
827.601	17535
827.741	17577
827.88	17474
828.02	17455
828.159	17566
828.298	17554
828.437	17680
828.577	17459
828.716	17661
828.855	17433
828.994	17303
829.134	17364
829.273	17261
829.412	17261
829.551	17288
829.69	17273
829.829	17330
829.968	17402
830.107	17364
830.246	17337
830.385	17212
830.524	17185
830.663	17315
830.802	16999
830.941	16919
831.08	16934
831.219	16980
831.357	17071
831.496	17170
831.635	16889
831.774	16843
831.913	16748
832.051	16713
832.19	16603
832.329	16645
832.467	16679
832.606	16573
832.744	16637
832.883	16698
833.022	16645
833.16	16637
833.299	16675
833.437	16611
833.576	16675
833.714	16740
833.852	16698
833.991	16793
834.129	16702
834.267	16691
834.406	16706
834.544	16733
834.682	16733
834.821	16687
834.959	16938
835.097	16694
835.235	16744
835.373	16588
835.511	16721
835.65	16561
835.788	16546
835.926	16497
836.064	16344
836.202	16432
836.34	16592
836.478	16649
836.615	16550
836.753	16531
836.891	16675
837.029	16584
837.167	16519
837.305	16596
837.443	16523
837.58	16443
837.718	16607
837.856	16466
837.993	16371
838.131	16504
838.269	16489
838.406	16455
838.544	16348
838.681	16166
838.819	16188
838.956	16029
839.094	16082
839.231	16112
839.369	16109
839.506	16455
839.643	16109
839.781	15937
839.918	15911
840.055	16147
840.193	16071
840.33	15934
840.467	15983
840.604	15991
840.742	16185
840.879	15915
841.016	15998
841.153	15838
841.29	16154
841.427	16143
841.564	16010
841.701	16097
841.838	15972
841.975	15915
842.112	15888
842.249	15835
842.385	15778
842.522	15880
842.659	15899
842.796	15819
842.933	15816
843.069	15732
843.206	15739
843.343	15838
843.479	15823
843.616	15770
843.752	15568
843.889	15526
844.025	15739
844.162	15515
844.298	15663
844.435	15572
844.571	15504
844.708	15644
844.844	15823
844.98	15641
845.117	15717
845.253	15549
845.389	15507
845.525	15519
845.661	15424
845.798	15325
845.934	15538
846.07	15351
846.206	15382
846.342	15523
846.478	15408
846.614	15184
846.75	15214
846.886	15077
847.022	15214
847.158	15287
847.294	15218
847.429	15093
847.565	15055
847.701	15420
847.837	14963
847.972	14849
848.108	14971
848.244	15036
848.379	14746
848.515	14765
848.65	14735
848.786	14724
848.921	14727
849.057	14743
849.192	14906
849.328	14823
849.463	14788
849.598	14712
849.734	14621
849.869	14659
850.004	14457
850.14	14549
850.275	14514
850.41	14461
850.545	14541
850.68	14450
850.815	14465
850.95	14408
851.085	14701
851.22	14549
851.355	14590
851.49	14549
851.625	14480
851.76	14610
851.895	14427
852.03	14454
852.165	14476
852.299	14556
852.434	14617
852.569	14575
852.703	14400
852.838	14545
852.973	14598
853.107	14610
853.242	14423
853.376	14473
853.511	14180
853.645	14267
853.78	14545
853.914	14533
854.048	14370
854.183	14199
854.317	14400
854.451	14465
854.585	14400
854.72	14351
854.854	14450
854.988	14294
855.122	14374
855.256	14240
855.39	14434
855.524	14469
855.658	14442
855.792	14343
855.926	14518
856.06	14454
856.194	14461
856.327	14446
856.461	14317
856.595	14366
856.729	14336
856.862	14507
856.996	14457
857.13	14423
857.263	14511
857.397	14522
857.53	14480
857.664	14393
857.797	14461
857.931	14469
858.064	14465
858.197	14507
858.331	14396
858.464	14396
858.597	14290
858.731	14427
858.864	14427
858.997	14339
859.13	14385
859.263	14427
859.396	14495
859.529	14396
859.662	14301
859.795	14385
859.928	14362
860.061	14579
860.194	14560
860.327	14454
860.46	14332
860.592	14469
860.725	14552
860.858	14526
860.99	14389
861.123	14362
861.256	14275
861.388	14389
861.521	14975
861.653	14164
861.786	14149
861.918	14263
862.05	14294
862.183	14298
862.315	14457
862.447	14484
862.58	14374
862.712	14233
862.844	14157
862.976	14218
863.108	14153
863.24	14484
863.372	14142
863.504	14153
863.636	14138
863.768	14237
863.9	14123
864.032	14206
864.164	14130
864.296	14088
864.428	14328
864.559	14320
864.691	14294
864.823	14244
864.954	14225
865.086	14221
865.217	14115
865.349	14062
865.48	14134
865.612	14149
865.743	14320
865.875	14218
866.006	14123
866.137	14123
866.269	14077
866.4	14073
866.531	14092
866.662	14043
866.793	14016
866.924	14126
867.055	14187
867.186	14088
867.317	14123
867.448	14081
867.579	14092
867.71	14065
867.841	14145
867.972	14153
868.103	14168
868.233	14130
868.364	14191
868.495	14199
868.625	14377
868.756	14431
868.886	14267
869.017	14358
869.147	14423
869.278	14465
869.408	14366
869.539	14400
869.669	14507
869.799	14522
869.929	14522
870.06	14526
870.19	14644
870.32	14568
870.45	14739
870.58	14880
870.71	14944
870.84	14883
870.97	14781
871.1	14792
871.23	14941
871.36	15017
871.489	14819
871.619	14861
871.749	14967
871.879	15104
872.008	15138
872.138	15032
872.267	15017
872.397	14956
872.526	14960
872.656	14765
872.785	14842
872.915	14979
873.044	15074
873.173	15005
873.303	15051
873.432	15127
873.561	15154
873.69	15009
873.819	15028
873.948	15119
874.077	15116
874.206	14960
874.335	15074
874.464	15188
874.593	15363
874.722	15298
874.851	15439
874.979	15317
875.108	15344
875.237	15264
875.365	15180
875.494	15260
875.623	15447
875.751	15344
875.88	15397
876.008	15595
876.136	15561
876.265	15819
876.393	15892
876.521	15899
876.65	15819
876.778	15785
876.906	15838
877.034	15709
877.162	15785
877.29	15701
877.418	15793
877.546	15861
877.674	15720
877.802	15751
877.93	15728
878.058	15720
878.185	15622
878.313	15762
878.441	15785
878.568	15641
878.696	15724
878.824	15804
878.951	15812
879.079	15987
879.206	16067
879.333	16029
879.461	15778
879.588	15979
879.715	15983
879.842	16013
879.97	15880
880.097	15629
880.224	15690
880.351	15660
880.478	15663
880.605	15568
880.732	15576
880.859	15770
880.986	15644
881.112	15637
881.239	15538
881.366	15348
881.493	15310
881.619	15180
881.746	15302
881.872	15283
881.999	15211
882.125	15272
882.252	15340
882.378	15306
882.505	15344
882.631	15218
882.757	15066
882.883	15131
883.01	15085
883.136	15146
883.262	14998
883.388	15028
883.514	15009
883.64	15264
883.766	15074
883.892	14864
884.018	14849
884.143	15081
884.269	15097
884.395	14819
884.52	14743
884.646	14834
884.772	14781
884.897	14613
885.023	14792
885.148	14834
885.274	14929
885.399	14830
885.524	14796
885.65	14800
885.775	14811
885.9	14838
886.025	14902
886.15	14872
886.275	14727
886.4	14655
886.525	14762
886.65	14629
886.775	14815
886.9	14937
887.025	15020
887.149	14823
887.274	14629
887.399	14587
887.523	14560
887.648	14602
887.773	14511
887.897	14705
888.021	14720
888.146	14640
888.27	14674
888.395	14708
888.519	14754
888.643	14731
888.767	14651
888.891	14613
889.015	14469
889.139	14492
889.263	14454
889.387	14651
889.511	14583
889.635	14613
889.759	14465
889.883	14514
890.006	14590
890.13	14533
890.254	14412
890.377	14442
890.501	14328
890.624	14271
890.748	14282
890.871	14180
890.995	14115
891.118	14149
891.241	14233
891.364	14229
891.488	14263
891.611	14073
891.734	14145
891.857	14298
891.98	14309
892.103	14275
892.226	14172
892.349	14054
892.471	13986
892.594	14153
892.717	14168
892.839	14176
892.962	14187
893.085	14176
893.207	14183
893.33	14062
893.452	14126
893.575	14259
893.697	14149
893.819	14256
893.941	14298
894.064	14237
894.186	14161
894.308	14172
894.43	14298
894.552	14351
894.674	14339
894.796	14180
894.918	14244
895.04	14206
895.161	14347
895.283	14351
895.405	14225
895.526	14199
895.648	14282
895.769	14263
895.891	14370
896.012	14332
896.134	14431
896.255	14317
896.376	14324
896.498	14328
896.619	14313
896.74	14377
896.861	14385
896.982	14667
897.103	14826
897.224	14552
897.345	14564
897.466	14545
897.587	14579
897.708	14785
897.828	14644
897.949	14610
898.07	14484
898.19	14518
898.311	14610
898.431	14590
898.552	14644
898.672	14815
898.792	14819
898.913	14686
899.033	14613
899.153	14465
899.273	14454
899.393	14370
899.513	14533
899.633	14579
899.753	14629
899.873	14552
899.993	14549
900.113	14526
900.232	14530
900.352	14499
900.472	14431
900.591	14389
900.711	14339
900.83	14431
900.95	14457
901.069	14461
901.189	14355
901.308	14100
901.427	14119
901.546	14065
901.665	14149
901.784	14092
901.904	13970
902.023	13833
902.141	13723
902.26	13674
902.379	13727
902.498	13693
902.617	13613
902.735	13712
902.854	13639
902.973	13590
903.091	13426
903.21	13373
903.328	13438
903.446	13320
903.565	13225
903.683	13194
903.801	13149
903.919	13179
904.038	13217
904.156	12985
904.274	13095
904.392	12977
904.51	13031
904.627	12966
904.745	13091
904.863	13103
904.981	12833
905.098	12650
905.216	12779
905.334	12798
905.451	12764
905.569	12711
905.686	12802
905.803	12734
905.921	12502
906.038	12730
906.155	12570
906.272	12399
906.389	12483
906.506	12388
906.623	12342
906.74	12353
906.857	12205
906.974	12159
907.091	12323
907.208	12407
907.324	12399
907.441	12247
907.557	12110
907.674	11969
907.79	12083
907.907	12087
908.023	12133
908.139	12106
908.256	12026
908.372	11958
908.488	11912
908.604	11809
908.72	11783
908.836	11882
908.952	11805
909.068	11870
909.184	11965
909.3	11798
909.415	11923
909.531	11783
909.647	11646
909.762	11638
909.878	11592
909.993	11592
910.108	11604
910.224	11543
910.339	11615
910.454	11524
910.57	11474
910.685	11455
910.8	11688
910.915	11589
911.03	11478
911.145	11288
911.259	11265
911.374	11315
911.489	11235
911.604	11185
911.718	11079
911.833	11083
911.947	10915
912.062	10839
912.176	11022
912.291	11105
912.405	10995
912.519	11181
912.633	11261
912.748	11067
912.862	11090
912.976	10976
913.09	10873
913.204	10991
913.318	10934
913.431	10980
913.545	11041
913.659	10942
913.772	10877
913.886	10782
914	10748
914.113	10866
914.226	10900
914.34	10881
914.453	10759
914.566	10942
914.68	10782
914.793	10725
914.906	10580
915.019	10538
915.132	10508
915.245	10512
915.358	10649
915.47	10561
915.583	10588
915.696	10672
915.809	10672
915.921	10622
916.034	10512
916.146	10500
916.259	10493
916.371	10580
916.483	10618
916.595	10424
916.708	10478
916.82	10535
916.932	10432
917.044	10447
917.156	10375
917.268	10417
917.38	10440
917.491	10337
917.603	10394
917.715	10523
917.826	10527
917.938	10375
918.049	10230
918.161	10466
918.272	10558
918.384	10588
918.495	10405
918.606	10276
918.717	10207
918.828	10303
918.939	10352
919.05	10154
919.161	10284
919.272	10051
919.383	10109
919.494	10284
919.604	10436
919.715	10253
919.826	10158
919.936	10318
920.047	10310
920.157	10299
920.267	10443
920.378	10337
920.488	10230
920.598	10577
920.708	10531
920.818	10451
920.928	10432
921.038	10637
921.148	10603
921.258	10352
921.368	10204
921.477	10169
921.587	10071
921.697	10093
921.806	10143
921.916	10021
922.025	9793
922.134	9812
922.244	9842
922.353	9854
922.462	9694
922.571	9686
922.68	9625
922.789	9469
922.898	9511
923.007	9477
923.116	9652
923.224	9500
923.333	9545
923.442	9458
923.55	9401
923.659	9450
923.767	9447
923.876	9355
923.984	9431
924.092	9325
924.201	9294
924.309	9321
924.417	9416
924.525	9363
924.633	9348
924.741	10253
924.849	9154
924.956	9233
925.064	9146
925.172	9104
925.279	9093
925.387	9218
925.494	9294
925.602	9283
925.709	9241
925.816	9138
925.924	9150
926.031	9291
926.138	9195
926.245	9169
926.352	9138
926.459	9291
926.566	9268
926.673	9157
926.779	9005
926.886	9005
926.993	8929
927.099	8804
927.206	8864
927.312	8788
927.419	8918
927.525	8899
927.631	8921
927.737	8811
927.843	8796
927.95	8629
928.056	8766
928.162	8849
928.267	8853
928.373	9439
928.479	8956
928.585	8636
928.69	8788
928.796	8739
928.901	8613
929.007	8503
929.112	8727
929.218	8678
929.323	8571
929.428	8556
929.533	8724
929.638	8545
929.743	8644
929.848	8670
929.953	8613
930.058	8488
930.163	8332
930.267	8366
930.372	8499
930.477	8317
930.581	8556
930.685	8495
930.79	8271
930.894	8374
930.998	8313
931.103	8434
931.207	8172
931.311	8058
931.415	8012
931.519	7795
931.623	7799
