Data from test_V78500241_2300.txt Node
Date: Fri Mar 25 14:49:43 CST 2022
User: usil
Spectrometer: V785-0024
Trigger mode: 0
Integration Time (sec): 4.000000E-1
Scans to average: 1
Nonlinearity correction enabled: false
Boxcar width: 0
Storing dark spectrum: false
XAxis mode: Wavelengths
Number of Pixels in Spectrum: 1024
>>>>>Begin Spectral Data<<<<<
801.071	22131
801.214	22093
801.356	21778
801.499	21827
801.641	21583
801.783	21686
801.926	21599
802.068	21386
802.211	21439
802.353	21428
802.496	21169
802.638	21062
802.78	21036
802.923	20845
803.065	20811
803.208	20921
803.35	20963
803.492	20994
803.635	21085
803.777	20925
803.919	20925
804.061	21252
804.204	20914
804.346	20883
804.488	20670
804.63	20899
804.773	20910
804.915	20746
805.057	20891
805.199	20887
805.341	20967
805.483	20956
805.626	20872
805.768	20762
805.91	20811
806.052	20883
806.194	20800
806.336	20979
806.478	20788
806.62	20883
806.762	20948
806.904	21039
807.046	21043
807.188	21039
807.33	21199
807.472	21264
807.614	21058
807.756	21154
807.898	20887
808.04	20815
808.182	20956
808.324	20921
808.465	20975
808.607	21116
808.749	21188
808.891	21370
809.033	21268
809.174	21188
809.316	21222
809.458	21207
809.6	21138
809.741	21279
809.883	21317
810.025	21374
810.166	21363
810.308	21306
810.45	21340
810.591	21294
810.733	21100
810.875	21131
811.016	20880
811.158	20868
811.299	21001
811.441	21062
811.582	21085
811.724	20990
811.865	20941
812.007	20960
812.148	20979
812.29	21032
812.431	21176
812.573	21226
812.714	21367
812.855	21504
812.997	21587
813.138	21644
813.279	21610
813.421	21420
813.562	21306
813.703	21367
813.845	21066
813.986	20796
814.127	20693
814.268	20617
814.41	20552
814.551	20473
814.692	20552
814.833	20488
814.974	20438
815.115	20537
815.256	20336
815.397	20301
815.539	20366
815.68	20282
815.821	20199
815.962	20309
816.103	20161
816.244	20122
816.385	19963
816.526	20008
816.666	19841
816.807	19803
816.948	19799
817.089	19761
817.23	19746
817.371	19742
817.512	19590
817.653	19666
817.793	19575
817.934	19563
818.075	19677
818.216	19635
818.356	19662
818.497	19487
818.638	19362
818.778	19255
818.919	19373
819.06	19270
819.2	19430
819.341	19468
819.481	19445
819.622	19696
819.762	19780
819.903	19841
820.043	19712
820.184	19594
820.324	19628
820.465	19689
820.605	19620
820.746	19609
820.886	19514
821.026	19548
821.167	19575
821.307	19655
821.447	19548
821.588	19453
821.728	19312
821.868	19129
822.008	19038
822.149	19080
822.289	19012
822.429	18806
822.569	18654
822.709	18681
822.849	18570
822.99	18608
823.13	18369
823.27	18521
823.41	18323
823.55	18235
823.69	18395
823.83	18330
823.97	18205
824.11	18087
824.25	18087
824.389	18155
824.529	18304
824.669	18110
824.809	18235
824.949	18182
825.089	18247
825.228	18102
825.368	17866
825.508	17840
825.648	17969
825.787	17916
825.927	17916
826.067	17786
826.206	17885
826.346	17847
826.485	17824
826.625	17779
826.765	17958
826.904	17897
827.044	17532
827.183	17608
827.323	17547
827.462	17554
827.601	17596
827.741	17528
827.88	17581
828.02	17459
828.159	17570
828.298	17562
828.437	17634
828.577	17577
828.716	17695
828.855	17501
828.994	17277
829.134	17178
829.273	17349
829.412	17311
829.551	17147
829.69	17258
829.829	17220
829.968	17440
830.107	17280
830.246	17326
830.385	17208
830.524	17166
830.663	17128
830.802	17094
830.941	16942
831.08	16949
831.219	16892
831.357	17010
831.496	17132
831.635	16881
831.774	16839
831.913	16771
832.051	16687
832.19	16748
832.329	16710
832.467	16691
832.606	16489
832.744	16569
832.883	16554
833.022	16554
833.16	16603
833.299	16660
833.437	16603
833.576	16698
833.714	16653
833.852	16675
833.991	16565
834.129	16847
834.267	16660
834.406	16675
834.544	16710
834.682	16641
834.821	16607
834.959	16782
835.097	16717
835.235	16687
835.373	16702
835.511	16713
835.65	16565
835.788	16554
835.926	16428
836.064	16360
836.202	16379
836.34	16493
836.478	16611
836.615	16455
836.753	16550
836.891	16542
837.029	16527
837.167	16542
837.305	16451
837.443	16417
837.58	16462
837.718	16485
837.856	16440
837.993	16371
838.131	16344
838.269	16386
838.406	16390
838.544	16188
838.681	16101
838.819	16131
838.956	15941
839.094	15892
839.231	15987
839.369	16067
839.506	16382
839.643	16158
839.781	16040
839.918	15975
840.055	15979
840.193	15922
840.33	15918
840.467	15861
840.604	15903
840.742	16211
840.879	15812
841.016	15865
841.153	15781
841.29	16048
841.427	15934
841.564	16040
841.701	15960
841.838	15827
841.975	15838
842.112	15781
842.249	15770
842.385	15644
842.522	15907
842.659	15751
842.796	15603
842.933	15652
843.069	15587
843.206	15720
843.343	15778
843.479	15698
843.616	15724
843.752	15606
843.889	15454
844.025	15762
844.162	15515
844.298	15671
844.435	15614
844.571	15439
844.708	15507
844.844	15629
844.98	15701
845.117	15587
845.253	15405
845.389	15344
845.525	15488
845.661	15367
845.798	15226
845.934	15389
846.07	15211
846.206	15279
846.342	15420
846.478	15344
846.614	15199
846.75	15116
846.886	15036
847.022	15157
847.158	15100
847.294	15032
847.429	15119
847.565	15085
847.701	15351
847.837	14899
847.972	14811
848.108	14849
848.244	14887
848.379	14823
848.515	14727
848.65	14712
848.786	14629
848.921	14602
849.057	14724
849.192	14678
849.328	14693
849.463	14746
849.598	14655
849.734	14507
849.869	14625
850.004	14408
850.14	14389
850.275	14465
850.41	14286
850.545	14465
850.68	14313
850.815	14488
850.95	14484
851.085	14606
851.22	14526
851.355	14419
851.49	14423
851.625	14396
851.76	14374
851.895	14271
852.03	14225
852.165	14362
852.299	14457
852.434	14514
852.569	14507
852.703	14381
852.838	14507
852.973	14651
853.107	14533
853.242	14438
853.376	14229
853.511	14214
853.645	14191
853.78	14400
853.914	14298
854.048	14168
854.183	14237
854.317	14294
854.451	14438
854.585	14286
854.72	14164
854.854	14400
854.988	14259
855.122	14278
855.256	14161
855.39	14290
855.524	14282
855.658	14358
855.792	14374
855.926	14298
856.06	14377
856.194	14499
856.327	14301
856.461	14252
856.595	14256
856.729	14149
856.862	14488
856.996	14339
857.13	14366
857.263	14393
857.397	14473
857.53	14339
857.664	14320
857.797	14389
857.931	14370
858.064	14366
858.197	14366
858.331	14180
858.464	14278
858.597	14138
858.731	14313
858.864	14290
858.997	14210
859.13	14233
859.263	14275
859.396	14317
859.529	14252
859.662	14244
859.795	14199
859.928	14237
860.061	14423
860.194	14488
860.327	14385
860.46	14362
860.592	14446
860.725	14495
860.858	14415
860.99	14271
861.123	14180
861.256	14240
861.388	14172
861.521	14788
861.653	14229
861.786	14065
861.918	14096
862.05	14157
862.183	14130
862.315	14362
862.447	14381
862.58	14263
862.712	14096
862.844	14039
862.976	14180
863.108	14164
863.24	14484
863.372	13902
863.504	14096
863.636	14012
863.768	14138
863.9	14103
864.032	14035
864.164	13917
864.296	14081
864.428	14294
864.559	14168
864.691	14115
864.823	14081
864.954	14050
865.086	14062
865.217	14103
865.349	13970
865.48	14130
865.612	13986
865.743	14278
865.875	13982
866.006	14035
866.137	14039
866.269	14031
866.4	14035
866.531	14001
866.662	13982
866.793	13944
866.924	13989
867.055	14149
867.186	14058
867.317	14020
867.448	13974
867.579	14035
867.71	13921
867.841	14039
867.972	14027
868.103	14096
868.233	14092
868.364	14054
868.495	14168
868.625	14271
868.756	14438
868.886	14233
869.017	14221
869.147	14400
869.278	14389
869.408	14377
869.539	14358
869.669	14370
869.799	14286
869.929	14362
870.06	14469
870.19	14636
870.32	14587
870.45	14648
870.58	14602
870.71	14724
870.84	14765
870.97	14693
871.1	14689
871.23	14872
871.36	14895
871.489	14826
871.619	14807
871.749	14868
871.879	14975
872.008	15005
872.138	14925
872.267	14891
872.397	14697
872.526	14746
872.656	14594
872.785	14792
872.915	14857
873.044	15020
873.173	14963
873.303	14960
873.432	14899
873.561	15017
873.69	14899
873.819	14853
873.948	15047
874.077	14960
874.206	14960
874.335	14906
874.464	15127
874.593	15256
874.722	15214
874.851	15245
874.979	15310
875.108	15268
875.237	15218
875.365	15222
875.494	15321
875.623	15260
875.751	15241
875.88	15245
876.008	15367
876.136	15420
876.265	15591
876.393	15816
876.521	15713
876.65	15789
876.778	15701
876.906	15587
877.034	15591
877.162	15652
877.29	15542
877.418	15603
877.546	15804
877.674	15572
877.802	15694
877.93	15610
878.058	15568
878.185	15629
878.313	15759
878.441	15622
878.568	15580
878.696	15663
878.824	15663
878.951	15728
879.079	15800
879.206	15945
879.333	15808
879.461	15732
879.588	15770
879.715	15804
879.842	15956
879.97	15652
880.097	15450
880.224	15507
880.351	15523
880.478	15545
880.605	15481
880.732	15591
880.859	15663
880.986	15515
881.112	15530
881.239	15447
881.366	15325
881.493	15249
881.619	15077
881.746	15203
881.872	15161
881.999	15119
882.125	15119
882.252	15218
882.378	15184
882.505	15256
882.631	15131
882.757	15028
882.883	15058
883.01	14921
883.136	14948
883.262	14834
883.388	14876
883.514	14998
883.64	14975
883.766	14975
883.892	14739
884.018	14849
884.143	15055
884.269	15085
884.395	14659
884.52	14644
884.646	14663
884.772	14575
884.897	14682
885.023	14708
885.148	14781
885.274	14758
885.399	14746
885.524	14701
885.65	14727
885.775	14689
885.9	14663
886.025	14845
886.15	14746
886.275	14743
886.4	14571
886.525	14568
886.65	14667
886.775	14651
886.9	14769
887.025	14960
887.149	14686
887.274	14549
887.399	14518
887.523	14530
887.648	14400
887.773	14400
887.897	14651
888.021	14625
888.146	14484
888.27	14583
888.395	14613
888.519	14560
888.643	14610
888.767	14598
888.891	14469
889.015	14358
889.139	14503
889.263	14366
889.387	14556
889.511	14625
889.635	14438
889.759	14446
889.883	14370
890.006	14415
890.13	14450
890.254	14290
890.377	14347
890.501	14210
890.624	14206
890.748	14317
890.871	14168
890.995	14065
891.118	13986
891.241	14069
891.364	14012
891.488	14164
891.611	14126
891.734	14115
891.857	14343
891.98	14145
892.103	14252
892.226	14111
892.349	14088
892.471	13871
892.594	14062
892.717	13993
892.839	14138
892.962	14031
893.085	14142
893.207	14027
893.33	14031
893.452	13997
893.575	14065
893.697	14031
893.819	14191
893.941	14271
894.064	14244
894.186	14008
894.308	14008
894.43	14252
894.552	14351
894.674	14248
894.796	14142
894.918	14138
895.04	14035
895.161	14271
895.283	14309
895.405	14218
895.526	14199
895.648	14233
895.769	14286
895.891	14229
896.012	14282
896.134	14286
896.255	14187
896.376	14317
896.498	14180
896.619	14324
896.74	14328
896.861	14332
896.982	14659
897.103	14792
897.224	14621
897.345	14522
897.466	14415
897.587	14499
897.708	14682
897.828	14659
897.949	14499
898.07	14415
898.19	14552
898.311	14678
898.431	14511
898.552	14644
898.672	14682
898.792	14678
898.913	14526
899.033	14610
899.153	14419
899.273	14415
899.393	14408
899.513	14469
899.633	14511
899.753	14389
899.873	14469
899.993	14560
900.113	14450
900.232	14541
900.352	14469
900.472	14377
900.591	14256
900.711	14366
900.83	14317
900.95	14476
901.069	14427
901.189	14240
901.308	14107
901.427	13932
901.546	13959
901.665	14031
901.784	14073
901.904	13959
902.023	13856
902.141	13616
902.26	13499
902.379	13594
902.498	13636
902.617	13643
902.735	13670
902.854	13578
902.973	13552
903.091	13278
903.21	13263
903.328	13213
903.446	13126
903.565	13171
903.683	13255
903.801	12943
903.919	13072
904.038	13050
904.156	12970
904.274	13004
904.392	12901
904.51	12916
904.627	12973
904.745	12985
904.863	13042
904.981	12753
905.098	12620
905.216	12715
905.334	12696
905.451	12623
905.569	12608
905.686	12665
905.803	12673
905.921	12483
906.038	12646
906.155	12452
906.272	12433
906.389	12399
906.506	12186
906.623	12304
906.74	12334
906.857	12064
906.974	12182
907.091	12270
907.208	12388
907.324	12308
907.441	12201
907.557	12053
907.674	11980
907.79	11840
907.907	11996
908.023	11992
908.139	11939
908.256	11958
908.372	11843
908.488	11904
908.604	11889
908.72	11710
908.836	11798
908.952	11707
909.068	11843
909.184	11950
909.3	11741
909.415	11859
909.531	11790
909.647	11505
909.762	11478
909.878	11455
909.993	11577
910.108	11497
910.224	11478
910.339	11467
910.454	11387
910.57	11368
910.685	11349
910.8	11649
910.915	11570
911.03	11433
911.145	11204
911.259	11170
911.374	11128
911.489	11216
911.604	11025
911.718	11018
911.833	11075
911.947	10839
912.062	10801
912.176	10877
912.291	10927
912.405	10972
912.519	11155
912.633	11102
912.748	10980
912.862	10968
912.976	10869
913.09	10736
913.204	10812
913.318	10896
913.431	11025
913.545	10938
913.659	10930
913.772	10809
913.886	10668
914	10653
914.113	10885
914.226	10828
914.34	10824
914.453	10664
914.566	10725
914.68	10675
914.793	10637
914.906	10459
915.019	10470
915.132	10440
915.245	10489
915.358	10478
915.47	10481
915.583	10542
915.696	10580
915.809	10550
915.921	10725
916.034	10394
916.146	10341
916.259	10390
916.371	10493
916.483	10561
916.595	10421
916.708	10421
916.82	10333
916.932	10455
917.044	10440
917.156	10470
917.268	10291
917.38	10234
917.491	10249
917.603	10390
917.715	10314
917.826	10474
917.938	10284
918.049	10185
918.161	10329
918.272	10466
918.384	10344
918.495	10356
918.606	10287
918.717	10158
918.828	10192
918.939	10242
919.05	10147
919.161	10124
919.272	10021
919.383	10128
919.494	10257
919.604	10394
919.715	10200
919.826	10147
919.936	10223
920.047	10204
920.157	10265
920.267	10424
920.378	10341
920.488	10185
920.598	10424
920.708	10565
920.818	10402
920.928	10303
921.038	10527
921.148	10497
921.258	10185
921.368	10158
921.477	10097
921.587	10010
921.697	9903
921.806	10055
921.916	9918
922.025	9785
922.134	9755
922.244	9709
922.353	9789
922.462	9694
922.571	9599
922.68	9538
922.789	9454
922.898	9454
923.007	9416
923.116	9447
923.224	9408
923.333	9496
923.442	9329
923.55	9359
923.659	9370
923.767	9397
923.876	9264
923.984	9431
924.092	9306
924.201	9367
924.309	9310
924.417	9279
924.525	9264
924.633	9268
924.741	10253
924.849	9173
924.956	9287
925.064	9104
925.172	9074
925.279	9051
925.387	9104
925.494	9093
925.602	9279
925.709	9230
925.816	9093
925.924	9135
926.031	9207
926.138	9097
926.245	9195
926.352	8998
926.459	9184
926.566	9268
926.673	9085
926.779	9017
926.886	8956
926.993	8948
927.099	8895
927.206	8785
927.312	8777
927.419	8830
927.525	8849
927.631	8864
927.737	8746
927.843	8724
927.95	8670
928.056	8705
928.162	8708
928.267	8811
928.373	9416
928.479	8849
928.585	8648
928.69	8678
928.796	8754
928.901	8636
929.007	8511
929.112	8545
929.218	8640
929.323	8587
929.428	8549
929.533	8727
929.638	8530
929.743	8575
929.848	8518
929.953	8522
930.058	8488
930.163	8362
930.267	8294
930.372	8488
930.477	8294
930.581	8545
930.685	8442
930.79	8298
930.894	8324
930.998	8248
931.103	8415
931.207	8073
931.311	8001
931.415	7936
931.519	7795
931.623	7757
