Data from test_V78500241_3252.txt Node
Date: Fri Mar 25 14:56:21 CST 2022
User: usil
Spectrometer: V785-0024
Trigger mode: 0
Integration Time (sec): 4.000000E-1
Scans to average: 1
Nonlinearity correction enabled: false
Boxcar width: 0
Storing dark spectrum: false
XAxis mode: Wavelengths
Number of Pixels in Spectrum: 1024
>>>>>Begin Spectral Data<<<<<
801.071	21937
801.214	21861
801.356	21568
801.499	21496
801.641	21439
801.783	21367
801.926	21378
802.068	21287
802.211	21222
802.353	21154
802.496	20967
802.638	20994
802.78	20883
802.923	20762
803.065	20651
803.208	20629
803.35	20720
803.492	20796
803.635	20758
803.777	20625
803.919	20792
804.061	20990
804.204	20697
804.346	20602
804.488	20541
804.63	20701
804.773	20533
804.915	20522
805.057	20648
805.199	20590
805.341	20663
805.483	20727
805.626	20587
805.768	20522
805.91	20629
806.052	20640
806.194	20476
806.336	20674
806.478	20708
806.62	20469
806.762	20670
806.904	20800
807.046	21047
807.188	20990
807.33	20979
807.472	20880
807.614	20819
807.756	20895
807.898	20724
808.04	20609
808.182	20663
808.324	20598
808.465	20838
808.607	20994
808.749	20944
808.891	20914
809.033	21157
809.174	21108
809.316	20918
809.458	20925
809.6	20853
809.741	20944
809.883	20941
810.025	21154
810.166	21127
810.308	21180
810.45	21070
810.591	20956
810.733	20857
810.875	20773
811.016	20621
811.158	20708
811.299	20830
811.441	20868
811.582	20891
811.724	20754
811.865	20655
812.007	20640
812.148	20640
812.29	20724
812.431	20838
812.573	20967
812.714	21085
812.855	21199
812.997	21302
813.138	21435
813.279	21340
813.421	21245
813.562	21176
813.703	20921
813.845	20883
813.986	20625
814.127	20412
814.268	20298
814.41	20328
814.551	20191
814.692	20309
814.833	20275
814.974	20275
815.115	20259
815.256	20161
815.397	20229
815.539	20237
815.68	20122
815.821	19913
815.962	20077
816.103	19936
816.244	19765
816.385	19784
816.526	19715
816.666	19571
816.807	19362
816.948	19362
817.089	19453
817.23	19521
817.371	19396
817.512	19422
817.653	19422
817.793	19236
817.934	19381
818.075	19476
818.216	19362
818.356	19468
818.497	19168
818.638	19099
818.778	18996
818.919	19019
819.06	19156
819.2	19164
819.341	19179
819.481	19213
819.622	19354
819.762	19567
819.903	19632
820.043	19381
820.184	19339
820.324	19377
820.465	19483
820.605	19396
820.746	19320
820.886	19168
821.026	19388
821.167	19335
821.307	19426
821.447	19301
821.588	19274
821.728	19034
821.868	18958
822.008	18768
822.149	18749
822.289	18681
822.429	18418
822.569	18551
822.709	18536
822.849	18235
822.99	18239
823.13	18232
823.27	18224
823.41	18247
823.55	17904
823.69	18125
823.83	18091
823.97	17958
824.11	17813
824.25	17790
824.389	17840
824.529	17874
824.669	17813
824.809	17984
824.949	17912
825.089	17897
825.228	17840
825.368	17657
825.508	17657
825.648	17672
825.787	17604
825.927	17745
826.067	17570
826.206	17676
826.346	17726
826.485	17596
826.625	17611
826.765	17638
826.904	17691
827.044	17539
827.183	17353
827.323	17345
827.462	17254
827.601	17376
827.741	17292
827.88	17379
828.02	17299
828.159	17231
828.298	17383
828.437	17410
828.577	17292
828.716	17455
828.855	17360
828.994	17075
829.134	17151
829.273	17086
829.412	17056
829.551	16984
829.69	17060
829.829	17181
829.968	17147
830.107	17090
830.246	17124
830.385	16968
830.524	16911
830.663	16835
830.802	16809
830.941	16618
831.08	16710
831.219	16698
831.357	16801
831.496	16946
831.635	16691
831.774	16618
831.913	16577
832.051	16443
832.19	16417
832.329	16550
832.467	16386
832.606	16379
832.744	16352
832.883	16386
833.022	16337
833.16	16322
833.299	16360
833.437	16421
833.576	16398
833.714	16421
833.852	16481
833.991	16447
834.129	16512
834.267	16577
834.406	16546
834.544	16580
834.682	16432
834.821	16413
834.959	16618
835.097	16500
835.235	16538
835.373	16367
835.511	16436
835.65	16360
835.788	16314
835.926	16257
836.064	16055
836.202	16253
836.34	16360
836.478	16398
836.615	16299
836.753	16284
836.891	16421
837.029	16341
837.167	16409
837.305	16230
837.443	16204
837.58	16177
837.718	16344
837.856	16261
837.993	16272
838.131	16226
838.269	16169
838.406	16105
838.544	16074
838.681	15956
838.819	15918
838.956	15739
839.094	15835
839.231	15759
839.369	16017
839.506	16192
839.643	15987
839.781	15873
839.918	15705
840.055	15747
840.193	15812
840.33	15823
840.467	15850
840.604	15819
840.742	16040
840.879	15622
841.016	15793
841.153	15663
841.29	15892
841.427	15778
841.564	15762
841.701	15732
841.838	15770
841.975	15690
842.112	15705
842.249	15584
842.385	15515
842.522	15759
842.659	15538
842.796	15542
842.933	15614
843.069	15485
843.206	15447
843.343	15667
843.479	15523
843.616	15454
843.752	15351
843.889	15344
844.025	15507
844.162	15321
844.298	15530
844.435	15355
844.571	15272
844.708	15428
844.844	15504
844.98	15458
845.117	15473
845.253	15332
845.389	15188
845.525	15260
845.661	15264
845.798	15100
845.934	15207
846.07	15188
846.206	15066
846.342	15146
846.478	15237
846.614	14975
846.75	14887
846.886	14830
847.022	14937
847.158	14994
847.294	14899
847.429	14994
847.565	14921
847.701	15188
847.837	14632
847.972	14678
848.108	14754
848.244	14712
848.379	14610
848.515	14473
848.65	14476
848.786	14450
848.921	14537
849.057	14659
849.192	14507
849.328	14503
849.463	14480
849.598	14495
849.734	14457
849.869	14423
850.004	14381
850.14	14404
850.275	14313
850.41	14180
850.545	14237
850.68	14271
850.815	14271
850.95	14229
851.085	14476
851.22	14343
851.355	14366
851.49	14206
851.625	14237
851.76	14191
851.895	14233
852.03	14225
852.165	14301
852.299	14355
852.434	14362
852.569	14336
852.703	14294
852.838	14370
852.973	14427
853.107	14431
853.242	14282
853.376	14172
853.511	14035
853.645	14111
853.78	14419
853.914	14161
854.048	14153
854.183	14130
854.317	14187
854.451	14377
854.585	14065
854.72	14199
854.854	14126
854.988	14115
855.122	14062
855.256	14088
855.39	14103
855.524	14240
855.658	14210
855.792	14221
855.926	14214
856.06	14138
856.194	14210
856.327	14081
856.461	14092
856.595	14096
856.729	14180
856.862	14172
856.996	14221
857.13	14225
857.263	14237
857.397	14267
857.53	14119
857.664	14210
857.797	14263
857.931	14267
858.064	14252
858.197	14259
858.331	14240
858.464	14142
858.597	14062
858.731	14161
858.864	14115
858.997	14077
859.13	14221
859.263	14278
859.396	14183
859.529	14180
859.662	14088
859.795	14111
859.928	14172
860.061	14267
860.194	14347
860.327	14202
860.46	14187
860.592	14332
860.725	14252
860.858	14233
860.99	14145
861.123	14161
861.256	14069
861.388	14164
861.521	14872
861.653	13986
861.786	14035
861.918	14084
862.05	14103
862.183	14153
862.315	14092
862.447	14183
862.58	14084
862.712	14012
862.844	13898
862.976	14058
863.108	13993
863.24	14301
863.372	13936
863.504	13902
863.636	13970
863.768	13978
863.9	13955
864.032	13871
864.164	13917
864.296	14027
864.428	14016
864.559	14092
864.691	14065
864.823	14069
864.954	14001
865.086	13974
865.217	13925
865.349	13845
865.48	13940
865.612	14027
865.743	14088
865.875	13906
866.006	13879
866.137	13909
866.269	13776
866.4	13925
866.531	13974
866.662	13837
866.793	13890
866.924	13826
867.055	14012
867.186	13879
867.317	13909
867.448	13890
867.579	13913
867.71	13753
867.841	13750
867.972	13868
868.103	13921
868.233	14054
868.364	13944
868.495	14046
868.625	14191
868.756	14267
868.886	14096
869.017	14100
869.147	14271
869.278	14267
869.408	14199
869.539	14096
869.669	14339
869.799	14138
869.929	14267
870.06	14309
870.19	14473
870.32	14438
870.45	14507
870.58	14632
870.71	14731
870.84	14648
870.97	14606
871.1	14526
871.23	14689
871.36	14857
871.489	14750
871.619	14876
871.749	14762
871.879	14849
872.008	14811
872.138	14708
872.267	14670
872.397	14697
872.526	14617
872.656	14549
872.785	14617
872.915	14826
873.044	14944
873.173	14762
873.303	14861
873.432	14861
873.561	14952
873.69	14807
873.819	14819
873.948	14937
874.077	14864
874.206	14773
874.335	14921
874.464	14906
874.593	15154
874.722	15032
874.851	15161
874.979	15028
875.108	15222
875.237	15093
875.365	15165
875.494	14986
875.623	15241
875.751	15100
875.88	15173
876.008	15348
876.136	15351
876.265	15568
876.393	15781
876.521	15679
876.65	15603
876.778	15679
876.906	15481
877.034	15488
877.162	15599
877.29	15568
877.418	15477
877.546	15675
877.674	15599
877.802	15530
877.93	15618
878.058	15557
878.185	15439
878.313	15587
878.441	15580
878.568	15393
878.696	15450
878.824	15526
878.951	15663
879.079	15698
879.206	15941
879.333	15720
879.461	15606
879.588	15728
879.715	15694
879.842	15964
879.97	15682
880.097	15469
880.224	15450
880.351	15466
880.478	15507
880.605	15542
880.732	15401
880.859	15591
880.986	15458
881.112	15488
881.239	15340
881.366	15306
881.493	15176
881.619	15074
881.746	15123
881.872	15150
881.999	15138
882.125	15036
882.252	15077
882.378	15051
882.505	15317
882.631	15020
882.757	14853
882.883	15017
883.01	14830
883.136	14830
883.262	14678
883.388	14758
883.514	14887
883.64	14975
883.766	14842
883.892	14689
884.018	14735
884.143	14956
884.269	14971
884.395	14670
884.52	14507
884.646	14579
884.772	14457
884.897	14530
885.023	14594
885.148	14735
885.274	14792
885.399	14670
885.524	14568
885.65	14606
885.775	14682
885.9	14636
886.025	14724
886.15	14686
886.275	14606
886.4	14412
886.525	14659
886.65	14583
886.775	14602
886.9	14762
887.025	14826
887.149	14670
887.274	14511
887.399	14484
887.523	14446
887.648	14385
887.773	14381
887.897	14617
888.021	14492
888.146	14400
888.27	14670
888.395	14564
888.519	14465
888.643	14446
888.767	14434
888.891	14336
889.015	14336
889.139	14408
889.263	14248
889.387	14324
889.511	14476
889.635	14434
889.759	14286
889.883	14362
890.006	14290
890.13	14317
890.254	14286
890.377	14275
890.501	14149
890.624	14195
890.748	14218
890.871	14039
890.995	13902
891.118	13947
891.241	14054
891.364	13936
891.488	14153
891.611	13951
891.734	13871
891.857	14065
891.98	13978
892.103	14035
892.226	14054
892.349	13997
892.471	13818
892.594	13974
892.717	14020
892.839	13902
892.962	14096
893.085	14043
893.207	14005
893.33	13913
893.452	13913
893.575	13997
893.697	13932
893.819	14126
893.941	14233
894.064	14199
894.186	13970
894.308	13879
894.43	14145
894.552	14248
894.674	14119
894.796	14005
894.918	13986
895.04	13967
895.161	14069
895.283	14233
895.405	14088
895.526	14088
895.648	14130
895.769	14240
895.891	14195
896.012	14263
896.134	14183
896.255	14142
896.376	14180
896.498	14176
896.619	14202
896.74	14176
896.861	14187
896.982	14568
897.103	14629
897.224	14446
897.345	14332
897.466	14366
897.587	14362
897.708	14568
897.828	14499
897.949	14469
898.07	14298
898.19	14446
898.311	14621
898.431	14415
898.552	14549
898.672	14655
898.792	14644
898.913	14590
899.033	14465
899.153	14336
899.273	14244
899.393	14396
899.513	14423
899.633	14400
899.753	14404
899.873	14294
899.993	14465
900.113	14389
900.232	14423
900.352	14271
900.472	14252
900.591	14233
900.711	14294
900.83	14225
900.95	14355
901.069	14263
901.189	14134
901.308	14062
901.427	13925
901.546	13921
901.665	13887
901.784	13959
901.904	13788
902.023	13647
902.141	13647
902.26	13521
902.379	13662
902.498	13449
902.617	13445
902.735	13575
902.854	13476
902.973	13381
903.091	13171
903.21	13118
903.328	13164
903.446	13152
903.565	13057
903.683	13061
903.801	12932
903.919	13000
904.038	13042
904.156	12913
904.274	12886
904.392	12806
904.51	12867
904.627	12871
904.745	12897
904.863	12916
904.981	12703
905.098	12703
905.216	12623
905.334	12662
905.451	12616
905.569	12574
905.686	12627
905.803	12589
905.921	12323
906.038	12433
906.155	12384
906.272	12311
906.389	12361
906.506	12258
906.623	12110
906.74	12175
906.857	12079
906.974	12019
907.091	12190
907.208	12311
907.324	12117
907.441	12034
907.557	11958
907.674	11912
907.79	11859
907.907	11897
908.023	11935
908.139	11866
908.256	11817
908.372	11813
908.488	11783
908.604	11733
908.72	11657
908.836	11638
908.952	11665
909.068	11653
909.184	11786
909.3	11722
909.415	11718
909.531	11703
909.647	11425
909.762	11452
909.878	11440
909.993	11421
910.108	11452
910.224	11288
910.339	11471
910.454	11410
910.57	11315
910.685	11166
910.8	11509
910.915	11440
911.03	11277
911.145	11162
911.259	11170
911.374	11056
911.489	11102
911.604	11094
911.718	10896
911.833	10919
911.947	10755
912.062	10793
912.176	10847
912.291	10839
912.405	10930
912.519	11094
912.633	11128
912.748	10915
912.862	10927
912.976	10869
913.09	10683
913.204	10755
913.318	10809
913.431	10866
913.545	10835
913.659	10873
913.772	10759
913.886	10691
914	10733
914.113	10763
914.226	10782
914.34	10736
914.453	10630
914.566	10733
914.68	10603
914.793	10634
914.906	10440
915.019	10371
915.132	10314
915.245	10337
915.358	10436
915.47	10409
915.583	10455
915.696	10455
915.809	10535
915.921	10634
916.034	10375
916.146	10348
916.259	10325
916.371	10455
916.483	10398
916.595	10348
916.708	10379
916.82	10386
916.932	10303
917.044	10344
917.156	10356
917.268	10272
917.38	10246
917.491	10147
917.603	10238
917.715	10394
917.826	10352
917.938	10234
918.049	10147
918.161	10272
918.272	10360
918.384	10382
918.495	10306
918.606	10135
918.717	10021
918.828	10131
918.939	10128
919.05	10063
919.161	10063
919.272	9945
919.383	9991
919.494	10249
919.604	10287
919.715	10139
919.826	10010
919.936	10162
920.047	10257
920.157	10147
920.267	10390
920.378	10173
920.488	10158
920.598	10318
920.708	10428
920.818	10325
920.928	10329
921.038	10447
921.148	10379
921.258	10207
921.368	10063
921.477	10059
921.587	9968
921.697	9850
921.806	10071
921.916	9915
922.025	9724
922.134	9694
922.244	9625
922.353	9720
922.462	9622
922.571	9618
922.68	9367
922.789	9420
922.898	9389
923.007	9378
923.116	9378
923.224	9420
923.333	9291
923.442	9321
923.55	9256
923.659	9298
923.767	9412
923.876	9283
923.984	9344
924.092	9218
924.201	9306
924.309	9306
924.417	9291
924.525	9230
924.633	9298
924.741	10101
924.849	9001
924.956	9283
925.064	9077
925.172	8990
925.279	8994
925.387	9127
925.494	9047
925.602	9161
925.709	9161
925.816	9001
925.924	9051
926.031	9188
926.138	9005
926.245	9146
926.352	9058
926.459	9173
926.566	9157
926.673	9024
926.779	8952
926.886	9009
926.993	8872
927.099	8845
927.206	8811
927.312	8781
927.419	8899
927.525	8849
927.631	8853
927.737	8754
927.843	8720
927.95	8537
928.056	8701
928.162	8754
928.267	8788
928.373	9306
928.479	8864
928.585	8629
928.69	8731
928.796	8743
928.901	8705
929.007	8450
929.112	8682
929.218	8549
929.323	8590
929.428	8587
929.533	8678
929.638	8530
929.743	8537
929.848	8587
929.953	8503
930.058	8454
930.163	8275
930.267	8366
930.372	8419
930.477	8305
930.581	8511
930.685	8370
930.79	8282
930.894	8343
930.998	8279
931.103	8461
931.207	8058
931.311	8046
931.415	7951
931.519	7803
931.623	7715
