Data from test_V78500241_1826.txt Node
Date: Fri Mar 25 14:46:25 CST 2022
User: usil
Spectrometer: V785-0024
Trigger mode: 0
Integration Time (sec): 4.000000E-1
Scans to average: 1
Nonlinearity correction enabled: false
Boxcar width: 0
Storing dark spectrum: false
XAxis mode: Wavelengths
Number of Pixels in Spectrum: 1024
>>>>>Begin Spectral Data<<<<<
801.071	22143
801.214	22120
801.356	21823
801.499	21679
801.641	21572
801.783	21545
801.926	21679
802.068	21587
802.211	21382
802.353	21256
802.496	21108
802.638	21017
802.78	21013
802.923	20834
803.065	20807
803.208	20914
803.35	20849
803.492	20967
803.635	20925
803.777	20849
803.919	20990
804.061	21195
804.204	20994
804.346	20712
804.488	20674
804.63	20739
804.773	20712
804.915	20849
805.057	20845
805.199	20777
805.341	20906
805.483	20872
805.626	20868
805.768	20842
805.91	20849
806.052	20838
806.194	20708
806.336	20853
806.478	20765
806.62	20712
806.762	20731
806.904	20960
807.046	21207
807.188	21093
807.33	21032
807.472	21245
807.614	20990
807.756	21074
807.898	20807
808.04	20834
808.182	20849
808.324	20838
808.465	20994
808.607	21184
808.749	21306
808.891	21351
809.033	21325
809.174	21279
809.316	21146
809.458	21135
809.6	21173
809.741	21310
809.883	21275
810.025	21424
810.166	21386
810.308	21340
810.45	21329
810.591	21245
810.733	21093
810.875	20967
811.016	20773
811.158	20796
811.299	21017
811.441	21013
811.582	21074
811.724	20883
811.865	21062
812.007	20914
812.148	20975
812.29	21028
812.431	21062
812.573	21275
812.714	21397
812.855	21397
812.997	21492
813.138	21667
813.279	21637
813.421	21393
813.562	21370
813.703	21317
813.845	21062
813.986	20804
814.127	20575
814.268	20568
814.41	20564
814.551	20469
814.692	20568
814.833	20385
814.974	20385
815.115	20427
815.256	20389
815.397	20374
815.539	20366
815.68	20256
815.821	20157
815.962	20309
816.103	20183
816.244	20168
816.385	20043
816.526	19875
816.666	19734
816.807	19712
816.948	19731
817.089	19780
817.23	19708
817.371	19632
817.512	19822
817.653	19597
817.793	19422
817.934	19567
818.075	19597
818.216	19681
818.356	19575
818.497	19415
818.638	19369
818.778	19251
818.919	19365
819.06	19316
819.2	19487
819.341	19460
819.481	19590
819.622	19723
819.762	19845
819.903	19750
820.043	19742
820.184	19681
820.324	19605
820.465	19689
820.605	19605
820.746	19685
820.886	19362
821.026	19582
821.167	19609
821.307	19639
821.447	19499
821.588	19445
821.728	19320
821.868	19251
822.008	18981
822.149	19042
822.289	18954
822.429	18947
822.569	18783
822.709	18665
822.849	18566
822.99	18559
823.13	18566
823.27	18517
823.41	18213
823.55	18350
823.69	18315
823.83	18277
823.97	18361
824.11	18098
824.25	18087
824.389	18178
824.529	18060
824.669	18106
824.809	18117
824.949	18178
825.089	18136
825.228	18167
825.368	17824
825.508	17942
825.648	17920
825.787	17897
825.927	17889
826.067	17809
826.206	17882
826.346	17969
826.485	17920
826.625	17783
826.765	17923
826.904	17885
827.044	17783
827.183	17604
827.323	17539
827.462	17630
827.601	17459
827.741	17623
827.88	17604
828.02	17402
828.159	17547
828.298	17566
828.437	17619
828.577	17535
828.716	17665
828.855	17562
828.994	17452
829.134	17254
829.273	17455
829.412	17246
829.551	17273
829.69	17223
829.829	17318
829.968	17433
830.107	17341
830.246	17326
830.385	17360
830.524	17315
830.663	17121
830.802	17033
830.941	16862
831.08	16949
831.219	17041
831.357	16949
831.496	17124
831.635	16911
831.774	16858
831.913	16809
832.051	16759
832.19	16759
832.329	16721
832.467	16618
832.606	16565
832.744	16535
832.883	16645
833.022	16542
833.16	16713
833.299	16641
833.437	16641
833.576	16748
833.714	16687
833.852	16748
833.991	16713
834.129	16786
834.267	16748
834.406	16748
834.544	16660
834.682	16721
834.821	16733
834.959	16691
835.097	16592
835.235	16782
835.373	16713
835.511	16698
835.65	16626
835.788	16672
835.926	16443
836.064	16462
836.202	16443
836.34	16550
836.478	16725
836.615	16599
836.753	16694
836.891	16607
837.029	16645
837.167	16504
837.305	16546
837.443	16573
837.58	16382
837.718	16550
837.856	16405
837.993	16432
838.131	16535
838.269	16402
838.406	16440
838.544	16390
838.681	16158
838.819	16166
838.956	15941
839.094	16010
839.231	16109
839.369	16147
839.506	16500
839.643	16265
839.781	16093
839.918	15998
840.055	15960
840.193	15991
840.33	16006
840.467	15979
840.604	16090
840.742	16295
840.879	15865
841.016	15926
841.153	15934
841.29	16086
841.427	16021
841.564	16071
841.701	16059
841.838	16067
841.975	15869
842.112	15983
842.249	15838
842.385	15800
842.522	15831
842.659	15930
842.796	15838
842.933	15709
843.069	15698
843.206	15671
843.343	15850
843.479	15736
843.616	15755
843.752	15496
843.889	15603
844.025	15686
844.162	15561
844.298	15614
844.435	15477
844.571	15568
844.708	15629
844.844	15736
844.98	15819
845.117	15728
845.253	15538
845.389	15340
845.525	15534
845.661	15492
845.798	15317
845.934	15462
846.07	15321
846.206	15511
846.342	15504
846.478	15412
846.614	15245
846.75	15081
846.886	15085
847.022	15264
847.158	15119
847.294	15154
847.429	15203
847.565	15043
847.701	15367
847.837	14944
847.972	14887
848.108	15005
848.244	15039
848.379	14804
848.515	14788
848.65	14765
848.786	14731
848.921	14830
849.057	14937
849.192	14842
849.328	14773
849.463	14785
849.598	14731
849.734	14648
849.869	14655
850.004	14473
850.14	14522
850.275	14522
850.41	14454
850.545	14457
850.68	14476
850.815	14480
850.95	14469
851.085	14590
851.22	14644
851.355	14560
851.49	14442
851.625	14488
851.76	14492
851.895	14404
852.03	14454
852.165	14457
852.299	14533
852.434	14518
852.569	14533
852.703	14480
852.838	14575
852.973	14590
853.107	14670
853.242	14469
853.376	14423
853.511	14271
853.645	14362
853.78	14518
853.914	14332
854.048	14343
854.183	14237
854.317	14355
854.451	14579
854.585	14408
854.72	14381
854.854	14415
854.988	14298
855.122	14320
855.256	14096
855.39	14366
855.524	14560
855.658	14423
855.792	14427
855.926	14419
856.06	14446
856.194	14583
856.327	14381
856.461	14305
856.595	14381
856.729	14381
856.862	14469
856.996	14423
857.13	14495
857.263	14484
857.397	14564
857.53	14343
857.664	14366
857.797	14533
857.931	14495
858.064	14442
858.197	14423
858.331	14404
858.464	14362
858.597	14218
858.731	14400
858.864	14400
858.997	14377
859.13	14320
859.263	14404
859.396	14419
859.529	14286
859.662	14313
859.795	14267
859.928	14465
860.061	14530
860.194	14530
860.327	14381
860.46	14465
860.592	14499
860.725	14457
860.858	14461
860.99	14324
861.123	14336
861.256	14317
861.388	14358
861.521	15070
861.653	14263
861.786	14229
861.918	14206
862.05	14313
862.183	14431
862.315	14396
862.447	14374
862.58	14305
862.712	14046
862.844	14126
862.976	14221
863.108	14145
863.24	14594
863.372	14153
863.504	14183
863.636	14138
863.768	14176
863.9	14157
864.032	14107
864.164	14172
864.296	14142
864.428	14343
864.559	14301
864.691	14290
864.823	14218
864.954	14180
865.086	14183
865.217	14153
865.349	14077
865.48	14126
865.612	14202
865.743	14259
865.875	14183
866.006	14157
866.137	14168
866.269	14202
866.4	14164
866.531	14050
866.662	14039
866.793	14107
866.924	14065
867.055	14138
867.186	14123
867.317	14134
867.448	13974
867.579	14187
867.71	14012
867.841	14107
867.972	14153
868.103	14107
868.233	14119
868.364	14107
868.495	14240
868.625	14415
868.756	14389
868.886	14309
869.017	14484
869.147	14621
869.278	14480
869.408	14427
869.539	14374
869.669	14446
869.799	14374
869.929	14518
870.06	14522
870.19	14640
870.32	14651
870.45	14720
870.58	14765
870.71	14883
870.84	15005
870.97	14853
871.1	14769
871.23	14929
871.36	14937
871.489	14891
871.619	14956
871.749	14948
871.879	14990
872.008	15013
872.138	15051
872.267	14948
872.397	14864
872.526	14785
872.656	14807
872.785	14845
872.915	15020
873.044	15047
873.173	15116
873.303	15058
873.432	15195
873.561	15081
873.69	15028
873.819	15085
873.948	15100
874.077	15055
874.206	15001
874.335	15097
874.464	15256
874.593	15363
874.722	15264
874.851	15412
874.979	15329
875.108	15462
875.237	15344
875.365	15260
875.494	15302
875.623	15367
875.751	15306
875.88	15386
876.008	15389
876.136	15545
876.265	15743
876.393	15850
876.521	15835
876.65	15797
876.778	15823
876.906	15743
877.034	15705
877.162	15709
877.29	15698
877.418	15785
877.546	15724
877.674	15781
877.802	15698
877.93	15728
878.058	15755
878.185	15606
878.313	15739
878.441	15770
878.568	15675
878.696	15816
878.824	15694
878.951	15819
879.079	16036
879.206	16090
879.333	15873
879.461	15781
879.588	15949
879.715	16013
879.842	16017
879.97	15789
880.097	15557
880.224	15595
880.351	15663
880.478	15580
880.605	15595
880.732	15614
880.859	15762
880.986	15671
881.112	15564
881.239	15557
881.366	15351
881.493	15332
881.619	15226
881.746	15218
881.872	15298
881.999	15272
882.125	15195
882.252	15317
882.378	15344
882.505	15336
882.631	15313
882.757	15142
882.883	15123
883.01	15024
883.136	15116
883.262	14963
883.388	14960
883.514	15116
883.64	15180
883.766	15009
883.892	14921
884.018	14914
884.143	15116
884.269	15077
884.395	14815
884.52	14716
884.646	14864
884.772	14663
884.897	14754
885.023	14800
885.148	14826
885.274	14910
885.399	14857
885.524	14777
885.65	14826
885.775	14819
885.9	14739
886.025	14883
886.15	14891
886.275	14705
886.4	14716
886.525	14750
886.65	14758
886.775	14788
886.9	14899
887.025	14986
887.149	14838
887.274	14678
887.399	14613
887.523	14575
887.648	14632
887.773	14499
887.897	14659
888.021	14693
888.146	14670
888.27	14750
888.395	14781
888.519	14606
888.643	14716
888.767	14678
888.891	14568
889.015	14454
889.139	14518
889.263	14556
889.387	14446
889.511	14743
889.635	14625
889.759	14431
889.883	14469
890.006	14480
890.13	14545
890.254	14423
890.377	14427
890.501	14351
890.624	14271
890.748	14301
890.871	14180
890.995	14191
891.118	14088
891.241	14225
891.364	14202
891.488	14237
891.611	14214
891.734	14199
891.857	14199
891.98	14157
892.103	14282
892.226	14149
892.349	14119
892.471	14043
892.594	14138
892.717	14138
892.839	14149
892.962	14202
893.085	14286
893.207	14103
893.33	14119
893.452	14062
893.575	14256
893.697	14157
893.819	14267
893.941	14450
894.064	14396
894.186	14126
894.308	14202
894.43	14313
894.552	14343
894.674	14301
894.796	14164
894.918	14278
895.04	14199
895.161	14286
895.283	14320
895.405	14229
895.526	14256
895.648	14324
895.769	14313
895.891	14339
896.012	14324
896.134	14385
896.255	14377
896.376	14218
896.498	14336
896.619	14381
896.74	14351
896.861	14400
896.982	14629
897.103	14864
897.224	14610
897.345	14594
897.466	14484
897.587	14754
897.708	14773
897.828	14636
897.949	14590
898.07	14465
898.19	14457
898.311	14754
898.431	14648
898.552	14678
898.672	14735
898.792	14754
898.913	14651
899.033	14708
899.153	14568
899.273	14358
899.393	14545
899.513	14431
899.633	14522
899.753	14617
899.873	14457
899.993	14579
900.113	14610
900.232	14552
900.352	14434
900.472	14473
900.591	14332
900.711	14362
900.83	14320
900.95	14434
901.069	14450
901.189	14343
901.308	14138
901.427	13986
901.546	14039
901.665	14168
901.784	14168
901.904	13986
902.023	13909
902.141	13723
902.26	13628
902.379	13696
902.498	13601
902.617	13643
902.735	13689
902.854	13727
902.973	13559
903.091	13396
903.21	13339
903.328	13403
903.446	13282
903.565	13312
903.683	13232
903.801	13175
903.919	13190
904.038	13129
904.156	13038
904.274	13095
904.392	12970
904.51	13031
904.627	12993
904.745	13088
904.863	13038
904.981	12840
905.098	12684
905.216	12741
905.334	12627
905.451	12696
905.569	12700
905.686	12677
905.803	12798
905.921	12532
906.038	12673
906.155	12570
906.272	12475
906.389	12479
906.506	12410
906.623	12334
906.74	12330
906.857	12167
906.974	12232
907.091	12437
907.208	12414
907.324	12403
907.441	12205
907.557	12102
907.674	12072
907.79	11942
907.907	12095
908.023	12136
908.139	12045
908.256	11996
908.372	11935
908.488	12022
908.604	11798
908.72	11729
908.836	11798
908.952	11779
909.068	11817
909.184	11866
909.3	11802
909.415	11798
909.531	11821
909.647	11573
909.762	11699
909.878	11528
909.993	11596
910.108	11581
910.224	11581
910.339	11623
910.454	11497
910.57	11421
910.685	11368
910.8	11676
910.915	11554
911.03	11482
911.145	11356
911.259	11269
911.374	11296
911.489	11288
911.604	11155
911.718	11098
911.833	11037
911.947	10938
912.062	10889
912.176	11014
912.291	10995
912.405	11006
912.519	11307
912.633	11223
912.748	11083
912.862	11067
912.976	10881
913.09	10790
913.204	10927
913.318	10923
913.431	11083
913.545	10961
913.659	11090
913.772	10885
913.886	10805
914	10767
914.113	10953
914.226	10831
914.34	10839
914.453	10805
914.566	10877
914.68	10702
914.793	10755
914.906	10588
915.019	10523
915.132	10428
915.245	10512
915.358	10573
915.47	10603
915.583	10577
915.696	10615
915.809	10752
915.921	10672
916.034	10508
916.146	10489
916.259	10500
916.371	10626
916.483	10607
916.595	10382
916.708	10474
916.82	10478
916.932	10470
917.044	10474
917.156	10493
917.268	10379
917.38	10424
917.491	10356
917.603	10405
917.715	10409
917.826	10447
917.938	10394
918.049	10280
918.161	10314
918.272	10493
918.384	10519
918.495	10390
918.606	10257
918.717	10207
918.828	10265
918.939	10295
919.05	10192
919.161	10242
919.272	10055
919.383	10112
919.494	10318
919.604	10462
919.715	10280
919.826	10143
919.936	10284
920.047	10360
920.157	10265
920.267	10474
920.378	10287
920.488	10230
920.598	10516
920.708	10615
920.818	10500
920.928	10409
921.038	10660
921.148	10573
921.258	10310
921.368	10242
921.477	10112
921.587	10135
921.697	10048
921.806	10177
921.916	10017
922.025	9865
922.134	9800
922.244	9835
922.353	9842
922.462	9682
922.571	9732
922.68	9538
922.789	9538
922.898	9515
923.007	9435
923.116	9557
923.224	9469
923.333	9496
923.442	9359
923.55	9340
923.659	9374
923.767	9481
923.876	9447
923.984	9454
924.092	9336
924.201	9420
924.309	9363
924.417	9393
924.525	9310
924.633	9340
924.741	10249
924.849	9146
924.956	9291
925.064	9173
925.172	9047
925.279	9119
925.387	9104
925.494	9123
925.602	9207
925.709	9218
925.816	9188
925.924	9157
926.031	9214
926.138	9123
926.245	9313
926.352	9119
926.459	9226
926.566	9188
926.673	9104
926.779	8944
926.886	9051
926.993	8895
927.099	8823
927.206	8842
927.312	8815
927.419	8986
927.525	8826
927.631	8876
927.737	8842
927.843	8716
927.95	8731
928.056	8773
928.162	8735
928.267	8746
928.373	9355
928.479	8967
928.585	8629
928.69	8727
928.796	8830
928.901	8610
929.007	8522
929.112	8739
929.218	8648
929.323	8602
929.428	8590
929.533	8705
929.638	8514
929.743	8495
929.848	8606
929.953	8590
930.058	8511
930.163	8317
930.267	8374
930.372	8526
930.477	8332
930.581	8552
930.685	8488
930.79	8275
930.894	8358
930.998	8385
931.103	8465
931.207	8073
931.311	8073
931.415	7997
931.519	7856
931.623	7784
