Data from test_V78500241_2412.txt Node
Date: Fri Mar 25 14:50:30 CST 2022
User: usil
Spectrometer: V785-0024
Trigger mode: 0
Integration Time (sec): 4.000000E-1
Scans to average: 1
Nonlinearity correction enabled: false
Boxcar width: 0
Storing dark spectrum: false
XAxis mode: Wavelengths
Number of Pixels in Spectrum: 1024
>>>>>Begin Spectral Data<<<<<
801.071	22086
801.214	22070
801.356	21808
801.499	21709
801.641	21690
801.783	21583
801.926	21610
802.068	21507
802.211	21329
802.353	21291
802.496	20986
802.638	21077
802.78	21001
802.923	20914
803.065	20754
803.208	20693
803.35	20853
803.492	20948
803.635	20933
803.777	20845
803.919	20941
804.061	21146
804.204	20937
804.346	20724
804.488	20765
804.63	20777
804.773	20720
804.915	20762
805.057	20815
805.199	20670
805.341	20750
805.483	20883
805.626	20864
805.768	20670
805.91	20792
806.052	20712
806.194	20724
806.336	20815
806.478	20769
806.62	20830
806.762	20857
806.904	20925
807.046	21211
807.188	21013
807.33	20979
807.472	21135
807.614	20979
807.756	21062
807.898	20998
808.04	20678
808.182	20781
808.324	20834
808.465	20921
808.607	20960
808.749	21096
808.891	21176
809.033	21283
809.174	21230
809.316	21165
809.458	21188
809.6	21192
809.741	21317
809.883	21161
810.025	21294
810.166	21245
810.308	21291
810.45	21203
810.591	21116
810.733	21047
810.875	20876
811.016	20838
811.158	20906
811.299	20899
811.441	21047
811.582	20998
811.724	20853
811.865	20986
812.007	20777
812.148	20963
812.29	20979
812.431	21066
812.573	21260
812.714	21203
812.855	21374
812.997	21515
813.138	21534
813.279	21473
813.421	21420
813.562	21298
813.703	21214
813.845	21157
813.986	20819
814.127	20579
814.268	20575
814.41	20552
814.551	20450
814.692	20446
814.833	20381
814.974	20476
815.115	20396
815.256	20259
815.397	20221
815.539	20176
815.68	20282
815.821	20134
815.962	20103
816.103	20138
816.244	20020
816.385	19879
816.526	19670
816.666	19670
816.807	19639
816.948	19693
817.089	19742
817.23	19605
817.371	19575
817.512	19533
817.653	19635
817.793	19533
817.934	19575
818.075	19677
818.216	19525
818.356	19457
818.497	19403
818.638	19304
818.778	19320
818.919	19346
819.06	19400
819.2	19377
819.341	19457
819.481	19400
819.622	19537
819.762	19807
819.903	19833
820.043	19624
820.184	19643
820.324	19571
820.465	19586
820.605	19533
820.746	19506
820.886	19339
821.026	19514
821.167	19411
821.307	19495
821.447	19514
821.588	19472
821.728	19304
821.868	19099
822.008	18916
822.149	19004
822.289	18890
822.429	18707
822.569	18570
822.709	18589
822.849	18536
822.99	18380
823.13	18353
823.27	18536
823.41	18262
823.55	18186
823.69	18270
823.83	18190
823.97	18308
824.11	17939
824.25	18038
824.389	18015
824.529	18110
824.669	18015
824.809	18076
824.949	18076
825.089	18121
825.228	18049
825.368	17737
825.508	17824
825.648	17859
825.787	17866
825.927	17824
826.067	17676
826.206	17756
826.346	17805
826.485	17859
826.625	17687
826.765	17946
826.904	17756
827.044	17581
827.183	17623
827.323	17448
827.462	17604
827.601	17482
827.741	17539
827.88	17455
828.02	17265
828.159	17436
828.298	17539
828.437	17512
828.577	17406
828.716	17570
828.855	17528
828.994	17242
829.134	17109
829.273	17216
829.412	17280
829.551	17185
829.69	17193
829.829	17265
829.968	17368
830.107	17223
830.246	17178
830.385	17178
830.524	17086
830.663	17022
830.802	16927
830.941	16831
831.08	16824
831.219	16957
831.357	16942
831.496	17071
831.635	16881
831.774	16790
831.913	16763
832.051	16653
832.19	16611
832.329	16683
832.467	16596
832.606	16497
832.744	16497
832.883	16569
833.022	16402
833.16	16546
833.299	16508
833.437	16512
833.576	16561
833.714	16558
833.852	16634
833.991	16694
834.129	16615
834.267	16603
834.406	16630
834.544	16607
834.682	16580
834.821	16653
834.959	16793
835.097	16535
835.235	16713
835.373	16554
835.511	16702
835.65	16523
835.788	16405
835.926	16348
836.064	16310
836.202	16447
836.34	16531
836.478	16592
836.615	16470
836.753	16489
836.891	16489
837.029	16512
837.167	16478
837.305	16466
837.443	16329
837.58	16280
837.718	16306
837.856	16470
837.993	16242
838.131	16344
838.269	16166
838.406	16261
838.544	16192
838.681	16139
838.819	15998
838.956	15934
839.094	15865
839.231	15941
839.369	16025
839.506	16314
839.643	16188
839.781	15869
839.918	15949
840.055	15911
840.193	15888
840.33	15854
840.467	15823
840.604	15968
840.742	16059
840.879	15808
841.016	15739
841.153	15800
841.29	16029
841.427	15911
841.564	15987
841.701	15876
841.838	15937
841.975	15850
842.112	15838
842.249	15641
842.385	15625
842.522	15850
842.659	15663
842.796	15606
842.933	15694
843.069	15686
843.206	15709
843.343	15701
843.479	15808
843.616	15690
843.752	15485
843.889	15496
844.025	15652
844.162	15466
844.298	15515
844.435	15424
844.571	15405
844.708	15511
844.844	15667
844.98	15644
845.117	15553
845.253	15469
845.389	15367
845.525	15332
845.661	15298
845.798	15241
845.934	15340
846.07	15169
846.206	15279
846.342	15408
846.478	15237
846.614	15135
846.75	14975
846.886	14990
847.022	15157
847.158	14963
847.294	15028
847.429	15032
847.565	15001
847.701	15237
847.837	14815
847.972	14701
848.108	14902
848.244	14891
848.379	14739
848.515	14644
848.65	14583
848.786	14712
848.921	14674
849.057	14739
849.192	14754
849.328	14663
849.463	14636
849.598	14549
849.734	14560
849.869	14507
850.004	14412
850.14	14438
850.275	14370
850.41	14237
850.545	14400
850.68	14336
850.815	14454
850.95	14301
851.085	14621
851.22	14503
851.355	14446
851.49	14366
851.625	14339
851.76	14473
851.895	14271
852.03	14313
852.165	14339
852.299	14446
852.434	14503
852.569	14461
852.703	14454
852.838	14488
852.973	14526
853.107	14549
853.242	14431
853.376	14408
853.511	14214
853.645	14221
853.78	14396
853.914	14343
854.048	14282
854.183	14309
854.317	14275
854.451	14457
854.585	14324
854.72	14263
854.854	14320
854.988	14195
855.122	14275
855.256	14161
855.39	14256
855.524	14381
855.658	14294
855.792	14305
855.926	14355
856.06	14256
856.194	14336
856.327	14301
856.461	14195
856.595	14191
856.729	14233
856.862	14396
856.996	14336
857.13	14355
857.263	14393
857.397	14473
857.53	14347
857.664	14298
857.797	14431
857.931	14476
858.064	14339
858.197	14480
858.331	14328
858.464	14229
858.597	14199
858.731	14298
858.864	14309
858.997	14244
859.13	14301
859.263	14347
859.396	14381
859.529	14336
859.662	14229
859.795	14214
859.928	14271
860.061	14431
860.194	14415
860.327	14328
860.46	14214
860.592	14431
860.725	14469
860.858	14309
860.99	14313
861.123	14153
861.256	14214
861.388	14244
861.521	14921
861.653	14229
861.786	14168
861.918	14012
862.05	14206
862.183	14153
862.315	14332
862.447	14317
862.58	14240
862.712	14210
862.844	14054
862.976	14119
863.108	14111
863.24	14328
863.372	14039
863.504	14065
863.636	14107
863.768	14027
863.9	14005
864.032	14020
864.164	14115
864.296	14046
864.428	14180
864.559	14134
864.691	14119
864.823	14142
864.954	14164
865.086	14161
865.217	14115
865.349	14046
865.48	14012
865.612	14012
865.743	14229
865.875	14039
866.006	14001
866.137	14069
866.269	14046
866.4	14081
866.531	14001
866.662	13932
866.793	14005
866.924	14062
867.055	13989
867.186	13944
867.317	13982
867.448	13947
867.579	14005
867.71	13982
867.841	14031
867.972	14084
868.103	14024
868.233	14046
868.364	14054
868.495	14069
868.625	14237
868.756	14377
868.886	14244
869.017	14248
869.147	14514
869.278	14415
869.408	14385
869.539	14320
869.669	14362
869.799	14374
869.929	14377
870.06	14408
870.19	14594
870.32	14587
870.45	14678
870.58	14651
870.71	14861
870.84	14804
870.97	14697
871.1	14697
871.23	14941
871.36	14967
871.489	14796
871.619	14933
871.749	14883
871.879	14857
872.008	15039
872.138	14864
872.267	14849
872.397	14788
872.526	14758
872.656	14746
872.785	14762
872.915	14887
873.044	14975
873.173	14921
873.303	14963
873.432	15013
873.561	15047
873.69	14925
873.819	15028
873.948	15077
874.077	14990
874.206	14887
874.335	14956
874.464	15062
874.593	15336
874.722	15123
874.851	15294
874.979	15211
875.108	15275
875.237	15218
875.365	15180
875.494	15272
875.623	15325
875.751	15237
875.88	15355
876.008	15386
876.136	15507
876.265	15766
876.393	15774
876.521	15694
876.65	15728
876.778	15739
876.906	15648
877.034	15595
877.162	15644
877.29	15584
877.418	15679
877.546	15629
877.674	15644
877.802	15656
877.93	15656
878.058	15663
878.185	15591
878.313	15625
878.441	15762
878.568	15557
878.696	15572
878.824	15720
878.951	15755
879.079	15869
879.206	16013
879.333	15895
879.461	15774
879.588	15732
879.715	15850
879.842	15899
879.97	15675
880.097	15492
880.224	15443
880.351	15511
880.478	15447
880.605	15507
880.732	15523
880.859	15774
880.986	15553
881.112	15549
881.239	15504
881.366	15313
881.493	15184
881.619	15131
881.746	15184
881.872	15252
881.999	15176
882.125	15260
882.252	15264
882.378	15173
882.505	15310
882.631	15112
882.757	15017
882.883	15077
883.01	15013
883.136	14899
883.262	14838
883.388	14842
883.514	14982
883.64	15062
883.766	14921
883.892	14872
884.018	14834
884.143	14979
884.269	15055
884.395	14880
884.52	14720
884.646	14777
884.772	14663
884.897	14701
885.023	14674
885.148	14800
885.274	14887
885.399	14830
885.524	14667
885.65	14686
885.775	14708
885.9	14598
886.025	14781
886.15	14754
886.275	14629
886.4	14530
886.525	14613
886.65	14583
886.775	14575
886.9	14838
887.025	14914
887.149	14720
887.274	14495
887.399	14469
887.523	14469
887.648	14511
887.773	14427
887.897	14602
888.021	14594
888.146	14480
888.27	14670
888.395	14708
888.519	14602
888.643	14621
888.767	14564
888.891	14442
889.015	14305
889.139	14324
889.263	14385
889.387	14488
889.511	14560
889.635	14533
889.759	14374
889.883	14393
890.006	14423
890.13	14484
890.254	14339
890.377	14336
890.501	14225
890.624	14164
890.748	14324
890.871	14191
890.995	13997
891.118	14035
891.241	14069
891.364	14065
891.488	14183
891.611	14065
891.734	14077
891.857	14138
891.98	14081
892.103	14168
892.226	14046
892.349	14084
892.471	14005
892.594	14092
892.717	14096
892.839	14054
892.962	14077
893.085	14206
893.207	14084
893.33	14031
893.452	14069
893.575	14149
893.697	14199
893.819	14313
893.941	14282
894.064	14195
894.186	14005
894.308	14046
894.43	14218
894.552	14343
894.674	14286
894.796	14183
894.918	14187
895.04	14084
895.161	14199
895.283	14157
895.405	14134
895.526	14237
895.648	14210
895.769	14218
895.891	14290
896.012	14358
896.134	14225
896.255	14278
896.376	14298
896.498	14237
896.619	14290
896.74	14275
896.861	14336
896.982	14689
897.103	14883
897.224	14564
897.345	14533
897.466	14469
897.587	14480
897.708	14610
897.828	14533
897.949	14552
898.07	14469
898.19	14465
898.311	14670
898.431	14514
898.552	14431
898.672	14735
898.792	14697
898.913	14720
899.033	14511
899.153	14469
899.273	14374
899.393	14457
899.513	14495
899.633	14438
899.753	14476
899.873	14446
899.993	14465
900.113	14495
900.232	14533
900.352	14469
900.472	14370
900.591	14275
900.711	14355
900.83	14286
900.95	14465
901.069	14385
901.189	14309
901.308	14054
901.427	13955
901.546	14043
901.665	14035
901.784	14065
901.904	13852
902.023	13818
902.141	13540
902.26	13590
902.379	13655
902.498	13563
902.617	13468
902.735	13563
902.854	13628
902.973	13464
903.091	13316
903.21	13282
903.328	13274
903.446	13240
903.565	13065
903.683	13194
903.801	13141
903.919	13145
904.038	13145
904.156	13015
904.274	13008
904.392	12916
904.51	12996
904.627	12970
904.745	12958
904.863	13004
904.981	12734
905.098	12658
905.216	12631
905.334	12635
905.451	12642
905.569	12582
905.686	12734
905.803	12616
905.921	12528
906.038	12627
906.155	12486
906.272	12399
906.389	12407
906.506	12232
906.623	12243
906.74	12213
906.857	12041
906.974	12201
907.091	12228
907.208	12353
907.324	12285
907.441	12171
907.557	11977
907.674	12064
907.79	11912
907.907	12034
908.023	12011
908.139	11950
908.256	11961
908.372	11920
908.488	11901
908.604	11798
908.72	11775
908.836	11729
908.952	11733
909.068	11794
909.184	11821
909.3	11722
909.415	11893
909.531	11726
909.647	11478
909.762	11532
909.878	11455
909.993	11589
910.108	11482
910.224	11474
910.339	11501
910.454	11452
910.57	11322
910.685	11318
910.8	11615
910.915	11558
911.03	11429
911.145	11254
911.259	11254
911.374	11212
911.489	11109
911.604	11086
911.718	10965
911.833	10995
911.947	10877
912.062	10831
912.176	10919
912.291	10968
912.405	10999
912.519	11189
912.633	11208
912.748	11083
912.862	10930
912.976	10919
913.09	10805
913.204	10809
913.318	10873
913.431	10866
913.545	10869
913.659	10961
913.772	10858
913.886	10824
914	10698
914.113	10778
914.226	10862
914.34	10816
914.453	10687
914.566	10786
914.68	10759
914.793	10687
914.906	10493
915.019	10443
915.132	10421
915.245	10402
915.358	10481
915.47	10516
915.583	10440
915.696	10512
915.809	10565
915.921	10603
916.034	10451
916.146	10485
916.259	10379
916.371	10459
916.483	10504
916.595	10409
916.708	10451
916.82	10360
916.932	10306
917.044	10409
917.156	10329
917.268	10295
917.38	10390
917.491	10242
917.603	10337
917.715	10379
917.826	10405
917.938	10303
918.049	10227
918.161	10246
918.272	10546
918.384	10432
918.495	10409
918.606	10223
918.717	10128
918.828	10280
918.939	10249
919.05	10097
919.161	10131
919.272	9998
919.383	10059
919.494	10333
919.604	10455
919.715	10230
919.826	10192
919.936	10177
920.047	10333
920.157	10196
920.267	10436
920.378	10261
920.488	10257
920.598	10367
920.708	10599
920.818	10409
920.928	10443
921.038	10531
921.148	10504
921.258	10284
921.368	10124
921.477	10044
921.587	10071
921.697	10025
921.806	10139
921.916	10013
922.025	9793
922.134	9808
922.244	9789
922.353	9793
922.462	9656
922.571	9618
922.68	9504
922.789	9450
922.898	9511
923.007	9466
923.116	9485
923.224	9481
923.333	9458
923.442	9386
923.55	9245
923.659	9275
923.767	9416
923.876	9310
923.984	9420
924.092	9275
924.201	9317
924.309	9367
924.417	9325
924.525	9275
924.633	9313
924.741	9994
924.849	9184
924.956	9272
925.064	9135
925.172	9009
925.279	9074
925.387	9169
925.494	9142
925.602	9199
925.709	9195
925.816	9024
925.924	9154
926.031	9173
926.138	9081
926.245	9184
926.352	9077
926.459	9173
926.566	9230
926.673	9119
926.779	8941
926.886	8967
926.993	8800
927.099	8796
927.206	8746
927.312	8864
927.419	8857
927.525	8910
927.631	8845
927.737	8743
927.843	8701
927.95	8667
928.056	8674
928.162	8804
928.267	8788
928.373	9321
928.479	8807
928.585	8507
928.69	8724
928.796	8777
928.901	8606
929.007	8469
929.112	8663
929.218	8651
929.323	8594
929.428	8530
929.533	8667
929.638	8454
929.743	8533
929.848	8590
929.953	8533
930.058	8495
930.163	8309
930.267	8351
930.372	8396
930.477	8294
930.581	8541
930.685	8400
930.79	8225
930.894	8320
930.998	8229
931.103	8328
931.207	8096
931.311	8035
931.415	7928
931.519	7807
931.623	7826
