Data from test_V78500241_1697.txt Node
Date: Fri Mar 25 14:45:31 CST 2022
User: usil
Spectrometer: V785-0024
Trigger mode: 0
Integration Time (sec): 4.000000E-1
Scans to average: 1
Nonlinearity correction enabled: false
Boxcar width: 0
Storing dark spectrum: false
XAxis mode: Wavelengths
Number of Pixels in Spectrum: 1024
>>>>>Begin Spectral Data<<<<<
801.071	22253
801.214	22029
801.356	21865
801.499	21797
801.641	21580
801.783	21622
801.926	21759
802.068	21450
802.211	21428
802.353	21412
802.496	21154
802.638	21047
802.78	21032
802.923	20914
803.065	20887
803.208	20971
803.35	20845
803.492	20960
803.635	21104
803.777	21009
803.919	20986
804.061	21222
804.204	20990
804.346	20975
804.488	20906
804.63	20944
804.773	20804
804.915	20937
805.057	21020
805.199	20804
805.341	20986
805.483	20982
805.626	21039
805.768	20788
805.91	21028
806.052	20902
806.194	20781
806.336	21024
806.478	20781
806.62	20960
806.762	20830
806.904	20952
807.046	21313
807.188	21180
807.33	21249
807.472	21272
807.614	21112
807.756	21127
807.898	20979
808.04	20975
808.182	20975
808.324	20994
808.465	20956
808.607	21211
808.749	21313
808.891	21393
809.033	21363
809.174	21405
809.316	21287
809.458	21237
809.6	21222
809.741	21214
809.883	21256
810.025	21488
810.166	21378
810.308	21420
810.45	21401
810.591	21146
810.733	21081
810.875	21146
811.016	21036
811.158	20963
811.299	21119
811.441	21173
811.582	21104
811.724	21032
811.865	20990
812.007	20910
812.148	20975
812.29	21051
812.431	21188
812.573	21348
812.714	21389
812.855	21545
812.997	21656
813.138	21648
813.279	21561
813.421	21580
813.562	21481
813.703	21237
813.845	21218
813.986	20876
814.127	20777
814.268	20659
814.41	20644
814.551	20476
814.692	20575
814.833	20469
814.974	20568
815.115	20594
815.256	20465
815.397	20305
815.539	20454
815.68	20248
815.821	20267
815.962	20324
816.103	20320
816.244	20237
816.385	20039
816.526	20046
816.666	19883
816.807	19799
816.948	19894
817.089	19860
817.23	19868
817.371	19788
817.512	19674
817.653	19738
817.793	19704
817.934	19712
818.075	19708
818.216	19696
818.356	19624
818.497	19468
818.638	19362
818.778	19422
818.919	19449
819.06	19445
819.2	19544
819.341	19590
819.481	19620
819.622	19769
819.762	19944
819.903	19807
820.043	19666
820.184	19723
820.324	19624
820.465	19776
820.605	19727
820.746	19753
820.886	19533
821.026	19689
821.167	19662
821.307	19772
821.447	19696
821.588	19537
821.728	19476
821.868	19206
822.008	19065
822.149	19107
822.289	19129
822.429	18943
822.569	18719
822.709	18764
822.849	18604
822.99	18555
823.13	18509
823.27	18521
823.41	18433
823.55	18311
823.69	18407
823.83	18395
823.97	18289
824.11	18266
824.25	18159
824.389	18213
824.529	18285
824.669	18174
824.809	18315
824.949	18148
825.089	18190
825.228	18300
825.368	18015
825.508	17950
825.648	17916
825.787	17874
825.927	18076
826.067	17999
826.206	17958
826.346	17920
826.485	17969
826.625	17927
826.765	18133
826.904	18041
827.044	17687
827.183	17756
827.323	17657
827.462	17779
827.601	17646
827.741	17615
827.88	17627
828.02	17524
828.159	17512
828.298	17676
828.437	17676
828.577	17638
828.716	17634
828.855	17592
828.994	17436
829.134	17414
829.273	17395
829.412	17379
829.551	17277
829.69	17303
829.829	17433
829.968	17627
830.107	17577
830.246	17360
830.385	17459
830.524	17261
830.663	17223
830.802	17109
830.941	17064
831.08	16976
831.219	17037
831.357	17113
831.496	17246
831.635	17014
831.774	16957
831.913	16915
832.051	16752
832.19	16881
832.329	16816
832.467	16717
832.606	16645
832.744	16630
832.883	16717
833.022	16691
833.16	16694
833.299	16721
833.437	16752
833.576	16634
833.714	16706
833.852	16713
833.991	16820
834.129	16793
834.267	16778
834.406	16740
834.544	16805
834.682	16820
834.821	16687
834.959	16854
835.097	16706
835.235	16748
835.373	16733
835.511	16763
835.65	16618
835.788	16649
835.926	16531
836.064	16455
836.202	16451
836.34	16668
836.478	16831
836.615	16588
836.753	16603
836.891	16748
837.029	16831
837.167	16538
837.305	16622
837.443	16474
837.58	16493
837.718	16542
837.856	16546
837.993	16375
838.131	16474
838.269	16382
838.406	16440
838.544	16542
838.681	16246
838.819	16158
838.956	16082
839.094	16055
839.231	16185
839.369	16158
839.506	16382
839.643	16291
839.781	16158
839.918	16029
840.055	16090
840.193	16082
840.33	16044
840.467	16082
840.604	16124
840.742	16344
840.879	15926
841.016	15953
841.153	15945
841.29	16223
841.427	16017
841.564	16128
841.701	16074
841.838	15960
841.975	15903
842.112	16055
842.249	15876
842.385	15857
842.522	16025
842.659	15724
842.796	15827
842.933	15888
843.069	15812
843.206	15831
843.343	15892
843.479	15846
843.616	15808
843.752	15675
843.889	15610
844.025	15770
844.162	15698
844.298	15770
844.435	15629
844.571	15599
844.708	15660
844.844	15774
844.98	15789
845.117	15743
845.253	15606
845.389	15492
845.525	15610
845.661	15557
845.798	15412
845.934	15511
846.07	15435
846.206	15458
846.342	15447
846.478	15454
846.614	15329
846.75	15233
846.886	15188
847.022	15260
847.158	15195
847.294	15180
847.429	15241
847.565	15161
847.701	15447
847.837	14906
847.972	14853
848.108	14998
848.244	15017
848.379	14921
848.515	14682
848.65	14853
848.786	14716
848.921	14781
849.057	14849
849.192	14849
849.328	14853
849.463	14773
849.598	14819
849.734	14655
849.869	14598
850.004	14571
850.14	14640
850.275	14457
850.41	14476
850.545	14560
850.68	14446
850.815	14610
850.95	14549
851.085	14777
851.22	14648
851.355	14613
851.49	14408
851.625	14476
851.76	14526
851.895	14423
852.03	14393
852.165	14511
852.299	14644
852.434	14678
852.569	14503
852.703	14571
852.838	14678
852.973	14617
853.107	14769
853.242	14689
853.376	14362
853.511	14252
853.645	14351
853.78	14549
853.914	14488
854.048	14366
854.183	14339
854.317	14461
854.451	14621
854.585	14423
854.72	14442
854.854	14457
854.988	14313
855.122	14301
855.256	14267
855.39	14431
855.524	14465
855.658	14454
855.792	14457
855.926	14526
856.06	14473
856.194	14518
856.327	14473
856.461	14381
856.595	14336
856.729	14385
856.862	14530
856.996	14450
857.13	14571
857.263	14488
857.397	14492
857.53	14381
857.664	14423
857.797	14587
857.931	14488
858.064	14511
858.197	14503
858.331	14427
858.464	14446
858.597	14328
858.731	14343
858.864	14294
858.997	14446
859.13	14438
859.263	14503
859.396	14522
859.529	14408
859.662	14389
859.795	14457
859.928	14431
860.061	14518
860.194	14689
860.327	14393
860.46	14446
860.592	14549
860.725	14629
860.858	14480
860.99	14469
861.123	14336
861.256	14286
861.388	14412
861.521	14986
861.653	14362
861.786	14343
861.918	14298
862.05	14374
862.183	14366
862.315	14423
862.447	14370
862.58	14377
862.712	14164
862.844	14164
862.976	14233
863.108	14370
863.24	14648
863.372	14172
863.504	14278
863.636	14275
863.768	14286
863.9	14130
864.032	14039
864.164	14153
864.296	14225
864.428	14381
864.559	14343
864.691	14301
864.823	14191
864.954	14301
865.086	14142
865.217	14172
865.349	14161
865.48	14199
865.612	14195
865.743	14370
865.875	14240
866.006	14172
866.137	14233
866.269	14278
866.4	14202
866.531	14161
866.662	14153
866.793	14088
866.924	14206
867.055	14134
867.186	14237
867.317	14134
867.448	14149
867.579	14058
867.71	14126
867.841	14107
867.972	14263
868.103	14176
868.233	14229
868.364	14218
868.495	14218
868.625	14309
868.756	14533
868.886	14412
869.017	14351
869.147	14541
869.278	14579
869.408	14473
869.539	14465
869.669	14511
869.799	14492
869.929	14503
870.06	14537
870.19	14785
870.32	14750
870.45	14800
870.58	14769
870.71	14986
870.84	14921
870.97	14773
871.1	14876
871.23	15013
871.36	15024
871.489	14941
871.619	14990
871.749	15024
871.879	15043
872.008	15150
872.138	15020
872.267	15104
872.397	14914
872.526	14910
872.656	14807
872.785	14891
872.915	15077
873.044	14998
873.173	15100
873.303	15176
873.432	15104
873.561	15127
873.69	15032
873.819	14948
873.948	15218
874.077	15062
874.206	15070
874.335	15077
874.464	15199
874.593	15374
874.722	15355
874.851	15397
874.979	15420
875.108	15367
875.237	15340
875.365	15351
875.494	15325
875.623	15466
875.751	15420
875.88	15424
876.008	15545
876.136	15618
876.265	15876
876.393	15941
876.521	15979
876.65	15895
876.778	15717
876.906	15694
877.034	15736
877.162	15766
877.29	15679
877.418	15690
877.546	15785
877.674	15793
877.802	15835
877.93	15827
878.058	15793
878.185	15747
878.313	15785
878.441	15808
878.568	15595
878.696	15713
878.824	15838
878.951	15816
879.079	16036
879.206	16090
879.333	16006
879.461	15778
879.588	15899
879.715	15998
879.842	15915
879.97	15911
880.097	15759
880.224	15728
880.351	15610
880.478	15690
880.605	15622
880.732	15679
880.859	15831
880.986	15644
881.112	15732
881.239	15599
881.366	15439
881.493	15275
881.619	15310
881.746	15313
881.872	15252
881.999	15355
882.125	15199
882.252	15393
882.378	15439
882.505	15450
882.631	15313
882.757	15188
882.883	15188
883.01	15161
883.136	15062
883.262	15043
883.388	15028
883.514	15157
883.64	15116
883.766	15066
883.892	14861
884.018	15036
884.143	15074
884.269	15169
884.395	14979
884.52	14800
884.646	14845
884.772	14735
884.897	14689
885.023	14880
885.148	14960
885.274	14971
885.399	15036
885.524	14804
885.65	14735
885.775	14864
885.9	14952
886.025	14933
886.15	14880
886.275	14849
886.4	14724
886.525	14781
886.65	14769
886.775	14781
886.9	14948
887.025	15173
887.149	14849
887.274	14720
887.399	14587
887.523	14564
887.648	14587
887.773	14625
887.897	14743
888.021	14754
888.146	14606
888.27	14754
888.395	14705
888.519	14743
888.643	14716
888.767	14743
888.891	14568
889.015	14488
889.139	14583
889.263	14499
889.387	14689
889.511	14693
889.635	14651
889.759	14461
889.883	14412
890.006	14537
890.13	14606
890.254	14461
890.377	14465
890.501	14332
890.624	14259
890.748	14404
890.871	14252
890.995	14168
891.118	14157
891.241	14187
891.364	14271
891.488	14385
891.611	14240
891.734	14263
891.857	14229
891.98	14210
892.103	14305
892.226	14256
892.349	14172
892.471	14027
892.594	14157
892.717	14278
892.839	14187
892.962	14275
893.085	14286
893.207	14199
893.33	14145
893.452	14199
893.575	14172
893.697	14107
893.819	14400
893.941	14412
894.064	14370
894.186	14259
894.308	14214
894.43	14275
894.552	14381
894.674	14336
894.796	14267
894.918	14210
895.04	14218
895.161	14275
895.283	14343
895.405	14233
895.526	14385
895.648	14275
895.769	14328
895.891	14400
896.012	14415
896.134	14404
896.255	14377
896.376	14294
896.498	14358
896.619	14438
896.74	14469
896.861	14396
896.982	14712
897.103	14891
897.224	14610
897.345	14632
897.466	14579
897.587	14617
897.708	14727
897.828	14746
897.949	14617
898.07	14579
898.19	14610
898.311	14823
898.431	14705
898.552	14739
898.672	14796
898.792	14796
898.913	14754
899.033	14564
899.153	14579
899.273	14438
899.393	14613
899.513	14545
899.633	14568
899.753	14663
899.873	14541
899.993	14594
900.113	14480
900.232	14556
900.352	14533
900.472	14404
900.591	14461
900.711	14465
900.83	14389
900.95	14575
901.069	14621
901.189	14381
901.308	14278
901.427	14069
901.546	14164
901.665	14073
901.784	14111
901.904	14035
902.023	13898
902.141	13696
902.26	13715
902.379	13776
902.498	13704
902.617	13681
902.735	13772
902.854	13578
902.973	13651
903.091	13384
903.21	13369
903.328	13369
903.446	13350
903.565	13308
903.683	13270
903.801	13221
903.919	13270
904.038	13240
904.156	13031
904.274	13057
904.392	13031
904.51	13008
904.627	13137
904.745	13053
904.863	13145
904.981	12825
905.098	12795
905.216	12798
905.334	12821
905.451	12757
905.569	12734
905.686	12821
905.803	12764
905.921	12563
906.038	12684
906.155	12566
906.272	12563
906.389	12502
906.506	12388
906.623	12353
906.74	12285
906.857	12251
906.974	12285
907.091	12353
907.208	12509
907.324	12311
907.441	12247
907.557	12129
907.674	12159
907.79	12038
907.907	12133
908.023	12102
908.139	12060
908.256	11984
908.372	12049
908.488	12026
908.604	11885
908.72	11847
908.836	11840
908.952	11786
909.068	11885
909.184	12011
909.3	11809
909.415	11939
909.531	11863
909.647	11627
909.762	11672
909.878	11608
909.993	11551
910.108	11577
910.224	11604
910.339	11703
910.454	11516
910.57	11471
910.685	11452
910.8	11824
910.915	11691
911.03	11570
911.145	11364
911.259	11322
911.374	11379
911.489	11299
911.604	11227
911.718	11128
911.833	11117
911.947	11022
912.062	10892
912.176	10976
912.291	11003
912.405	11052
912.519	11284
912.633	11303
912.748	11155
912.862	11174
912.976	10976
913.09	10824
913.204	10866
913.318	10923
913.431	11014
913.545	10976
913.659	11102
913.772	10919
913.886	10858
914	10748
914.113	10949
914.226	10999
914.34	10927
914.453	10752
914.566	10877
914.68	10759
914.793	10748
914.906	10527
915.019	10615
915.132	10409
915.245	10478
915.358	10588
915.47	10447
915.583	10656
915.696	10653
915.809	10733
915.921	10721
916.034	10516
916.146	10542
916.259	10584
916.371	10637
916.483	10599
916.595	10470
916.708	10569
916.82	10531
916.932	10481
917.044	10512
917.156	10447
917.268	10413
917.38	10413
917.491	10371
917.603	10462
917.715	10523
917.826	10512
917.938	10402
918.049	10402
918.161	10405
918.272	10577
918.384	10588
918.495	10451
918.606	10303
918.717	10162
918.828	10322
918.939	10284
919.05	10249
919.161	10261
919.272	10101
919.383	10143
919.494	10337
919.604	10596
919.715	10291
919.826	10253
919.936	10291
920.047	10398
920.157	10310
920.267	10569
920.378	10371
920.488	10325
920.598	10558
920.708	10615
920.818	10443
920.928	10523
921.038	10618
921.148	10596
921.258	10272
921.368	10284
921.477	10196
921.587	10131
921.697	10124
921.806	10177
921.916	10055
922.025	9930
922.134	9865
922.244	9812
922.353	9892
922.462	9797
922.571	9709
922.68	9564
922.789	9568
922.898	9557
923.007	9515
923.116	9603
923.224	9538
923.333	9553
923.442	9462
923.55	9401
923.659	9454
923.767	9523
923.876	9313
923.984	9469
924.092	9325
924.201	9416
924.309	9439
924.417	9420
924.525	9260
924.633	9355
924.741	10295
924.849	9214
924.956	9329
925.064	9222
925.172	9100
925.279	9142
925.387	9203
925.494	9260
925.602	9302
925.709	9233
925.816	9161
925.924	9176
926.031	9237
926.138	9180
926.245	9199
926.352	9142
926.459	9253
926.566	9272
926.673	9173
926.779	9058
926.886	9020
926.993	8918
927.099	8868
927.206	8883
927.312	8842
927.419	8967
927.525	8948
927.631	8960
927.737	8899
927.843	8788
927.95	8686
928.056	8781
928.162	8720
928.267	8785
928.373	9477
928.479	8921
928.585	8670
928.69	8811
928.796	8834
928.901	8766
929.007	8636
929.112	8724
929.218	8739
929.323	8659
929.428	8575
929.533	8743
929.638	8613
929.743	8590
929.848	8750
929.953	8659
930.058	8514
930.163	8374
930.267	8381
930.372	8518
930.477	8374
930.581	8625
930.685	8434
930.79	8343
930.894	8377
930.998	8347
931.103	8457
931.207	8187
931.311	8050
931.415	7970
931.519	7864
931.623	7837
