Data from test_V78500241_1553.txt Node
Date: Fri Mar 25 14:44:31 CST 2022
User: usil
Spectrometer: V785-0024
Trigger mode: 0
Integration Time (sec): 4.000000E-1
Scans to average: 1
Nonlinearity correction enabled: false
Boxcar width: 0
Storing dark spectrum: false
XAxis mode: Wavelengths
Number of Pixels in Spectrum: 1024
>>>>>Begin Spectral Data<<<<<
801.071	22287
801.214	22230
801.356	22010
801.499	21949
801.641	21850
801.783	21736
801.926	21743
802.068	21698
802.211	21610
802.353	21633
802.496	21302
802.638	21355
802.78	21199
802.923	21165
803.065	21176
803.208	21032
803.35	21074
803.492	21272
803.635	21260
803.777	21089
803.919	21096
804.061	21458
804.204	21089
804.346	21085
804.488	20861
804.63	21131
804.773	21055
804.915	21017
805.057	21089
805.199	21066
805.341	21055
805.483	21150
805.626	21066
805.768	20971
805.91	20944
806.052	20956
806.194	20967
806.336	21165
806.478	21081
806.62	21051
806.762	21062
806.904	21165
807.046	21481
807.188	21306
807.33	21287
807.472	21393
807.614	21340
807.756	21283
807.898	21241
808.04	21039
808.182	21180
808.324	21268
808.465	21268
808.607	21492
808.749	21739
808.891	21606
809.033	21728
809.174	21610
809.316	21557
809.458	21545
809.6	21336
809.741	21519
809.883	21473
810.025	21610
810.166	21644
810.308	21553
810.45	21572
810.591	21519
810.733	21408
810.875	21291
811.016	21146
811.158	21108
811.299	21291
811.441	21500
811.582	21363
811.724	21279
811.865	21211
812.007	21264
812.148	21150
812.29	21268
812.431	21268
812.573	21542
812.714	21606
812.855	21652
812.997	21873
813.138	21793
813.279	21816
813.421	21660
813.562	21610
813.703	21557
813.845	21351
813.986	21104
814.127	20960
814.268	20906
814.41	20845
814.551	20796
814.692	20857
814.833	20678
814.974	20773
815.115	20632
815.256	20564
815.397	20712
815.539	20640
815.68	20560
815.821	20415
815.962	20492
816.103	20423
816.244	20374
816.385	20298
816.526	20286
816.666	20111
816.807	19944
816.948	19986
817.089	20069
817.23	19955
817.371	19883
817.512	19906
817.653	19849
817.793	19845
817.934	19928
818.075	19906
818.216	19921
818.356	19841
818.497	19791
818.638	19563
818.778	19586
818.919	19655
819.06	19594
819.2	19609
819.341	19776
819.481	19765
819.622	19887
819.762	20088
819.903	20043
820.043	19925
820.184	19955
820.324	19898
820.465	19925
820.605	19959
820.746	19799
820.886	19784
821.026	19837
821.167	19860
821.307	19944
821.447	19814
821.588	19712
821.728	19601
821.868	19388
822.008	19354
822.149	19194
822.289	19187
822.429	18996
822.569	18977
822.709	18951
822.849	18833
822.99	18696
823.13	18806
823.27	18661
823.41	18646
823.55	18517
823.69	18612
823.83	18578
823.97	18467
824.11	18441
824.25	18300
824.389	18418
824.529	18437
824.669	18232
824.809	18448
824.949	18388
825.089	18467
825.228	18502
825.368	18194
825.508	18182
825.648	18136
825.787	18163
825.927	18201
826.067	18266
826.206	18098
826.346	18213
826.485	18125
826.625	18117
826.765	18258
826.904	18114
827.044	17916
827.183	17931
827.323	17733
827.462	17863
827.601	17786
827.741	17729
827.88	17802
828.02	17684
828.159	17764
828.298	17764
828.437	17885
828.577	17718
828.716	17939
828.855	17821
828.994	17573
829.134	17630
829.273	17722
829.412	17429
829.551	17509
829.69	17455
829.829	17604
829.968	17634
830.107	17699
830.246	17547
830.385	17433
830.524	17482
830.663	17395
830.802	17258
830.941	17140
831.08	17193
831.219	17269
831.357	17280
831.496	17364
831.635	17197
831.774	17162
831.913	17151
832.051	16923
832.19	16942
832.329	16972
832.467	16850
832.606	16820
832.744	16835
832.883	16801
833.022	16797
833.16	16885
833.299	16961
833.437	16778
833.576	16919
833.714	16850
833.852	16919
833.991	16923
834.129	17075
834.267	16919
834.406	16972
834.544	16965
834.682	17025
834.821	16885
834.959	17113
835.097	16892
835.235	17010
835.373	17045
835.511	16999
835.65	16869
835.788	16763
835.926	16664
836.064	16481
836.202	16599
836.34	16816
836.478	16976
836.615	16862
836.753	16759
836.891	16847
837.029	16755
837.167	16653
837.305	16698
837.443	16691
837.58	16573
837.718	16847
837.856	16702
837.993	16656
838.131	16675
838.269	16550
838.406	16603
838.544	16615
838.681	16318
838.819	16337
838.956	16166
839.094	16204
839.231	16287
839.369	16402
839.506	16596
839.643	16455
839.781	16204
839.918	16169
840.055	16268
840.193	16120
840.33	16120
840.467	16185
840.604	16223
840.742	16527
840.879	16090
841.016	16025
841.153	16029
841.29	16295
841.427	16246
841.564	16162
841.701	16249
841.838	16192
841.975	16143
842.112	16101
842.249	16063
842.385	15934
842.522	16188
842.659	15953
842.796	15941
842.933	16021
843.069	15987
843.206	15949
843.343	15998
843.479	16097
843.616	15983
843.752	15808
843.889	15743
844.025	15827
844.162	15762
844.298	15850
844.435	15755
844.571	15755
844.708	15785
844.844	15960
844.98	15979
845.117	15922
845.253	15728
845.389	15637
845.525	15762
845.661	15587
845.798	15587
845.934	15728
846.07	15713
846.206	15785
846.342	15842
846.478	15660
846.614	15405
846.75	15397
846.886	15298
847.022	15412
847.158	15283
847.294	15340
847.429	15462
847.565	15218
847.701	15625
847.837	15055
847.972	14914
848.108	15123
848.244	15119
848.379	14929
848.515	14823
848.65	14902
848.786	14918
848.921	14952
849.057	14998
849.192	15005
849.328	14895
849.463	14861
849.598	14921
849.734	14895
849.869	14830
850.004	14621
850.14	14670
850.275	14682
850.41	14629
850.545	14613
850.68	14625
850.815	14678
850.95	14655
851.085	14788
851.22	14826
851.355	14667
851.49	14651
851.625	14670
851.76	14644
851.895	14663
852.03	14606
852.165	14659
852.299	14644
852.434	14693
852.569	14598
852.703	14724
852.838	14811
852.973	14800
853.107	14872
853.242	14636
853.376	14575
853.511	14377
853.645	14511
853.78	14693
853.914	14579
854.048	14507
854.183	14461
854.317	14522
854.451	14663
854.585	14518
854.72	14552
854.854	14457
854.988	14431
855.122	14480
855.256	14343
855.39	14454
855.524	14522
855.658	14530
855.792	14541
855.926	14594
856.06	14720
856.194	14590
856.327	14545
856.461	14476
856.595	14522
856.729	14549
856.862	14617
856.996	14556
857.13	14610
857.263	14670
857.397	14686
857.53	14526
857.664	14583
857.797	14526
857.931	14682
858.064	14552
858.197	14598
858.331	14526
858.464	14427
858.597	14408
858.731	14541
858.864	14598
858.997	14492
859.13	14533
859.263	14583
859.396	14564
859.529	14526
859.662	14492
859.795	14568
859.928	14583
860.061	14682
860.194	14731
860.327	14549
860.46	14541
860.592	14686
860.725	14697
860.858	14674
860.99	14488
861.123	14427
861.256	14503
861.388	14522
861.521	15199
861.653	14374
861.786	14412
861.918	14358
862.05	14450
862.183	14423
862.315	14495
862.447	14545
862.58	14461
862.712	14271
862.844	14214
862.976	14366
863.108	14336
863.24	14777
863.372	14237
863.504	14286
863.636	14305
863.768	14377
863.9	14393
864.032	14256
864.164	14336
864.296	14358
864.428	14389
864.559	14320
864.691	14404
864.823	14408
864.954	14396
865.086	14362
865.217	14339
865.349	14275
865.48	14366
865.612	14358
865.743	14415
865.875	14305
866.006	14267
866.137	14278
866.269	14434
866.4	14237
866.531	14210
866.662	14240
866.793	14218
866.924	14221
867.055	14271
867.186	14309
867.317	14126
867.448	14244
867.579	14187
867.71	14164
867.841	14248
867.972	14267
868.103	14320
868.233	14248
868.364	14377
868.495	14374
868.625	14495
868.756	14568
868.886	14533
869.017	14549
869.147	14644
869.278	14724
869.408	14556
869.539	14568
869.669	14556
869.799	14503
869.929	14697
870.06	14670
870.19	14887
870.32	14857
870.45	14864
870.58	14906
870.71	15043
870.84	15131
870.97	14921
871.1	14941
871.23	15093
871.36	15089
871.489	14956
871.619	15112
871.749	15085
871.879	15176
872.008	15188
872.138	15089
872.267	15081
872.397	15070
872.526	14986
872.656	14929
872.785	14956
872.915	15165
873.044	15169
873.173	15176
873.303	15256
873.432	15291
873.561	15214
873.69	15131
873.819	15283
873.948	15176
874.077	15157
874.206	15211
874.335	15226
874.464	15279
874.593	15561
874.722	15439
874.851	15530
874.979	15507
875.108	15591
875.237	15454
875.365	15367
875.494	15382
875.623	15614
875.751	15477
875.88	15462
876.008	15648
876.136	15743
876.265	15915
876.393	15953
876.521	15994
876.65	15876
876.778	15850
876.906	15915
877.034	15899
877.162	15895
877.29	15846
877.418	15857
877.546	15949
877.674	15934
877.802	15876
877.93	15926
878.058	15804
878.185	15808
878.313	15934
878.441	15831
878.568	15705
878.696	15850
878.824	15979
878.951	16013
879.079	16196
879.206	16265
879.333	16097
879.461	15998
879.588	16093
879.715	16173
879.842	16333
879.97	15964
880.097	15956
880.224	15861
880.351	15850
880.478	15926
880.605	15728
880.732	15922
880.859	16067
880.986	15804
881.112	15842
881.239	15644
881.366	15553
881.493	15462
881.619	15496
881.746	15447
881.872	15374
881.999	15382
882.125	15344
882.252	15481
882.378	15447
882.505	15603
882.631	15363
882.757	15226
882.883	15203
883.01	15294
883.136	15214
883.262	15077
883.388	15070
883.514	15283
883.64	15283
883.766	15161
883.892	14990
884.018	14994
884.143	15268
884.269	15268
884.395	15062
884.52	15009
884.646	14883
884.772	14914
884.897	14853
885.023	14891
885.148	15039
885.274	15116
885.399	15017
885.524	14880
885.65	14933
885.775	14899
885.9	14929
886.025	15116
886.15	14990
886.275	14864
886.4	14773
886.525	14937
886.65	14895
886.775	14872
886.9	15070
887.025	15131
887.149	15028
887.274	14842
887.399	14667
887.523	14815
887.648	14613
887.773	14621
887.897	14842
888.021	14823
888.146	14720
888.27	14845
888.395	14830
888.519	14872
888.643	14758
888.767	14895
888.891	14750
889.015	14549
889.139	14667
889.263	14587
889.387	14720
889.511	14765
889.635	14708
889.759	14560
889.883	14533
890.006	14549
890.13	14693
890.254	14594
890.377	14552
890.501	14419
890.624	14492
890.748	14415
890.871	14237
890.995	14282
891.118	14221
891.241	14320
891.364	14309
891.488	14514
891.611	14271
891.734	14374
891.857	14419
891.98	14278
892.103	14282
892.226	14366
892.349	14240
892.471	14145
892.594	14267
892.717	14309
892.839	14275
892.962	14286
893.085	14355
893.207	14336
893.33	14123
893.452	14221
893.575	14381
893.697	14298
893.819	14370
893.941	14541
894.064	14385
894.186	14282
894.308	14271
894.43	14412
894.552	14503
894.674	14427
894.796	14313
894.918	14328
895.04	14267
895.161	14393
895.283	14495
895.405	14240
895.526	14313
895.648	14442
895.769	14469
895.891	14393
896.012	14526
896.134	14549
896.255	14507
896.376	14511
896.498	14545
896.619	14476
896.74	14469
896.861	14667
896.982	14762
897.103	14921
897.224	14659
897.345	14826
897.466	14625
897.587	14701
897.708	14739
897.828	14811
897.949	14743
898.07	14655
898.19	14663
898.311	14845
898.431	14823
898.552	14773
898.672	14864
898.792	14861
898.913	14830
899.033	14830
899.153	14625
899.273	14533
899.393	14682
899.513	14613
899.633	14655
899.753	14705
899.873	14659
899.993	14781
900.113	14651
900.232	14735
900.352	14568
900.472	14530
900.591	14492
900.711	14492
900.83	14480
900.95	14720
901.069	14621
901.189	14465
901.308	14301
901.427	14278
901.546	14252
901.665	14237
901.784	14202
901.904	14031
902.023	14020
902.141	13841
902.26	13769
902.379	13845
902.498	13704
902.617	13757
902.735	13784
902.854	13731
902.973	13704
903.091	13495
903.21	13449
903.328	13491
903.446	13430
903.565	13369
903.683	13362
903.801	13232
903.919	13362
904.038	13316
904.156	13209
904.274	13160
904.392	13084
904.51	13156
904.627	13103
904.745	13270
904.863	13247
904.981	12886
905.098	12913
905.216	12852
905.334	12871
905.451	12802
905.569	12924
905.686	12795
905.803	12894
905.921	12635
906.038	12734
906.155	12684
906.272	12589
906.389	12677
906.506	12410
906.623	12452
906.74	12452
906.857	12346
906.974	12410
907.091	12494
907.208	12563
907.324	12498
907.441	12300
907.557	12129
907.674	12171
907.79	12175
907.907	12133
908.023	12243
908.139	12125
908.256	12144
908.372	12125
908.488	12064
908.604	11999
908.72	11878
908.836	11840
908.952	11908
909.068	11920
909.184	12057
909.3	11882
909.415	11901
909.531	11965
909.647	11665
909.762	11649
909.878	11748
909.993	11661
910.108	11661
910.224	11653
910.339	11691
910.454	11630
910.57	11459
910.685	11471
910.8	11828
910.915	11760
911.03	11596
911.145	11383
911.259	11334
911.374	11414
911.489	11269
911.604	11231
911.718	11136
911.833	11227
911.947	11060
912.062	10995
912.176	11201
912.291	11193
912.405	11094
912.519	11311
912.633	11379
912.748	11261
912.862	11056
912.976	11052
913.09	10999
913.204	10949
913.318	11052
913.431	11117
913.545	11117
913.659	11121
913.772	11052
913.886	10923
914	10908
914.113	10949
914.226	11121
914.34	11090
914.453	10930
914.566	11048
914.68	10809
914.793	10854
914.906	10672
915.019	10607
915.132	10519
915.245	10618
915.358	10660
915.47	10668
915.583	10645
915.696	10645
915.809	10759
915.921	10797
916.034	10573
916.146	10649
916.259	10630
916.371	10721
916.483	10668
916.595	10577
916.708	10573
916.82	10538
916.932	10584
917.044	10580
917.156	10493
917.268	10466
917.38	10409
917.491	10481
917.603	10523
917.715	10538
917.826	10535
917.938	10405
918.049	10329
918.161	10489
918.272	10592
918.384	10622
918.495	10485
918.606	10291
918.717	10268
918.828	10386
918.939	10337
919.05	10291
919.161	10318
919.272	10131
919.383	10188
919.494	10379
919.604	10554
919.715	10390
919.826	10242
919.936	10314
920.047	10443
920.157	10413
920.267	10584
920.378	10390
920.488	10299
920.598	10508
920.708	10706
920.818	10577
920.928	10466
921.038	10733
921.148	10702
921.258	10360
921.368	10257
921.477	10196
921.587	10124
921.697	10093
921.806	10211
921.916	10124
922.025	9972
922.134	9869
922.244	9869
922.353	9934
922.462	9857
922.571	9759
922.68	9614
922.789	9656
922.898	9572
923.007	9466
923.116	9644
923.224	9603
923.333	9595
923.442	9523
923.55	9462
923.659	9462
923.767	9564
923.876	9420
923.984	9553
924.092	9447
924.201	9553
924.309	9458
924.417	9428
924.525	9408
924.633	9367
924.741	10276
924.849	9230
924.956	9370
925.064	9199
925.172	9161
925.279	9211
925.387	9199
925.494	9294
925.602	9393
925.709	9344
925.816	9138
925.924	9207
926.031	9321
926.138	9264
926.245	9298
926.352	9214
926.459	9370
926.566	9287
926.673	9188
926.779	9116
926.886	9055
926.993	8982
927.099	8895
927.206	8952
927.312	8956
927.419	9009
927.525	8948
927.631	8986
927.737	8845
927.843	8902
927.95	8750
928.056	8842
928.162	8861
928.267	8933
928.373	9450
928.479	8952
928.585	8758
928.69	8849
928.796	8902
928.901	8785
929.007	8594
929.112	8758
929.218	8807
929.323	8655
929.428	8686
929.533	8842
929.638	8537
929.743	8644
929.848	8754
929.953	8750
930.058	8651
930.163	8446
930.267	8415
930.372	8610
930.477	8431
930.581	8655
930.685	8549
930.79	8355
930.894	8400
930.998	8374
931.103	8507
931.207	8221
931.311	8130
931.415	8046
931.519	7860
931.623	7894
