Data from test_V78500241_3267.txt Node
Date: Fri Mar 25 14:56:27 CST 2022
User: usil
Spectrometer: V785-0024
Trigger mode: 0
Integration Time (sec): 4.000000E-1
Scans to average: 1
Nonlinearity correction enabled: false
Boxcar width: 0
Storing dark spectrum: false
XAxis mode: Wavelengths
Number of Pixels in Spectrum: 1024
>>>>>Begin Spectral Data<<<<<
801.071	21987
801.214	21865
801.356	21656
801.499	21500
801.641	21359
801.783	21310
801.926	21473
802.068	21279
802.211	21252
802.353	21199
802.496	20937
802.638	20845
802.78	20948
802.923	20819
803.065	20636
803.208	20724
803.35	20678
803.492	20785
803.635	20868
803.777	20670
803.919	20667
804.061	21116
804.204	20785
804.346	20678
804.488	20571
804.63	20602
804.773	20484
804.915	20659
805.057	20571
805.199	20583
805.341	20636
805.483	20693
805.626	20705
805.768	20507
805.91	20720
806.052	20560
806.194	20571
806.336	20701
806.478	20507
806.62	20507
806.762	20644
806.904	20804
807.046	20967
807.188	20960
807.33	20906
807.472	20982
807.614	20842
807.756	20876
807.898	20735
808.04	20697
808.182	20602
808.324	20750
808.465	20762
808.607	20838
808.749	20906
808.891	20952
809.033	21154
809.174	21077
809.316	20819
809.458	20880
809.6	20899
809.741	20967
809.883	21108
810.025	21070
810.166	21089
810.308	21195
810.45	21058
810.591	20952
810.733	20876
810.875	20769
811.016	20667
811.158	20644
811.299	20819
811.441	20880
811.582	20765
811.724	20765
811.865	20594
812.007	20724
812.148	20636
812.29	20735
812.431	20925
812.573	21013
812.714	21161
812.855	21192
812.997	21268
813.138	21408
813.279	21374
813.421	21207
813.562	21184
813.703	20941
813.845	20921
813.986	20583
814.127	20313
814.268	20355
814.41	20415
814.551	20240
814.692	20324
814.833	20195
814.974	20195
815.115	20157
815.256	20134
815.397	20077
815.539	20168
815.68	20039
815.821	19917
815.962	19982
816.103	19959
816.244	19822
816.385	19677
816.526	19670
816.666	19559
816.807	19384
816.948	19495
817.089	19563
817.23	19407
817.371	19407
817.512	19441
817.653	19350
817.793	19304
817.934	19388
818.075	19499
818.216	19392
818.356	19255
818.497	19202
818.638	19015
818.778	18973
818.919	19190
819.06	19042
819.2	19156
819.341	19251
819.481	19244
819.622	19464
819.762	19609
819.903	19445
820.043	19388
820.184	19388
820.324	19320
820.465	19365
820.605	19449
820.746	19312
820.886	19171
821.026	19369
821.167	19255
821.307	19335
821.447	19282
821.588	19183
821.728	19103
821.868	18993
822.008	18856
822.149	18772
822.289	18757
822.429	18483
822.569	18342
822.709	18486
822.849	18315
822.99	18228
823.13	18289
823.27	18243
823.41	18163
823.55	18011
823.69	18148
823.83	18060
823.97	18117
824.11	17920
824.25	17714
824.389	17946
824.529	17828
824.669	17786
824.809	17901
824.949	17840
825.089	17901
825.228	17878
825.368	17649
825.508	17646
825.648	17551
825.787	17775
825.927	17649
826.067	17501
826.206	17554
826.346	17661
826.485	17699
826.625	17726
826.765	17756
826.904	17600
827.044	17372
827.183	17376
827.323	17326
827.462	17387
827.601	17296
827.741	17269
827.88	17330
828.02	17189
828.159	17250
828.298	17383
828.437	17383
828.577	17246
828.716	17474
828.855	17231
828.994	17064
829.134	17060
829.273	17075
829.412	16961
829.551	16991
829.69	17098
829.829	17018
829.968	17117
830.107	17193
830.246	17060
830.385	16995
830.524	17010
830.663	16793
830.802	16805
830.941	16637
831.08	16630
831.219	16805
831.357	16774
831.496	16919
831.635	16790
831.774	16668
831.913	16622
832.051	16470
832.19	16417
832.329	16432
832.467	16333
832.606	16390
832.744	16352
832.883	16360
833.022	16356
833.16	16421
833.299	16428
833.437	16348
833.576	16459
833.714	16424
833.852	16474
833.991	16459
834.129	16550
834.267	16474
834.406	16390
834.544	16470
834.682	16470
834.821	16428
834.959	16641
835.097	16409
835.235	16542
835.373	16428
835.511	16535
835.65	16405
835.788	16394
835.926	16219
836.064	16219
836.202	16158
836.34	16386
836.478	16360
836.615	16417
836.753	16409
836.891	16440
837.029	16417
837.167	16398
837.305	16291
837.443	16192
837.58	16238
837.718	16284
837.856	16200
837.993	16219
838.131	16207
838.269	16162
838.406	16173
838.544	16120
838.681	15998
838.819	15861
838.956	15717
839.094	15755
839.231	15857
839.369	15846
839.506	16291
839.643	16055
839.781	15892
839.918	15698
840.055	15800
840.193	15793
840.33	15778
840.467	15778
840.604	15774
840.742	15983
840.879	15690
841.016	15690
841.153	15675
841.29	15869
841.427	15816
841.564	15880
841.701	15861
841.838	15709
841.975	15724
842.112	15671
842.249	15507
842.385	15625
842.522	15694
842.659	15530
842.796	15545
842.933	15713
843.069	15572
843.206	15614
843.343	15637
843.479	15572
843.616	15629
843.752	15374
843.889	15329
844.025	15507
844.162	15272
844.298	15481
844.435	15344
844.571	15245
844.708	15348
844.844	15477
844.98	15492
845.117	15428
845.253	15275
845.389	15184
845.525	15272
845.661	15260
845.798	15169
845.934	15203
846.07	15028
846.206	15135
846.342	15367
846.478	15135
846.614	14994
846.75	14857
846.886	14845
847.022	14967
847.158	14872
847.294	14975
847.429	14944
847.565	14902
847.701	15142
847.837	14712
847.972	14579
848.108	14640
848.244	14769
848.379	14579
848.515	14495
848.65	14480
848.786	14530
848.921	14511
849.057	14674
849.192	14648
849.328	14507
849.463	14465
849.598	14465
849.734	14438
849.869	14381
850.004	14271
850.14	14343
850.275	14298
850.41	14244
850.545	14282
850.68	14237
850.815	14275
850.95	14164
851.085	14518
851.22	14427
851.355	14309
851.49	14259
851.625	14332
851.76	14294
851.895	14183
852.03	14248
852.165	14259
852.299	14240
852.434	14362
852.569	14336
852.703	14313
852.838	14343
852.973	14446
853.107	14488
853.242	14210
853.376	14275
853.511	14039
853.645	14119
853.78	14157
853.914	14233
854.048	14130
854.183	14084
854.317	14142
854.451	14351
854.585	14164
854.72	14138
854.854	14115
854.988	14050
855.122	14043
855.256	14027
855.39	14100
855.524	14244
855.658	14248
855.792	14282
855.926	14142
856.06	14210
856.194	14339
856.327	14115
856.461	14119
856.595	14069
856.729	14225
856.862	14244
856.996	14176
857.13	14290
857.263	14339
857.397	14229
857.53	14278
857.664	14290
857.797	14225
857.931	14278
858.064	14164
858.197	14248
858.331	14115
858.464	14020
858.597	13978
858.731	14221
858.864	14161
858.997	14138
859.13	14130
859.263	14252
859.396	14244
859.529	14096
859.662	14088
859.795	14084
859.928	14164
860.061	14366
860.194	14336
860.327	14221
860.46	14107
860.592	14347
860.725	14229
860.858	14267
860.99	14225
861.123	14126
861.256	14100
861.388	14142
861.521	14952
861.653	14126
861.786	13959
861.918	14043
862.05	14088
862.183	14084
862.315	14123
862.447	14115
862.58	14088
862.712	13879
862.844	13906
862.976	14065
863.108	13879
863.24	14305
863.372	13875
863.504	13959
863.636	13875
863.768	14031
863.9	13932
864.032	13826
864.164	13887
864.296	13970
864.428	14138
864.559	14062
864.691	14119
864.823	14024
864.954	13894
865.086	14024
865.217	13944
865.349	13898
865.48	13902
865.612	13978
865.743	14031
865.875	13898
866.006	13822
866.137	13932
866.269	13947
866.4	13997
866.531	13898
866.662	13871
866.793	13849
866.924	13955
867.055	13887
867.186	13883
867.317	13837
867.448	13963
867.579	13947
867.71	13913
867.841	13883
867.972	13989
868.103	13944
868.233	13883
868.364	13947
868.495	13967
868.625	14096
868.756	14248
868.886	14084
869.017	14084
869.147	14290
869.278	14263
869.408	14218
869.539	14191
869.669	14259
869.799	14282
869.929	14275
870.06	14305
870.19	14514
870.32	14427
870.45	14476
870.58	14473
870.71	14613
870.84	14731
870.97	14598
871.1	14526
871.23	14765
871.36	14655
871.489	14606
871.619	14785
871.749	14735
871.879	14804
872.008	14979
872.138	14807
872.267	14746
872.397	14678
872.526	14598
872.656	14518
872.785	14598
872.915	14773
873.044	14864
873.173	14819
873.303	14830
873.432	14925
873.561	14963
873.69	14842
873.819	14800
873.948	14982
874.077	14880
874.206	14811
874.335	14868
874.464	14944
874.593	15157
874.722	15017
874.851	15222
874.979	15165
875.108	15157
875.237	15085
875.365	15081
875.494	15093
875.623	15218
875.751	15097
875.88	15169
876.008	15302
876.136	15435
876.265	15610
876.393	15686
876.521	15599
876.65	15622
876.778	15663
876.906	15690
877.034	15515
877.162	15488
877.29	15492
877.418	15481
877.546	15568
877.674	15526
877.802	15538
877.93	15496
878.058	15523
878.185	15397
878.313	15568
878.441	15557
878.568	15462
878.696	15515
878.824	15690
878.951	15648
879.079	15762
879.206	15880
879.333	15854
879.461	15584
879.588	15743
879.715	15808
879.842	15888
879.97	15743
880.097	15374
880.224	15355
880.351	15447
880.478	15405
880.605	15389
880.732	15450
880.859	15599
880.986	15519
881.112	15477
881.239	15332
881.366	15180
881.493	15180
881.619	15089
881.746	15146
881.872	15058
881.999	15097
882.125	15131
882.252	15123
882.378	15093
882.505	15131
882.631	15039
882.757	14929
882.883	14960
883.01	14914
883.136	14876
883.262	14765
883.388	14716
883.514	14864
883.64	14880
883.766	14826
883.892	14693
884.018	14781
884.143	14918
884.269	14994
884.395	14648
884.52	14571
884.646	14625
884.772	14499
884.897	14431
885.023	14560
885.148	14670
885.274	14716
885.399	14750
885.524	14674
885.65	14606
885.775	14545
885.9	14556
886.025	14689
886.15	14621
886.275	14568
886.4	14461
886.525	14541
886.65	14537
886.775	14507
886.9	14758
887.025	14826
887.149	14640
887.274	14400
887.399	14355
887.523	14343
887.648	14362
887.773	14282
887.897	14469
888.021	14423
888.146	14381
888.27	14488
888.395	14484
888.519	14480
888.643	14465
888.767	14488
888.891	14252
889.015	14282
889.139	14362
889.263	14305
889.387	14427
889.511	14476
889.635	14446
889.759	14225
889.883	14328
890.006	14320
890.13	14366
890.254	14263
890.377	14298
890.501	14119
890.624	14092
890.748	14153
890.871	14043
890.995	13890
891.118	13917
891.241	13925
891.364	14031
891.488	14115
891.611	14012
891.734	13963
891.857	14062
891.98	14043
892.103	14054
892.226	14005
892.349	13982
892.471	13849
892.594	13879
892.717	13993
892.839	13947
892.962	14069
893.085	14058
893.207	14096
893.33	13807
893.452	13955
893.575	14050
893.697	13955
893.819	14062
893.941	14290
894.064	14138
894.186	13856
894.308	13986
894.43	14161
894.552	14237
894.674	14111
894.796	13959
894.918	14100
895.04	14001
895.161	14119
895.283	14073
895.405	13978
895.526	14149
895.648	14103
895.769	14214
895.891	14153
896.012	14237
896.134	14149
896.255	14180
896.376	14123
896.498	14115
896.619	14168
896.74	14210
896.861	14294
896.982	14545
897.103	14644
897.224	14514
897.345	14343
897.466	14351
897.587	14461
897.708	14602
897.828	14454
897.949	14400
898.07	14301
898.19	14339
898.311	14613
898.431	14518
898.552	14450
898.672	14663
898.792	14568
898.913	14583
899.033	14530
899.153	14233
899.273	14237
899.393	14377
899.513	14366
899.633	14332
899.753	14404
899.873	14305
899.993	14431
900.113	14355
900.232	14385
900.352	14457
900.472	14248
900.591	14252
900.711	14199
900.83	14180
900.95	14362
901.069	14278
901.189	14161
901.308	13986
901.427	13761
901.546	13970
901.665	13898
901.784	13925
901.904	13769
902.023	13696
902.141	13544
902.26	13529
902.379	13594
902.498	13445
902.617	13476
902.735	13521
902.854	13441
902.973	13438
903.091	13274
903.21	13149
903.328	13213
903.446	13198
903.565	13088
903.683	13183
903.801	12993
903.919	13038
904.038	13031
904.156	12837
904.274	12924
904.392	12806
904.51	12901
904.627	12848
904.745	12951
904.863	12916
904.981	12753
905.098	12639
905.216	12627
905.334	12673
905.451	12627
905.569	12517
905.686	12688
905.803	12570
905.921	12429
906.038	12479
906.155	12509
906.272	12334
906.389	12319
906.506	12300
906.623	12186
906.74	12209
906.857	12106
906.974	12072
907.091	12247
907.208	12323
907.324	12209
907.441	12178
907.557	11946
907.674	11923
907.79	11901
907.907	11908
908.023	11969
908.139	11954
908.256	11870
908.372	11912
908.488	11836
908.604	11748
908.72	11657
908.836	11726
908.952	11684
909.068	11748
909.184	11859
909.3	11680
909.415	11733
909.531	11714
909.647	11558
909.762	11501
909.878	11448
909.993	11516
910.108	11463
910.224	11391
910.339	11448
910.454	11410
910.57	11269
910.685	11337
910.8	11547
910.915	11589
911.03	11326
911.145	11220
911.259	11208
911.374	11185
911.489	11151
911.604	11102
911.718	10984
911.833	10850
911.947	10816
912.062	10820
912.176	11003
912.291	10957
912.405	10968
912.519	11128
912.633	11223
912.748	10980
912.862	10995
912.976	10850
913.09	10626
913.204	10767
913.318	10771
913.431	10930
913.545	10923
913.659	10904
913.772	10805
913.886	10710
914	10645
914.113	10683
914.226	10782
914.34	10850
914.453	10675
914.566	10774
914.68	10683
914.793	10630
914.906	10459
915.019	10424
915.132	10390
915.245	10413
915.358	10474
915.47	10535
915.583	10489
915.696	10508
915.809	10679
915.921	10599
916.034	10386
916.146	10470
916.259	10322
916.371	10504
916.483	10440
916.595	10329
916.708	10344
916.82	10382
916.932	10379
917.044	10375
917.156	10322
917.268	10287
917.38	10325
917.491	10360
917.603	10284
917.715	10371
917.826	10394
917.938	10219
918.049	10147
918.161	10295
918.272	10497
918.384	10421
918.495	10230
918.606	10185
918.717	10139
918.828	10223
918.939	10219
919.05	10143
919.161	10185
919.272	9930
919.383	9964
919.494	10173
919.604	10363
919.715	10234
919.826	10128
919.936	10086
920.047	10230
920.157	10200
920.267	10375
920.378	10257
920.488	10143
920.598	10409
920.708	10409
920.818	10394
920.928	10379
921.038	10527
921.148	10577
921.258	10230
921.368	10185
921.477	10036
921.587	10006
921.697	9949
921.806	10029
921.916	9861
922.025	9694
922.134	9656
922.244	9682
922.353	9781
922.462	9633
922.571	9599
922.68	9408
922.789	9431
922.898	9473
923.007	9382
923.116	9466
923.224	9374
923.333	9412
923.442	9329
923.55	9310
923.659	9389
923.767	9370
923.876	9222
923.984	9344
924.092	9226
924.201	9317
924.309	9325
924.417	9321
924.525	9199
924.633	9253
924.741	10207
924.849	9077
924.956	9230
925.064	9135
925.172	9043
925.279	9062
925.387	9085
925.494	9100
925.602	9253
925.709	9180
925.816	9039
925.924	9089
926.031	9173
926.138	9154
926.245	9150
926.352	8998
926.459	9157
926.566	9214
926.673	9051
926.779	8937
926.886	8960
926.993	8823
927.099	8834
927.206	8777
927.312	8807
927.419	8880
927.525	8800
927.631	8899
927.737	8826
927.843	8689
927.95	8651
928.056	8648
928.162	8724
928.267	8754
928.373	9317
928.479	8739
928.585	8568
928.69	8708
928.796	8769
928.901	8625
929.007	8556
929.112	8606
929.218	8602
929.323	8480
929.428	8488
929.533	8693
929.638	8526
929.743	8530
929.848	8499
929.953	8587
930.058	8419
930.163	8282
930.267	8339
930.372	8408
930.477	8286
930.581	8522
930.685	8431
930.79	8221
930.894	8279
930.998	8267
931.103	8393
931.207	8001
931.311	8024
931.415	7944
931.519	7753
931.623	7750
