Data from test_V78500241_3521.txt Node
Date: Fri Mar 25 14:58:14 CST 2022
User: usil
Spectrometer: V785-0024
Trigger mode: 0
Integration Time (sec): 4.000000E-1
Scans to average: 1
Nonlinearity correction enabled: false
Boxcar width: 0
Storing dark spectrum: false
XAxis mode: Wavelengths
Number of Pixels in Spectrum: 1024
>>>>>Begin Spectral Data<<<<<
801.071	21915
801.214	21759
801.356	21595
801.499	21504
801.641	21344
801.783	21218
801.926	21260
802.068	21207
802.211	21154
802.353	21108
802.496	20872
802.638	20891
802.78	20716
802.923	20617
803.065	20606
803.208	20530
803.35	20724
803.492	20632
803.635	20788
803.777	20758
803.919	20819
804.061	20952
804.204	20807
804.346	20545
804.488	20590
804.63	20549
804.773	20499
804.915	20514
805.057	20636
805.199	20533
805.341	20705
805.483	20697
805.626	20659
805.768	20438
805.91	20594
806.052	20522
806.194	20347
806.336	20697
806.478	20552
806.62	20499
806.762	20583
806.904	20788
807.046	20902
807.188	20823
807.33	20834
807.472	20849
807.614	20708
807.756	20804
807.898	20686
808.04	20556
808.182	20629
808.324	20613
808.465	20693
808.607	20853
808.749	20933
808.891	21116
809.033	21108
809.174	20952
809.316	20807
809.458	20861
809.6	20876
809.741	20853
809.883	20967
810.025	21085
810.166	21039
810.308	21024
810.45	21024
810.591	20899
810.733	20720
810.875	20701
811.016	20568
811.158	20545
811.299	20617
811.441	20792
811.582	20697
811.724	20644
811.865	20648
812.007	20617
812.148	20678
812.29	20727
812.431	20765
812.573	20941
812.714	20960
812.855	21074
812.997	21199
813.138	21325
813.279	21298
813.421	21161
813.562	21096
813.703	20849
813.845	20739
813.986	20461
814.127	20336
814.268	20237
814.41	20237
814.551	20111
814.692	20347
814.833	20069
814.974	20107
815.115	20153
815.256	19928
815.397	20088
815.539	20134
815.68	19906
815.821	19818
815.962	19932
816.103	19799
816.244	19734
816.385	19666
816.526	19605
816.666	19468
816.807	19282
816.948	19422
817.089	19381
817.23	19377
817.371	19270
817.512	19255
817.653	19247
817.793	19183
817.934	19259
818.075	19422
818.216	19297
818.356	19236
818.497	19099
818.638	18966
818.778	18977
818.919	19080
819.06	19057
819.2	19000
819.341	19168
819.481	19095
819.622	19289
819.762	19449
819.903	19369
820.043	19301
820.184	19301
820.324	19225
820.465	19396
820.605	19297
820.746	19419
820.886	19145
821.026	19293
821.167	19266
821.307	19247
821.447	19255
821.588	19171
821.728	18973
821.868	18882
822.008	18665
822.149	18760
822.289	18639
822.429	18346
822.569	18448
822.709	18391
822.849	18125
822.99	18148
823.13	18201
823.27	18102
823.41	18114
823.55	17999
823.69	18022
823.83	18152
823.97	17870
824.11	17855
824.25	17718
824.389	17703
824.529	17802
824.669	17760
824.809	17946
824.949	17885
825.089	17836
825.228	17794
825.368	17634
825.508	17558
825.648	17558
825.787	17661
825.927	17566
826.067	17608
826.206	17474
826.346	17604
826.485	17509
826.625	17516
826.765	17585
826.904	17611
827.044	17349
827.183	17220
827.323	17193
827.462	17395
827.601	17197
827.741	17212
827.88	17364
828.02	17162
828.159	17277
828.298	17296
828.437	17326
828.577	17178
828.716	17364
828.855	17227
828.994	17018
829.134	17052
829.273	17086
829.412	16999
829.551	16980
829.69	16995
829.829	16949
829.968	17151
830.107	17083
830.246	17090
830.385	16877
830.524	16961
830.663	16831
830.802	16759
830.941	16641
831.08	16603
831.219	16622
831.357	16626
831.496	16877
831.635	16603
831.774	16558
831.913	16592
832.051	16440
832.19	16470
832.329	16428
832.467	16303
832.606	16360
832.744	16204
832.883	16341
833.022	16394
833.16	16265
833.299	16363
833.437	16344
833.576	16413
833.714	16352
833.852	16485
833.991	16352
834.129	16394
834.267	16478
834.406	16432
834.544	16382
834.682	16402
834.821	16371
834.959	16519
835.097	16341
835.235	16436
835.373	16424
835.511	16485
835.65	16268
835.788	16261
835.926	16188
836.064	16188
836.202	16105
836.34	16234
836.478	16409
836.615	16295
836.753	16310
836.891	16386
837.029	16352
837.167	16295
837.305	16154
837.443	16223
837.58	16207
837.718	16257
837.856	16204
837.993	16090
838.131	16162
838.269	16040
838.406	16147
838.544	16044
838.681	15846
838.819	15854
838.956	15770
839.094	15739
839.231	15808
839.369	15888
839.506	16139
839.643	15972
839.781	15751
839.918	15682
840.055	15800
840.193	15705
840.33	15679
840.467	15713
840.604	15762
840.742	15979
840.879	15633
841.016	15705
841.153	15618
841.29	15774
841.427	15781
841.564	15831
841.701	15724
841.838	15793
841.975	15717
842.112	15614
842.249	15561
842.385	15515
842.522	15759
842.659	15572
842.796	15542
842.933	15572
843.069	15447
843.206	15412
843.343	15587
843.479	15667
843.616	15511
843.752	15374
843.889	15363
844.025	15428
844.162	15249
844.298	15401
844.435	15268
844.571	15249
844.708	15279
844.844	15447
844.98	15466
845.117	15389
845.253	15283
845.389	15135
845.525	15222
845.661	15230
845.798	15173
845.934	15005
846.07	15043
846.206	15104
846.342	15302
846.478	15184
846.614	14899
846.75	14823
846.886	14804
847.022	14982
847.158	14880
847.294	14861
847.429	14910
847.565	14804
847.701	15116
847.837	14724
847.972	14594
848.108	14727
848.244	14632
848.379	14549
848.515	14511
848.65	14446
848.786	14450
848.921	14393
849.057	14613
849.192	14644
849.328	14537
849.463	14507
849.598	14396
849.734	14419
849.869	14336
850.004	14256
850.14	14298
850.275	14199
850.41	14183
850.545	14176
850.68	14267
850.815	14332
850.95	14248
851.085	14461
851.22	14278
851.355	14320
851.49	14244
851.625	14240
851.76	14195
851.895	14164
852.03	14046
852.165	14305
852.299	14233
852.434	14301
852.569	14320
852.703	14294
852.838	14301
852.973	14381
853.107	14499
853.242	14138
853.376	14138
853.511	13928
853.645	14119
853.78	14298
853.914	14134
854.048	14183
854.183	14119
854.317	14092
854.451	14233
854.585	14046
854.72	14043
854.854	14214
854.988	14069
855.122	14149
855.256	14039
855.39	14134
855.524	14339
855.658	14145
855.792	14187
855.926	14153
856.06	14126
856.194	14275
856.327	14161
856.461	14039
856.595	14046
856.729	14054
856.862	14313
856.996	14134
857.13	14180
857.263	14278
857.397	14237
857.53	14092
857.664	14142
857.797	14244
857.931	14351
858.064	14065
858.197	14084
858.331	14195
858.464	14031
858.597	14020
858.731	14084
858.864	13944
858.997	14115
859.13	14123
859.263	14142
859.396	14252
859.529	14058
859.662	14043
859.795	14069
859.928	14134
860.061	14298
860.194	14233
860.327	14244
860.46	14149
860.592	14157
860.725	14358
860.858	14187
860.99	14096
861.123	13997
861.256	14088
861.388	14161
861.521	14883
861.653	13974
861.786	14016
861.918	13902
862.05	13940
862.183	14031
862.315	14123
862.447	14210
862.58	14126
862.712	13875
862.844	13871
862.976	13921
863.108	13894
863.24	14229
863.372	13765
863.504	13868
863.636	13852
863.768	14035
863.9	13875
864.032	13864
864.164	13841
864.296	13894
864.428	14046
864.559	13970
864.691	13913
864.823	13963
864.954	14012
865.086	13898
865.217	13917
865.349	13826
865.48	13826
865.612	13830
865.743	13986
865.875	13837
866.006	13951
866.137	13917
866.269	13845
866.4	13917
866.531	13852
866.662	13772
866.793	13731
866.924	13784
867.055	13898
867.186	13890
867.317	13788
867.448	13822
867.579	13841
867.71	13879
867.841	13837
867.972	13974
868.103	13811
868.233	13822
868.364	13940
868.495	13978
868.625	14119
868.756	14191
868.886	14088
869.017	14107
869.147	14275
869.278	14233
869.408	14210
869.539	14202
869.669	14214
869.799	14161
869.929	14252
870.06	14214
870.19	14450
870.32	14381
870.45	14495
870.58	14571
870.71	14636
870.84	14621
870.97	14602
871.1	14568
871.23	14769
871.36	14697
871.489	14636
871.619	14746
871.749	14830
871.879	14883
872.008	14720
872.138	14743
872.267	14659
872.397	14640
872.526	14579
872.656	14560
872.785	14552
872.915	14750
873.044	14876
873.173	14724
873.303	14754
873.432	14845
873.561	14826
873.69	14785
873.819	14804
873.948	14887
874.077	14804
874.206	14811
874.335	14811
874.464	15093
874.593	15097
874.722	14998
874.851	15108
874.979	15157
875.108	15058
875.237	15039
875.365	14952
875.494	15112
875.623	15245
875.751	15100
875.88	15097
876.008	15283
876.136	15336
876.265	15519
876.393	15663
876.521	15660
876.65	15671
876.778	15526
876.906	15420
877.034	15492
877.162	15496
877.29	15443
877.418	15553
877.546	15568
877.674	15496
877.802	15580
877.93	15599
878.058	15488
878.185	15431
878.313	15534
878.441	15557
878.568	15435
878.696	15557
878.824	15557
878.951	15618
879.079	15656
879.206	15819
879.333	15705
879.461	15561
879.588	15656
879.715	15667
879.842	15766
879.97	15599
880.097	15332
880.224	15287
880.351	15450
880.478	15363
880.605	15374
880.732	15386
880.859	15606
880.986	15378
881.112	15386
881.239	15222
881.366	15272
881.493	15013
881.619	15070
881.746	15074
881.872	15020
881.999	15085
882.125	14921
882.252	15142
882.378	15081
882.505	15127
882.631	15062
882.757	14918
882.883	14990
883.01	14887
883.136	14826
883.262	14689
883.388	14727
883.514	14906
883.64	14880
883.766	14857
883.892	14651
884.018	14830
884.143	14785
884.269	15058
884.395	14610
884.52	14575
884.646	14606
884.772	14446
884.897	14454
885.023	14629
885.148	14720
885.274	14758
885.399	14678
885.524	14587
885.65	14556
885.775	14693
885.9	14507
886.025	14651
886.15	14720
886.275	14404
886.4	14480
886.525	14583
886.65	14423
886.775	14533
886.9	14659
887.025	14735
887.149	14545
887.274	14355
887.399	14423
887.523	14343
887.648	14301
887.773	14317
887.897	14385
888.021	14381
888.146	14355
888.27	14541
888.395	14568
888.519	14396
888.643	14484
888.767	14473
888.891	14381
889.015	14278
889.139	14248
889.263	14115
889.387	14473
889.511	14522
889.635	14389
889.759	14210
889.883	14199
890.006	14343
890.13	14374
890.254	14180
890.377	14164
890.501	14065
890.624	13993
890.748	14157
890.871	13936
890.995	14016
891.118	13883
891.241	13989
891.364	13982
891.488	14134
891.611	13955
891.734	14020
891.857	14035
891.98	13944
892.103	14039
892.226	13909
892.349	13928
892.471	13830
892.594	14012
892.717	14027
892.839	13982
892.962	13947
893.085	14039
893.207	14005
893.33	13852
893.452	13921
893.575	14027
893.697	13940
893.819	14210
893.941	14157
894.064	14195
894.186	13963
894.308	13978
894.43	14164
894.552	14145
894.674	14084
894.796	14001
894.918	14077
895.04	14008
895.161	14103
895.283	14039
895.405	13970
895.526	14126
895.648	14035
895.769	14046
895.891	14195
896.012	14145
896.134	14199
896.255	14202
896.376	14088
896.498	14157
896.619	14221
896.74	14191
896.861	14233
896.982	14442
897.103	14545
897.224	14438
897.345	14400
897.466	14355
897.587	14415
897.708	14473
897.828	14476
897.949	14400
898.07	14267
898.19	14393
898.311	14560
898.431	14450
898.552	14575
898.672	14594
898.792	14526
898.913	14571
899.033	14446
899.153	14336
899.273	14301
899.393	14305
899.513	14415
899.633	14347
899.753	14434
899.873	14286
899.993	14385
900.113	14305
900.232	14278
900.352	14317
900.472	14210
900.591	14111
900.711	14210
900.83	14107
900.95	14282
901.069	14225
901.189	14168
901.308	13963
901.427	13860
901.546	13852
901.665	13947
901.784	13917
901.904	13849
902.023	13662
902.141	13510
902.26	13609
902.379	13544
902.498	13460
902.617	13502
902.735	13499
902.854	13518
902.973	13384
903.091	13046
903.21	13164
903.328	13209
903.446	13126
903.565	13050
903.683	12970
903.801	12993
903.919	12985
904.038	12954
904.156	12814
904.274	12932
904.392	12916
904.51	12810
904.627	12787
904.745	12897
904.863	12871
904.981	12669
905.098	12620
905.216	12574
905.334	12608
905.451	12540
905.569	12486
905.686	12620
905.803	12483
905.921	12330
906.038	12486
906.155	12308
906.272	12327
906.389	12330
906.506	12003
906.623	12060
906.74	12110
906.857	11961
906.974	12159
907.091	12186
907.208	12262
907.324	12175
907.441	12057
907.557	11840
907.674	11908
907.79	11847
907.907	11809
908.023	11954
908.139	11946
908.256	11843
908.372	11790
908.488	11802
908.604	11722
908.72	11638
908.836	11672
908.952	11600
909.068	11699
909.184	11798
909.3	11592
909.415	11745
909.531	11665
909.647	11433
909.762	11395
909.878	11452
909.993	11474
910.108	11493
910.224	11288
910.339	11376
910.454	11330
910.57	11296
910.685	11197
910.8	11570
910.915	11516
911.03	11296
911.145	11189
911.259	11105
911.374	11136
911.489	11022
911.604	10968
911.718	10889
911.833	10961
911.947	10736
912.062	10714
912.176	10812
912.291	10847
912.405	10889
912.519	11064
912.633	11067
912.748	11006
912.862	10885
912.976	10820
913.09	10675
913.204	10702
913.318	10809
913.431	10831
913.545	10843
913.659	10911
913.772	10801
913.886	10668
914	10656
914.113	10736
914.226	10752
914.34	10763
914.453	10565
914.566	10729
914.68	10637
914.793	10527
914.906	10329
915.019	10398
915.132	10325
915.245	10409
915.358	10344
915.47	10421
915.583	10421
915.696	10432
915.809	10516
915.921	10569
916.034	10322
916.146	10322
916.259	10257
916.371	10413
916.483	10371
916.595	10261
916.708	10329
916.82	10306
916.932	10382
917.044	10211
917.156	10348
917.268	10246
917.38	10284
917.491	10253
917.603	10128
917.715	10325
917.826	10295
917.938	10211
918.049	10029
918.161	10238
918.272	10348
918.384	10367
918.495	10196
918.606	10078
918.717	9972
918.828	10131
918.939	10215
919.05	10029
919.161	10044
919.272	9884
919.383	10025
919.494	10169
919.604	10295
919.715	10150
919.826	10067
919.936	10074
920.047	10173
920.157	10173
920.267	10310
920.378	10166
920.488	10051
920.598	10284
920.708	10440
920.818	10348
920.928	10284
921.038	10481
921.148	10421
921.258	10147
921.368	10006
921.477	10017
921.587	10025
921.697	9880
921.806	9998
921.916	9926
922.025	9759
922.134	9770
922.244	9633
922.353	9751
922.462	9618
922.571	9538
922.68	9397
922.789	9393
922.898	9439
923.007	9275
923.116	9348
923.224	9329
923.333	9378
923.442	9203
923.55	9287
923.659	9268
923.767	9348
923.876	9253
923.984	9329
924.092	9226
924.201	9264
924.309	9291
924.417	9283
924.525	9188
924.633	9253
924.741	9945
924.849	9024
924.956	9203
925.064	9028
925.172	8937
925.279	8952
925.387	9085
925.494	9066
925.602	9226
925.709	9108
925.816	8952
925.924	9089
926.031	9154
926.138	9089
926.245	9051
926.352	8933
926.459	9081
926.566	9154
926.673	8990
926.779	8971
926.886	8910
926.993	8785
927.099	8720
927.206	8708
927.312	8724
927.419	8861
927.525	8781
927.631	8762
927.737	8716
927.843	8651
927.95	8545
928.056	8594
928.162	8701
928.267	8708
928.373	9336
928.479	8796
928.585	8571
928.69	8613
928.796	8693
928.901	8617
929.007	8434
929.112	8575
929.218	8560
929.323	8473
929.428	8526
929.533	8632
929.638	8423
929.743	8347
929.848	8503
929.953	8423
930.058	8454
930.163	8229
930.267	8313
930.372	8358
930.477	8248
930.581	8438
930.685	8332
930.79	8221
930.894	8153
930.998	8153
931.103	8347
931.207	7982
931.311	7951
931.415	7947
931.519	7689
931.623	7666
