Data from test_V78500241_1959.txt Node
Date: Fri Mar 25 14:47:21 CST 2022
User: usil
Spectrometer: V785-0024
Trigger mode: 0
Integration Time (sec): 4.000000E-1
Scans to average: 1
Nonlinearity correction enabled: false
Boxcar width: 0
Storing dark spectrum: false
XAxis mode: Wavelengths
Number of Pixels in Spectrum: 1024
>>>>>Begin Spectral Data<<<<<
801.071	22112
801.214	21960
801.356	21869
801.499	21603
801.641	21542
801.783	21397
801.926	21526
802.068	21378
802.211	21374
802.353	21283
802.496	21028
802.638	20994
802.78	20918
802.923	20823
803.065	20804
803.208	20727
803.35	20785
803.492	20826
803.635	20887
803.777	20743
803.919	20758
804.061	21116
804.204	20868
804.346	20743
804.488	20708
804.63	20712
804.773	20564
804.915	20636
805.057	20830
805.199	20625
805.341	20720
805.483	20963
805.626	20754
805.768	20804
805.91	20826
806.052	20796
806.194	20613
806.336	20773
806.478	20594
806.62	20689
806.762	20720
806.904	20899
807.046	21081
807.188	21116
807.33	21047
807.472	20975
807.614	21017
807.756	20937
807.898	20800
808.04	20735
808.182	20800
808.324	20735
808.465	20880
808.607	20967
808.749	20990
808.891	21096
809.033	21169
809.174	21192
809.316	21116
809.458	21157
809.6	21047
809.741	21127
809.883	21199
810.025	21272
810.166	21173
810.308	21272
810.45	21058
810.591	21085
810.733	20902
810.875	20830
811.016	20781
811.158	20674
811.299	20918
811.441	20990
811.582	20868
811.724	20811
811.865	20815
812.007	20849
812.148	20887
812.29	20925
812.431	21100
812.573	21195
812.714	21192
812.855	21329
812.997	21462
813.138	21519
813.279	21462
813.421	21317
813.562	21294
813.703	21127
813.845	20918
813.986	20769
814.127	20648
814.268	20476
814.41	20385
814.551	20461
814.692	20488
814.833	20248
814.974	20278
815.115	20377
815.256	20191
815.397	20240
815.539	20111
815.68	20115
815.821	20073
815.962	20225
816.103	20153
816.244	20031
816.385	19826
816.526	19879
816.666	19803
816.807	19651
816.948	19635
817.089	19700
817.23	19601
817.371	19514
817.512	19510
817.653	19586
817.793	19480
817.934	19483
818.075	19552
818.216	19438
818.356	19480
818.497	19316
818.638	19247
818.778	19221
818.919	19263
819.06	19129
819.2	19285
819.341	19354
819.481	19419
819.622	19597
819.762	19826
819.903	19731
820.043	19575
820.184	19499
820.324	19502
820.465	19563
820.605	19453
820.746	19544
820.886	19407
821.026	19525
821.167	19453
821.307	19506
821.447	19365
821.588	19331
821.728	19217
821.868	19133
822.008	18852
822.149	18973
822.289	18787
822.429	18597
822.569	18570
822.709	18570
822.849	18376
822.99	18547
823.13	18365
823.27	18391
823.41	18163
823.55	18159
823.69	18194
823.83	18201
823.97	18125
824.11	17908
824.25	17965
824.389	18079
824.529	17996
824.669	17939
824.809	18079
824.949	18155
825.089	18114
825.228	18034
825.368	17790
825.508	17824
825.648	17756
825.787	17771
825.927	17809
826.067	17665
826.206	17775
826.346	17790
826.485	17851
826.625	17783
826.765	17828
826.904	17794
827.044	17493
827.183	17577
827.323	17372
827.462	17665
827.601	17524
827.741	17417
827.88	17474
828.02	17322
828.159	17387
828.298	17459
828.437	17528
828.577	17463
828.716	17566
828.855	17478
828.994	17277
829.134	17239
829.273	17227
829.412	17117
829.551	17075
829.69	17151
829.829	17299
829.968	17246
830.107	17334
830.246	17181
830.385	17162
830.524	17121
830.663	17029
830.802	16889
830.941	16877
831.08	16805
831.219	16961
831.357	16847
831.496	17109
831.635	16835
831.774	16858
831.913	16694
832.051	16668
832.19	16618
832.329	16603
832.467	16618
832.606	16478
832.744	16394
832.883	16615
833.022	16618
833.16	16675
833.299	16550
833.437	16478
833.576	16641
833.714	16580
833.852	16653
833.991	16538
834.129	16577
834.267	16672
834.406	16626
834.544	16687
834.682	16660
834.821	16611
834.959	16736
835.097	16554
835.235	16725
835.373	16664
835.511	16653
835.65	16466
835.788	16497
835.926	16527
836.064	16329
836.202	16325
836.34	16558
836.478	16531
836.615	16554
836.753	16523
836.891	16599
837.029	16599
837.167	16478
837.305	16440
837.443	16360
837.58	16352
837.718	16459
837.856	16413
837.993	16314
838.131	16428
838.269	16306
838.406	16299
838.544	16284
838.681	16173
838.819	15979
838.956	15907
839.094	15994
839.231	15922
839.369	16040
839.506	16234
839.643	16207
839.781	15934
839.918	15880
840.055	15960
840.193	16010
840.33	15911
840.467	15953
840.604	16059
840.742	16150
840.879	15857
841.016	15857
841.153	15915
841.29	16036
841.427	15956
841.564	15949
841.701	15953
841.838	15819
841.975	15892
842.112	15827
842.249	15732
842.385	15690
842.522	15895
842.659	15751
842.796	15709
842.933	15759
843.069	15709
843.206	15713
843.343	15797
843.479	15720
843.616	15793
843.752	15473
843.889	15526
844.025	15618
844.162	15450
844.298	15656
844.435	15454
844.571	15557
844.708	15473
844.844	15682
844.98	15690
845.117	15553
845.253	15447
845.389	15325
845.525	15412
845.661	15466
845.798	15294
845.934	15401
846.07	15348
846.206	15435
846.342	15435
846.478	15291
846.614	15104
846.75	15013
846.886	15009
847.022	15161
847.158	15077
847.294	15039
847.429	15024
847.565	15047
847.701	15329
847.837	14735
847.972	14800
848.108	14834
848.244	14933
848.379	14731
848.515	14678
848.65	14663
848.786	14667
848.921	14670
849.057	14750
849.192	14785
849.328	14625
849.463	14720
849.598	14708
849.734	14590
849.869	14663
850.004	14465
850.14	14480
850.275	14530
850.41	14370
850.545	14412
850.68	14465
850.815	14358
850.95	14454
851.085	14674
851.22	14602
851.355	14476
851.49	14499
851.625	14457
851.76	14412
851.895	14301
852.03	14313
852.165	14396
852.299	14381
852.434	14514
852.569	14446
852.703	14583
852.838	14537
852.973	14583
853.107	14701
853.242	14423
853.376	14332
853.511	14263
853.645	14317
853.78	14427
853.914	14305
854.048	14324
854.183	14210
854.317	14301
854.451	14438
854.585	14301
854.72	14259
854.854	14431
854.988	14278
855.122	14385
855.256	14221
855.39	14290
855.524	14370
855.658	14301
855.792	14309
855.926	14396
856.06	14427
856.194	14355
856.327	14317
856.461	14252
856.595	14294
856.729	14221
856.862	14343
856.996	14377
857.13	14442
857.263	14454
857.397	14442
857.53	14381
857.664	14332
857.797	14355
857.931	14457
858.064	14351
858.197	14480
858.331	14294
858.464	14298
858.597	14218
858.731	14294
858.864	14324
858.997	14275
859.13	14393
859.263	14374
859.396	14366
859.529	14309
859.662	14305
859.795	14298
859.928	14393
860.061	14400
860.194	14507
860.327	14404
860.46	14259
860.592	14511
860.725	14454
860.858	14393
860.99	14298
861.123	14324
861.256	14206
861.388	14271
861.521	15055
861.653	14240
861.786	14126
861.918	14115
862.05	14298
862.183	14320
862.315	14275
862.447	14415
862.58	14187
862.712	14058
862.844	14081
862.976	14119
863.108	14149
863.24	14362
863.372	14142
863.504	14157
863.636	14126
863.768	14206
863.9	14054
864.032	14111
864.164	14062
864.296	14145
864.428	14210
864.559	14195
864.691	14134
864.823	14210
864.954	14111
865.086	14134
865.217	14077
865.349	14024
865.48	14073
865.612	14039
865.743	14142
865.875	13997
866.006	14069
866.137	14107
866.269	14046
866.4	14081
866.531	14001
866.662	14031
866.793	14005
866.924	14065
867.055	14081
867.186	14024
867.317	14027
867.448	13974
867.579	14119
867.71	14043
867.841	14024
867.972	14126
868.103	14077
868.233	14145
868.364	14149
868.495	14145
868.625	14233
868.756	14336
868.886	14290
869.017	14343
869.147	14381
869.278	14473
869.408	14374
869.539	14286
869.669	14450
869.799	14305
869.929	14442
870.06	14427
870.19	14788
870.32	14667
870.45	14617
870.58	14727
870.71	14857
870.84	14887
870.97	14796
871.1	14693
871.23	14845
871.36	15009
871.489	14804
871.619	14895
871.749	14834
871.879	15043
872.008	15013
872.138	14948
872.267	14868
872.397	14819
872.526	14743
872.656	14727
872.785	14701
872.915	14849
873.044	14944
873.173	15028
873.303	15020
873.432	15017
873.561	15013
873.69	14944
873.819	15024
873.948	15039
874.077	14895
874.206	14998
874.335	14880
874.464	15119
874.593	15313
874.722	15230
874.851	15275
874.979	15348
875.108	15260
875.237	15230
875.365	15203
875.494	15294
875.623	15504
875.751	15237
875.88	15370
876.008	15363
876.136	15500
876.265	15739
876.393	15869
876.521	15724
876.65	15709
876.778	15724
876.906	15652
877.034	15675
877.162	15717
877.29	15549
877.418	15728
877.546	15660
877.674	15728
877.802	15724
877.93	15854
878.058	15629
878.185	15599
878.313	15538
878.441	15671
878.568	15618
878.696	15679
878.824	15713
878.951	15762
879.079	15911
879.206	15979
879.333	15922
879.461	15728
879.588	15766
879.715	15800
879.842	16044
879.97	15793
880.097	15591
880.224	15416
880.351	15462
880.478	15622
880.605	15599
880.732	15538
880.859	15770
880.986	15500
881.112	15576
881.239	15564
881.366	15294
881.493	15313
881.619	15272
881.746	15256
881.872	15237
881.999	15283
882.125	15176
882.252	15146
882.378	15157
882.505	15439
882.631	15173
882.757	15127
882.883	15074
883.01	15032
883.136	14971
883.262	14861
883.388	14857
883.514	15036
883.64	15039
883.766	14960
883.892	14883
884.018	14811
884.143	14948
884.269	15154
884.395	14868
884.52	14735
884.646	14746
884.772	14621
884.897	14640
885.023	14716
885.148	14887
885.274	14963
885.399	14834
885.524	14678
885.65	14826
885.775	14743
885.9	14769
886.025	14762
886.15	14842
886.275	14636
886.4	14731
886.525	14750
886.65	14663
886.775	14693
886.9	14929
887.025	14925
887.149	14785
887.274	14587
887.399	14575
887.523	14533
887.648	14454
887.773	14450
887.897	14617
888.021	14674
888.146	14495
888.27	14705
888.395	14686
888.519	14598
888.643	14602
888.767	14682
888.891	14533
889.015	14408
889.139	14537
889.263	14374
889.387	14568
889.511	14571
889.635	14454
889.759	14431
889.883	14419
890.006	14514
890.13	14613
890.254	14358
890.377	14415
890.501	14278
890.624	14225
890.748	14320
890.871	14237
890.995	14065
891.118	14069
891.241	14096
891.364	14134
891.488	14282
891.611	14134
891.734	14088
891.857	14180
891.98	14168
892.103	14233
892.226	14256
892.349	14043
892.471	13986
892.594	14187
892.717	14115
892.839	14084
892.962	14206
893.085	14202
893.207	14153
893.33	14130
893.452	14100
893.575	14149
893.697	14172
893.819	14290
893.941	14343
894.064	14187
894.186	14103
894.308	14100
894.43	14225
894.552	14336
894.674	14237
894.796	14123
894.918	14176
895.04	14081
895.161	14252
895.283	14237
895.405	14103
895.526	14195
895.648	14187
895.769	14195
895.891	14298
896.012	14347
896.134	14233
896.255	14263
896.376	14256
896.498	14298
896.619	14328
896.74	14290
896.861	14393
896.982	14629
897.103	14815
897.224	14613
897.345	14514
897.466	14526
897.587	14511
897.708	14701
897.828	14640
897.949	14476
898.07	14530
898.19	14511
898.311	14587
898.431	14552
898.552	14663
898.672	14830
898.792	14823
898.913	14682
899.033	14579
899.153	14495
899.273	14400
899.393	14415
899.513	14590
899.633	14488
899.753	14499
899.873	14522
899.993	14575
900.113	14503
900.232	14587
900.352	14495
900.472	14400
900.591	14442
900.711	14404
900.83	14313
900.95	14549
901.069	14461
901.189	14278
901.308	14062
901.427	14016
901.546	14031
901.665	14069
901.784	14077
901.904	13928
902.023	13833
902.141	13727
902.26	13628
902.379	13746
902.498	13533
902.617	13590
902.735	13681
902.854	13548
902.973	13510
903.091	13266
903.21	13392
903.328	13232
903.446	13270
903.565	13255
903.683	13179
903.801	13046
903.919	13164
904.038	13133
904.156	13046
904.274	13031
904.392	12928
904.51	12909
904.627	13000
904.745	13091
904.863	12981
904.981	12817
905.098	12707
905.216	12722
905.334	12700
905.451	12711
905.569	12646
905.686	12681
905.803	12658
905.921	12475
906.038	12601
906.155	12502
906.272	12426
906.389	12426
906.506	12232
906.623	12300
906.74	12273
906.857	12155
906.974	12133
907.091	12376
907.208	12403
907.324	12376
907.441	12182
907.557	12182
907.674	12068
907.79	11935
907.907	12034
908.023	12068
908.139	12064
908.256	11882
908.372	11882
908.488	11939
908.604	11821
908.72	11707
908.836	11805
908.952	11790
909.068	11771
909.184	11920
909.3	11695
909.415	11817
909.531	11832
909.647	11623
909.762	11570
909.878	11566
909.993	11600
910.108	11490
910.224	11497
910.339	11497
910.454	11448
910.57	11303
910.685	11383
910.8	11680
910.915	11551
911.03	11455
911.145	11193
911.259	11368
911.374	11311
911.489	11094
911.604	11086
911.718	11022
911.833	10965
911.947	10904
912.062	10824
912.176	10987
912.291	11083
912.405	10957
912.519	11242
912.633	11250
912.748	11090
912.862	11022
912.976	10847
913.09	10755
913.204	10843
913.318	10847
913.431	11025
913.545	11014
913.659	10976
913.772	10923
913.886	10778
914	10759
914.113	10900
914.226	10900
914.34	10835
914.453	10641
914.566	10816
914.68	10694
914.793	10683
914.906	10538
915.019	10459
915.132	10508
915.245	10455
915.358	10500
915.47	10561
915.583	10516
915.696	10603
915.809	10679
915.921	10710
916.034	10554
916.146	10375
916.259	10413
916.371	10618
916.483	10618
916.595	10428
916.708	10489
916.82	10459
916.932	10413
917.044	10436
917.156	10424
917.268	10295
917.38	10337
917.491	10265
917.603	10390
917.715	10459
917.826	10474
917.938	10268
918.049	10249
918.161	10367
918.272	10485
918.384	10379
918.495	10363
918.606	10249
918.717	10204
918.828	10230
918.939	10306
919.05	10143
919.161	10192
919.272	10063
919.383	10086
919.494	10253
919.604	10462
919.715	10265
919.826	10154
919.936	10196
920.047	10367
920.157	10204
920.267	10390
920.378	10299
920.488	10287
920.598	10421
920.708	10577
920.818	10421
920.928	10413
921.038	10618
921.148	10558
921.258	10276
921.368	10238
921.477	10101
921.587	10078
921.697	9975
921.806	10112
921.916	9991
922.025	9911
922.134	9800
922.244	9698
922.353	9800
922.462	9660
922.571	9542
922.68	9439
922.789	9538
922.898	9515
923.007	9420
923.116	9568
923.224	9481
923.333	9511
923.442	9378
923.55	9363
923.659	9386
923.767	9458
923.876	9355
923.984	9401
924.092	9367
924.201	9355
924.309	9325
924.417	9351
924.525	9249
924.633	9344
924.741	10246
924.849	9131
924.956	9283
925.064	9112
925.172	9051
925.279	9036
925.387	9192
925.494	9192
925.602	9241
925.709	9233
925.816	9074
925.924	9097
926.031	9260
926.138	9142
926.245	9180
926.352	9123
926.459	9279
926.566	9245
926.673	9161
926.779	9009
926.886	8990
926.993	8872
927.099	8876
927.206	8842
927.312	8769
927.419	8876
927.525	8864
927.631	8899
927.737	8735
927.843	8758
927.95	8598
928.056	8712
928.162	8766
928.267	8804
928.373	9428
928.479	8876
928.585	8655
928.69	8667
928.796	8766
928.901	8556
929.007	8484
929.112	8625
929.218	8587
929.323	8549
929.428	8636
929.533	8693
929.638	8492
929.743	8552
929.848	8610
929.953	8594
930.058	8492
930.163	8400
930.267	8298
930.372	8511
930.477	8332
930.581	8507
930.685	8351
930.79	8244
930.894	8275
930.998	8218
931.103	8412
931.207	8088
931.311	8005
931.415	8035
931.519	7780
931.623	7769
