Data from test_V78500241_2459.txt Node
Date: Fri Mar 25 14:50:50 CST 2022
User: usil
Spectrometer: V785-0024
Trigger mode: 0
Integration Time (sec): 4.000000E-1
Scans to average: 1
Nonlinearity correction enabled: false
Boxcar width: 0
Storing dark spectrum: false
XAxis mode: Wavelengths
Number of Pixels in Spectrum: 1024
>>>>>Begin Spectral Data<<<<<
801.071	22150
801.214	21945
801.356	21720
801.499	21739
801.641	21530
801.783	21431
801.926	21549
802.068	21397
802.211	21321
802.353	21222
802.496	21074
802.638	20823
802.78	20842
802.923	20758
803.065	20777
803.208	20788
803.35	20845
803.492	20941
803.635	20933
803.777	20815
803.919	20910
804.061	21203
804.204	20777
804.346	20815
804.488	20575
804.63	20724
804.773	20674
804.915	20762
805.057	20838
805.199	20667
805.341	20720
805.483	20857
805.626	20731
805.768	20727
805.91	20636
806.052	20594
806.194	20602
806.336	20762
806.478	20659
806.62	20689
806.762	20785
806.904	20944
807.046	21066
807.188	20963
807.33	21043
807.472	21017
807.614	20921
807.756	20918
807.898	20705
808.04	20842
808.182	20796
808.324	20796
808.465	20891
808.607	20963
808.749	21047
808.891	21138
809.033	21275
809.174	21184
809.316	21043
809.458	21009
809.6	21100
809.741	21146
809.883	21127
810.025	21214
810.166	21104
810.308	21252
810.45	21226
810.591	21077
810.733	20960
810.875	20925
811.016	20800
811.158	20762
811.299	20857
811.441	21096
811.582	20979
811.724	20899
811.865	20857
812.007	20815
812.148	20826
812.29	20918
812.431	21062
812.573	21138
812.714	21283
812.855	21386
812.997	21389
813.138	21469
813.279	21435
813.421	21245
813.562	21180
813.703	21188
813.845	20979
813.986	20754
814.127	20446
814.268	20560
814.41	20267
814.551	20362
814.692	20507
814.833	20259
814.974	20339
815.115	20385
815.256	20324
815.397	20233
815.539	20218
815.68	20096
815.821	20134
815.962	20176
816.103	20081
816.244	19944
816.385	19826
816.526	19944
816.666	19700
816.807	19567
816.948	19643
817.089	19609
817.23	19696
817.371	19556
817.512	19453
817.653	19362
817.793	19464
817.934	19480
818.075	19571
818.216	19525
818.356	19476
818.497	19327
818.638	19133
818.778	19175
818.919	19221
819.06	19308
819.2	19350
819.341	19297
819.481	19529
819.622	19624
819.762	19731
819.903	19628
820.043	19597
820.184	19491
820.324	19590
820.465	19624
820.605	19533
820.746	19548
820.886	19263
821.026	19510
821.167	19460
821.307	19495
821.447	19419
821.588	19308
821.728	19327
821.868	19053
822.008	18966
822.149	18825
822.289	18863
822.429	18711
822.569	18536
822.709	18601
822.849	18350
822.99	18414
823.13	18506
823.27	18304
823.41	18304
823.55	18220
823.69	18213
823.83	18114
823.97	18174
824.11	18007
824.25	17999
824.389	18007
824.529	18026
824.669	18053
824.809	18110
824.949	18106
825.089	18030
825.228	18003
825.368	17824
825.508	17809
825.648	17710
825.787	17859
825.927	17726
826.067	17657
826.206	17623
826.346	17767
826.485	17832
826.625	17676
826.765	17840
826.904	17695
827.044	17554
827.183	17440
827.323	17444
827.462	17528
827.601	17482
827.741	17497
827.88	17433
828.02	17258
828.159	17516
828.298	17490
828.437	17486
828.577	17356
828.716	17570
828.855	17353
828.994	17124
829.134	17117
829.273	17296
829.412	17132
829.551	17159
829.69	17235
829.829	17349
829.968	17296
830.107	17280
830.246	17231
830.385	17166
830.524	17037
830.663	17064
830.802	16862
830.941	16858
831.08	16797
831.219	16797
831.357	16862
831.496	17048
831.635	16774
831.774	16725
831.913	16691
832.051	16664
832.19	16504
832.329	16615
832.467	16485
832.606	16508
832.744	16489
832.883	16421
833.022	16413
833.16	16443
833.299	16519
833.437	16451
833.576	16500
833.714	16580
833.852	16596
833.991	16668
834.129	16569
834.267	16630
834.406	16569
834.544	16717
834.682	16550
834.821	16504
834.959	16691
835.097	16428
835.235	16691
835.373	16577
835.511	16497
835.65	16432
835.788	16440
835.926	16405
836.064	16394
836.202	16276
836.34	16462
836.478	16436
836.615	16360
836.753	16470
836.891	16523
837.029	16535
837.167	16409
837.305	16348
837.443	16344
837.58	16291
837.718	16390
837.856	16314
837.993	16295
838.131	16234
838.269	16257
838.406	16150
838.544	16124
838.681	16017
838.819	16067
838.956	15831
839.094	15770
839.231	15926
839.369	16010
839.506	16211
839.643	16150
839.781	15892
839.918	15831
840.055	15915
840.193	15838
840.33	15888
840.467	15846
840.604	15911
840.742	16185
840.879	15698
841.016	15774
841.153	15793
841.29	15937
841.427	15888
841.564	15880
841.701	15903
841.838	15865
841.975	15606
842.112	15869
842.249	15625
842.385	15660
842.522	15842
842.659	15724
842.796	15751
842.933	15713
843.069	15614
843.206	15587
843.343	15800
843.479	15629
843.616	15717
843.752	15458
843.889	15447
844.025	15549
844.162	15454
844.298	15564
844.435	15332
844.571	15367
844.708	15511
844.844	15576
844.98	15523
845.117	15576
845.253	15420
845.389	15382
845.525	15340
845.661	15374
845.798	15268
845.934	15298
846.07	15207
846.206	15336
846.342	15420
846.478	15222
846.614	15097
846.75	14986
846.886	15047
847.022	15203
847.158	15039
847.294	15081
847.429	15017
847.565	14937
847.701	15203
847.837	14743
847.972	14686
848.108	14788
848.244	14845
848.379	14678
848.515	14583
848.65	14552
848.786	14617
848.921	14621
849.057	14674
849.192	14720
849.328	14590
849.463	14598
849.598	14590
849.734	14537
849.869	14476
850.004	14438
850.14	14438
850.275	14393
850.41	14237
850.545	14362
850.68	14286
850.815	14404
850.95	14469
851.085	14518
851.22	14454
851.355	14381
851.49	14377
851.625	14362
851.76	14400
851.895	14271
852.03	14305
852.165	14347
852.299	14434
852.434	14362
852.569	14358
852.703	14503
852.838	14571
852.973	14636
853.107	14514
853.242	14305
853.376	14282
853.511	14161
853.645	14263
853.78	14389
853.914	14244
854.048	14244
854.183	14244
854.317	14256
854.451	14396
854.585	14210
854.72	14309
854.854	14313
854.988	14168
855.122	14244
855.256	14153
855.39	14202
855.524	14358
855.658	14347
855.792	14336
855.926	14290
856.06	14328
856.194	14336
856.327	14214
856.461	14153
856.595	14248
856.729	14244
856.862	14298
856.996	14328
857.13	14320
857.263	14385
857.397	14434
857.53	14256
857.664	14309
857.797	14381
857.931	14415
858.064	14271
858.197	14351
858.331	14290
858.464	14183
858.597	14134
858.731	14267
858.864	14191
858.997	14313
859.13	14240
859.263	14294
859.396	14343
859.529	14233
859.662	14214
859.795	14149
859.928	14366
860.061	14412
860.194	14385
860.327	14305
860.46	14263
860.592	14309
860.725	14381
860.858	14374
860.99	14271
861.123	14100
861.256	14191
861.388	14358
861.521	14834
861.653	14153
861.786	14046
861.918	14134
862.05	14202
862.183	14191
862.315	14298
862.447	14214
862.58	14278
862.712	13997
862.844	13978
862.976	14107
863.108	14123
863.24	14473
863.372	14027
863.504	14035
863.636	14069
863.768	14020
863.9	14119
864.032	13986
864.164	14008
864.296	14119
864.428	14183
864.559	14039
864.691	14191
864.823	14111
864.954	14031
865.086	14077
865.217	14058
865.349	13959
865.48	13959
865.612	14069
865.743	14149
865.875	14065
866.006	14046
866.137	14027
866.269	14065
866.4	14001
866.531	13986
866.662	13940
866.793	14016
866.924	13970
867.055	13982
867.186	13986
867.317	14005
867.448	13936
867.579	13932
867.71	13936
867.841	14043
867.972	13955
868.103	14001
868.233	14058
868.364	13989
868.495	14107
868.625	14377
868.756	14355
868.886	14138
869.017	14202
869.147	14347
869.278	14313
869.408	14301
869.539	14248
869.669	14355
869.799	14267
869.929	14427
870.06	14389
870.19	14579
870.32	14549
870.45	14621
870.58	14636
870.71	14788
870.84	14705
870.97	14636
871.1	14697
871.23	14830
871.36	14792
871.489	14765
871.619	14902
871.749	14807
871.879	14929
872.008	15009
872.138	14883
872.267	14758
872.397	14724
872.526	14644
872.656	14705
872.785	14788
872.915	14990
873.044	15043
873.173	14914
873.303	14986
873.432	14880
873.561	15024
873.69	14883
873.819	14933
873.948	15017
874.077	14899
874.206	14921
874.335	14941
874.464	15100
874.593	15173
874.722	15169
874.851	15256
874.979	15272
875.108	15249
875.237	15237
875.365	15131
875.494	15169
875.623	15230
875.751	15188
875.88	15245
876.008	15336
876.136	15378
876.265	15637
876.393	15766
876.521	15781
876.65	15713
876.778	15667
876.906	15614
877.034	15561
877.162	15564
877.29	15564
877.418	15587
877.546	15576
877.674	15660
877.802	15656
877.93	15705
878.058	15534
878.185	15542
878.313	15584
878.441	15580
878.568	15511
878.696	15595
878.824	15671
878.951	15701
879.079	15857
879.206	15979
879.333	15842
879.461	15656
879.588	15698
879.715	15922
879.842	15960
879.97	15709
880.097	15416
880.224	15507
880.351	15534
880.478	15431
880.605	15557
880.732	15564
880.859	15762
880.986	15553
881.112	15595
881.239	15416
881.366	15393
881.493	15252
881.619	15176
881.746	15154
881.872	15058
881.999	15097
882.125	15195
882.252	15199
882.378	15150
882.505	15291
882.631	15161
882.757	14990
882.883	15009
883.01	15032
883.136	15036
883.262	14872
883.388	14834
883.514	15043
883.64	14986
883.766	14994
883.892	14838
884.018	14815
884.143	14857
884.269	15077
884.395	14640
884.52	14594
884.646	14746
884.772	14533
884.897	14533
885.023	14670
885.148	14765
885.274	14739
885.399	14769
885.524	14651
885.65	14735
885.775	14678
885.9	14674
886.025	14830
886.15	14727
886.275	14617
886.4	14511
886.525	14659
886.65	14579
886.775	14594
886.9	14708
887.025	14937
887.149	14659
887.274	14587
887.399	14473
887.523	14522
887.648	14400
887.773	14434
887.897	14495
888.021	14606
888.146	14465
888.27	14541
888.395	14575
888.519	14488
888.643	14594
888.767	14568
888.891	14480
889.015	14328
889.139	14450
889.263	14313
889.387	14590
889.511	14564
889.635	14442
889.759	14351
889.883	14244
890.006	14412
890.13	14507
890.254	14237
890.377	14336
890.501	14153
890.624	14187
890.748	14263
890.871	14142
890.995	14012
891.118	14088
891.241	14039
891.364	14111
891.488	14180
891.611	14050
891.734	14050
891.857	14138
891.98	14008
892.103	14134
892.226	14103
892.349	14046
892.471	13963
892.594	14005
892.717	14043
892.839	14065
892.962	14107
893.085	14138
893.207	14005
893.33	14043
893.452	14043
893.575	14229
893.697	14069
893.819	14172
893.941	14427
894.064	14210
894.186	14176
894.308	14027
894.43	14225
894.552	14172
894.674	14282
894.796	14062
894.918	14206
895.04	14100
895.161	14225
895.283	14214
895.405	14138
895.526	14191
895.648	14130
895.769	14195
895.891	14221
896.012	14381
896.134	14305
896.255	14187
896.376	14164
896.498	14275
896.619	14358
896.74	14214
896.861	14396
896.982	14568
897.103	14819
897.224	14541
897.345	14492
897.466	14492
897.587	14476
897.708	14636
897.828	14568
897.949	14393
898.07	14423
898.19	14484
898.311	14613
898.431	14526
898.552	14552
898.672	14579
898.792	14651
898.913	14560
899.033	14545
899.153	14476
899.273	14347
899.393	14427
899.513	14476
899.633	14442
899.753	14507
899.873	14400
899.993	14533
900.113	14412
900.232	14522
900.352	14434
900.472	14366
900.591	14256
900.711	14488
900.83	14324
900.95	14438
901.069	14503
901.189	14252
901.308	14016
901.427	13963
901.546	13936
901.665	13959
901.784	14001
901.904	13940
902.023	13841
902.141	13616
902.26	13525
902.379	13533
902.498	13540
902.617	13529
902.735	13544
902.854	13510
902.973	13499
903.091	13255
903.21	13320
903.328	13350
903.446	13156
903.565	13076
903.683	13240
903.801	13103
903.919	13103
904.038	13080
904.156	12951
904.274	13004
904.392	12928
904.51	12909
904.627	12932
904.745	12962
904.863	13038
904.981	12662
905.098	12616
905.216	12707
905.334	12707
905.451	12627
905.569	12604
905.686	12646
905.803	12597
905.921	12460
906.038	12566
906.155	12475
906.272	12365
906.389	12376
906.506	12182
906.623	12277
906.74	12262
906.857	12133
906.974	12057
907.091	12338
907.208	12376
907.324	12319
907.441	12155
907.557	11999
907.674	11969
907.79	11958
907.907	11965
908.023	11961
908.139	11988
908.256	11939
908.372	11840
908.488	11958
908.604	11745
908.72	11767
908.836	11748
908.952	11684
909.068	11729
909.184	11821
909.3	11714
909.415	11665
909.531	11764
909.647	11642
909.762	11630
909.878	11497
909.993	11516
910.108	11512
910.224	11539
910.339	11539
910.454	11372
910.57	11383
910.685	11345
910.8	11558
910.915	11520
911.03	11353
911.145	11220
911.259	11220
911.374	11208
911.489	11121
911.604	11098
911.718	10923
911.833	10995
911.947	10873
912.062	10797
912.176	10938
912.291	10984
912.405	10927
912.519	11128
912.633	11208
912.748	11045
912.862	10953
912.976	10771
913.09	10793
913.204	10828
913.318	10862
913.431	10892
913.545	11018
913.659	11018
913.772	10908
913.886	10694
914	10740
914.113	10801
914.226	10812
914.34	10740
914.453	10611
914.566	10847
914.68	10656
914.793	10656
914.906	10489
915.019	10478
915.132	10363
915.245	10440
915.358	10466
915.47	10447
915.583	10516
915.696	10527
915.809	10649
915.921	10599
916.034	10424
916.146	10428
916.259	10447
916.371	10622
916.483	10447
916.595	10405
916.708	10440
916.82	10341
916.932	10337
917.044	10432
917.156	10390
917.268	10280
917.38	10196
917.491	10223
917.603	10337
917.715	10337
917.826	10405
917.938	10291
918.049	10116
918.161	10284
918.272	10481
918.384	10447
918.495	10356
918.606	10173
918.717	10109
918.828	10185
918.939	10265
919.05	10036
919.161	10166
919.272	10021
919.383	10025
919.494	10207
919.604	10409
919.715	10196
919.826	10150
919.936	10135
920.047	10234
920.157	10249
920.267	10382
920.378	10261
920.488	10200
920.598	10443
920.708	10535
920.818	10459
920.928	10455
921.038	10618
921.148	10451
921.258	10181
921.368	10196
921.477	10131
921.587	9991
921.697	9949
921.806	10078
921.916	9857
922.025	9831
922.134	9690
922.244	9667
922.353	9819
922.462	9637
922.571	9572
922.68	9477
922.789	9389
922.898	9450
923.007	9389
923.116	9473
923.224	9477
923.333	9485
923.442	9367
923.55	9321
923.659	9389
923.767	9351
923.876	9306
923.984	9348
924.092	9222
924.201	9336
924.309	9268
924.417	9329
924.525	9180
924.633	9310
924.741	10074
924.849	9055
924.956	9195
925.064	9028
925.172	9032
925.279	9051
925.387	9207
925.494	9104
925.602	9192
925.709	9173
925.816	8982
925.924	9093
926.031	9169
926.138	9154
926.245	9100
926.352	9020
926.459	9176
926.566	9150
926.673	9047
926.779	8918
926.886	8967
926.993	8857
927.099	8830
927.206	8807
927.312	8792
927.419	8910
927.525	8819
927.631	8785
927.737	8678
927.843	8686
927.95	8644
928.056	8686
928.162	8708
928.267	8804
928.373	9344
928.479	8826
928.585	8568
928.69	8705
928.796	8758
928.901	8625
929.007	8522
929.112	8610
929.218	8598
929.323	8518
929.428	8583
929.533	8659
929.638	8473
929.743	8511
929.848	8575
929.953	8545
930.058	8457
930.163	8263
930.267	8336
930.372	8503
930.477	8294
930.581	8533
930.685	8385
930.79	8256
930.894	8275
930.998	8248
931.103	8332
931.207	8005
931.311	8058
931.415	7978
931.519	7860
931.623	7753
