Data from test_V78500241_2352.txt Node
Date: Fri Mar 25 14:50:05 CST 2022
User: usil
Spectrometer: V785-0024
Trigger mode: 0
Integration Time (sec): 4.000000E-1
Scans to average: 1
Nonlinearity correction enabled: false
Boxcar width: 0
Storing dark spectrum: false
XAxis mode: Wavelengths
Number of Pixels in Spectrum: 1024
>>>>>Begin Spectral Data<<<<<
801.071	22204
801.214	22120
801.356	21705
801.499	21663
801.641	21538
801.783	21443
801.926	21534
802.068	21549
802.211	21317
802.353	21287
802.496	21138
802.638	21039
802.78	21036
802.923	20842
803.065	20792
803.208	20754
803.35	20921
803.492	20925
803.635	20952
803.777	20899
803.919	20838
804.061	21142
804.204	20948
804.346	20830
804.488	20819
804.63	20883
804.773	20682
804.915	20815
805.057	20838
805.199	20705
805.341	20765
805.483	20868
805.626	20876
805.768	20777
805.91	20891
806.052	20716
806.194	20716
806.336	20902
806.478	20743
806.62	20731
806.762	20739
806.904	21024
807.046	21165
807.188	21150
807.33	21188
807.472	21100
807.614	20918
807.756	20872
807.898	20906
808.04	20849
808.182	20967
808.324	20914
808.465	20872
808.607	21070
808.749	21169
808.891	21161
809.033	21370
809.174	21131
809.316	21096
809.458	21188
809.6	21070
809.741	21256
809.883	21272
810.025	21435
810.166	21321
810.308	21275
810.45	21195
810.591	21218
810.733	21081
810.875	20868
811.016	20921
811.158	20864
811.299	20986
811.441	20979
811.582	21058
811.724	20963
811.865	20807
812.007	20971
812.148	20876
812.29	20925
812.431	21108
812.573	21085
812.714	21393
812.855	21382
812.997	21519
813.138	21660
813.279	21610
813.421	21393
813.562	21241
813.703	21131
813.845	20975
813.986	20838
814.127	20689
814.268	20526
814.41	20590
814.551	20549
814.692	20488
814.833	20400
814.974	20358
815.115	20450
815.256	20305
815.397	20313
815.539	20313
815.68	20202
815.821	20202
815.962	20294
816.103	20305
816.244	19955
816.385	19852
816.526	19913
816.666	19841
816.807	19510
816.948	19788
817.089	19715
817.23	19651
817.371	19651
817.512	19582
817.653	19480
817.793	19601
817.934	19514
818.075	19601
818.216	19476
818.356	19552
818.497	19449
818.638	19247
818.778	19312
818.919	19282
819.06	19289
819.2	19384
819.341	19476
819.481	19567
819.622	19639
819.762	19734
819.903	19750
820.043	19521
820.184	19582
820.324	19567
820.465	19632
820.605	19552
820.746	19556
820.886	19369
821.026	19578
821.167	19582
821.307	19609
821.447	19529
821.588	19346
821.728	19255
821.868	19084
822.008	19065
822.149	18970
822.289	18993
822.429	18791
822.569	18669
822.709	18669
822.849	18464
822.99	18464
823.13	18486
823.27	18456
823.41	18270
823.55	18232
823.69	18361
823.83	18319
823.97	18262
824.11	18053
824.25	17946
824.389	17996
824.529	18155
824.669	18125
824.809	18064
824.949	18030
825.089	18148
825.228	18045
825.368	17866
825.508	17828
825.648	17813
825.787	17802
825.927	17847
826.067	17809
826.206	17767
826.346	17889
826.485	17832
826.625	17908
826.765	17920
826.904	17916
827.044	17554
827.183	17585
827.323	17455
827.462	17608
827.601	17592
827.741	17547
827.88	17486
828.02	17410
828.159	17520
828.298	17604
828.437	17611
828.577	17528
828.716	17558
828.855	17387
828.994	17265
829.134	17204
829.273	17288
829.412	17269
829.551	17265
829.69	17345
829.829	17410
829.968	17410
830.107	17315
830.246	17360
830.385	17170
830.524	17105
830.663	17132
830.802	17075
830.941	16847
831.08	16831
831.219	17006
831.357	16946
831.496	17200
831.635	16858
831.774	16809
831.913	16782
832.051	16698
832.19	16683
832.329	16675
832.467	16611
832.606	16622
832.744	16611
832.883	16561
833.022	16634
833.16	16508
833.299	16710
833.437	16679
833.576	16675
833.714	16615
833.852	16569
833.991	16577
834.129	16763
834.267	16713
834.406	16618
834.544	16634
834.682	16675
834.821	16538
834.959	16752
835.097	16645
835.235	16805
835.373	16637
835.511	16683
835.65	16538
835.788	16618
835.926	16443
836.064	16417
836.202	16409
836.34	16641
836.478	16599
836.615	16527
836.753	16558
836.891	16622
837.029	16478
837.167	16493
837.305	16470
837.443	16573
837.58	16287
837.718	16462
837.856	16386
837.993	16329
838.131	16291
838.269	16299
838.406	16291
838.544	16306
838.681	16188
838.819	16105
838.956	15930
839.094	15953
839.231	16055
839.369	16162
839.506	16291
839.643	16253
839.781	15994
839.918	15960
840.055	15884
840.193	15972
840.33	15869
840.467	15941
840.604	16025
840.742	16226
840.879	15781
841.016	15876
841.153	15895
841.29	15994
841.427	16002
841.564	15945
841.701	15937
841.838	15949
841.975	15915
842.112	15892
842.249	15690
842.385	15660
842.522	15915
842.659	15793
842.796	15694
842.933	15671
843.069	15652
843.206	15694
843.343	15816
843.479	15743
843.616	15751
843.752	15526
843.889	15382
844.025	15709
844.162	15549
844.298	15660
844.435	15523
844.571	15462
844.708	15595
844.844	15751
844.98	15564
845.117	15553
845.253	15553
845.389	15473
845.525	15344
845.661	15447
845.798	15317
845.934	15348
846.07	15272
846.206	15405
846.342	15374
846.478	15275
846.614	15043
846.75	15032
846.886	14960
847.022	15119
847.158	15062
847.294	15009
847.429	15123
847.565	15013
847.701	15363
847.837	14906
847.972	14754
848.108	14876
848.244	14990
848.379	14716
848.515	14651
848.65	14701
848.786	14720
848.921	14644
849.057	14769
849.192	14785
849.328	14693
849.463	14663
849.598	14712
849.734	14651
849.869	14499
850.004	14442
850.14	14560
850.275	14495
850.41	14294
850.545	14366
850.68	14366
850.815	14419
850.95	14377
851.085	14545
851.22	14537
851.355	14454
851.49	14415
851.625	14320
851.76	14412
851.895	14313
852.03	14385
852.165	14434
852.299	14404
852.434	14514
852.569	14503
852.703	14507
852.838	14503
852.973	14693
853.107	14556
853.242	14396
853.376	14298
853.511	14206
853.645	14229
853.78	14412
853.914	14374
854.048	14240
854.183	14294
854.317	14415
854.451	14518
854.585	14237
854.72	14290
854.854	14362
854.988	14206
855.122	14290
855.256	14244
855.39	14282
855.524	14427
855.658	14317
855.792	14415
855.926	14431
856.06	14294
856.194	14495
856.327	14336
856.461	14324
856.595	14183
856.729	14385
856.862	14377
856.996	14351
857.13	14389
857.263	14412
857.397	14370
857.53	14282
857.664	14434
857.797	14374
857.931	14415
858.064	14347
858.197	14412
858.331	14305
858.464	14332
858.597	14119
858.731	14206
858.864	14259
858.997	14286
859.13	14324
859.263	14381
859.396	14298
859.529	14317
859.662	14218
859.795	14172
859.928	14317
860.061	14438
860.194	14499
860.327	14347
860.46	14278
860.592	14381
860.725	14423
860.858	14415
860.99	14434
861.123	14225
861.256	14267
861.388	14252
861.521	14811
861.653	14123
861.786	14103
861.918	14233
862.05	14199
862.183	14221
862.315	14362
862.447	14431
862.58	14252
862.712	14119
862.844	14024
862.976	14111
863.108	14088
863.24	14461
863.372	14016
863.504	14005
863.636	14107
863.768	14050
863.9	14020
864.032	14077
864.164	14027
864.296	14142
864.428	14218
864.559	14168
864.691	14123
864.823	14107
864.954	14149
865.086	14103
865.217	14039
865.349	14100
865.48	14073
865.612	14077
865.743	14248
865.875	14126
866.006	14031
866.137	14103
866.269	14005
866.4	14123
866.531	13989
866.662	13982
866.793	14020
866.924	14008
867.055	14062
867.186	14081
867.317	13967
867.448	13951
867.579	13913
867.71	13967
867.841	13982
867.972	14016
868.103	14054
868.233	14043
868.364	14069
868.495	14115
868.625	14275
868.756	14442
868.886	14301
869.017	14214
869.147	14385
869.278	14370
869.408	14434
869.539	14320
869.669	14343
869.799	14317
869.929	14484
870.06	14366
870.19	14670
870.32	14610
870.45	14629
870.58	14743
870.71	14804
870.84	14758
870.97	14686
871.1	14701
871.23	14872
871.36	14921
871.489	14750
871.619	14849
871.749	14937
871.879	14982
872.008	14979
872.138	14933
872.267	14887
872.397	14792
872.526	14743
872.656	14651
872.785	14712
872.915	14960
873.044	15020
873.173	14853
873.303	14933
873.432	15043
873.561	15089
873.69	14948
873.819	14804
873.948	15051
874.077	14960
874.206	14857
874.335	14956
874.464	15039
874.593	15272
874.722	15192
874.851	15249
874.979	15199
875.108	15245
875.237	15184
875.365	15218
875.494	15245
875.623	15374
875.751	15241
875.88	15321
876.008	15374
876.136	15580
876.265	15785
876.393	15804
876.521	15701
876.65	15922
876.778	15709
876.906	15599
877.034	15576
877.162	15644
877.29	15606
877.418	15743
877.546	15705
877.674	15648
877.802	15663
877.93	15759
878.058	15606
878.185	15629
878.313	15755
878.441	15652
878.568	15553
878.696	15625
878.824	15747
878.951	15770
879.079	15888
879.206	15930
879.333	15892
879.461	15705
879.588	15774
879.715	15937
879.842	16063
879.97	15648
880.097	15549
880.224	15450
880.351	15549
880.478	15511
880.605	15462
880.732	15545
880.859	15698
880.986	15504
881.112	15614
881.239	15496
881.366	15321
881.493	15233
881.619	15104
881.746	15211
881.872	15173
881.999	15116
882.125	15173
882.252	15249
882.378	15230
882.505	15313
882.631	15138
882.757	15005
882.883	15047
883.01	14979
883.136	14906
883.262	14872
883.388	14868
883.514	15051
883.64	15165
883.766	14902
883.892	14895
884.018	14838
884.143	14998
884.269	15123
884.395	14804
884.52	14735
884.646	14720
884.772	14674
884.897	14530
885.023	14720
885.148	14773
885.274	14861
885.399	14868
885.524	14735
885.65	14655
885.775	14750
885.9	14689
886.025	14861
886.15	14792
886.275	14648
886.4	14648
886.525	14682
886.65	14640
886.775	14674
886.9	14788
887.025	15020
887.149	14743
887.274	14533
887.399	14560
887.523	14571
887.648	14507
887.773	14438
887.897	14678
888.021	14583
888.146	14511
888.27	14705
888.395	14670
888.519	14587
888.643	14636
888.767	14514
888.891	14511
889.015	14313
889.139	14419
889.263	14446
889.387	14518
889.511	14518
889.635	14526
889.759	14400
889.883	14393
890.006	14434
890.13	14419
890.254	14267
890.377	14336
890.501	14237
890.624	14218
890.748	14263
890.871	14134
890.995	14081
891.118	13978
891.241	14115
891.364	14168
891.488	14202
891.611	14073
891.734	14103
891.857	14168
891.98	14119
892.103	14115
892.226	14088
892.349	14039
892.471	13940
892.594	13947
892.717	14054
892.839	14103
892.962	14065
893.085	14187
893.207	14161
893.33	13955
893.452	13997
893.575	14202
893.697	14043
893.819	14286
893.941	14218
894.064	14176
894.186	14031
894.308	14043
894.43	14202
894.552	14370
894.674	14206
894.796	14073
894.918	14069
895.04	14161
895.161	14275
895.283	14172
895.405	14077
895.526	14153
895.648	14195
895.769	14282
895.891	14336
896.012	14347
896.134	14286
896.255	14229
896.376	14240
896.498	14305
896.619	14259
896.74	14282
896.861	14317
896.982	14518
897.103	14720
897.224	14511
897.345	14541
897.466	14347
897.587	14541
897.708	14632
897.828	14613
897.949	14488
898.07	14412
898.19	14533
898.311	14640
898.431	14606
898.552	14663
898.672	14678
898.792	14682
898.913	14640
899.033	14606
899.153	14408
899.273	14427
899.393	14469
899.513	14530
899.633	14495
899.753	14575
899.873	14419
899.993	14583
900.113	14419
900.232	14545
900.352	14507
900.472	14400
900.591	14377
900.711	14259
900.83	14320
900.95	14457
901.069	14492
901.189	14252
901.308	14054
901.427	13982
901.546	13997
901.665	14077
901.784	14043
901.904	13940
902.023	13830
902.141	13597
902.26	13609
902.379	13750
902.498	13620
902.617	13506
902.735	13643
902.854	13552
902.973	13483
903.091	13289
903.21	13270
903.328	13285
903.446	13289
903.565	13202
903.683	13183
903.801	13084
903.919	13008
904.038	13179
904.156	13023
904.274	13050
904.392	12935
904.51	12947
904.627	13012
904.745	13069
904.863	13012
904.981	12730
905.098	12639
905.216	12563
905.334	12654
905.451	12734
905.569	12658
905.686	12711
905.803	12665
905.921	12479
906.038	12589
906.155	12498
906.272	12376
906.389	12467
906.506	12239
906.623	12338
906.74	12277
906.857	12182
906.974	12213
907.091	12308
907.208	12342
907.324	12376
907.441	12201
907.557	12007
907.674	12045
907.79	11954
907.907	11992
908.023	12041
908.139	12060
908.256	11958
908.372	11939
908.488	11897
908.604	11798
908.72	11775
908.836	11733
908.952	11649
909.068	11779
909.184	11805
909.3	11745
909.415	11771
909.531	11783
909.647	11566
909.762	11497
909.878	11493
909.993	11539
910.108	11505
910.224	11433
910.339	11554
910.454	11490
910.57	11356
910.685	11223
910.8	11634
910.915	11566
911.03	11448
911.145	11185
911.259	11265
911.374	11227
911.489	11136
911.604	11105
911.718	10946
911.833	10904
911.947	10919
912.062	10850
912.176	10972
912.291	10976
912.405	11064
912.519	11075
912.633	11201
912.748	11128
912.862	11037
912.976	10847
913.09	10714
913.204	10847
913.318	10805
913.431	10957
913.545	10923
913.659	10965
913.772	10862
913.886	10694
914	10664
914.113	10869
914.226	10919
914.34	10820
914.453	10622
914.566	10828
914.68	10691
914.793	10653
914.906	10474
915.019	10371
915.132	10405
915.245	10497
915.358	10519
915.47	10462
915.583	10428
915.696	10447
915.809	10558
915.921	10717
916.034	10481
916.146	10481
916.259	10462
916.371	10527
916.483	10527
916.595	10447
916.708	10470
916.82	10405
916.932	10405
917.044	10379
917.156	10386
917.268	10344
917.38	10341
917.491	10367
917.603	10337
917.715	10428
917.826	10462
917.938	10344
918.049	10253
918.161	10310
918.272	10455
918.384	10466
918.495	10280
918.606	10207
918.717	10090
918.828	10223
918.939	10204
919.05	10055
919.161	10135
919.272	9991
919.383	10029
919.494	10230
919.604	10367
919.715	10223
919.826	10147
919.936	10128
920.047	10325
920.157	10173
920.267	10341
920.378	10219
920.488	10181
920.598	10432
920.708	10466
920.818	10402
920.928	10413
921.038	10611
921.148	10546
921.258	10249
921.368	10150
921.477	10120
921.587	9987
921.697	9934
921.806	10131
921.916	10010
922.025	9793
922.134	9709
922.244	9694
922.353	9736
922.462	9682
922.571	9625
922.68	9519
922.789	9416
922.898	9488
923.007	9431
923.116	9526
923.224	9492
923.333	9443
923.442	9359
923.55	9329
923.659	9359
923.767	9462
923.876	9359
923.984	9428
924.092	9298
924.201	9348
924.309	9275
924.417	9351
924.525	9230
924.633	9321
924.741	10097
924.849	9157
924.956	9275
925.064	9104
925.172	9093
925.279	9074
925.387	9074
925.494	9135
925.602	9260
925.709	9218
925.816	9036
925.924	9142
926.031	9203
926.138	9150
926.245	9180
926.352	9085
926.459	9165
926.566	9279
926.673	9055
926.779	9009
926.886	8952
926.993	8849
927.099	8773
927.206	8811
927.312	8746
927.419	8845
927.525	8845
927.631	8914
927.737	8743
927.843	8689
927.95	8564
928.056	8724
928.162	8712
928.267	8785
928.373	9428
928.479	8868
928.585	8587
928.69	8727
928.796	8842
928.901	8644
929.007	8518
929.112	8644
929.218	8636
929.323	8594
929.428	8533
929.533	8667
929.638	8511
929.743	8560
929.848	8610
929.953	8549
930.058	8446
930.163	8286
930.267	8400
930.372	8408
930.477	8301
930.581	8495
930.685	8415
930.79	8305
930.894	8336
930.998	8218
931.103	8404
931.207	8062
931.311	7913
931.415	7944
931.519	7780
931.623	7776
