Data from test_V78500241_2521.txt Node
Date: Fri Mar 25 14:51:16 CST 2022
User: usil
Spectrometer: V785-0024
Trigger mode: 0
Integration Time (sec): 4.000000E-1
Scans to average: 1
Nonlinearity correction enabled: false
Boxcar width: 0
Storing dark spectrum: false
XAxis mode: Wavelengths
Number of Pixels in Spectrum: 1024
>>>>>Begin Spectral Data<<<<<
801.071	22059
801.214	22010
801.356	21614
801.499	21682
801.641	21515
801.783	21435
801.926	21344
802.068	21386
802.211	21325
802.353	21199
802.496	20994
802.638	20906
802.78	20872
802.923	20826
803.065	20826
803.208	20735
803.35	20788
803.492	20944
803.635	20849
803.777	20781
803.919	20910
804.061	21047
804.204	20872
804.346	20644
804.488	20693
804.63	20655
804.773	20701
804.915	20777
805.057	20693
805.199	20613
805.341	20765
805.483	20834
805.626	20667
805.768	20598
805.91	20689
806.052	20701
806.194	20571
806.336	20811
806.478	20678
806.62	20670
806.762	20853
806.904	20899
807.046	21169
807.188	21116
807.33	21081
807.472	21017
807.614	20849
807.756	20883
807.898	20857
808.04	20754
808.182	20716
808.324	20765
808.465	20724
808.607	20979
808.749	21119
808.891	21089
809.033	21165
809.174	21226
809.316	20990
809.458	21055
809.6	21017
809.741	21085
809.883	21150
810.025	21260
810.166	21165
810.308	21245
810.45	21146
810.591	21024
810.733	20872
810.875	20914
811.016	20788
811.158	20693
811.299	20739
811.441	20971
811.582	20979
811.724	20762
811.865	20697
812.007	20705
812.148	20712
812.29	20769
812.431	20998
812.573	21154
812.714	21279
812.855	21302
812.997	21416
813.138	21610
813.279	21401
813.421	21283
813.562	21249
813.703	21146
813.845	20929
813.986	20724
814.127	20556
814.268	20465
814.41	20415
814.551	20370
814.692	20396
814.833	20336
814.974	20328
815.115	20374
815.256	20103
815.397	20195
815.539	20206
815.68	20043
815.821	19978
815.962	20111
816.103	20054
816.244	19963
816.385	19841
816.526	19837
816.666	19571
816.807	19609
816.948	19529
817.089	19559
817.23	19426
817.371	19487
817.512	19495
817.653	19411
817.793	19502
817.934	19343
818.075	19529
818.216	19430
818.356	19468
818.497	19209
818.638	19141
818.778	19240
818.919	19179
819.06	19095
819.2	19502
819.341	19320
819.481	19354
819.622	19571
819.762	19693
819.903	19586
820.043	19556
820.184	19529
820.324	19460
820.465	19495
820.605	19445
820.746	19552
820.886	19362
821.026	19464
821.167	19460
821.307	19499
821.447	19312
821.588	19331
821.728	19171
821.868	18962
822.008	18875
822.149	18894
822.289	18909
822.429	18536
822.569	18635
822.709	18566
822.849	18346
822.99	18334
823.13	18304
823.27	18376
823.41	18205
823.55	18167
823.69	18174
823.83	18140
823.97	18102
824.11	17866
824.25	17878
824.389	18003
824.529	17980
824.669	17840
824.809	18140
824.949	18083
825.089	18007
825.228	17980
825.368	17722
825.508	17722
825.648	17733
825.787	17821
825.927	17707
826.067	17672
826.206	17642
826.346	17790
826.485	17699
826.625	17718
826.765	17824
826.904	17790
827.044	17528
827.183	17478
827.323	17505
827.462	17486
827.601	17471
827.741	17315
827.88	17387
828.02	17337
828.159	17391
828.298	17429
828.437	17459
828.577	17337
828.716	17478
828.855	17379
828.994	17200
829.134	17189
829.273	17174
829.412	17147
829.551	17045
829.69	17170
829.829	17162
829.968	17330
830.107	17166
830.246	17239
830.385	17208
830.524	17083
830.663	17003
830.802	16805
830.941	16877
831.08	16797
831.219	16793
831.357	16816
831.496	17010
831.635	16698
831.774	16687
831.913	16698
832.051	16607
832.19	16481
832.329	16573
832.467	16519
832.606	16428
832.744	16493
832.883	16478
833.022	16390
833.16	16421
833.299	16474
833.437	16504
833.576	16569
833.714	16596
833.852	16702
833.991	16622
834.129	16615
834.267	16607
834.406	16466
834.544	16542
834.682	16527
834.821	16504
834.959	16683
835.097	16443
835.235	16653
835.373	16462
835.511	16531
835.65	16455
835.788	16443
835.926	16402
836.064	16215
836.202	16215
836.34	16470
836.478	16512
836.615	16367
836.753	16386
836.891	16615
837.029	16459
837.167	16443
837.305	16367
837.443	16284
837.58	16280
837.718	16500
837.856	16318
837.993	16230
838.131	16211
838.269	16177
838.406	16303
838.544	16120
838.681	16010
838.819	15949
838.956	15865
839.094	15861
839.231	15960
839.369	16032
839.506	16188
839.643	16150
839.781	15903
839.918	15816
840.055	15804
840.193	15819
840.33	15835
840.467	15857
840.604	15899
840.742	16124
840.879	15732
841.016	15816
841.153	15831
841.29	16021
841.427	15797
841.564	15953
841.701	15842
841.838	15831
841.975	15797
842.112	15766
842.249	15519
842.385	15610
842.522	15793
842.659	15644
842.796	15603
842.933	15568
843.069	15618
843.206	15561
843.343	15705
843.479	15701
843.616	15732
843.752	15458
843.889	15462
844.025	15519
844.162	15374
844.298	15488
844.435	15454
844.571	15363
844.708	15504
844.844	15675
844.98	15644
845.117	15519
845.253	15466
845.389	15298
845.525	15389
845.661	15355
845.798	15340
845.934	15222
846.07	15127
846.206	15256
846.342	15306
846.478	15203
846.614	15058
846.75	14914
846.886	14910
847.022	15127
847.158	15039
847.294	15005
847.429	15051
847.565	14921
847.701	15119
847.837	14819
847.972	14777
848.108	14724
848.244	14727
848.379	14579
848.515	14625
848.65	14583
848.786	14621
848.921	14571
849.057	14602
849.192	14708
849.328	14571
849.463	14663
849.598	14568
849.734	14564
849.869	14431
850.004	14355
850.14	14282
850.275	14377
850.41	14298
850.545	14309
850.68	14339
850.815	14366
850.95	14328
851.085	14488
851.22	14488
851.355	14415
851.49	14492
851.625	14358
851.76	14385
851.895	14191
852.03	14237
852.165	14408
852.299	14393
852.434	14488
852.569	14419
852.703	14271
852.838	14518
852.973	14514
853.107	14530
853.242	14317
853.376	14400
853.511	14176
853.645	14221
853.78	14446
853.914	14294
854.048	14233
854.183	14237
854.317	14195
854.451	14343
854.585	14275
854.72	14256
854.854	14328
854.988	14172
855.122	14191
855.256	14096
855.39	14286
855.524	14358
855.658	14278
855.792	14305
855.926	14336
856.06	14336
856.194	14309
856.327	14294
856.461	14103
856.595	14290
856.729	14176
856.862	14427
856.996	14324
857.13	14351
857.263	14499
857.397	14457
857.53	14278
857.664	14305
857.797	14290
857.931	14377
858.064	14317
858.197	14374
858.331	14328
858.464	14206
858.597	14084
858.731	14278
858.864	14298
858.997	14278
859.13	14263
859.263	14317
859.396	14324
859.529	14256
859.662	14225
859.795	14187
859.928	14278
860.061	14427
860.194	14408
860.327	14400
860.46	14309
860.592	14275
860.725	14507
860.858	14396
860.99	14263
861.123	14161
861.256	14233
861.388	14317
861.521	14876
861.653	14138
861.786	14187
861.918	14191
862.05	14275
862.183	14317
862.315	14214
862.447	14320
862.58	14244
862.712	13951
862.844	13887
862.976	14195
863.108	14115
863.24	14484
863.372	13993
863.504	14001
863.636	13989
863.768	14126
863.9	14187
864.032	14100
864.164	13993
864.296	14081
864.428	14111
864.559	14123
864.691	14138
864.823	14050
864.954	14202
865.086	14084
865.217	14058
865.349	13932
865.48	13974
865.612	14043
865.743	14153
865.875	14084
866.006	14062
866.137	13989
866.269	14088
866.4	13959
866.531	13947
866.662	13989
866.793	14096
866.924	13955
867.055	14103
867.186	14062
867.317	14020
867.448	13989
867.579	13970
867.71	13967
867.841	14001
867.972	14016
868.103	14084
868.233	14096
868.364	14065
868.495	14084
868.625	14240
868.756	14355
868.886	14259
869.017	14229
869.147	14389
869.278	14332
869.408	14298
869.539	14290
869.669	14370
869.799	14298
869.929	14415
870.06	14374
870.19	14484
870.32	14571
870.45	14602
870.58	14678
870.71	14777
870.84	14735
870.97	14701
871.1	14636
871.23	14849
871.36	14857
871.489	14708
871.619	14777
871.749	14861
871.879	14921
872.008	15028
872.138	14842
872.267	14762
872.397	14758
872.526	14617
872.656	14648
872.785	14765
872.915	14868
873.044	14975
873.173	14868
873.303	14872
873.432	15001
873.561	15032
873.69	14842
873.819	14792
873.948	14963
874.077	14914
874.206	14952
874.335	14937
874.464	15032
874.593	15154
874.722	15062
874.851	15291
874.979	15317
875.108	15397
875.237	15272
875.365	15055
875.494	15157
875.623	15351
875.751	15195
875.88	15317
876.008	15431
876.136	15481
876.265	15732
876.393	15781
876.521	15671
876.65	15717
876.778	15610
876.906	15660
877.034	15652
877.162	15717
877.29	15637
877.418	15682
877.546	15648
877.674	15679
877.802	15644
877.93	15637
878.058	15610
878.185	15587
878.313	15599
878.441	15656
878.568	15542
878.696	15618
878.824	15656
878.951	15660
879.079	15915
879.206	15968
879.333	15880
879.461	15709
879.588	15698
879.715	15937
879.842	15964
879.97	15663
880.097	15496
880.224	15420
880.351	15542
880.478	15553
880.605	15450
880.732	15511
880.859	15641
880.986	15511
881.112	15523
881.239	15332
881.366	15313
881.493	15176
881.619	15203
881.746	15131
881.872	15119
881.999	15131
882.125	15237
882.252	15241
882.378	15245
882.505	15180
882.631	15184
882.757	14914
882.883	15036
883.01	14982
883.136	15036
883.262	14689
883.388	14853
883.514	15013
883.64	15116
883.766	14975
883.892	14842
884.018	14804
884.143	15062
884.269	14982
884.395	14765
884.52	14651
884.646	14670
884.772	14571
884.897	14545
885.023	14689
885.148	14712
885.274	14960
885.399	14857
885.524	14663
885.65	14621
885.775	14727
885.9	14731
886.025	14800
886.15	14739
886.275	14579
886.4	14545
886.525	14610
886.65	14613
886.775	14625
886.9	14887
887.025	14899
887.149	14689
887.274	14503
887.399	14492
887.523	14457
887.648	14438
887.773	14423
887.897	14518
888.021	14598
888.146	14560
888.27	14640
888.395	14636
888.519	14469
888.643	14606
888.767	14602
888.891	14427
889.015	14374
889.139	14358
889.263	14343
889.387	14442
889.511	14583
889.635	14476
889.759	14336
889.883	14317
890.006	14419
890.13	14480
890.254	14320
890.377	14347
890.501	14218
890.624	14256
890.748	14320
890.871	14183
890.995	14046
891.118	13978
891.241	14077
891.364	14050
891.488	14172
891.611	14050
891.734	14119
891.857	14130
891.98	14191
892.103	14199
892.226	14103
892.349	14100
892.471	13902
892.594	14123
892.717	14130
892.839	14016
892.962	14149
893.085	14199
893.207	14084
893.33	13951
893.452	13997
893.575	14062
893.697	14050
893.819	14259
893.941	14271
894.064	14191
894.186	14088
894.308	14016
894.43	14294
894.552	14252
894.674	14218
894.796	13963
894.918	14130
895.04	14103
895.161	14153
895.283	14195
895.405	14092
895.526	14195
895.648	14202
895.769	14168
895.891	14282
896.012	14362
896.134	14282
896.255	14240
896.376	14183
896.498	14324
896.619	14438
896.74	14256
896.861	14298
896.982	14663
897.103	14792
897.224	14575
897.345	14564
897.466	14507
897.587	14526
897.708	14556
897.828	14545
897.949	14533
898.07	14336
898.19	14507
898.311	14708
898.431	14598
898.552	14571
898.672	14670
898.792	14670
898.913	14701
899.033	14526
899.153	14533
899.273	14446
899.393	14419
899.513	14495
899.633	14495
899.753	14480
899.873	14465
899.993	14583
900.113	14446
900.232	14473
900.352	14454
900.472	14404
900.591	14290
900.711	14282
900.83	14309
900.95	14476
901.069	14332
901.189	14244
901.308	14115
901.427	14012
901.546	13978
901.665	13993
901.784	14077
901.904	13883
902.023	13887
902.141	13647
902.26	13514
902.379	13738
902.498	13525
902.617	13540
902.735	13651
902.854	13571
902.973	13491
903.091	13282
903.21	13335
903.328	13304
903.446	13251
903.565	13065
903.683	13240
903.801	13076
903.919	13168
904.038	13072
904.156	12920
904.274	12966
904.392	12966
904.51	12924
904.627	12954
904.745	13008
904.863	13008
904.981	12738
905.098	12639
905.216	12612
905.334	12719
905.451	12692
905.569	12620
905.686	12688
905.803	12635
905.921	12399
906.038	12608
906.155	12452
906.272	12277
906.389	12361
906.506	12197
906.623	12216
906.74	12155
906.857	12148
906.974	12178
907.091	12319
907.208	12452
907.324	12350
907.441	12102
907.557	12015
907.674	11965
907.79	11946
907.907	11923
908.023	11992
908.139	12045
908.256	11927
908.372	12003
908.488	11851
908.604	11722
908.72	11726
908.836	11790
908.952	11767
909.068	11760
909.184	11866
909.3	11767
909.415	11783
909.531	11767
909.647	11592
909.762	11505
909.878	11414
909.993	11497
910.108	11535
910.224	11497
910.339	11463
910.454	11406
910.57	11379
910.685	11379
910.8	11573
910.915	11566
911.03	11356
911.145	11223
911.259	11250
911.374	11208
911.489	11124
911.604	11151
911.718	11003
911.833	10972
911.947	10885
912.062	10911
912.176	10965
912.291	11018
912.405	10923
912.519	11140
912.633	11155
912.748	11029
912.862	10965
912.976	10911
913.09	10656
913.204	10797
913.318	10923
913.431	10961
913.545	10873
913.659	10984
913.772	10847
913.886	10797
914	10656
914.113	10824
914.226	10896
914.34	10911
914.453	10675
914.566	10782
914.68	10630
914.793	10634
914.906	10455
915.019	10440
915.132	10466
915.245	10447
915.358	10504
915.47	10489
915.583	10432
915.696	10573
915.809	10611
915.921	10634
916.034	10455
916.146	10459
916.259	10402
916.371	10466
916.483	10440
916.595	10356
916.708	10421
916.82	10386
916.932	10379
917.044	10348
917.156	10265
917.268	10344
917.38	10299
917.491	10348
917.603	10287
917.715	10356
917.826	10413
917.938	10284
918.049	10173
918.161	10261
918.272	10478
918.384	10440
918.495	10310
918.606	10166
918.717	10147
918.828	10215
918.939	10249
919.05	10150
919.161	10219
919.272	9926
919.383	10013
919.494	10333
919.604	10478
919.715	10131
919.826	10158
919.936	10227
920.047	10291
920.157	10246
920.267	10455
920.378	10185
920.488	10272
920.598	10367
920.708	10527
920.818	10421
920.928	10493
921.038	10569
921.148	10584
921.258	10234
921.368	10223
921.477	10158
921.587	10105
921.697	9972
921.806	10082
921.916	10055
922.025	9831
922.134	9823
922.244	9804
922.353	9846
922.462	9694
922.571	9629
922.68	9568
922.789	9500
922.898	9545
923.007	9454
923.116	9564
923.224	9397
923.333	9443
923.442	9359
923.55	9340
923.659	9363
923.767	9412
923.876	9397
923.984	9420
924.092	9264
924.201	9397
924.309	9378
924.417	9473
924.525	9306
924.633	9340
924.741	10299
924.849	9146
924.956	9302
925.064	9070
925.172	9093
925.279	9116
925.387	9146
925.494	9146
925.602	9256
925.709	9199
925.816	9081
925.924	9173
926.031	9207
926.138	9070
926.245	9218
926.352	9024
926.459	9233
926.566	9203
926.673	9085
926.779	9028
926.886	8925
926.993	8948
927.099	8864
927.206	8815
927.312	8864
927.419	8929
927.525	8918
927.631	8921
927.737	8823
927.843	8686
927.95	8712
928.056	8739
928.162	8754
928.267	8861
928.373	9447
928.479	8941
928.585	8659
928.69	8746
928.796	8735
928.901	8613
929.007	8575
929.112	8705
929.218	8655
929.323	8571
929.428	8552
929.533	8655
929.638	8564
929.743	8492
929.848	8549
929.953	8530
930.058	8438
930.163	8309
930.267	8389
930.372	8465
930.477	8263
930.581	8552
930.685	8480
930.79	8267
930.894	8290
930.998	8320
931.103	8431
931.207	8096
931.311	7940
931.415	7967
931.519	7814
931.623	7780
