Data from test_V78500241_2830.txt Node
Date: Fri Mar 25 14:53:25 CST 2022
User: usil
Spectrometer: V785-0024
Trigger mode: 0
Integration Time (sec): 4.000000E-1
Scans to average: 1
Nonlinearity correction enabled: false
Boxcar width: 0
Storing dark spectrum: false
XAxis mode: Wavelengths
Number of Pixels in Spectrum: 1024
>>>>>Begin Spectral Data<<<<<
801.071	22188
801.214	21915
801.356	21751
801.499	21618
801.641	21435
801.783	21386
801.926	21378
802.068	21405
802.211	21275
802.353	21176
802.496	21081
802.638	20937
802.78	20952
802.923	20731
803.065	20746
803.208	20693
803.35	20925
803.492	20693
803.635	20845
803.777	20682
803.919	20765
804.061	21077
804.204	20899
804.346	20602
804.488	20648
804.63	20689
804.773	20606
804.915	20739
805.057	20750
805.199	20720
805.341	20746
805.483	20769
805.626	20800
805.768	20579
805.91	20731
806.052	20765
806.194	20613
806.336	20777
806.478	20594
806.62	20499
806.762	20674
806.904	20815
807.046	21047
807.188	20967
807.33	20990
807.472	21036
807.614	20777
807.756	20933
807.898	20674
808.04	20583
808.182	20716
808.324	20830
808.465	20739
808.607	20944
808.749	21005
808.891	21096
809.033	21237
809.174	21131
809.316	20982
809.458	21032
809.6	20925
809.741	20994
809.883	21119
810.025	21192
810.166	21165
810.308	21222
810.45	21058
810.591	20933
810.733	20895
810.875	20807
811.016	20743
811.158	20762
811.299	20762
811.441	20937
811.582	20876
811.724	20708
811.865	20792
812.007	20750
812.148	20739
812.29	20765
812.431	20979
812.573	21066
812.714	21157
812.855	21386
812.997	21363
813.138	21462
813.279	21412
813.421	21313
813.562	21294
813.703	21085
813.845	20925
813.986	20731
814.127	20461
814.268	20385
814.41	20358
814.551	20385
814.692	20495
814.833	20298
814.974	20298
815.115	20218
815.256	20282
815.397	20244
815.539	20229
815.68	20081
815.821	20005
815.962	20119
816.103	20103
816.244	19841
816.385	19769
816.526	19753
816.666	19582
816.807	19548
816.948	19544
817.089	19689
817.23	19559
817.371	19426
817.512	19601
817.653	19537
817.793	19506
817.934	19540
818.075	19491
818.216	19403
818.356	19411
818.497	19251
818.638	19164
818.778	19088
818.919	19133
819.06	19270
819.2	19324
819.341	19297
819.481	19346
819.622	19468
819.762	19715
819.903	19597
820.043	19464
820.184	19476
820.324	19415
820.465	19430
820.605	19578
820.746	19453
820.886	19236
821.026	19434
821.167	19274
821.307	19476
821.447	19396
821.588	19354
821.728	19145
821.868	18954
822.008	18920
822.149	18924
822.289	18817
822.429	18642
822.569	18551
822.709	18521
822.849	18300
822.99	18456
823.13	18311
823.27	18315
823.41	18243
823.55	18144
823.69	18167
823.83	18129
823.97	18163
824.11	17863
824.25	17901
824.389	17927
824.529	18053
824.669	17973
824.809	18045
824.949	18072
825.089	17980
825.228	18011
825.368	17805
825.508	17821
825.648	17756
825.787	17878
825.927	17783
826.067	17684
826.206	17684
826.346	17745
826.485	17779
826.625	17691
826.765	17771
826.904	17737
827.044	17501
827.183	17509
827.323	17284
827.462	17512
827.601	17379
827.741	17368
827.88	17444
828.02	17383
828.159	17364
828.298	17383
828.437	17433
828.577	17486
828.716	17570
828.855	17421
828.994	17292
829.134	17200
829.273	17337
829.412	17113
829.551	17094
829.69	17132
829.829	17273
829.968	17315
830.107	17254
830.246	17212
830.385	17083
830.524	17098
830.663	17132
830.802	16923
830.941	16881
831.08	16755
831.219	16850
831.357	16892
831.496	17037
831.635	16782
831.774	16687
831.913	16744
832.051	16584
832.19	16626
832.329	16588
832.467	16679
832.606	16459
832.744	16367
832.883	16409
833.022	16519
833.16	16504
833.299	16592
833.437	16554
833.576	16531
833.714	16436
833.852	16596
833.991	16672
834.129	16558
834.267	16615
834.406	16573
834.544	16577
834.682	16489
834.821	16554
834.959	16752
835.097	16481
835.235	16653
835.373	16500
835.511	16516
835.65	16508
835.788	16337
835.926	16314
836.064	16265
836.202	16280
836.34	16390
836.478	16424
836.615	16428
836.753	16474
836.891	16531
837.029	16485
837.167	16390
837.305	16424
837.443	16242
837.58	16360
837.718	16386
837.856	16341
837.993	16196
838.131	16299
838.269	16154
838.406	16207
838.544	16230
838.681	16044
838.819	16013
838.956	15869
839.094	15937
839.231	15892
839.369	15998
839.506	16276
839.643	16090
839.781	15854
839.918	15846
840.055	15964
840.193	15873
840.33	15800
840.467	15812
840.604	15854
840.742	16124
840.879	15739
841.016	15755
841.153	15751
841.29	16002
841.427	15808
841.564	15918
841.701	15766
841.838	15720
841.975	15713
842.112	15789
842.249	15622
842.385	15561
842.522	15850
842.659	15675
842.796	15686
842.933	15652
843.069	15568
843.206	15511
843.343	15732
843.479	15576
843.616	15637
843.752	15488
843.889	15412
844.025	15572
844.162	15325
844.298	15584
844.435	15428
844.571	15397
844.708	15424
844.844	15595
844.98	15496
845.117	15477
845.253	15291
845.389	15268
845.525	15367
845.661	15374
845.798	15207
845.934	15310
846.07	15142
846.206	15237
846.342	15283
846.478	15260
846.614	15062
846.75	14963
846.886	15024
847.022	15169
847.158	14994
847.294	15036
847.429	15013
847.565	15005
847.701	15291
847.837	14765
847.972	14754
848.108	14838
848.244	14796
848.379	14651
848.515	14549
848.65	14663
848.786	14640
848.921	14659
849.057	14693
849.192	14750
849.328	14636
849.463	14617
849.598	14579
849.734	14526
849.869	14488
850.004	14396
850.14	14385
850.275	14343
850.41	14221
850.545	14259
850.68	14347
850.815	14317
850.95	14332
851.085	14480
851.22	14404
851.355	14427
851.49	14248
851.625	14278
851.76	14377
851.895	14218
852.03	14271
852.165	14248
852.299	14339
852.434	14465
852.569	14454
852.703	14530
852.838	14446
852.973	14492
853.107	14400
853.242	14332
853.376	14229
853.511	14214
853.645	14157
853.78	14393
853.914	14161
854.048	14134
854.183	14199
854.317	14225
854.451	14400
854.585	14237
854.72	14199
854.854	14339
854.988	14115
855.122	14233
855.256	14145
855.39	14153
855.524	14351
855.658	14313
855.792	14202
855.926	14206
856.06	14286
856.194	14385
856.327	14320
856.461	14164
856.595	14191
856.729	14218
856.862	14282
856.996	14305
857.13	14301
857.263	14419
857.397	14347
857.53	14282
857.664	14252
857.797	14263
857.931	14362
858.064	14259
858.197	14328
858.331	14202
858.464	14225
858.597	14195
858.731	14103
858.864	14229
858.997	14183
859.13	14313
859.263	14248
859.396	14278
859.529	14240
859.662	14202
859.795	14123
859.928	14324
860.061	14313
860.194	14431
860.327	14259
860.46	14214
860.592	14412
860.725	14461
860.858	14336
860.99	14248
861.123	14107
861.256	14214
861.388	14218
861.521	14895
861.653	14123
861.786	14119
861.918	14100
862.05	14168
862.183	14153
862.315	14145
862.447	14290
862.58	14271
862.712	13970
862.844	14039
862.976	14039
863.108	13951
863.24	14396
863.372	13997
863.504	13986
863.636	14054
863.768	14016
863.9	13921
864.032	13947
864.164	14008
864.296	14035
864.428	14069
864.559	14130
864.691	14065
864.823	14039
864.954	14180
865.086	13989
865.217	14024
865.349	13917
865.48	13993
865.612	13909
865.743	14161
865.875	13974
866.006	13913
866.137	14020
866.269	14035
866.4	13963
866.531	13902
866.662	13974
866.793	13989
866.924	13947
867.055	13852
867.186	14069
867.317	14008
867.448	13947
867.579	13921
867.71	13928
867.841	13909
867.972	14012
868.103	13978
868.233	14035
868.364	13959
868.495	14024
868.625	14195
868.756	14355
868.886	14134
869.017	14290
869.147	14366
869.278	14351
869.408	14317
869.539	14225
869.669	14336
869.799	14282
869.929	14374
870.06	14332
870.19	14522
870.32	14571
870.45	14587
870.58	14655
870.71	14701
870.84	14712
870.97	14617
871.1	14655
871.23	14765
871.36	14941
871.489	14705
871.619	14785
871.749	14807
871.879	15028
872.008	14914
872.138	14933
872.267	14921
872.397	14693
872.526	14693
872.656	14773
872.785	14686
872.915	14937
873.044	14963
873.173	14933
873.303	14975
873.432	14883
873.561	14899
873.69	14906
873.819	14868
873.948	14956
874.077	15047
874.206	14918
874.335	14944
874.464	15066
874.593	15146
874.722	15192
874.851	15154
874.979	15218
875.108	15291
875.237	15264
875.365	15173
875.494	15233
875.623	15192
875.751	15218
875.88	15294
876.008	15283
876.136	15401
876.265	15671
876.393	15812
876.521	15652
876.65	15732
876.778	15652
876.906	15606
877.034	15610
877.162	15644
877.29	15496
877.418	15705
877.546	15671
877.674	15637
877.802	15545
877.93	15557
878.058	15663
878.185	15454
878.313	15576
878.441	15614
878.568	15530
878.696	15511
878.824	15629
878.951	15675
879.079	15812
879.206	15991
879.333	15675
879.461	15625
879.588	15717
879.715	15823
879.842	15899
879.97	15762
880.097	15458
880.224	15428
880.351	15477
880.478	15466
880.605	15488
880.732	15473
880.859	15698
880.986	15435
881.112	15504
881.239	15321
881.366	15222
881.493	15116
881.619	15146
881.746	15214
881.872	15116
881.999	15138
882.125	15085
882.252	15192
882.378	15169
882.505	15272
882.631	15184
882.757	14914
882.883	14902
883.01	15013
883.136	14952
883.262	14887
883.388	14712
883.514	15017
883.64	15009
883.766	14807
883.892	14785
884.018	14655
884.143	14948
884.269	15039
884.395	14636
884.52	14621
884.646	14659
884.772	14590
884.897	14552
885.023	14716
885.148	14823
885.274	14792
885.399	14815
885.524	14716
885.65	14655
885.775	14693
885.9	14629
886.025	14773
886.15	14590
886.275	14606
886.4	14571
886.525	14746
886.65	14590
886.775	14568
886.9	14651
887.025	14781
887.149	14689
887.274	14446
887.399	14408
887.523	14488
887.648	14427
887.773	14336
887.897	14583
888.021	14564
888.146	14450
888.27	14613
888.395	14648
888.519	14560
888.643	14545
888.767	14594
888.891	14278
889.015	14339
889.139	14362
889.263	14347
889.387	14434
889.511	14511
889.635	14412
889.759	14362
889.883	14278
890.006	14313
890.13	14469
890.254	14263
890.377	14347
890.501	14084
890.624	14100
890.748	14153
890.871	14244
890.995	13993
891.118	13917
891.241	14077
891.364	14164
891.488	14145
891.611	13963
891.734	14115
891.857	14199
891.98	13997
892.103	14164
892.226	14027
892.349	13986
892.471	13883
892.594	13887
892.717	13982
892.839	14039
892.962	14119
893.085	13986
893.207	14130
893.33	13909
893.452	13887
893.575	14062
893.697	14119
893.819	14187
893.941	14248
894.064	14244
894.186	13978
894.308	13970
894.43	14191
894.552	14240
894.674	14233
894.796	14039
894.918	14069
895.04	14081
895.161	14176
895.283	14130
895.405	14145
895.526	14256
895.648	14187
895.769	14138
895.891	14221
896.012	14313
896.134	14343
896.255	14233
896.376	14248
896.498	14199
896.619	14282
896.74	14172
896.861	14366
896.982	14492
897.103	14625
897.224	14530
897.345	14499
897.466	14450
897.587	14476
897.708	14598
897.828	14606
897.949	14484
898.07	14347
898.19	14454
898.311	14655
898.431	14499
898.552	14530
898.672	14594
898.792	14670
898.913	14636
899.033	14644
899.153	14473
899.273	14229
899.393	14374
899.513	14396
899.633	14427
899.753	14484
899.873	14450
899.993	14480
900.113	14446
900.232	14457
900.352	14400
900.472	14233
900.591	14233
900.711	14313
900.83	14187
900.95	14351
901.069	14476
901.189	14187
901.308	13955
901.427	13928
901.546	13967
901.665	13947
901.784	14020
901.904	13791
902.023	13750
902.141	13578
902.26	13514
902.379	13586
902.498	13601
902.617	13392
902.735	13586
902.854	13601
902.973	13426
903.091	13324
903.21	13244
903.328	13190
903.446	13217
903.565	13091
903.683	13168
903.801	13095
903.919	13042
904.038	13137
904.156	12852
904.274	12970
904.392	12993
904.51	12878
904.627	12863
904.745	12947
904.863	12935
904.981	12753
905.098	12631
905.216	12700
905.334	12639
905.451	12662
905.569	12677
905.686	12772
905.803	12612
905.921	12407
906.038	12574
906.155	12369
906.272	12277
906.389	12353
906.506	12205
906.623	12277
906.74	12178
906.857	12121
906.974	12194
907.091	12171
907.208	12281
907.324	12262
907.441	12068
907.557	11999
907.674	11942
907.79	11893
907.907	11889
908.023	12011
908.139	11874
908.256	11878
908.372	11805
908.488	11802
908.604	11729
908.72	11703
908.836	11771
908.952	11627
909.068	11745
909.184	11828
909.3	11710
909.415	11775
909.531	11668
909.647	11539
909.762	11406
909.878	11501
909.993	11455
910.108	11581
910.224	11486
910.339	11497
910.454	11376
910.57	11296
910.685	11292
910.8	11490
910.915	11585
911.03	11296
911.145	11193
911.259	11143
911.374	11189
911.489	11094
911.604	11117
911.718	10889
911.833	10896
911.947	10866
912.062	10866
912.176	10942
912.291	10843
912.405	10877
912.519	11079
912.633	11143
912.748	10972
912.862	10980
912.976	10835
913.09	10714
913.204	10714
913.318	10850
913.431	10904
913.545	10968
913.659	10839
913.772	10873
913.886	10748
914	10687
914.113	10778
914.226	10809
914.34	10820
914.453	10656
914.566	10793
914.68	10672
914.793	10607
914.906	10485
915.019	10390
915.132	10348
915.245	10497
915.358	10470
915.47	10382
915.583	10493
915.696	10493
915.809	10603
915.921	10577
916.034	10459
916.146	10447
916.259	10329
916.371	10519
916.483	10375
916.595	10341
916.708	10371
916.82	10375
916.932	10432
917.044	10310
917.156	10379
917.268	10303
917.38	10402
917.491	10242
917.603	10310
917.715	10325
917.826	10348
917.938	10188
918.049	10166
918.161	10341
918.272	10428
918.384	10481
918.495	10295
918.606	10143
918.717	10135
918.828	10192
918.939	10139
919.05	10120
919.161	10139
919.272	9991
919.383	10029
919.494	10207
919.604	10386
919.715	10181
919.826	9994
919.936	10139
920.047	10280
920.157	10253
920.267	10348
920.378	10150
920.488	10227
920.598	10363
920.708	10489
920.818	10459
920.928	10318
921.038	10569
921.148	10462
921.258	10242
921.368	10143
921.477	9964
921.587	10097
921.697	9911
921.806	10055
921.916	9899
922.025	9740
922.134	9682
922.244	9682
922.353	9740
922.462	9663
922.571	9511
922.68	9382
922.789	9466
922.898	9485
923.007	9374
923.116	9515
923.224	9424
923.333	9405
923.442	9359
923.55	9351
923.659	9401
923.767	9428
923.876	9310
923.984	9431
924.092	9237
924.201	9302
924.309	9310
924.417	9302
924.525	9211
924.633	9256
924.741	10067
924.849	9032
924.956	9249
925.064	9116
925.172	8944
925.279	9116
925.387	9077
925.494	9108
925.602	9214
925.709	9161
925.816	9062
925.924	9085
926.031	9195
926.138	9017
926.245	9058
926.352	9013
926.459	9112
926.566	9268
926.673	9058
926.779	8998
926.886	8918
926.993	8834
927.099	8815
927.206	8811
927.312	8720
927.419	8830
927.525	8819
927.631	8804
927.737	8674
927.843	8674
927.95	8549
928.056	8716
928.162	8724
928.267	8731
928.373	9275
928.479	8845
928.585	8583
928.69	8682
928.796	8727
928.901	8648
929.007	8503
929.112	8602
929.218	8575
929.323	8514
929.428	8473
929.533	8602
929.638	8507
929.743	8530
929.848	8568
929.953	8495
930.058	8465
930.163	8275
930.267	8294
930.372	8492
930.477	8229
930.581	8537
930.685	8389
930.79	8206
930.894	8267
930.998	8142
931.103	8362
931.207	8130
931.311	7989
931.415	7909
931.519	7715
931.623	7772
