Data from test_V78500241_2406.txt Node
Date: Fri Mar 25 14:50:27 CST 2022
User: usil
Spectrometer: V785-0024
Trigger mode: 0
Integration Time (sec): 4.000000E-1
Scans to average: 1
Nonlinearity correction enabled: false
Boxcar width: 0
Storing dark spectrum: false
XAxis mode: Wavelengths
Number of Pixels in Spectrum: 1024
>>>>>Begin Spectral Data<<<<<
801.071	22139
801.214	22044
801.356	21846
801.499	21964
801.641	21534
801.783	21576
801.926	21504
802.068	21439
802.211	21321
802.353	21287
802.496	21096
802.638	21051
802.78	21020
802.923	20823
803.065	20743
803.208	20872
803.35	20895
803.492	20895
803.635	20864
803.777	20693
803.919	20804
804.061	21070
804.204	20804
804.346	20777
804.488	20743
804.63	20788
804.773	20670
804.915	20750
805.057	20796
805.199	20712
805.341	20842
805.483	20937
805.626	20754
805.768	20697
805.91	20796
806.052	20758
806.194	20712
806.336	20777
806.478	20765
806.62	20697
806.762	20815
806.904	20944
807.046	21131
807.188	21108
807.33	20994
807.472	21230
807.614	20975
807.756	21062
807.898	20899
808.04	20765
808.182	20804
808.324	20826
808.465	20777
808.607	20948
808.749	21169
808.891	21218
809.033	21279
809.174	21131
809.316	21070
809.458	21100
809.6	21135
809.741	21157
809.883	21100
810.025	21245
810.166	21275
810.308	21302
810.45	21112
810.591	21173
810.733	21066
810.875	20895
811.016	20750
811.158	20800
811.299	20880
811.441	20975
811.582	21013
811.724	20933
811.865	20880
812.007	20811
812.148	20921
812.29	20895
812.431	21062
812.573	21313
812.714	21325
812.855	21378
812.997	21526
813.138	21568
813.279	21420
813.421	21359
813.562	21252
813.703	21203
813.845	21100
813.986	20864
814.127	20625
814.268	20507
814.41	20492
814.551	20465
814.692	20549
814.833	20412
814.974	20415
815.115	20381
815.256	20138
815.397	20237
815.539	20374
815.68	20218
815.821	20172
815.962	20172
816.103	20168
816.244	20005
816.385	19921
816.526	19860
816.666	19757
816.807	19575
816.948	19696
817.089	19601
817.23	19738
817.371	19670
817.512	19582
817.653	19594
817.793	19514
817.934	19537
818.075	19609
818.216	19499
818.356	19468
818.497	19381
818.638	19240
818.778	19236
818.919	19304
819.06	19377
819.2	19381
819.341	19263
819.481	19499
819.622	19556
819.762	19845
819.903	19696
820.043	19658
820.184	19613
820.324	19518
820.465	19666
820.605	19571
820.746	19518
820.886	19426
821.026	19620
821.167	19426
821.307	19567
821.447	19540
821.588	19426
821.728	19244
821.868	19110
822.008	18928
822.149	19023
822.289	18871
822.429	18696
822.569	18559
822.709	18631
822.849	18486
822.99	18422
823.13	18399
823.27	18342
823.41	18258
823.55	18197
823.69	18273
823.83	18247
823.97	18213
824.11	17988
824.25	17973
824.389	18155
824.529	18106
824.669	18038
824.809	18114
824.949	18144
825.089	17992
825.228	18003
825.368	17775
825.508	17836
825.648	17786
825.787	17931
825.927	17790
826.067	17771
826.206	17634
826.346	17885
826.485	17817
826.625	17623
826.765	17878
826.904	17771
827.044	17539
827.183	17570
827.323	17452
827.462	17528
827.601	17493
827.741	17543
827.88	17573
828.02	17341
828.159	17478
828.298	17433
828.437	17486
828.577	17425
828.716	17649
828.855	17353
828.994	17372
829.134	17258
829.273	17223
829.412	17227
829.551	17143
829.69	17242
829.829	17227
829.968	17345
830.107	17318
830.246	17220
830.385	17124
830.524	17147
830.663	17064
830.802	16995
830.941	16946
831.08	16809
831.219	16942
831.357	16850
831.496	17010
831.635	16850
831.774	16706
831.913	16843
832.051	16607
832.19	16706
832.329	16565
832.467	16519
832.606	16550
832.744	16474
832.883	16531
833.022	16470
833.16	16542
833.299	16558
833.437	16603
833.576	16573
833.714	16573
833.852	16561
833.991	16637
834.129	16641
834.267	16611
834.406	16554
834.544	16588
834.682	16622
834.821	16603
834.959	16729
835.097	16565
835.235	16630
835.373	16618
835.511	16592
835.65	16538
835.788	16546
835.926	16280
836.064	16272
836.202	16356
836.34	16596
836.478	16569
836.615	16451
836.753	16485
836.891	16615
837.029	16443
837.167	16451
837.305	16424
837.443	16394
837.58	16356
837.718	16371
837.856	16348
837.993	16223
838.131	16421
838.269	16306
838.406	16192
838.544	16204
838.681	16101
838.819	16036
838.956	15800
839.094	15884
839.231	15930
839.369	16143
839.506	16223
839.643	16143
839.781	15873
839.918	15930
840.055	15846
840.193	15861
840.33	15793
840.467	15922
840.604	15922
840.742	16074
840.879	15690
841.016	15709
841.153	15679
841.29	15960
841.427	15922
841.564	15876
841.701	15869
841.838	15922
841.975	15732
842.112	15797
842.249	15713
842.385	15656
842.522	15850
842.659	15694
842.796	15686
842.933	15709
843.069	15542
843.206	15572
843.343	15660
843.479	15667
843.616	15694
843.752	15447
843.889	15523
844.025	15580
844.162	15424
844.298	15576
844.435	15443
844.571	15466
844.708	15416
844.844	15511
844.98	15584
845.117	15534
845.253	15473
845.389	15367
845.525	15310
845.661	15386
845.798	15291
845.934	15252
846.07	15272
846.206	15332
846.342	15389
846.478	15287
846.614	15058
846.75	15020
846.886	15024
847.022	15058
847.158	15009
847.294	15089
847.429	15062
847.565	14994
847.701	15203
847.837	14750
847.972	14765
848.108	14861
848.244	14659
848.379	14678
848.515	14648
848.65	14598
848.786	14575
848.921	14663
849.057	14785
849.192	14735
849.328	14686
849.463	14644
849.598	14503
849.734	14495
849.869	14412
850.004	14374
850.14	14427
850.275	14412
850.41	14419
850.545	14286
850.68	14358
850.815	14461
850.95	14396
851.085	14503
851.22	14507
851.355	14370
851.49	14400
851.625	14355
851.76	14404
851.895	14317
852.03	14263
852.165	14301
852.299	14438
852.434	14503
852.569	14385
852.703	14450
852.838	14427
852.973	14423
853.107	14495
853.242	14271
853.376	14362
853.511	14149
853.645	14282
853.78	14469
853.914	14282
854.048	14248
854.183	14305
854.317	14256
854.451	14366
854.585	14237
854.72	14252
854.854	14370
854.988	14130
855.122	14199
855.256	14134
855.39	14221
855.524	14229
855.658	14309
855.792	14366
855.926	14362
856.06	14332
856.194	14381
856.327	14271
856.461	14202
856.595	14237
856.729	14256
856.862	14324
856.996	14271
857.13	14298
857.263	14286
857.397	14370
857.53	14218
857.664	14396
857.797	14332
857.931	14339
858.064	14313
858.197	14351
858.331	14195
858.464	14275
858.597	14073
858.731	14256
858.864	14195
858.997	14225
859.13	14286
859.263	14229
859.396	14191
859.529	14240
859.662	14237
859.795	14271
859.928	14263
860.061	14492
860.194	14423
860.327	14229
860.46	14229
860.592	14328
860.725	14469
860.858	14381
860.99	14221
861.123	14214
861.256	14180
861.388	14252
861.521	14990
861.653	14191
861.786	14161
861.918	14096
862.05	14119
862.183	14168
862.315	14282
862.447	14343
862.58	14225
862.712	14050
862.844	13947
862.976	14046
863.108	14134
863.24	14423
863.372	13955
863.504	14054
863.636	14050
863.768	14001
863.9	14111
864.032	13944
864.164	13967
864.296	14092
864.428	14164
864.559	14229
864.691	14054
864.823	14199
864.954	14035
865.086	14016
865.217	14005
865.349	13955
865.48	14077
865.612	14016
865.743	14202
865.875	14035
866.006	13963
866.137	14084
866.269	14005
866.4	13974
866.531	13970
866.662	13963
866.793	13936
866.924	13974
867.055	13993
867.186	14027
867.317	13970
867.448	13868
867.579	13909
867.71	14024
867.841	13944
867.972	14081
868.103	13993
868.233	14123
868.364	14031
868.495	14123
868.625	14183
868.756	14328
868.886	14168
869.017	14263
869.147	14423
869.278	14393
869.408	14347
869.539	14267
869.669	14355
869.799	14301
869.929	14355
870.06	14484
870.19	14712
870.32	14530
870.45	14560
870.58	14693
870.71	14758
870.84	14781
870.97	14636
871.1	14568
871.23	14845
871.36	14788
871.489	14750
871.619	14876
871.749	14876
871.879	14849
872.008	14937
872.138	14834
872.267	14834
872.397	14788
872.526	14746
872.656	14781
872.785	14777
872.915	14933
873.044	14944
873.173	14842
873.303	14952
873.432	15013
873.561	14941
873.69	14960
873.819	14975
873.948	14921
874.077	14929
874.206	14788
874.335	14876
874.464	15142
874.593	15287
874.722	15230
874.851	15344
874.979	15294
875.108	15275
875.237	15226
875.365	15127
875.494	15180
875.623	15378
875.751	15245
875.88	15256
876.008	15367
876.136	15481
876.265	15610
876.393	15850
876.521	15728
876.65	15686
876.778	15568
876.906	15564
877.034	15584
877.162	15675
877.29	15431
877.418	15663
877.546	15618
877.674	15671
877.802	15679
877.93	15660
878.058	15610
878.185	15519
878.313	15591
878.441	15682
878.568	15382
878.696	15576
878.824	15709
878.951	15667
879.079	15774
879.206	15918
879.333	15835
879.461	15690
879.588	15686
879.715	15816
879.842	15865
879.97	15675
880.097	15481
880.224	15462
880.351	15454
880.478	15515
880.605	15447
880.732	15530
880.859	15766
880.986	15519
881.112	15545
881.239	15473
881.366	15226
881.493	15249
881.619	15135
881.746	15150
881.872	15150
881.999	15180
882.125	15112
882.252	15116
882.378	15150
882.505	15321
882.631	15070
882.757	14937
882.883	15066
883.01	14982
883.136	14998
883.262	14933
883.388	14834
883.514	15039
883.64	14960
883.766	14796
883.892	14746
884.018	14823
884.143	15009
884.269	14971
884.395	14834
884.52	14689
884.646	14716
884.772	14602
884.897	14465
885.023	14716
885.148	14800
885.274	14819
885.399	14701
885.524	14701
885.65	14632
885.775	14743
885.9	14746
886.025	14781
886.15	14686
886.275	14667
886.4	14575
886.525	14655
886.65	14621
886.775	14575
886.9	14792
887.025	14861
887.149	14731
887.274	14484
887.399	14511
887.523	14446
887.648	14389
887.773	14473
887.897	14400
888.021	14610
888.146	14480
888.27	14598
888.395	14667
888.519	14613
888.643	14629
888.767	14621
888.891	14431
889.015	14317
889.139	14332
889.263	14347
889.387	14431
889.511	14526
889.635	14545
889.759	14332
889.883	14393
890.006	14423
890.13	14568
890.254	14309
890.377	14377
890.501	14111
890.624	14149
890.748	14294
890.871	14145
890.995	14069
891.118	14012
891.241	14153
891.364	14100
891.488	14130
891.611	14142
891.734	14088
891.857	14138
891.98	14084
892.103	14187
892.226	14119
892.349	14069
892.471	14027
892.594	14046
892.717	14134
892.839	14084
892.962	14062
893.085	14115
893.207	14138
893.33	14035
893.452	14050
893.575	14172
893.697	14073
893.819	14237
893.941	14313
894.064	14244
894.186	14008
894.308	14065
894.43	14153
894.552	14199
894.674	14240
894.796	14123
894.918	14206
895.04	14012
895.161	14153
895.283	14233
895.405	14050
895.526	14138
895.648	14202
895.769	14115
895.891	14240
896.012	14389
896.134	14225
896.255	14218
896.376	14191
896.498	14271
896.619	14324
896.74	14320
896.861	14309
896.982	14655
897.103	14777
897.224	14450
897.345	14412
897.466	14351
897.587	14590
897.708	14708
897.828	14648
897.949	14461
898.07	14393
898.19	14488
898.311	14689
898.431	14465
898.552	14617
898.672	14610
898.792	14720
898.913	14545
899.033	14484
899.153	14381
899.273	14393
899.393	14381
899.513	14484
899.633	14503
899.753	14427
899.873	14374
899.993	14450
900.113	14454
900.232	14457
900.352	14370
900.472	14366
900.591	14313
900.711	14317
900.83	14290
900.95	14457
901.069	14313
901.189	14324
901.308	14084
901.427	13974
901.546	13951
901.665	13997
901.784	13997
901.904	13932
902.023	13734
902.141	13643
902.26	13483
902.379	13609
902.498	13571
902.617	13537
902.735	13571
902.854	13639
902.973	13476
903.091	13377
903.21	13266
903.328	13293
903.446	13225
903.565	13156
903.683	13091
903.801	13076
903.919	13103
904.038	13187
904.156	12970
904.274	13000
904.392	12962
904.51	12924
904.627	12932
904.745	12993
904.863	12920
904.981	12791
905.098	12662
905.216	12669
905.334	12703
905.451	12589
905.569	12639
905.686	12665
905.803	12570
905.921	12502
906.038	12555
906.155	12441
906.272	12395
906.389	12330
906.506	12213
906.623	12220
906.74	12194
906.857	12140
906.974	12098
907.091	12319
907.208	12327
907.324	12190
907.441	12087
907.557	11920
907.674	11961
907.79	11912
907.907	11980
908.023	12041
908.139	11980
908.256	11969
908.372	11923
908.488	11954
908.604	11840
908.72	11619
908.836	11729
908.952	11634
909.068	11760
909.184	11843
909.3	11798
909.415	11802
909.531	11756
909.647	11478
909.762	11493
909.878	11558
909.993	11516
910.108	11501
910.224	11467
910.339	11478
910.454	11433
910.57	11391
910.685	11315
910.8	11638
910.915	11471
911.03	11337
911.145	11227
911.259	11162
911.374	11265
911.489	11079
911.604	11083
911.718	10938
911.833	10892
911.947	10843
912.062	10767
912.176	10911
912.291	10965
912.405	10995
912.519	11258
912.633	11170
912.748	11052
912.862	10957
912.976	10809
913.09	10729
913.204	10805
913.318	10923
913.431	10911
913.545	10934
913.659	10949
913.772	10790
913.886	10755
914	10721
914.113	10812
914.226	10892
914.34	10793
914.453	10599
914.566	10816
914.68	10603
914.793	10641
914.906	10424
915.019	10478
915.132	10306
915.245	10470
915.358	10455
915.47	10519
915.583	10466
915.696	10478
915.809	10706
915.921	10611
916.034	10428
916.146	10394
916.259	10375
916.371	10481
916.483	10474
916.595	10356
916.708	10394
916.82	10409
916.932	10360
917.044	10424
917.156	10375
917.268	10341
917.38	10249
917.491	10284
917.603	10310
917.715	10402
917.826	10337
917.938	10272
918.049	10192
918.161	10303
918.272	10443
918.384	10386
918.495	10314
918.606	10158
918.717	10131
918.828	10188
918.939	10188
919.05	10131
919.161	10192
919.272	10017
919.383	10086
919.494	10280
919.604	10508
919.715	10181
919.826	10120
919.936	10139
920.047	10299
920.157	10227
920.267	10428
920.378	10242
920.488	10253
920.598	10405
920.708	10462
920.818	10382
920.928	10417
921.038	10584
921.148	10561
921.258	10188
921.368	10120
921.477	10082
921.587	10055
921.697	9861
921.806	10078
921.916	10002
922.025	9808
922.134	9759
922.244	9785
922.353	9766
922.462	9717
922.571	9576
922.68	9439
922.789	9462
922.898	9473
923.007	9340
923.116	9496
923.224	9496
923.333	9431
923.442	9389
923.55	9249
923.659	9382
923.767	9393
923.876	9275
923.984	9359
924.092	9241
924.201	9279
924.309	9302
924.417	9321
924.525	9245
924.633	9302
924.741	9991
924.849	9085
924.956	9226
925.064	9100
925.172	9024
925.279	8948
925.387	9116
925.494	9150
925.602	9237
925.709	9146
925.816	9039
925.924	9081
926.031	9237
926.138	9142
926.245	9214
926.352	8990
926.459	9218
926.566	9169
926.673	9085
926.779	8982
926.886	8982
926.993	8872
927.099	8819
927.206	8724
927.312	8823
927.419	8853
927.525	8876
927.631	8815
927.737	8769
927.843	8705
927.95	8636
928.056	8720
928.162	8716
928.267	8735
928.373	9408
928.479	8830
928.585	8579
928.69	8739
928.796	8804
928.901	8651
929.007	8454
929.112	8594
929.218	8587
929.323	8556
929.428	8511
929.533	8670
929.638	8549
929.743	8526
929.848	8621
929.953	8492
930.058	8473
930.163	8248
930.267	8355
930.372	8488
930.477	8294
930.581	8537
930.685	8366
930.79	8290
930.894	8290
930.998	8240
931.103	8370
931.207	8065
931.311	7963
931.415	7947
931.519	7753
931.623	7750
