Data from test_V78500241_383.txt Node
Date: Fri Mar 25 14:36:23 CST 2022
User: usil
Spectrometer: V785-0024
Trigger mode: 0
Integration Time (sec): 4.000000E-1
Scans to average: 1
Nonlinearity correction enabled: false
Boxcar width: 0
Storing dark spectrum: false
XAxis mode: Wavelengths
Number of Pixels in Spectrum: 1024
>>>>>Begin Spectral Data<<<<<
801.071	26842
801.214	26663
801.356	26457
801.499	26355
801.641	26225
801.783	26176
801.926	26282
802.068	26115
802.211	26092
802.353	25997
802.496	25913
802.638	25799
802.78	25674
802.923	25655
803.065	25662
803.208	25582
803.35	25822
803.492	25742
803.635	25685
803.777	25723
803.919	25868
804.061	26046
804.204	25871
804.346	25624
804.488	25567
804.63	25757
804.773	25571
804.915	25643
805.057	25875
805.199	25685
805.341	25628
805.483	25685
805.626	25723
805.768	25761
805.91	25681
806.052	25856
806.194	25556
806.336	25940
806.478	25780
806.62	25784
806.762	25826
806.904	25830
807.046	26267
807.188	26069
807.33	26119
807.472	26065
807.614	26001
807.756	26035
807.898	26012
808.04	25856
808.182	25845
808.324	25879
808.465	25936
808.607	26111
808.749	26153
808.891	26252
809.033	26408
809.174	26438
809.316	26347
809.458	26256
809.6	26202
809.741	26313
809.883	26286
810.025	26381
810.166	26290
810.308	26499
810.45	26332
810.591	26347
810.733	26130
810.875	25966
811.016	25978
811.158	25970
811.299	26161
811.441	26214
811.582	26362
811.724	26073
811.865	26199
812.007	26046
812.148	26027
812.29	26119
812.431	26267
812.573	26305
812.714	26385
812.855	26484
812.997	26632
813.138	26769
813.279	26739
813.421	26587
813.562	26701
813.703	26336
813.845	26332
813.986	25997
814.127	25845
814.268	25540
814.41	25689
814.551	25662
814.692	25662
814.833	25616
814.974	25582
815.115	25575
815.256	25499
815.397	25476
815.539	25479
815.68	25449
815.821	25232
815.962	25468
816.103	25396
816.244	25221
816.385	25069
816.526	25034
816.666	24947
816.807	24669
816.948	24814
817.089	24859
817.23	24817
817.371	24859
817.512	24760
817.653	24665
817.793	24677
817.934	24806
818.075	24825
818.216	24711
818.356	24635
818.497	24532
818.638	24414
818.778	24525
818.919	24448
819.06	24490
819.2	24544
819.341	24673
819.481	24601
819.622	24768
819.762	25023
819.903	24920
820.043	24844
820.184	24833
820.324	24753
820.465	24810
820.605	24681
820.746	24673
820.886	24563
821.026	24700
821.167	24635
821.307	24833
821.447	24677
821.588	24601
821.728	24353
821.868	24273
822.008	24167
822.149	24125
822.289	23950
822.429	23726
822.569	23843
822.709	23859
822.849	23516
822.99	23516
823.13	23478
823.27	23634
823.41	23208
823.55	23303
823.69	23402
823.83	23315
823.97	23280
824.11	23124
824.25	23025
824.389	23121
824.529	23128
824.669	23003
824.809	23181
824.949	23337
825.089	23208
825.228	23151
825.368	23067
825.508	22923
825.648	22984
825.787	23117
825.927	23113
826.067	22862
826.206	22911
826.346	22995
826.485	22953
826.625	22934
826.765	22915
826.904	22946
827.044	22580
827.183	22622
827.323	22637
827.462	22755
827.601	22550
827.741	22341
827.88	22626
828.02	22413
828.159	22554
828.298	22557
828.437	22538
828.577	22497
828.716	22584
828.855	22542
828.994	22280
829.134	22177
829.273	22223
829.412	22192
829.551	22204
829.69	22230
829.829	22280
829.968	22341
830.107	22246
830.246	22249
830.385	22150
830.524	22166
830.663	22124
830.802	21979
830.941	21816
831.08	21835
831.219	22002
831.357	21812
831.496	22082
831.635	21922
831.774	21709
831.913	21671
832.051	21591
832.19	21572
832.329	21568
832.467	21424
832.606	21450
832.744	21534
832.883	21507
833.022	21629
833.16	21526
833.299	21507
833.437	21370
833.576	21416
833.714	21447
833.852	21507
833.991	21553
834.129	21603
834.267	21553
834.406	21500
834.544	21511
834.682	21462
834.821	21439
834.959	21633
835.097	21351
835.235	21511
835.373	21389
835.511	21526
835.65	21329
835.788	21454
835.926	21245
836.064	21093
836.202	21222
836.34	21317
836.478	21408
836.615	21393
836.753	21275
836.891	21393
837.029	21359
837.167	21382
837.305	21218
837.443	21150
837.58	21211
837.718	21214
837.856	21249
837.993	21157
838.131	21237
838.269	21176
838.406	21104
838.544	21005
838.681	20834
838.819	20754
838.956	20655
839.094	20636
839.231	20705
839.369	20804
839.506	21036
839.643	20777
839.781	20758
839.918	20606
840.055	20556
840.193	20659
840.33	20575
840.467	20632
840.604	20644
840.742	20792
840.879	20332
841.016	20396
841.153	20328
841.29	20686
841.427	20583
841.564	20598
841.701	20488
841.838	20457
841.975	20526
842.112	20476
842.249	20366
842.385	20290
842.522	20568
842.659	20332
842.796	20404
842.933	20199
843.069	20237
843.206	20195
843.343	20225
843.479	20149
843.616	20195
843.752	19993
843.889	20176
844.025	20073
844.162	19906
844.298	20005
844.435	20039
844.571	19944
844.708	20001
844.844	20069
844.98	20024
845.117	20092
845.253	19993
845.389	20005
845.525	19868
845.661	19906
845.798	19757
845.934	19868
846.07	19864
846.206	19784
846.342	19921
846.478	19811
846.614	19639
846.75	19521
846.886	19464
847.022	19601
847.158	19521
847.294	19464
847.429	19384
847.565	19381
847.701	19719
847.837	19327
847.972	19152
848.108	19308
848.244	19255
848.379	19107
848.515	19080
848.65	19141
848.786	19129
848.921	19034
849.057	19076
849.192	19183
849.328	19171
849.463	19099
849.598	19034
849.734	18897
849.869	18916
850.004	18764
850.14	18875
850.275	18817
850.41	18688
850.545	18749
850.68	18745
850.815	18814
850.95	18688
851.085	18989
851.22	18875
851.355	18798
851.49	18844
851.625	18719
851.76	18802
851.895	18593
852.03	18738
852.165	18726
852.299	18806
852.434	18878
852.569	18798
852.703	18745
852.838	18814
852.973	18875
853.107	18829
853.242	18604
853.376	18677
853.511	18528
853.645	18608
853.78	18791
853.914	18566
854.048	18574
854.183	18536
854.317	18608
854.451	18722
854.585	18578
854.72	18642
854.854	18616
854.988	18536
855.122	18525
855.256	18464
855.39	18486
855.524	18612
855.658	18623
855.792	18593
855.926	18616
856.06	18525
856.194	18650
856.327	18719
856.461	18490
856.595	18445
856.729	18490
856.862	18684
856.996	18593
857.13	18593
857.263	18677
857.397	18578
857.53	18525
857.664	18616
857.797	18631
857.931	18772
858.064	18608
858.197	18722
858.331	18616
858.464	18418
858.597	18490
858.731	18585
858.864	18582
858.997	18475
859.13	18506
859.263	18509
859.396	18574
859.529	18509
859.662	18502
859.795	18437
859.928	18536
860.061	18734
860.194	18703
860.327	18486
860.46	18597
860.592	18578
860.725	18635
860.858	18540
860.99	18479
861.123	18437
861.256	18494
861.388	18483
861.521	19396
861.653	18464
861.786	18308
861.918	18479
862.05	18547
862.183	18429
862.315	18620
862.447	18506
862.58	18570
862.712	18296
862.844	18334
862.976	18357
863.108	18319
863.24	18585
863.372	18148
863.504	18315
863.636	18235
863.768	18194
863.9	18285
864.032	18201
864.164	18171
864.296	18216
864.428	18258
864.559	18323
864.691	18334
864.823	18285
864.954	18270
865.086	18213
865.217	18159
865.349	18110
865.48	18152
865.612	18148
865.743	18304
865.875	18114
866.006	18148
866.137	18106
866.269	18194
866.4	18186
866.531	18091
866.662	18076
866.793	18026
866.924	18015
867.055	18064
867.186	18068
867.317	18045
867.448	18034
867.579	18121
867.71	18007
867.841	17961
867.972	18155
868.103	18167
868.233	18174
868.364	18015
868.495	18182
868.625	18243
868.756	18410
868.886	18372
869.017	18266
869.147	18426
869.278	18513
869.408	18410
869.539	18270
869.669	18403
869.799	18426
869.929	18498
870.06	18380
870.19	18650
870.32	18700
870.45	18665
870.58	18764
870.71	18856
870.84	18779
870.97	18730
871.1	18734
871.23	18947
871.36	18901
871.489	18913
871.619	18932
871.749	18894
871.879	19012
872.008	19042
872.138	19000
872.267	18943
872.397	18776
872.526	18806
872.656	18768
872.785	18726
872.915	18928
873.044	19080
873.173	19015
873.303	19080
873.432	19050
873.561	19031
873.69	19046
873.819	18985
873.948	19118
874.077	19038
874.206	18973
874.335	18848
874.464	19084
874.593	19327
874.722	19190
874.851	19255
874.979	19251
875.108	19324
875.237	19179
875.365	19183
875.494	19129
875.623	19240
875.751	19251
875.88	19217
876.008	19415
876.136	19434
876.265	19658
876.393	19784
876.521	19746
876.65	19784
876.778	19662
876.906	19518
877.034	19483
877.162	19658
877.29	19468
877.418	19647
877.546	19556
877.674	19613
877.802	19632
877.93	19571
878.058	19613
878.185	19476
878.313	19643
878.441	19658
878.568	19495
878.696	19476
878.824	19613
878.951	19731
879.079	19807
879.206	19989
879.333	19871
879.461	19662
879.588	19761
879.715	19795
879.842	19898
879.97	19643
880.097	19605
880.224	19582
880.351	19468
880.478	19468
880.605	19460
880.732	19518
880.859	19597
880.986	19510
881.112	19449
881.239	19301
881.366	19327
881.493	19160
881.619	19065
881.746	19133
881.872	19129
881.999	19015
882.125	19042
882.252	19095
882.378	19152
882.505	19320
882.631	19042
882.757	18837
882.883	19019
883.01	18856
883.136	18909
883.262	18722
883.388	18829
883.514	18890
883.64	18924
883.766	18821
883.892	18764
884.018	18646
884.143	18863
884.269	18859
884.395	18597
884.52	18540
884.646	18620
884.772	18502
884.897	18433
885.023	18532
885.148	18509
885.274	18696
885.399	18688
885.524	18585
885.65	18597
885.775	18673
885.9	18563
886.025	18669
886.15	18684
886.275	18555
886.4	18407
886.525	18437
886.65	18536
886.775	18517
886.9	18669
887.025	18772
887.149	18517
887.274	18456
887.399	18311
887.523	18270
887.648	18311
887.773	18171
887.897	18308
888.021	18308
888.146	18285
888.27	18380
888.395	18475
888.519	18376
888.643	18327
888.767	18300
888.891	18300
889.015	18171
889.139	18182
889.263	18159
889.387	18239
889.511	18304
889.635	18292
889.759	18083
889.883	18095
890.006	18121
890.13	18155
890.254	18030
890.377	17931
890.501	17878
890.624	17988
890.748	17866
890.871	17920
890.995	17775
891.118	17718
891.241	17752
891.364	17741
891.488	17741
891.611	17824
891.734	17745
891.857	17809
891.98	17737
892.103	17920
892.226	17901
892.349	17798
892.471	17535
892.594	17668
892.717	17775
892.839	17657
892.962	17767
893.085	17707
893.207	17687
893.33	17554
893.452	17729
893.575	17783
893.697	17672
893.819	17828
893.941	17836
894.064	17764
894.186	17745
894.308	17604
894.43	17726
894.552	17859
894.674	17817
894.796	17703
894.918	17752
895.04	17604
895.161	17764
895.283	17714
895.405	17680
895.526	17748
895.648	17798
895.769	17668
895.891	17802
896.012	17878
896.134	17752
896.255	17726
896.376	17764
896.498	17805
896.619	17775
896.74	17828
896.861	17794
896.982	18057
897.103	18148
897.224	18041
897.345	18064
897.466	18034
897.587	18015
897.708	18098
897.828	18011
897.949	17863
898.07	17863
898.19	17977
898.311	18045
898.431	17916
898.552	18041
898.672	18129
898.792	18022
898.913	18060
899.033	17821
899.153	17805
899.273	17707
899.393	17840
899.513	17847
899.633	17741
899.753	17733
899.873	17566
899.993	17756
900.113	17729
900.232	17775
900.352	17733
900.472	17592
900.591	17653
900.711	17562
900.83	17592
900.95	17817
901.069	17764
901.189	17532
901.308	17376
901.427	17200
901.546	17235
901.665	17200
901.784	17284
901.904	17113
902.023	16968
902.141	16858
902.26	16721
902.379	16835
902.498	16763
902.617	16637
902.735	16767
902.854	16675
902.973	16622
903.091	16405
903.21	16344
903.328	16459
903.446	16329
903.565	16337
903.683	16192
903.801	16207
903.919	16173
904.038	16150
904.156	16120
904.274	16185
904.392	15994
904.51	15968
904.627	16055
904.745	16093
904.863	16207
904.981	15899
905.098	15713
905.216	15713
905.334	15728
905.451	15633
905.569	15637
905.686	15724
905.803	15713
905.921	15557
906.038	15732
906.155	15526
906.272	15435
906.389	15473
906.506	15214
906.623	15321
906.74	15256
906.857	15123
906.974	15180
907.091	15393
907.208	15332
907.324	15249
907.441	15218
907.557	15058
907.674	14994
907.79	14948
907.907	14944
908.023	15024
908.139	14979
908.256	14918
908.372	14918
908.488	14849
908.604	14731
908.72	14667
908.836	14720
908.952	14629
909.068	14720
909.184	14731
909.3	14674
909.415	14720
909.531	14632
909.647	14469
909.762	14450
909.878	14389
909.993	14377
910.108	14309
910.224	14298
910.339	14381
910.454	14259
910.57	14244
910.685	14126
910.8	14381
910.915	14355
911.03	14138
911.145	14084
911.259	13974
911.374	14008
911.489	13963
911.604	13955
911.718	13772
911.833	13738
911.947	13689
912.062	13582
912.176	13651
912.291	13727
912.405	13681
912.519	13947
912.633	13940
912.748	13784
912.862	13696
912.976	13674
913.09	13548
913.204	13552
913.318	13525
913.431	13647
913.545	13590
913.659	13776
913.772	13483
913.886	13502
914	13354
914.113	13502
914.226	13624
914.34	13544
914.453	13362
914.566	13468
914.68	13289
914.793	13240
914.906	13179
915.019	13076
915.132	13053
915.245	13076
915.358	13076
915.47	13126
915.583	13179
915.696	13103
915.809	13247
915.921	13270
916.034	12977
916.146	12970
916.259	13065
916.371	13080
916.483	13034
916.595	12977
916.708	12875
916.82	13076
916.932	12951
917.044	13000
917.156	12867
917.268	12837
917.38	12856
917.491	12798
917.603	12806
917.715	12863
917.826	12894
917.938	12738
918.049	12715
918.161	12753
918.272	12916
918.384	12932
918.495	12776
918.606	12715
918.717	12662
918.828	12703
918.939	12589
919.05	12429
919.161	12578
919.272	12304
919.383	12357
919.494	12642
919.604	12806
919.715	12536
919.826	12517
919.936	12528
920.047	12623
920.157	12635
920.267	12783
920.378	12681
920.488	12574
920.598	12696
920.708	12882
920.818	12768
920.928	12722
921.038	12878
921.148	12783
921.258	12654
921.368	12426
921.477	12365
921.587	12407
921.697	12266
921.806	12391
921.916	12163
922.025	12064
922.134	12007
922.244	11977
922.353	12026
922.462	11859
922.571	11863
922.68	11771
922.789	11649
922.898	11684
923.007	11604
923.116	11726
923.224	11608
923.333	11630
923.442	11577
923.55	11436
923.659	11615
923.767	11684
923.876	11509
923.984	11543
924.092	11379
924.201	11505
924.309	11440
924.417	11493
924.525	11433
924.633	11440
924.741	12292
924.849	11250
924.956	11406
925.064	11303
925.172	11185
925.279	11193
925.387	11174
925.494	11204
925.602	11307
925.709	11178
925.816	11105
925.924	11113
926.031	11292
926.138	11208
926.245	11201
926.352	11147
926.459	11261
926.566	11307
926.673	11006
926.779	11086
926.886	11056
926.993	11022
927.099	10824
927.206	10801
927.312	10759
927.419	10896
927.525	10835
927.631	10843
927.737	10774
927.843	10683
927.95	10489
928.056	10706
928.162	10668
928.267	10782
928.373	11277
928.479	10733
928.585	10599
928.69	10683
928.796	10649
928.901	10603
929.007	10459
929.112	10489
929.218	10519
929.323	10428
929.428	10455
929.533	10565
929.638	10417
929.743	10371
929.848	10371
929.953	10394
930.058	10367
930.163	10131
930.267	10169
930.372	10299
930.477	10074
930.581	10405
930.685	10188
930.79	10071
930.894	10074
930.998	10010
931.103	10181
931.207	9770
931.311	9720
931.415	9713
931.519	9462
931.623	9386
