Data from test_V78500241_1274.txt Node
Date: Fri Mar 25 14:42:35 CST 2022
User: usil
Spectrometer: V785-0024
Trigger mode: 0
Integration Time (sec): 4.000000E-1
Scans to average: 1
Nonlinearity correction enabled: false
Boxcar width: 0
Storing dark spectrum: false
XAxis mode: Wavelengths
Number of Pixels in Spectrum: 1024
>>>>>Begin Spectral Data<<<<<
801.071	22287
801.214	22215
801.356	22013
801.499	21949
801.641	21800
801.783	21622
801.926	21751
802.068	21686
802.211	21603
802.353	21424
802.496	21367
802.638	21245
802.78	21116
802.923	21089
803.065	20994
803.208	21077
803.35	21116
803.492	21283
803.635	21001
803.777	21173
803.919	21157
804.061	21534
804.204	21150
804.346	20956
804.488	21013
804.63	20998
804.773	21066
804.915	20994
805.057	21104
805.199	21005
805.341	21077
805.483	21161
805.626	21100
805.768	21039
805.91	20906
806.052	21032
806.194	20864
806.336	21055
806.478	20937
806.62	21043
806.762	21066
806.904	21275
807.046	21275
807.188	21348
807.33	21393
807.472	21454
807.614	21317
807.756	21332
807.898	21188
808.04	20933
808.182	21150
808.324	21089
808.465	21218
808.607	21378
808.749	21553
808.891	21728
809.033	21625
809.174	21515
809.316	21519
809.458	21576
809.6	21458
809.741	21488
809.883	21500
810.025	21568
810.166	21625
810.308	21595
810.45	21511
810.591	21466
810.733	21408
810.875	21279
811.016	21070
811.158	21093
811.299	21058
811.441	21332
811.582	21332
811.724	21173
811.865	21173
812.007	21138
812.148	21214
812.29	21195
812.431	21389
812.573	21507
812.714	21504
812.855	21660
812.997	21797
813.138	21903
813.279	21838
813.421	21534
813.562	21469
813.703	21355
813.845	21287
813.986	21013
814.127	20758
814.268	20823
814.41	20868
814.551	20743
814.692	20781
814.833	20598
814.974	20636
815.115	20750
815.256	20560
815.397	20507
815.539	20629
815.68	20488
815.821	20332
815.962	20412
816.103	20408
816.244	20355
816.385	20210
816.526	20252
816.666	20161
816.807	19830
816.948	19860
817.089	20046
817.23	20005
817.371	19947
817.512	19799
817.653	19852
817.793	19860
817.934	19849
818.075	19849
818.216	19811
818.356	19837
818.497	19666
818.638	19480
818.778	19552
818.919	19563
819.06	19578
819.2	19563
819.341	19708
819.481	19818
819.622	19940
819.762	20024
819.903	20046
820.043	19757
820.184	19814
820.324	19925
820.465	19940
820.605	19944
820.746	19883
820.886	19795
821.026	19677
821.167	19837
821.307	19849
821.447	19742
821.588	19556
821.728	19590
821.868	19464
822.008	19282
822.149	19247
822.289	19209
822.429	18977
822.569	18977
822.709	18909
822.849	18726
822.99	18760
823.13	18738
823.27	18722
823.41	18631
823.55	18540
823.69	18521
823.83	18570
823.97	18509
824.11	18391
824.25	18426
824.389	18403
824.529	18475
824.669	18380
824.809	18376
824.949	18448
825.089	18388
825.228	18388
825.368	18114
825.508	18182
825.648	18201
825.787	18178
825.927	18110
826.067	18106
826.206	18049
826.346	18186
826.485	18129
826.625	18144
826.765	18224
826.904	18091
827.044	17870
827.183	17866
827.323	17775
827.462	17882
827.601	17802
827.741	17817
827.88	17923
828.02	17786
828.159	17729
828.298	17802
828.437	17840
828.577	17733
828.716	17965
828.855	17817
828.994	17623
829.134	17516
829.273	17539
829.412	17478
829.551	17512
829.69	17619
829.829	17608
829.968	17668
830.107	17661
830.246	17642
830.385	17501
830.524	17459
830.663	17459
830.802	17414
830.941	17220
831.08	17083
831.219	17280
831.357	17307
831.496	17433
831.635	17200
831.774	17102
831.913	17128
832.051	17010
832.19	16889
832.329	17033
832.467	16995
832.606	16908
832.744	16881
832.883	16968
833.022	16972
833.16	16942
833.299	16965
833.437	16938
833.576	16987
833.714	17018
833.852	17090
833.991	16972
834.129	16980
834.267	16980
834.406	16987
834.544	16915
834.682	17079
834.821	17014
834.959	17113
835.097	16946
835.235	16999
835.373	16991
835.511	16968
835.65	16885
835.788	16812
835.926	16653
836.064	16694
836.202	16748
836.34	16835
836.478	16984
836.615	16866
836.753	16987
836.891	16919
837.029	16934
837.167	16839
837.305	16771
837.443	16744
837.58	16691
837.718	16778
837.856	16733
837.993	16725
838.131	16744
838.269	16679
838.406	16626
838.544	16596
838.681	16466
838.819	16390
838.956	16230
839.094	16337
839.231	16280
839.369	16516
839.506	16603
839.643	16417
839.781	16261
839.918	16257
840.055	16188
840.193	16310
840.33	16379
840.467	16230
840.604	16310
840.742	16554
840.879	16147
841.016	16196
841.153	16143
841.29	16402
841.427	16295
841.564	16295
841.701	16280
841.838	16238
841.975	16185
842.112	16177
842.249	16131
842.385	15975
842.522	16272
842.659	16074
842.796	16109
842.933	16082
843.069	16010
843.206	15975
843.343	16211
843.479	16025
843.616	16048
843.752	15819
843.889	15778
844.025	16036
844.162	15838
844.298	15937
844.435	15880
844.571	15781
844.708	15846
844.844	16109
844.98	16002
845.117	16010
845.253	15774
845.389	15663
845.525	15774
845.661	15876
845.798	15869
845.934	15823
846.07	15755
846.206	15983
846.342	15937
846.478	15713
846.614	15538
846.75	15389
846.886	15408
847.022	15462
847.158	15382
847.294	15439
847.429	15507
847.565	15450
847.701	15663
847.837	15188
847.972	15211
848.108	15157
848.244	15150
848.379	15074
848.515	15017
848.65	14982
848.786	15066
848.921	15039
849.057	15180
849.192	15104
849.328	14994
849.463	15108
849.598	14887
849.734	14845
849.869	14899
850.004	14815
850.14	14823
850.275	14712
850.41	14735
850.545	14701
850.68	14674
850.815	14804
850.95	14735
851.085	14861
851.22	14925
851.355	14796
851.49	14777
851.625	14735
851.76	14754
851.895	14648
852.03	14613
852.165	14682
852.299	14693
852.434	14906
852.569	14788
852.703	14758
852.838	14868
852.973	14948
853.107	14883
853.242	14773
853.376	14735
853.511	14556
853.645	14655
853.78	14826
853.914	14686
854.048	14598
854.183	14632
854.317	14693
854.451	14762
854.585	14701
854.72	14655
854.854	14731
854.988	14564
855.122	14621
855.256	14499
855.39	14674
855.524	14743
855.658	14621
855.792	14629
855.926	14727
856.06	14693
856.194	14754
856.327	14682
856.461	14454
856.595	14663
856.729	14632
856.862	14758
856.996	14708
857.13	14735
857.263	14727
857.397	14819
857.53	14667
857.664	14727
857.797	14842
857.931	14815
858.064	14621
858.197	14663
858.331	14648
858.464	14610
858.597	14606
858.731	14655
858.864	14621
858.997	14617
859.13	14613
859.263	14636
859.396	14788
859.529	14689
859.662	14575
859.795	14590
859.928	14720
860.061	14731
860.194	14906
860.327	14678
860.46	14670
860.592	14807
860.725	14785
860.858	14735
860.99	14625
861.123	14514
861.256	14594
861.388	14598
861.521	15321
861.653	14552
861.786	14469
861.918	14450
862.05	14575
862.183	14545
862.315	14644
862.447	14610
862.58	14610
862.712	14412
862.844	14351
862.976	14488
863.108	14427
863.24	14788
863.372	14362
863.504	14476
863.636	14415
863.768	14503
863.9	14400
864.032	14396
864.164	14457
864.296	14469
864.428	14465
864.559	14518
864.691	14522
864.823	14514
864.954	14480
865.086	14412
865.217	14438
865.349	14347
865.48	14408
865.612	14427
865.743	14571
865.875	14317
866.006	14347
866.137	14503
866.269	14400
866.4	14400
866.531	14362
866.662	14404
866.793	14362
866.924	14347
867.055	14377
867.186	14377
867.317	14332
867.448	14351
867.579	14339
867.71	14358
867.841	14294
867.972	14404
868.103	14408
868.233	14320
868.364	14419
868.495	14400
868.625	14617
868.756	14682
868.886	14541
869.017	14575
869.147	14807
869.278	14785
869.408	14727
869.539	14670
869.669	14788
869.799	14644
869.929	14826
870.06	14693
870.19	14910
870.32	14902
870.45	15047
870.58	15066
870.71	15195
870.84	15062
870.97	14971
871.1	15062
871.23	15157
871.36	15150
871.489	15161
871.619	15184
871.749	15226
871.879	15256
872.008	15428
872.138	15325
872.267	15256
872.397	15142
872.526	15119
872.656	15055
872.785	15017
872.915	15310
873.044	15321
873.173	15252
873.303	15241
873.432	15325
873.561	15374
873.69	15287
873.819	15214
873.948	15420
874.077	15249
874.206	15302
874.335	15344
874.464	15435
874.593	15545
874.722	15466
874.851	15610
874.979	15553
875.108	15679
875.237	15580
875.365	15523
875.494	15492
875.623	15686
875.751	15610
875.88	15705
876.008	15736
876.136	15755
876.265	16059
876.393	16124
876.521	16067
876.65	16082
876.778	15915
876.906	16013
877.034	15968
877.162	15918
877.29	16029
877.418	16048
877.546	16067
877.674	16021
877.802	16051
877.93	16040
878.058	16010
878.185	15930
878.313	16032
878.441	16055
878.568	15876
878.696	15964
878.824	16051
878.951	16131
879.079	16219
879.206	16280
879.333	16238
879.461	16124
879.588	16120
879.715	16261
879.842	16413
879.97	16112
880.097	15968
880.224	15869
880.351	16029
880.478	15975
880.605	15873
880.732	15934
880.859	16169
880.986	15915
881.112	15968
881.239	15812
881.366	15519
881.493	15690
881.619	15443
881.746	15557
881.872	15572
881.999	15515
882.125	15519
882.252	15561
882.378	15534
882.505	15743
882.631	15526
882.757	15321
882.883	15466
883.01	15397
883.136	15264
883.262	15298
883.388	15211
883.514	15443
883.64	15428
883.766	15340
883.892	15207
884.018	15097
884.143	15340
884.269	15363
884.395	15169
884.52	15055
884.646	15055
884.772	14941
884.897	14967
885.023	15051
885.148	15131
885.274	15176
885.399	15058
885.524	15047
885.65	15135
885.775	15066
885.9	15093
886.025	15199
886.15	15085
886.275	15024
886.4	15013
886.525	15047
886.65	15058
886.775	14986
886.9	15233
887.025	15264
887.149	15032
887.274	14952
887.399	14804
887.523	14853
887.648	14849
887.773	14826
887.897	14861
888.021	14944
888.146	14792
888.27	15058
888.395	14982
888.519	14990
888.643	14925
888.767	14925
888.891	14777
889.015	14670
889.139	14743
889.263	14697
889.387	14762
889.511	14921
889.635	14815
889.759	14716
889.883	14720
890.006	14804
890.13	14781
890.254	14678
890.377	14727
890.501	14560
890.624	14476
890.748	14621
890.871	14461
890.995	14393
891.118	14298
891.241	14469
891.364	14484
891.488	14473
891.611	14339
891.734	14415
891.857	14488
891.98	14427
892.103	14476
892.226	14385
892.349	14351
892.471	14347
892.594	14396
892.717	14476
892.839	14461
892.962	14351
893.085	14454
893.207	14393
893.33	14290
893.452	14393
893.575	14461
893.697	14431
893.819	14495
893.941	14537
894.064	14568
894.186	14393
894.308	14408
894.43	14434
894.552	14632
894.674	14469
894.796	14351
894.918	14446
895.04	14404
895.161	14625
895.283	14518
895.405	14393
895.526	14511
895.648	14488
895.769	14537
895.891	14545
896.012	14617
896.134	14674
896.255	14651
896.376	14514
896.498	14602
896.619	14667
896.74	14503
896.861	14583
896.982	14921
897.103	14933
897.224	14925
897.345	14834
897.466	14746
897.587	14853
897.708	14979
897.828	14838
897.949	14735
898.07	14697
898.19	14750
898.311	14975
898.431	14819
898.552	14921
898.672	14971
898.792	14941
898.913	14925
899.033	14872
899.153	14708
899.273	14640
899.393	14724
899.513	14746
899.633	14819
899.753	14701
899.873	14648
899.993	14819
900.113	14765
900.232	14826
900.352	14769
900.472	14659
900.591	14625
900.711	14598
900.83	14549
900.95	14648
901.069	14686
901.189	14488
901.308	14339
901.427	14355
901.546	14259
901.665	14252
901.784	14294
901.904	14157
902.023	14149
902.141	13917
902.26	13906
902.379	13909
902.498	13795
902.617	13776
902.735	13822
902.854	13875
902.973	13719
903.091	13559
903.21	13605
903.328	13518
903.446	13438
903.565	13339
903.683	13369
903.801	13373
903.919	13381
904.038	13324
904.156	13255
904.274	13312
904.392	13221
904.51	13198
904.627	13244
904.745	13247
904.863	13194
904.981	12989
905.098	12859
905.216	12935
905.334	12935
905.451	12947
905.569	12932
905.686	12924
905.803	12966
905.921	12745
906.038	12856
906.155	12753
906.272	12677
906.389	12684
906.506	12479
906.623	12452
906.74	12498
906.857	12422
906.974	12384
907.091	12601
907.208	12681
907.324	12525
907.441	12403
907.557	12220
907.674	12262
907.79	12228
907.907	12178
908.023	12296
908.139	12281
908.256	12228
908.372	12148
908.488	12152
908.604	12095
908.72	11996
908.836	12057
908.952	11977
909.068	12057
909.184	12083
909.3	12030
909.415	12114
909.531	12041
909.647	11745
909.762	11828
909.878	11733
909.993	11813
910.108	11703
910.224	11756
910.339	11748
910.454	11729
910.57	11642
910.685	11566
910.8	11847
910.915	11722
911.03	11646
911.145	11570
911.259	11539
911.374	11570
911.489	11459
911.604	11356
911.718	11239
911.833	11216
911.947	11105
912.062	11071
912.176	11216
912.291	11258
912.405	11273
912.519	11444
912.633	11440
912.748	11178
912.862	11181
912.976	11136
913.09	10957
913.204	11079
913.318	11048
913.431	11227
913.545	11212
913.659	11246
913.772	11102
913.886	11048
914	10873
914.113	11067
914.226	11102
914.34	11060
914.453	10892
914.566	11010
914.68	10946
914.793	10885
914.906	10759
915.019	10691
915.132	10706
915.245	10748
915.358	10691
915.47	10672
915.583	10824
915.696	10740
915.809	10820
915.921	10896
916.034	10656
916.146	10694
916.259	10683
916.371	10740
916.483	10790
916.595	10691
916.708	10618
916.82	10596
916.932	10694
917.044	10664
917.156	10603
917.268	10622
917.38	10554
917.491	10554
917.603	10573
917.715	10641
917.826	10634
917.938	10558
918.049	10386
918.161	10554
918.272	10687
918.384	10664
918.495	10485
918.606	10421
918.717	10253
918.828	10478
918.939	10432
919.05	10325
919.161	10432
919.272	10143
919.383	10325
919.494	10447
919.604	10653
919.715	10500
919.826	10344
919.936	10356
920.047	10538
920.157	10417
920.267	10634
920.378	10508
920.488	10337
920.598	10523
920.708	10809
920.818	10607
920.928	10653
921.038	10729
921.148	10797
921.258	10466
921.368	10413
921.477	10299
921.587	10287
921.697	10135
921.806	10272
921.916	10158
922.025	10055
922.134	10032
922.244	9953
922.353	9979
922.462	9888
922.571	9800
922.68	9770
922.789	9580
922.898	9671
923.007	9618
923.116	9717
923.224	9690
923.333	9679
923.442	9553
923.55	9530
923.659	9507
923.767	9542
923.876	9576
923.984	9584
924.092	9496
924.201	9564
924.309	9568
924.417	9477
924.525	9515
924.633	9507
924.741	10261
924.849	9279
924.956	9458
925.064	9268
925.172	9294
925.279	9192
925.387	9325
925.494	9370
925.602	9466
925.709	9435
925.816	9233
925.924	9291
926.031	9412
926.138	9382
926.245	9367
926.352	9283
926.459	9370
926.566	9466
926.673	9233
926.779	9161
926.886	9097
926.993	9047
927.099	8956
927.206	8990
927.312	8979
927.419	9062
927.525	9009
927.631	9032
927.737	8941
927.843	8929
927.95	8796
928.056	8891
928.162	8876
928.267	9024
928.373	9561
928.479	8982
928.585	8834
928.69	8826
928.796	8975
928.901	8849
929.007	8724
929.112	8842
929.218	8872
929.323	8785
929.428	8697
929.533	8830
929.638	8640
929.743	8708
929.848	8716
929.953	8636
930.058	8663
930.163	8442
930.267	8423
930.372	8663
930.477	8469
930.581	8659
930.685	8465
930.79	8434
930.894	8431
930.998	8454
931.103	8602
931.207	8176
931.311	8111
931.415	8138
931.519	7951
931.623	7947
