Data from test_V78500241_3692.txt Node
Date: Fri Mar 25 14:59:25 CST 2022
User: usil
Spectrometer: V785-0024
Trigger mode: 0
Integration Time (sec): 4.000000E-1
Scans to average: 1
Nonlinearity correction enabled: false
Boxcar width: 0
Storing dark spectrum: false
XAxis mode: Wavelengths
Number of Pixels in Spectrum: 1024
>>>>>Begin Spectral Data<<<<<
801.071	21956
801.214	21724
801.356	21545
801.499	21458
801.641	21393
801.783	21260
801.926	21287
802.068	21237
802.211	21138
802.353	21058
802.496	20891
802.638	20720
802.78	20785
802.923	20609
803.065	20644
803.208	20579
803.35	20670
803.492	20667
803.635	20731
803.777	20674
803.919	20511
804.061	21028
804.204	20629
804.346	20533
804.488	20537
804.63	20549
804.773	20465
804.915	20549
805.057	20651
805.199	20469
805.341	20560
805.483	20655
805.626	20636
805.768	20431
805.91	20442
806.052	20465
806.194	20473
806.336	20617
806.478	20465
806.62	20396
806.762	20526
806.904	20602
807.046	20963
807.188	20800
807.33	20815
807.472	20830
807.614	20857
807.756	20743
807.898	20682
808.04	20541
808.182	20556
808.324	20571
808.465	20629
808.607	20674
808.749	20921
808.891	20971
809.033	20948
809.174	20960
809.316	20720
809.458	20929
809.6	20834
809.741	20895
809.883	20826
810.025	20975
810.166	21043
810.308	20948
810.45	20868
810.591	20933
810.733	20796
810.875	20617
811.016	20678
811.158	20499
811.299	20754
811.441	20792
811.582	20750
811.724	20545
811.865	20537
812.007	20564
812.148	20648
812.29	20594
812.431	20807
812.573	20925
812.714	21070
812.855	21154
812.997	21313
813.138	21332
813.279	21283
813.421	21184
813.562	21070
813.703	20982
813.845	20750
813.986	20518
814.127	20484
814.268	20225
814.41	20267
814.551	20244
814.692	20301
814.833	20046
814.974	20077
815.115	20172
815.256	19902
815.397	20088
815.539	19928
815.68	19959
815.821	19833
815.962	19970
816.103	19795
816.244	19738
816.385	19685
816.526	19590
816.666	19464
816.807	19331
816.948	19407
817.089	19483
817.23	19384
817.371	19297
817.512	19339
817.653	19327
817.793	19244
817.934	19202
818.075	19244
818.216	19232
818.356	19213
818.497	19171
818.638	18890
818.778	18920
818.919	18947
819.06	19057
819.2	19057
819.341	19225
819.481	19099
819.622	19327
819.762	19350
819.903	19559
820.043	19331
820.184	19156
820.324	19247
820.465	19354
820.605	19232
820.746	19274
820.886	19122
821.026	19225
821.167	19232
821.307	19320
821.447	19236
821.588	19000
821.728	18905
821.868	18886
822.008	18673
822.149	18646
822.289	18661
822.429	18464
822.569	18361
822.709	18357
822.849	18186
822.99	18197
823.13	18308
823.27	18140
823.41	18003
823.55	17931
823.69	18064
823.83	17935
823.97	17920
824.11	17737
824.25	17718
824.389	17840
824.529	17817
824.669	17733
824.809	17851
824.949	17843
825.089	17726
825.228	17722
825.368	17547
825.508	17611
825.648	17547
825.787	17509
825.927	17596
826.067	17512
826.206	17543
826.346	17562
826.485	17566
826.625	17524
826.765	17680
826.904	17657
827.044	17265
827.183	17292
827.323	17288
827.462	17345
827.601	17311
827.741	17189
827.88	17231
828.02	17162
828.159	17235
828.298	17231
828.437	17292
828.577	17166
828.716	17341
828.855	17132
828.994	17037
829.134	16919
829.273	16930
829.412	17075
829.551	16968
829.69	16942
829.829	17052
829.968	17018
830.107	16934
830.246	17102
830.385	16934
830.524	17014
830.663	16752
830.802	16713
830.941	16485
831.08	16607
831.219	16679
831.357	16660
831.496	16858
831.635	16672
831.774	16466
831.913	16466
832.051	16402
832.19	16455
832.329	16405
832.467	16303
832.606	16219
832.744	16318
832.883	16322
833.022	16341
833.16	16219
833.299	16382
833.437	16333
833.576	16459
833.714	16421
833.852	16295
833.991	16375
834.129	16348
834.267	16481
834.406	16280
834.544	16470
834.682	16459
834.821	16424
834.959	16523
835.097	16344
835.235	16451
835.373	16409
835.511	16493
835.65	16318
835.788	16333
835.926	16226
836.064	15983
836.202	16093
836.34	16428
836.478	16398
836.615	16169
836.753	16261
836.891	16470
837.029	16303
837.167	16188
837.305	16185
837.443	16112
837.58	16147
837.718	16280
837.856	16150
837.993	16074
838.131	16219
838.269	16192
838.406	16059
838.544	16120
838.681	15911
838.819	15876
838.956	15622
839.094	15846
839.231	15766
839.369	15968
839.506	16207
839.643	15911
839.781	15816
839.918	15694
840.055	15781
840.193	15690
840.33	15766
840.467	15781
840.604	15663
840.742	15911
840.879	15557
841.016	15587
841.153	15629
841.29	15751
841.427	15743
841.564	15812
841.701	15766
841.838	15690
841.975	15675
842.112	15648
842.249	15587
842.385	15447
842.522	15789
842.659	15572
842.796	15538
842.933	15538
843.069	15488
843.206	15564
843.343	15625
843.479	15519
843.616	15549
843.752	15348
843.889	15340
844.025	15473
844.162	15321
844.298	15344
844.435	15272
844.571	15382
844.708	15340
844.844	15447
844.98	15466
845.117	15439
845.253	15214
845.389	15142
845.525	15188
845.661	15237
845.798	15039
845.934	15081
846.07	15005
846.206	15180
846.342	15207
846.478	15070
846.614	14952
846.75	14876
846.886	14804
847.022	14921
847.158	14807
847.294	14902
847.429	14895
847.565	14914
847.701	15127
847.837	14640
847.972	14587
848.108	14697
848.244	14697
848.379	14522
848.515	14450
848.65	14358
848.786	14473
848.921	14427
849.057	14571
849.192	14629
849.328	14480
849.463	14495
849.598	14450
849.734	14324
849.869	14324
850.004	14286
850.14	14313
850.275	14298
850.41	14183
850.545	14180
850.68	14191
850.815	14294
850.95	14195
851.085	14412
851.22	14298
851.355	14161
851.49	14153
851.625	14244
851.76	14218
851.895	14088
852.03	14180
852.165	14111
852.299	14252
852.434	14313
852.569	14347
852.703	14180
852.838	14275
852.973	14328
853.107	14396
853.242	14145
853.376	14100
853.511	14058
853.645	14138
853.78	14202
853.914	14145
854.048	14081
854.183	13997
854.317	14077
854.451	14275
854.585	14088
854.72	14183
854.854	14164
854.988	14050
855.122	14024
855.256	14027
855.39	14096
855.524	14153
855.658	14081
855.792	14005
855.926	14130
856.06	14130
856.194	14214
856.327	14130
856.461	13963
856.595	14081
856.729	14077
856.862	14195
856.996	14142
857.13	14199
857.263	14187
857.397	14256
857.53	14149
857.664	14202
857.797	14176
857.931	14123
858.064	14237
858.197	14157
858.331	14130
858.464	14084
858.597	14119
858.731	14100
858.864	14081
858.997	14107
859.13	14191
859.263	14199
859.396	14259
859.529	14046
859.662	14058
859.795	14054
859.928	14100
860.061	14317
860.194	14351
860.327	14107
860.46	14183
860.592	14138
860.725	14176
860.858	14172
860.99	14084
861.123	14058
861.256	14050
861.388	14153
861.521	14765
861.653	14001
861.786	13906
861.918	13959
862.05	14020
862.183	14043
862.315	14035
862.447	14084
862.58	14024
862.712	13818
862.844	13860
862.976	13974
863.108	13894
863.24	14286
863.372	13822
863.504	13921
863.636	13887
863.768	13909
863.9	13989
864.032	13871
864.164	13917
864.296	13890
864.428	13947
864.559	13997
864.691	13955
864.823	13890
864.954	13974
865.086	13932
865.217	13936
865.349	13860
865.48	13909
865.612	13898
865.743	13940
865.875	13799
866.006	13864
866.137	13849
866.269	13864
866.4	13856
866.531	13856
866.662	13814
866.793	13795
866.924	13898
867.055	13811
867.186	13750
867.317	13799
867.448	13753
867.579	13860
867.71	13746
867.841	13689
867.972	13906
868.103	13833
868.233	13944
868.364	13822
868.495	13970
868.625	14183
868.756	14244
868.886	14050
869.017	14027
869.147	14161
869.278	14259
869.408	14157
869.539	14134
869.669	14214
869.799	14134
869.929	14115
870.06	14256
870.19	14522
870.32	14370
870.45	14469
870.58	14587
870.71	14606
870.84	14579
870.97	14499
871.1	14590
871.23	14769
871.36	14705
871.489	14655
871.619	14765
871.749	14785
871.879	14762
872.008	14746
872.138	14739
872.267	14727
872.397	14716
872.526	14648
872.656	14552
872.785	14621
872.915	14785
873.044	14902
873.173	14758
873.303	14807
873.432	14895
873.561	14777
873.69	14838
873.819	14838
873.948	14910
874.077	14792
874.206	14781
874.335	14853
874.464	14864
874.593	15066
874.722	14998
874.851	15165
874.979	15135
875.108	15138
875.237	14933
875.365	14952
875.494	15097
875.623	15138
875.751	15043
875.88	15116
876.008	15233
876.136	15332
876.265	15584
876.393	15625
876.521	15561
876.65	15553
876.778	15663
876.906	15450
877.034	15348
877.162	15564
877.29	15523
877.418	15511
877.546	15428
877.674	15477
877.802	15507
877.93	15572
878.058	15447
878.185	15393
878.313	15530
878.441	15473
878.568	15370
878.696	15405
878.824	15576
878.951	15542
879.079	15663
879.206	15823
879.333	15648
879.461	15618
879.588	15553
879.715	15736
879.842	15766
879.97	15545
880.097	15291
880.224	15268
880.351	15378
880.478	15332
880.605	15378
880.732	15344
880.859	15507
880.986	15363
881.112	15370
881.239	15287
881.366	15093
881.493	15062
881.619	14899
881.746	15070
881.872	14971
881.999	15097
882.125	15043
882.252	15043
882.378	15039
882.505	15116
882.631	14906
882.757	14887
882.883	14849
883.01	14853
883.136	14845
883.262	14693
883.388	14640
883.514	14845
883.64	14830
883.766	14880
883.892	14648
884.018	14670
884.143	14811
884.269	14986
884.395	14640
884.52	14507
884.646	14438
884.772	14503
884.897	14465
885.023	14556
885.148	14636
885.274	14674
885.399	14678
885.524	14526
885.65	14545
885.775	14579
885.9	14568
886.025	14667
886.15	14587
886.275	14560
886.4	14465
886.525	14613
886.65	14495
886.775	14358
886.9	14663
887.025	14872
887.149	14632
887.274	14450
887.399	14358
887.523	14320
887.648	14366
887.773	14328
887.897	14450
888.021	14442
888.146	14404
888.27	14480
888.395	14522
888.519	14488
888.643	14469
888.767	14495
888.891	14298
889.015	14225
889.139	14305
889.263	14252
889.387	14355
889.511	14476
889.635	14442
889.759	14183
889.883	14355
890.006	14351
890.13	14362
890.254	14225
890.377	14229
890.501	14001
890.624	14039
890.748	14130
890.871	14024
890.995	13928
891.118	13902
891.241	13978
891.364	13913
891.488	13997
891.611	13982
891.734	13887
891.857	14077
891.98	13917
892.103	14039
892.226	13974
892.349	13868
892.471	13871
892.594	13906
892.717	13906
892.839	13932
892.962	13856
893.085	13909
893.207	13947
893.33	13826
893.452	13879
893.575	14035
893.697	13898
893.819	14123
893.941	14161
894.064	14123
894.186	13925
894.308	13909
894.43	14107
894.552	14176
894.674	14096
894.796	13879
894.918	14005
895.04	13917
895.161	14119
895.283	14142
895.405	13978
895.526	14046
895.648	14138
895.769	14088
895.891	14096
896.012	14294
896.134	14172
896.255	14199
896.376	14084
896.498	14172
896.619	14107
896.74	14142
896.861	14123
896.982	14476
897.103	14541
897.224	14484
897.345	14404
897.466	14324
897.587	14434
897.708	14518
897.828	14495
897.949	14374
898.07	14298
898.19	14393
898.311	14495
898.431	14389
898.552	14594
898.672	14503
898.792	14571
898.913	14503
899.033	14400
899.153	14278
899.273	14259
899.393	14317
899.513	14336
899.633	14396
899.753	14324
899.873	14351
899.993	14415
900.113	14423
900.232	14419
900.352	14355
900.472	14244
900.591	14119
900.711	14202
900.83	14054
900.95	14298
901.069	14313
901.189	14100
901.308	13951
901.427	13784
901.546	13845
901.665	13909
901.784	13932
901.904	13723
902.023	13708
902.141	13556
902.26	13403
902.379	13483
902.498	13430
902.617	13407
902.735	13415
902.854	13426
902.973	13495
903.091	13168
903.21	13145
903.328	13202
903.446	13050
903.565	12947
903.683	13057
903.801	12920
903.919	12981
904.038	12970
904.156	12795
904.274	12863
904.392	12787
904.51	12882
904.627	12905
904.745	12913
904.863	12947
904.981	12639
905.098	12410
905.216	12452
905.334	12513
905.451	12475
905.569	12490
905.686	12536
905.803	12585
905.921	12361
906.038	12566
906.155	12372
906.272	12270
906.389	12361
906.506	12140
906.623	12171
906.74	12182
906.857	12011
906.974	12087
907.091	12106
907.208	12197
907.324	12159
907.441	12091
907.557	11927
907.674	11866
907.79	11866
907.907	11855
908.023	11927
908.139	11946
908.256	11840
908.372	11866
908.488	11741
908.604	11726
908.72	11615
908.836	11589
908.952	11657
909.068	11729
909.184	11718
909.3	11657
909.415	11733
909.531	11642
909.647	11360
909.762	11391
909.878	11467
909.993	11436
910.108	11471
910.224	11429
910.339	11414
910.454	11242
910.57	11201
910.685	11223
910.8	11467
910.915	11433
911.03	11292
911.145	11151
911.259	11113
911.374	11109
911.489	11079
911.604	10968
911.718	10900
911.833	10968
911.947	10729
912.062	10714
912.176	10835
912.291	10919
912.405	10869
912.519	11041
912.633	11048
912.748	11025
912.862	10824
912.976	10809
913.09	10649
913.204	10714
913.318	10744
913.431	10866
913.545	10854
913.659	10968
913.772	10820
913.886	10615
914	10649
914.113	10733
914.226	10835
914.34	10736
914.453	10554
914.566	10691
914.68	10577
914.793	10569
914.906	10481
915.019	10375
915.132	10280
915.245	10367
915.358	10306
915.47	10348
915.583	10424
915.696	10451
915.809	10500
915.921	10466
916.034	10310
916.146	10337
916.259	10382
916.371	10432
916.483	10424
916.595	10310
916.708	10306
916.82	10299
916.932	10318
917.044	10337
917.156	10325
917.268	10162
917.38	10188
917.491	10150
917.603	10268
917.715	10367
917.826	10276
917.938	10192
918.049	10177
918.161	10238
918.272	10390
918.384	10382
918.495	10329
918.606	10082
918.717	9964
918.828	10169
918.939	10082
919.05	10040
919.161	10074
919.272	9922
919.383	9979
919.494	10215
919.604	10295
919.715	10101
919.826	10078
919.936	10036
920.047	10242
920.157	10147
920.267	10337
920.378	10139
920.488	10124
920.598	10329
920.708	10519
920.818	10356
920.928	10360
921.038	10535
921.148	10432
921.258	10112
921.368	10078
921.477	9968
921.587	10006
921.697	9899
921.806	9998
921.916	9884
922.025	9667
922.134	9690
922.244	9701
922.353	9679
922.462	9561
922.571	9530
922.68	9408
922.789	9310
922.898	9340
923.007	9329
923.116	9332
923.224	9355
923.333	9351
923.442	9294
923.55	9161
923.659	9256
923.767	9298
923.876	9230
923.984	9325
924.092	9203
924.201	9203
924.309	9268
924.417	9348
924.525	9176
924.633	9150
924.741	9987
924.849	8986
924.956	9176
925.064	9001
925.172	8963
925.279	8979
925.387	9089
925.494	8994
925.602	9207
925.709	9157
925.816	8937
925.924	9013
926.031	9085
926.138	9047
926.245	9123
926.352	8967
926.459	9024
926.566	9165
926.673	9036
926.779	8910
926.886	8861
926.993	8773
927.099	8746
927.206	8644
927.312	8743
927.419	8823
927.525	8708
927.631	8823
927.737	8754
927.843	8682
927.95	8526
928.056	8663
928.162	8716
928.267	8678
928.373	9256
928.479	8788
928.585	8492
928.69	8632
928.796	8621
928.901	8568
929.007	8434
929.112	8629
929.218	8511
929.323	8530
929.428	8495
929.533	8575
929.638	8446
929.743	8461
929.848	8568
929.953	8473
930.058	8427
930.163	8210
930.267	8279
930.372	8404
930.477	8229
930.581	8355
930.685	8294
930.79	8187
930.894	8206
930.998	8225
931.103	8336
931.207	8008
931.311	7944
931.415	7780
931.519	7731
931.623	7708
