Data from test_V78500241_1771.txt Node
Date: Fri Mar 25 14:46:02 CST 2022
User: usil
Spectrometer: V785-0024
Trigger mode: 0
Integration Time (sec): 4.000000E-1
Scans to average: 1
Nonlinearity correction enabled: false
Boxcar width: 0
Storing dark spectrum: false
XAxis mode: Wavelengths
Number of Pixels in Spectrum: 1024
>>>>>Begin Spectral Data<<<<<
801.071	22086
801.214	22128
801.356	21823
801.499	21682
801.641	21572
801.783	21561
801.926	21633
802.068	21603
802.211	21378
802.353	21329
802.496	21199
802.638	21089
802.78	21043
802.923	20880
803.065	20842
803.208	20830
803.35	20864
803.492	20971
803.635	20971
803.777	20804
803.919	20990
804.061	21241
804.204	20914
804.346	20804
804.488	20785
804.63	20880
804.773	20701
804.915	20933
805.057	20948
805.199	20792
805.341	20792
805.483	20910
805.626	20899
805.768	20762
805.91	20906
806.052	20773
806.194	20724
806.336	20971
806.478	20724
806.62	20727
806.762	20754
806.904	20967
807.046	21173
807.188	21085
807.33	21131
807.472	21123
807.614	21062
807.756	21112
807.898	20925
808.04	20765
808.182	20937
808.324	20918
808.465	21001
808.607	21146
808.749	21184
808.891	21291
809.033	21363
809.174	21230
809.316	21116
809.458	21287
809.6	21180
809.741	21226
809.883	21332
810.025	21348
810.166	21268
810.308	21332
810.45	21195
810.591	21199
810.733	20971
810.875	20948
811.016	20804
811.158	20891
811.299	21032
811.441	21058
811.582	21028
811.724	20941
811.865	20887
812.007	20979
812.148	20963
812.29	20990
812.431	21226
812.573	21249
812.714	21393
812.855	21466
812.997	21603
813.138	21572
813.279	21538
813.421	21473
813.562	21431
813.703	21116
813.845	21249
813.986	20838
814.127	20625
814.268	20606
814.41	20507
814.551	20590
814.692	20533
814.833	20385
814.974	20431
815.115	20583
815.256	20343
815.397	20298
815.539	20290
815.68	20195
815.821	20290
815.962	20176
816.103	20240
816.244	20111
816.385	19928
816.526	19940
816.666	19852
816.807	19639
816.948	19761
817.089	19837
817.23	19624
817.371	19677
817.512	19559
817.653	19575
817.793	19567
817.934	19723
818.075	19765
818.216	19666
818.356	19594
818.497	19495
818.638	19301
818.778	19308
818.919	19312
819.06	19308
819.2	19400
819.341	19521
819.481	19438
819.622	19715
819.762	19856
819.903	19795
820.043	19628
820.184	19658
820.324	19578
820.465	19670
820.605	19597
820.746	19529
820.886	19320
821.026	19559
821.167	19487
821.307	19620
821.447	19647
821.588	19472
821.728	19308
821.868	19251
822.008	18920
822.149	18981
822.289	18981
822.429	18840
822.569	18688
822.709	18722
822.849	18547
822.99	18490
823.13	18471
823.27	18372
823.41	18338
823.55	18140
823.69	18369
823.83	18292
823.97	18243
824.11	17954
824.25	18079
824.389	18155
824.529	18186
824.669	18159
824.809	18140
824.949	18174
825.089	18285
825.228	18064
825.368	17908
825.508	17794
825.648	17901
825.787	17912
825.927	17927
826.067	17741
826.206	17920
826.346	17954
826.485	17931
826.625	17904
826.765	18045
826.904	17870
827.044	17710
827.183	17668
827.323	17505
827.462	17589
827.601	17471
827.741	17512
827.88	17577
828.02	17573
828.159	17551
828.298	17615
828.437	17543
828.577	17577
828.716	17695
828.855	17604
828.994	17360
829.134	17288
829.273	17296
829.412	17227
829.551	17341
829.69	17330
829.829	17448
829.968	17478
830.107	17425
830.246	17474
830.385	17189
830.524	17391
830.663	17075
830.802	17060
830.941	16919
831.08	16873
831.219	17033
831.357	17010
831.496	17143
831.635	16831
831.774	16850
831.913	16854
832.051	16755
832.19	16721
832.329	16805
832.467	16603
832.606	16641
832.744	16565
832.883	16691
833.022	16599
833.16	16763
833.299	16755
833.437	16672
833.576	16854
833.714	16698
833.852	16786
833.991	16736
834.129	16774
834.267	16755
834.406	16710
834.544	16778
834.682	16660
834.821	16603
834.959	16850
835.097	16626
835.235	16755
835.373	16622
835.511	16805
835.65	16649
835.788	16588
835.926	16508
836.064	16421
836.202	16451
836.34	16584
836.478	16694
836.615	16649
836.753	16512
836.891	16637
837.029	16622
837.167	16611
837.305	16500
837.443	16558
837.58	16546
837.718	16592
837.856	16577
837.993	16382
838.131	16462
838.269	16341
838.406	16375
838.544	16405
838.681	16234
838.819	16131
838.956	16067
839.094	16002
839.231	16078
839.369	16139
839.506	16310
839.643	16226
839.781	16010
839.918	15945
840.055	15975
840.193	15892
840.33	16093
840.467	16029
840.604	15998
840.742	16268
840.879	15926
841.016	15899
841.153	15934
841.29	16158
841.427	16090
841.564	16021
841.701	16055
841.838	15983
841.975	15895
842.112	15884
842.249	15774
842.385	15720
842.522	16021
842.659	15804
842.796	15808
842.933	15873
843.069	15728
843.206	15797
843.343	15922
843.479	15797
843.616	15724
843.752	15576
843.889	15553
844.025	15743
844.162	15500
844.298	15690
844.435	15622
844.571	15511
844.708	15690
844.844	15717
844.98	15675
845.117	15660
845.253	15519
845.389	15454
845.525	15515
845.661	15477
845.798	15382
845.934	15462
846.07	15283
846.206	15439
846.342	15473
846.478	15367
846.614	15173
846.75	15058
846.886	15043
847.022	15214
847.158	15192
847.294	15173
847.429	15138
847.565	14994
847.701	15412
847.837	14842
847.972	14918
848.108	14990
848.244	14895
848.379	14754
848.515	14724
848.65	14750
848.786	14651
848.921	14712
849.057	14746
849.192	14906
849.328	14838
849.463	14853
849.598	14769
849.734	14697
849.869	14571
850.004	14499
850.14	14492
850.275	14571
850.41	14476
850.545	14461
850.68	14480
850.815	14526
850.95	14568
851.085	14663
851.22	14549
851.355	14450
851.49	14476
851.625	14434
851.76	14514
851.895	14389
852.03	14461
852.165	14495
852.299	14575
852.434	14613
852.569	14583
852.703	14537
852.838	14640
852.973	14625
853.107	14644
853.242	14518
853.376	14469
853.511	14176
853.645	14267
853.78	14476
853.914	14503
854.048	14301
854.183	14317
854.317	14408
854.451	14552
854.585	14393
854.72	14324
854.854	14442
854.988	14278
855.122	14305
855.256	14271
855.39	14377
855.524	14408
855.658	14522
855.792	14408
855.926	14366
856.06	14347
856.194	14495
856.327	14362
856.461	14267
856.595	14309
856.729	14351
856.862	14465
856.996	14423
857.13	14355
857.263	14492
857.397	14465
857.53	14408
857.664	14530
857.797	14396
857.931	14492
858.064	14408
858.197	14537
858.331	14393
858.464	14381
858.597	14267
858.731	14385
858.864	14370
858.997	14351
859.13	14415
859.263	14408
859.396	14427
859.529	14305
859.662	14434
859.795	14275
859.928	14454
860.061	14533
860.194	14579
860.327	14362
860.46	14351
860.592	14434
860.725	14465
860.858	14415
860.99	14370
861.123	14290
861.256	14313
861.388	14328
861.521	15165
861.653	14347
861.786	14218
861.918	14294
862.05	14313
862.183	14381
862.315	14442
862.447	14488
862.58	14309
862.712	14123
862.844	14081
862.976	14290
863.108	14275
863.24	14587
863.372	14069
863.504	14210
863.636	14077
863.768	14206
863.9	14138
864.032	14138
864.164	14103
864.296	14168
864.428	14267
864.559	14229
864.691	14301
864.823	14278
864.954	14153
865.086	14180
865.217	14111
865.349	14046
865.48	14164
865.612	14096
865.743	14305
865.875	14218
866.006	14092
866.137	14199
866.269	14176
866.4	14126
866.531	14050
866.662	14016
866.793	14077
866.924	14103
867.055	14161
867.186	14084
867.317	14138
867.448	14001
867.579	14054
867.71	14103
867.841	14168
867.972	14069
868.103	14107
868.233	14134
868.364	14183
868.495	14153
868.625	14259
868.756	14473
868.886	14377
869.017	14385
869.147	14431
869.278	14507
869.408	14495
869.539	14355
869.669	14530
869.799	14457
869.929	14518
870.06	14575
870.19	14785
870.32	14750
870.45	14727
870.58	14861
870.71	14880
870.84	14823
870.97	14762
871.1	14807
871.23	14967
871.36	15043
871.489	14842
871.619	14872
871.749	14960
871.879	15028
872.008	15005
872.138	14902
872.267	14887
872.397	14842
872.526	14746
872.656	14887
872.785	14811
872.915	15055
873.044	15039
873.173	15089
873.303	14986
873.432	14975
873.561	15135
873.69	14982
873.819	15104
873.948	15108
874.077	15047
874.206	14975
874.335	15081
874.464	15157
874.593	15340
874.722	15386
874.851	15294
874.979	15447
875.108	15302
875.237	15195
875.365	15283
875.494	15325
875.623	15408
875.751	15287
875.88	15382
876.008	15549
876.136	15633
876.265	15724
876.393	15850
876.521	15907
876.65	15838
876.778	15778
876.906	15720
877.034	15732
877.162	15667
877.29	15732
877.418	15793
877.546	15732
877.674	15667
877.802	15827
877.93	15717
878.058	15671
878.185	15682
878.313	15644
878.441	15861
878.568	15660
878.696	15743
878.824	15766
878.951	15789
879.079	15907
879.206	16063
879.333	15945
879.461	15743
879.588	15842
879.715	15991
879.842	16025
879.97	15846
880.097	15675
880.224	15519
880.351	15705
880.478	15652
880.605	15599
880.732	15542
880.859	15835
880.986	15549
881.112	15644
881.239	15500
881.366	15367
881.493	15336
881.619	15291
881.746	15382
881.872	15256
881.999	15252
882.125	15214
882.252	15283
882.378	15256
882.505	15386
882.631	15230
882.757	15081
882.883	15108
883.01	15077
883.136	14937
883.262	14941
883.388	14906
883.514	15127
883.64	15131
883.766	15085
883.892	14746
884.018	14925
884.143	14963
884.269	15245
884.395	14899
884.52	14754
884.646	14804
884.772	14727
884.897	14697
885.023	14754
885.148	14788
885.274	14979
885.399	14914
885.524	14815
885.65	14754
885.775	14872
885.9	14834
886.025	14830
886.15	14849
886.275	14746
886.4	14693
886.525	14724
886.65	14697
886.775	14754
886.9	14906
887.025	15043
887.149	14785
887.274	14594
887.399	14583
887.523	14598
887.648	14518
887.773	14488
887.897	14727
888.021	14708
888.146	14537
888.27	14705
888.395	14701
888.519	14674
888.643	14735
888.767	14708
888.891	14480
889.015	14419
889.139	14511
889.263	14450
889.387	14583
889.511	14655
889.635	14610
889.759	14412
889.883	14438
890.006	14492
890.13	14583
890.254	14370
890.377	14526
890.501	14309
890.624	14263
890.748	14370
890.871	14244
890.995	14130
891.118	14062
891.241	14119
891.364	14210
891.488	14199
891.611	14195
891.734	14180
891.857	14313
891.98	14168
892.103	14237
892.226	14210
892.349	14168
892.471	13993
892.594	14214
892.717	14176
892.839	14210
892.962	14153
893.085	14233
893.207	14218
893.33	14123
893.452	14088
893.575	14271
893.697	14119
893.819	14332
893.941	14404
894.064	14396
894.186	14153
894.308	14172
894.43	14351
894.552	14446
894.674	14374
894.796	14046
894.918	14191
895.04	14202
895.161	14290
895.283	14229
895.405	14191
895.526	14221
895.648	14237
895.769	14240
895.891	14267
896.012	14336
896.134	14309
896.255	14423
896.376	14271
896.498	14385
896.619	14454
896.74	14343
896.861	14370
896.982	14739
897.103	14826
897.224	14625
897.345	14674
897.466	14522
897.587	14670
897.708	14765
897.828	14674
897.949	14507
898.07	14473
898.19	14602
898.311	14815
898.431	14670
898.552	14674
898.672	14746
898.792	14796
898.913	14674
899.033	14621
899.153	14526
899.273	14385
899.393	14522
899.513	14564
899.633	14617
899.753	14537
899.873	14530
899.993	14621
900.113	14511
900.232	14545
900.352	14549
900.472	14408
900.591	14317
900.711	14473
900.83	14389
900.95	14530
901.069	14469
901.189	14393
901.308	14157
901.427	14065
901.546	14126
901.665	14149
901.784	14187
901.904	13959
902.023	13940
902.141	13791
902.26	13594
902.379	13719
902.498	13666
902.617	13677
902.735	13708
902.854	13624
902.973	13586
903.091	13365
903.21	13304
903.328	13407
903.446	13282
903.565	13225
903.683	13263
903.801	13118
903.919	13228
904.038	13221
904.156	13023
904.274	13137
904.392	12852
904.51	13061
904.627	13000
904.745	13038
904.863	13088
904.981	12897
905.098	12753
905.216	12768
905.334	12817
905.451	12726
905.569	12745
905.686	12776
905.803	12768
905.921	12475
906.038	12673
906.155	12589
906.272	12452
906.389	12502
906.506	12407
906.623	12254
906.74	12254
906.857	12197
906.974	12213
907.091	12357
907.208	12391
907.324	12357
907.441	12327
907.557	12049
907.674	12125
907.79	11916
907.907	11973
908.023	12133
908.139	12136
908.256	12117
908.372	12007
908.488	11996
908.604	11832
908.72	11771
908.836	11859
908.952	11775
909.068	11847
909.184	11889
909.3	11840
909.415	11904
909.531	11821
909.647	11691
909.762	11604
909.878	11570
909.993	11642
910.108	11600
910.224	11547
910.339	11665
910.454	11429
910.57	11429
910.685	11398
910.8	11665
910.915	11570
911.03	11486
911.145	11311
911.259	11337
911.374	11311
911.489	11223
911.604	11064
911.718	11090
911.833	11006
911.947	10976
912.062	10809
912.176	11090
912.291	11086
912.405	10999
912.519	11147
912.633	11292
912.748	11155
912.862	11075
912.976	11067
913.09	10763
913.204	10771
913.318	10968
913.431	11041
913.545	10968
913.659	11121
913.772	10908
913.886	10900
914	10809
914.113	10930
914.226	10873
914.34	10923
914.453	10717
914.566	10957
914.68	10778
914.793	10664
914.906	10535
915.019	10508
915.132	10523
915.245	10599
915.358	10592
915.47	10542
915.583	10554
915.696	10603
915.809	10694
915.921	10736
916.034	10542
916.146	10462
916.259	10428
916.371	10538
916.483	10592
916.595	10550
916.708	10489
916.82	10478
916.932	10432
917.044	10443
917.156	10455
917.268	10375
917.38	10367
917.491	10337
917.603	10440
917.715	10436
917.826	10516
917.938	10371
918.049	10287
918.161	10386
918.272	10466
918.384	10500
918.495	10402
918.606	10173
918.717	10287
918.828	10333
918.939	10284
919.05	10169
919.161	10230
919.272	10093
919.383	10173
919.494	10284
919.604	10455
919.715	10192
919.826	10204
919.936	10314
920.047	10329
920.157	10284
920.267	10443
920.378	10325
920.488	10295
920.598	10470
920.708	10725
920.818	10474
920.928	10424
921.038	10615
921.148	10531
921.258	10337
921.368	10196
921.477	10150
921.587	10097
921.697	10017
921.806	10192
921.916	10002
922.025	9823
922.134	9827
922.244	9766
922.353	9865
922.462	9705
922.571	9663
922.68	9530
922.789	9466
922.898	9587
923.007	9492
923.116	9561
923.224	9504
923.333	9469
923.442	9386
923.55	9363
923.659	9386
923.767	9405
923.876	9374
923.984	9435
924.092	9294
924.201	9363
924.309	9416
924.417	9405
924.525	9294
924.633	9351
924.741	10314
924.849	9207
924.956	9321
925.064	9222
925.172	9169
925.279	9104
925.387	9142
925.494	9150
925.602	9344
925.709	9184
925.816	9116
925.924	9222
926.031	9313
926.138	9184
926.245	9317
926.352	9119
926.459	9279
926.566	9302
926.673	9097
926.779	9055
926.886	9116
926.993	8864
927.099	8857
927.206	8845
927.312	8788
927.419	8853
927.525	8845
927.631	8956
927.737	8819
927.843	8811
927.95	8617
928.056	8754
928.162	8769
928.267	8845
928.373	9439
928.479	8872
928.585	8667
928.69	8739
928.796	8769
928.901	8697
929.007	8526
929.112	8648
929.218	8648
929.323	8587
929.428	8625
929.533	8785
929.638	8552
929.743	8560
929.848	8689
929.953	8564
930.058	8499
930.163	8320
930.267	8374
930.372	8480
930.477	8282
930.581	8522
930.685	8427
930.79	8355
930.894	8404
930.998	8339
931.103	8480
931.207	8103
931.311	8103
931.415	7982
931.519	7799
931.623	7750
