Data from test_V78500241_1255.txt Node
Date: Fri Mar 25 14:42:27 CST 2022
User: usil
Spectrometer: V785-0024
Trigger mode: 0
Integration Time (sec): 4.000000E-1
Scans to average: 1
Nonlinearity correction enabled: false
Boxcar width: 0
Storing dark spectrum: false
XAxis mode: Wavelengths
Number of Pixels in Spectrum: 1024
>>>>>Begin Spectral Data<<<<<
801.071	22538
801.214	22242
801.356	21964
801.499	21960
801.641	21701
801.783	21781
801.926	21774
802.068	21580
802.211	21633
802.353	21530
802.496	21393
802.638	21264
802.78	21226
802.923	21192
803.065	21020
803.208	21017
803.35	21123
803.492	21192
803.635	21310
803.777	21138
803.919	21165
804.061	21431
804.204	21070
804.346	21028
804.488	20948
804.63	21108
804.773	20872
804.915	21077
805.057	21116
805.199	21066
805.341	21074
805.483	21233
805.626	21089
805.768	21024
805.91	21081
806.052	21005
806.194	20895
806.336	21222
806.478	20963
806.62	20960
806.762	21176
806.904	21150
807.046	21454
807.188	21336
807.33	21317
807.472	21412
807.614	21363
807.756	21397
807.898	21184
808.04	21233
808.182	21146
808.324	21093
808.465	21222
808.607	21367
808.749	21447
808.891	21572
809.033	21774
809.174	21557
809.316	21466
809.458	21485
809.6	21348
809.741	21492
809.883	21469
810.025	21606
810.166	21675
810.308	21530
810.45	21542
810.591	21435
810.733	21287
810.875	21329
811.016	21081
811.158	21020
811.299	21325
811.441	21325
811.582	21298
811.724	21252
811.865	21123
812.007	21207
812.148	21230
812.29	21264
812.431	21230
812.573	21389
812.714	21614
812.855	21694
812.997	21660
813.138	21895
813.279	21682
813.421	21759
813.562	21583
813.703	21386
813.845	21401
813.986	21093
814.127	20899
814.268	20777
814.41	20724
814.551	20804
814.692	20697
814.833	20625
814.974	20716
815.115	20781
815.256	20571
815.397	20499
815.539	20602
815.68	20473
815.821	20465
815.962	20484
816.103	20541
816.244	20415
816.385	20244
816.526	20233
816.666	20027
816.807	19883
816.948	19974
817.089	20043
817.23	19955
817.371	19864
817.512	19925
817.653	19868
817.793	19818
817.934	19833
818.075	19978
818.216	19871
818.356	19909
818.497	19746
818.638	19632
818.778	19533
818.919	19628
819.06	19639
819.2	19689
819.341	19776
819.481	19799
819.622	19936
819.762	20282
819.903	20142
820.043	20012
820.184	19845
820.324	19906
820.465	19845
820.605	19883
820.746	19921
820.886	19677
821.026	19898
821.167	19860
821.307	19868
821.447	19830
821.588	19723
821.728	19643
821.868	19464
822.008	19247
822.149	19266
822.289	19282
822.429	19099
822.569	18993
822.709	19012
822.849	18757
822.99	18768
823.13	18760
823.27	18932
823.41	18673
823.55	18570
823.69	18654
823.83	18578
823.97	18490
824.11	18315
824.25	18273
824.389	18353
824.529	18334
824.669	18422
824.809	18544
824.949	18506
825.089	18353
825.228	18410
825.368	18262
825.508	18163
825.648	18197
825.787	18201
825.927	18171
826.067	18091
826.206	17984
826.346	18186
826.485	18125
826.625	18053
826.765	18277
826.904	18205
827.044	17996
827.183	17832
827.323	17817
827.462	17973
827.601	17939
827.741	17745
827.88	17840
828.02	17627
828.159	17767
828.298	17775
828.437	17912
828.577	17790
828.716	17946
828.855	17790
828.994	17634
829.134	17615
829.273	17722
829.412	17512
829.551	17520
829.69	17581
829.829	17581
829.968	17699
830.107	17646
830.246	17726
830.385	17554
830.524	17478
830.663	17417
830.802	17395
830.941	17334
831.08	17265
831.219	17341
831.357	17288
831.496	17402
831.635	17261
831.774	17235
831.913	17151
832.051	17140
832.19	17117
832.329	17067
832.467	16839
832.606	16980
832.744	16881
832.883	16927
833.022	16946
833.16	16980
833.299	17086
833.437	17060
833.576	16949
833.714	17102
833.852	17003
833.991	16904
834.129	17064
834.267	16995
834.406	16923
834.544	17136
834.682	17010
834.821	17048
834.959	17231
835.097	17060
835.235	17143
835.373	16930
835.511	16961
835.65	16919
835.788	16873
835.926	16824
836.064	16793
836.202	16801
836.34	16911
836.478	17090
836.615	16858
836.753	16858
836.891	16934
837.029	17003
837.167	16938
837.305	16869
837.443	16797
837.58	16790
837.718	16919
837.856	16733
837.993	16736
838.131	16778
838.269	16759
838.406	16740
838.544	16691
838.681	16588
838.819	16500
838.956	16348
839.094	16306
839.231	16379
839.369	16550
839.506	16740
839.643	16580
839.781	16390
839.918	16333
840.055	16295
840.193	16329
840.33	16246
840.467	16341
840.604	16348
840.742	16531
840.879	16249
841.016	16413
841.153	16344
841.29	16394
841.427	16272
841.564	16455
841.701	16333
841.838	16291
841.975	16173
842.112	16238
842.249	16204
842.385	16131
842.522	16310
842.659	16192
842.796	16116
842.933	16207
843.069	16006
843.206	16135
843.343	16211
843.479	16097
843.616	16093
843.752	15895
843.889	15930
844.025	16025
844.162	15816
844.298	15987
844.435	15915
844.571	15797
844.708	16025
844.844	16010
844.98	15949
845.117	15991
845.253	15854
845.389	15865
845.525	15831
845.661	15915
845.798	15816
845.934	15827
846.07	15884
846.206	15846
846.342	15793
846.478	15785
846.614	15523
846.75	15500
846.886	15420
847.022	15622
847.158	15477
847.294	15557
847.429	15428
847.565	15481
847.701	15648
847.837	15150
847.972	15207
848.108	15272
848.244	15256
848.379	15081
848.515	14982
848.65	15051
848.786	15142
848.921	15085
849.057	15077
849.192	15199
849.328	15127
849.463	15131
849.598	14963
849.734	14971
849.869	14868
850.004	14750
850.14	14857
850.275	14815
850.41	14735
850.545	14891
850.68	14830
850.815	14899
850.95	14880
851.085	14990
851.22	14929
851.355	14845
851.49	14819
851.625	14857
851.76	14788
851.895	14785
852.03	14686
852.165	14765
852.299	14853
852.434	14826
852.569	14883
852.703	14716
852.838	14948
852.973	14834
853.107	14910
853.242	14785
853.376	14602
853.511	14583
853.645	14644
853.78	14872
853.914	14720
854.048	14693
854.183	14571
854.317	14644
854.451	14830
854.585	14655
854.72	14583
854.854	14785
854.988	14697
855.122	14712
855.256	14503
855.39	14708
855.524	14686
855.658	14727
855.792	14727
855.926	14785
856.06	14765
856.194	14842
856.327	14674
856.461	14636
856.595	14606
856.729	14678
856.862	14838
856.996	14750
857.13	14785
857.263	14788
857.397	14781
857.53	14777
857.664	14762
857.797	14849
857.931	14807
858.064	14785
858.197	14842
858.331	14682
858.464	14602
858.597	14659
858.731	14693
858.864	14651
858.997	14632
859.13	14651
859.263	14701
859.396	14731
859.529	14727
859.662	14648
859.795	14701
859.928	14754
860.061	14769
860.194	14765
860.327	14731
860.46	14663
860.592	14746
860.725	14811
860.858	14785
860.99	14708
861.123	14598
861.256	14651
861.388	14686
861.521	15408
861.653	14610
861.786	14537
861.918	14556
862.05	14564
862.183	14750
862.315	14659
862.447	14823
862.58	14617
862.712	14423
862.844	14370
862.976	14499
863.108	14552
863.24	14857
863.372	14339
863.504	14465
863.636	14492
863.768	14518
863.9	14415
864.032	14370
864.164	14423
864.296	14495
864.428	14632
864.559	14617
864.691	14587
864.823	14507
864.954	14503
865.086	14495
865.217	14423
865.349	14419
865.48	14419
865.612	14423
865.743	14629
865.875	14370
866.006	14495
866.137	14438
866.269	14404
866.4	14457
866.531	14355
866.662	14324
866.793	14408
866.924	14336
867.055	14412
867.186	14461
867.317	14336
867.448	14290
867.579	14442
867.71	14294
867.841	14256
867.972	14530
868.103	14415
868.233	14423
868.364	14396
868.495	14507
868.625	14716
868.756	14830
868.886	14606
869.017	14758
869.147	14788
869.278	14731
869.408	14678
869.539	14731
869.669	14807
869.799	14811
869.929	14754
870.06	14807
870.19	14963
870.32	14895
870.45	15039
870.58	15119
870.71	15047
870.84	15180
870.97	14956
871.1	15135
871.23	15310
871.36	15245
871.489	15195
871.619	15211
871.749	15237
871.879	15397
872.008	15355
872.138	15321
872.267	15199
872.397	15104
872.526	15169
872.656	15093
872.785	15074
872.915	15317
873.044	15363
873.173	15222
873.303	15408
873.432	15405
873.561	15431
873.69	15268
873.819	15355
873.948	15408
874.077	15370
874.206	15317
874.335	15306
874.464	15492
874.593	15580
874.722	15584
874.851	15709
874.979	15739
875.108	15679
875.237	15656
875.365	15515
875.494	15679
875.623	15720
875.751	15595
875.88	15625
876.008	15774
876.136	15892
876.265	15979
876.393	16192
876.521	16139
876.65	16025
876.778	16101
876.906	15895
877.034	15987
877.162	16139
877.29	15918
877.418	15934
877.546	15972
877.674	16025
877.802	16074
877.93	15930
878.058	16071
878.185	16029
878.313	16029
878.441	16051
878.568	15895
878.696	16002
878.824	16078
878.951	16158
879.079	16329
879.206	16371
879.333	16291
879.461	16124
879.588	16234
879.715	16284
879.842	16325
879.97	16177
880.097	15911
880.224	15911
880.351	15994
880.478	15930
880.605	15857
880.732	15960
880.859	16154
880.986	15903
881.112	16048
881.239	15778
881.366	15751
881.493	15622
881.619	15618
881.746	15606
881.872	15603
881.999	15469
882.125	15610
882.252	15576
882.378	15686
882.505	15519
882.631	15538
882.757	15325
882.883	15511
883.01	15439
883.136	15367
883.262	15252
883.388	15249
883.514	15363
883.64	15386
883.766	15454
883.892	15199
884.018	15176
884.143	15389
884.269	15507
884.395	15157
884.52	15104
884.646	15119
884.772	15005
884.897	14933
885.023	15020
885.148	15218
885.274	15203
885.399	15165
885.524	15131
885.65	15051
885.775	15127
885.9	14971
886.025	15249
886.15	15116
886.275	14948
886.4	15036
886.525	15066
886.65	15024
886.775	15005
886.9	15176
887.025	15310
887.149	15142
887.274	14845
887.399	14895
887.523	14804
887.648	14902
887.773	14765
887.897	14929
888.021	14982
888.146	14868
888.27	15043
888.395	15039
888.519	14925
888.643	14868
888.767	14982
888.891	14849
889.015	14689
889.139	14773
889.263	14796
889.387	14861
889.511	14967
889.635	14998
889.759	14617
889.883	14785
890.006	14758
890.13	14929
890.254	14735
890.377	14689
890.501	14484
890.624	14590
890.748	14594
890.871	14438
890.995	14434
891.118	14339
891.241	14415
891.364	14446
891.488	14629
891.611	14438
891.734	14469
891.857	14636
891.98	14465
892.103	14492
892.226	14469
892.349	14358
892.471	14339
892.594	14377
892.717	14454
892.839	14476
892.962	14484
893.085	14526
893.207	14454
893.33	14278
893.452	14385
893.575	14408
893.697	14415
893.819	14564
893.941	14689
894.064	14640
894.186	14450
894.308	14408
894.43	14507
894.552	14705
894.674	14659
894.796	14339
894.918	14549
895.04	14393
895.161	14568
895.283	14552
895.405	14465
895.526	14568
895.648	14522
895.769	14625
895.891	14674
896.012	14636
896.134	14533
896.255	14571
896.376	14594
896.498	14530
896.619	14678
896.74	14678
896.861	14701
896.982	14910
897.103	15009
897.224	14914
897.345	14735
897.466	14746
897.587	14788
897.708	15001
897.828	14868
897.949	14826
898.07	14765
898.19	14811
898.311	15005
898.431	14868
898.552	14990
898.672	15074
898.792	15123
898.913	14918
899.033	14872
899.153	14811
899.273	14773
899.393	14651
899.513	14785
899.633	14842
899.753	14739
899.873	14727
899.993	14861
900.113	14800
900.232	14788
900.352	14743
900.472	14724
900.591	14541
900.711	14670
900.83	14693
900.95	14708
901.069	14819
901.189	14613
901.308	14275
901.427	14385
901.546	14275
901.665	14164
901.784	14457
901.904	14244
902.023	14164
902.141	13909
902.26	13902
902.379	13936
902.498	13841
902.617	13788
902.735	13928
902.854	13852
902.973	13807
903.091	13647
903.21	13586
903.328	13544
903.446	13502
903.565	13308
903.683	13430
903.801	13392
903.919	13537
904.038	13392
904.156	13194
904.274	13285
904.392	13190
904.51	13293
904.627	13339
904.745	13274
904.863	13343
904.981	13103
905.098	12932
905.216	12989
905.334	13065
905.451	12951
905.569	12962
905.686	12996
905.803	12981
905.921	12795
906.038	12867
906.155	12760
906.272	12639
906.389	12703
906.506	12540
906.623	12509
906.74	12540
906.857	12445
906.974	12429
907.091	12665
907.208	12608
907.324	12521
907.441	12471
907.557	12235
907.674	12270
907.79	12270
907.907	12270
908.023	12311
908.139	12330
908.256	12262
908.372	12213
908.488	12136
908.604	12045
908.72	11992
908.836	12068
908.952	11961
909.068	12007
909.184	12125
909.3	12045
909.415	12060
909.531	12114
909.647	11771
909.762	11802
909.878	11775
909.993	11786
910.108	11764
910.224	11771
910.339	11817
910.454	11714
910.57	11691
910.685	11611
910.8	11897
910.915	11790
911.03	11695
911.145	11486
911.259	11512
911.374	11532
911.489	11429
911.604	11345
911.718	11197
911.833	11250
911.947	11075
912.062	11090
912.176	11288
912.291	11261
912.405	11265
912.519	11463
912.633	11414
912.748	11349
912.862	11258
912.976	11113
913.09	11117
913.204	11132
913.318	11121
913.431	11223
913.545	11269
913.659	11212
913.772	11155
913.886	10991
914	11048
914.113	11113
914.226	11151
914.34	11037
914.453	10942
914.566	11155
914.68	11006
914.793	10881
914.906	10748
915.019	10755
915.132	10698
915.245	10725
915.358	10755
915.47	10763
915.583	10721
915.696	10740
915.809	10934
915.921	10900
916.034	10733
916.146	10656
916.259	10698
916.371	10805
916.483	10828
916.595	10630
916.708	10618
916.82	10649
916.932	10691
917.044	10702
917.156	10656
917.268	10493
917.38	10698
917.491	10554
917.603	10649
917.715	10554
917.826	10679
917.938	10656
918.049	10432
918.161	10649
918.272	10630
918.384	10687
918.495	10603
918.606	10447
918.717	10409
918.828	10428
918.939	10489
919.05	10291
919.161	10409
919.272	10234
919.383	10287
919.494	10413
919.604	10736
919.715	10436
919.826	10386
919.936	10402
920.047	10550
920.157	10485
920.267	10679
920.378	10481
920.488	10405
920.598	10580
920.708	10752
920.818	10584
920.928	10664
921.038	10793
921.148	10774
921.258	10451
921.368	10413
921.477	10333
921.587	10215
921.697	10211
921.806	10314
921.916	10227
922.025	10021
922.134	10032
922.244	9926
922.353	10120
922.462	9876
922.571	9808
922.68	9694
922.789	9694
922.898	9606
923.007	9637
923.116	9759
923.224	9690
923.333	9656
923.442	9580
923.55	9462
923.659	9568
923.767	9641
923.876	9580
923.984	9641
924.092	9477
924.201	9564
924.309	9564
924.417	9519
924.525	9534
924.633	9393
924.741	10265
924.849	9344
924.956	9466
925.064	9367
925.172	9287
925.279	9256
925.387	9321
925.494	9355
925.602	9401
925.709	9431
925.816	9317
925.924	9370
926.031	9462
926.138	9420
926.245	9325
926.352	9230
926.459	9321
926.566	9370
926.673	9321
926.779	9165
926.886	9192
926.993	9024
927.099	8948
927.206	8967
927.312	8960
927.419	9104
927.525	9058
927.631	9017
927.737	8906
927.843	8914
927.95	8750
928.056	8853
928.162	8918
928.267	9005
928.373	9595
928.479	9081
928.585	8804
928.69	8857
928.796	8948
928.901	8792
929.007	8731
929.112	8838
929.218	8792
929.323	8686
929.428	8686
929.533	8838
929.638	8682
929.743	8727
929.848	8708
929.953	8785
930.058	8651
930.163	8488
930.267	8533
930.372	8579
930.477	8571
930.581	8686
930.685	8610
930.79	8438
930.894	8518
930.998	8423
931.103	8594
931.207	8279
931.311	8149
931.415	8111
931.519	7963
931.623	7967
