Data from test_V78500241_373.txt Node
Date: Fri Mar 25 14:36:19 CST 2022
User: usil
Spectrometer: V785-0024
Trigger mode: 0
Integration Time (sec): 4.000000E-1
Scans to average: 1
Nonlinearity correction enabled: false
Boxcar width: 0
Storing dark spectrum: false
XAxis mode: Wavelengths
Number of Pixels in Spectrum: 1024
>>>>>Begin Spectral Data<<<<<
801.071	26944
801.214	26754
801.356	26541
801.499	26625
801.641	26248
801.783	26290
801.926	26453
802.068	26370
802.211	26362
802.353	26248
802.496	26020
802.638	26031
802.78	26172
802.923	25898
803.065	25837
803.208	25879
803.35	25959
803.492	25887
803.635	26065
803.777	25822
803.919	26065
804.061	26248
804.204	26073
804.346	26081
804.488	25753
804.63	25841
804.773	25742
804.915	26058
805.057	26142
805.199	25951
805.341	25898
805.483	25951
805.626	26035
805.768	25803
805.91	25974
806.052	26016
806.194	25936
806.336	26195
806.478	26065
806.62	25887
806.762	26058
806.904	26145
807.046	26423
807.188	26328
807.33	26328
807.472	26412
807.614	26370
807.756	26237
807.898	26221
808.04	26176
808.182	26073
808.324	26180
808.465	26187
808.607	26225
808.749	26526
808.891	26594
809.033	26632
809.174	26632
809.316	26480
809.458	26404
809.6	26507
809.741	26282
809.883	26518
810.025	26648
810.166	26705
810.308	26785
810.45	26579
810.591	26556
810.733	26427
810.875	26275
811.016	26225
811.158	26115
811.299	26240
811.441	26453
811.582	26492
811.724	26282
811.865	26377
812.007	26298
812.148	26282
812.29	26488
812.431	26545
812.573	26560
812.714	26750
812.855	26796
812.997	26952
813.138	27089
813.279	26887
813.421	26792
813.562	26686
813.703	26560
813.845	26453
813.986	26180
814.127	26058
814.268	25894
814.41	25974
814.551	25788
814.692	26016
814.833	25795
814.974	25871
815.115	25887
815.256	25852
815.397	25753
815.539	25727
815.68	25689
815.821	25441
815.962	25594
816.103	25544
816.244	25518
816.385	25403
816.526	25324
816.666	25122
816.807	25118
816.948	25088
817.089	25179
817.23	25091
817.371	25046
817.512	24977
817.653	25031
817.793	25015
817.934	25050
818.075	25042
818.216	25053
818.356	25084
818.497	24806
818.638	24692
818.778	24696
818.919	24597
819.06	24734
819.2	24897
819.341	24890
819.481	24753
819.622	25114
819.762	25247
819.903	25179
820.043	24962
820.184	24981
820.324	25019
820.465	25133
820.605	24935
820.746	24871
820.886	24852
821.026	25038
821.167	24817
821.307	25072
821.447	24764
821.588	24684
821.728	24719
821.868	24532
822.008	24262
822.149	24380
822.289	24418
822.429	24114
822.569	24015
822.709	23954
822.849	23798
822.99	23794
823.13	23805
823.27	23703
823.41	23535
823.55	23520
823.69	23581
823.83	23608
823.97	23520
824.11	23444
824.25	23296
824.389	23337
824.529	23486
824.669	23280
824.809	23505
824.949	23463
825.089	23433
825.228	23360
825.368	23307
825.508	23109
825.648	23204
825.787	23280
825.927	23326
826.067	23197
826.206	23132
826.346	23318
826.485	23162
826.625	23094
826.765	23197
826.904	23197
827.044	22972
827.183	23025
827.323	22675
827.462	22900
827.601	22980
827.741	22809
827.88	22866
828.02	22713
828.159	22801
828.298	22889
828.437	22927
828.577	22793
828.716	23022
828.855	22771
828.994	22550
829.134	22672
829.273	22626
829.412	22580
829.551	22508
829.69	22535
829.829	22588
829.968	22527
830.107	22527
830.246	22485
830.385	22459
830.524	22394
830.663	22363
830.802	22284
830.941	22040
831.08	22128
831.219	22204
831.357	22093
831.496	22276
831.635	22067
831.774	22120
831.913	21915
832.051	21838
832.19	21907
832.329	21854
832.467	21850
832.606	21831
832.744	21781
832.883	21679
833.022	21698
833.16	21785
833.299	21804
833.437	21774
833.576	21899
833.714	21644
833.852	21842
833.991	21865
834.129	21816
834.267	21850
834.406	21869
834.544	21892
834.682	21808
834.821	21713
834.959	21918
835.097	21732
835.235	21831
835.373	21770
835.511	21842
835.65	21591
835.788	21671
835.926	21458
836.064	21401
836.202	21473
836.34	21644
836.478	21747
836.615	21637
836.753	21785
836.891	21572
837.029	21686
837.167	21553
837.305	21526
837.443	21492
837.58	21458
837.718	21500
837.856	21648
837.993	21408
838.131	21496
838.269	21443
838.406	21340
838.544	21355
838.681	21161
838.819	21081
838.956	20906
839.094	20937
839.231	21036
839.369	21005
839.506	21351
839.643	21024
839.781	20895
839.918	20876
840.055	20762
840.193	20796
840.33	20785
840.467	20842
840.604	20895
840.742	21032
840.879	20792
841.016	20811
841.153	20731
841.29	20823
841.427	20788
841.564	20891
841.701	20880
841.838	20815
841.975	20739
842.112	20792
842.249	20617
842.385	20640
842.522	20655
842.659	20625
842.796	20495
842.933	20545
843.069	20507
843.206	20473
843.343	20530
843.479	20655
843.616	20625
843.752	20434
843.889	20351
844.025	20415
844.162	20301
844.298	20358
844.435	20396
844.571	20362
844.708	20259
844.844	20480
844.98	20446
845.117	20404
845.253	20248
845.389	20271
845.525	20195
845.661	20130
845.798	20050
845.934	20252
846.07	20084
846.206	20275
846.342	20221
846.478	19986
846.614	19871
846.75	19814
846.886	19727
847.022	19845
847.158	19871
847.294	19818
847.429	19898
847.565	19715
847.701	20096
847.837	19556
847.972	19453
848.108	19567
848.244	19525
848.379	19422
848.515	19365
848.65	19263
848.786	19362
848.921	19270
849.057	19476
849.192	19457
849.328	19377
849.463	19415
849.598	19316
849.734	19187
849.869	19110
850.004	19244
850.14	19187
850.275	19133
850.41	19084
850.545	19019
850.68	19076
850.815	19107
850.95	19008
851.085	19209
851.22	19160
851.355	19103
851.49	19110
851.625	18973
851.76	18996
851.895	18939
852.03	18924
852.165	18951
852.299	19129
852.434	19122
852.569	19103
852.703	19023
852.838	19213
852.973	19187
853.107	19175
853.242	18913
853.376	18901
853.511	18806
853.645	18837
853.78	18973
853.914	18951
854.048	18924
854.183	18840
854.317	18951
854.451	19000
854.585	18943
854.72	18817
854.854	18909
854.988	18852
855.122	18833
855.256	18806
855.39	18817
855.524	19004
855.658	18977
855.792	18935
855.926	18901
856.06	18875
856.194	18905
856.327	18848
856.461	18825
856.595	18837
856.729	18837
856.862	19046
856.996	18882
857.13	18943
857.263	18787
857.397	18856
857.53	18939
857.664	18932
857.797	18970
857.931	19107
858.064	18878
858.197	18954
858.331	18848
858.464	18837
858.597	18814
858.731	18817
858.864	18772
858.997	18757
859.13	18837
859.263	18734
859.396	18894
859.529	18833
859.662	18837
859.795	18783
859.928	18905
860.061	18878
860.194	18977
860.327	18795
860.46	18730
860.592	18973
860.725	18901
860.858	18852
860.99	18776
861.123	18707
861.256	18779
861.388	18795
861.521	19575
861.653	18635
861.786	18681
861.918	18707
862.05	18810
862.183	18871
862.315	18909
862.447	18875
862.58	18882
862.712	18582
862.844	18517
862.976	18669
863.108	18525
863.24	19076
863.372	18521
863.504	18498
863.636	18471
863.768	18502
863.9	18486
864.032	18456
864.164	18479
864.296	18517
864.428	18658
864.559	18479
864.691	18627
864.823	18620
864.954	18437
865.086	18532
865.217	18509
865.349	18346
865.48	18433
865.612	18551
865.743	18703
865.875	18513
866.006	18323
866.137	18448
866.269	18433
866.4	18407
866.531	18350
866.662	18407
866.793	18483
866.924	18350
867.055	18574
867.186	18346
867.317	18353
867.448	18342
867.579	18395
867.71	18403
867.841	18292
867.972	18437
868.103	18422
868.233	18414
868.364	18433
868.495	18369
868.625	18669
868.756	18639
868.886	18681
869.017	18665
869.147	18696
869.278	18791
869.408	18726
869.539	18730
869.669	18665
869.799	18681
869.929	18806
870.06	18779
870.19	18970
870.32	18924
870.45	18977
870.58	18966
870.71	19168
870.84	19236
870.97	19072
871.1	19023
871.23	19152
871.36	19168
871.489	19129
871.619	19080
871.749	19110
871.879	19194
872.008	19346
872.138	19141
872.267	19244
872.397	19198
872.526	19088
872.656	19103
872.785	19133
872.915	19282
873.044	19236
873.173	19312
873.303	19251
873.432	19251
873.561	19381
873.69	19320
873.819	19282
873.948	19308
874.077	19232
874.206	19251
874.335	19381
874.464	19476
874.593	19616
874.722	19483
874.851	19529
874.979	19472
875.108	19635
875.237	19571
875.365	19373
875.494	19445
875.623	19556
875.751	19480
875.88	19616
876.008	19655
876.136	19685
876.265	19959
876.393	19989
876.521	20073
876.65	19951
876.778	19864
876.906	19822
877.034	19780
877.162	19963
877.29	19788
877.418	19887
877.546	19871
877.674	19921
877.802	19898
877.93	19989
878.058	19902
878.185	19883
878.313	19928
878.441	19997
878.568	19845
878.696	19845
878.824	19890
878.951	19913
879.079	20119
879.206	20206
879.333	20035
879.461	19944
879.588	20077
879.715	20024
879.842	20256
879.97	20046
880.097	19799
880.224	19738
880.351	19807
880.478	19738
880.605	19677
880.732	19742
880.859	20039
880.986	19769
881.112	19761
881.239	19643
881.366	19548
881.493	19540
881.619	19453
881.746	19392
881.872	19369
881.999	19316
882.125	19400
882.252	19400
882.378	19407
882.505	19472
882.631	19194
882.757	19065
882.883	19152
883.01	19095
883.136	19095
883.262	18916
883.388	19000
883.514	19137
883.64	19187
883.766	19050
883.892	18970
884.018	18943
884.143	19004
884.269	19187
884.395	18878
884.52	18665
884.646	18749
884.772	18764
884.897	18726
885.023	18817
885.148	18859
885.274	18973
885.399	18886
885.524	18749
885.65	18779
885.775	18764
885.9	18764
886.025	18897
886.15	18810
886.275	18711
886.4	18711
886.525	18764
886.65	18688
886.775	18719
886.9	18772
887.025	18928
887.149	18779
887.274	18612
887.399	18547
887.523	18517
887.648	18521
887.773	18372
887.897	18544
888.021	18551
888.146	18494
888.27	18715
888.395	18566
888.519	18498
888.643	18555
888.767	18555
888.891	18540
889.015	18334
889.139	18376
889.263	18342
889.387	18460
889.511	18574
889.635	18372
889.759	18315
889.883	18330
890.006	18323
890.13	18441
890.254	18300
890.377	18304
890.501	18068
890.624	17946
890.748	18152
890.871	18041
890.995	17961
891.118	17882
891.241	17935
891.364	18015
891.488	18079
891.611	17889
891.734	17950
891.857	18091
891.98	17950
892.103	17965
892.226	18091
892.349	17916
892.471	17760
892.594	17920
892.717	17878
892.839	17870
892.962	17977
893.085	18030
893.207	17973
893.33	17783
893.452	17882
893.575	17984
893.697	17817
893.819	18019
893.941	18174
894.064	17984
894.186	17855
894.308	17828
894.43	18015
894.552	18026
894.674	17958
894.796	17901
894.918	17946
895.04	17832
895.161	17992
895.283	18019
895.405	17840
895.526	17855
895.648	17859
895.769	17931
895.891	18034
896.012	17885
896.134	18087
896.255	17999
896.376	17977
896.498	18022
896.619	18102
896.74	18133
896.861	18041
896.982	18315
897.103	18437
897.224	18388
897.345	18190
897.466	18091
897.587	18247
897.708	18361
897.828	18228
897.949	18117
898.07	18129
898.19	18148
898.311	18273
898.431	18220
898.552	18262
898.672	18327
898.792	18201
898.913	18254
899.033	18072
899.153	17923
899.273	17961
899.393	18019
899.513	18026
899.633	17939
899.753	18022
899.873	17954
899.993	17950
900.113	17870
900.232	17935
900.352	17920
900.472	17779
900.591	17668
900.711	17783
900.83	17809
900.95	17824
901.069	17847
901.189	17661
901.308	17543
901.427	17478
901.546	17440
901.665	17307
901.784	17452
901.904	17242
902.023	17098
902.141	17071
902.26	17022
902.379	17071
902.498	16946
902.617	16843
902.735	16930
902.854	16854
902.973	16911
903.091	16531
903.21	16584
903.328	16607
903.446	16508
903.565	16402
903.683	16440
903.801	16348
903.919	16402
904.038	16356
904.156	16333
904.274	16337
904.392	16185
904.51	16169
904.627	16242
904.745	16158
904.863	16242
904.981	15994
905.098	15922
905.216	16025
905.334	15884
905.451	15949
905.569	15854
905.686	15915
905.803	15850
905.921	15671
906.038	15766
906.155	15682
906.272	15610
906.389	15622
906.506	15526
906.623	15401
906.74	15443
906.857	15268
906.974	15336
907.091	15397
907.208	15542
907.324	15477
907.441	15378
907.557	15222
907.674	15222
907.79	15051
907.907	15051
908.023	15085
908.139	15184
908.256	15116
908.372	14975
908.488	15036
908.604	14952
908.72	14765
908.836	14918
908.952	14792
909.068	14902
909.184	14986
909.3	14804
909.415	14765
909.531	14842
909.647	14583
909.762	14560
909.878	14594
909.993	14606
910.108	14442
910.224	14564
910.339	14549
910.454	14450
910.57	14415
910.685	14332
910.8	14602
910.915	14495
911.03	14366
911.145	14153
911.259	14103
911.374	14199
911.489	14126
911.604	14069
911.718	13906
911.833	13978
911.947	13818
912.062	13734
912.176	13868
912.291	13894
912.405	13974
912.519	14119
912.633	14050
912.748	14119
912.862	13936
912.976	13788
913.09	13632
913.204	13674
913.318	13700
913.431	13849
913.545	13830
913.659	13769
913.772	13788
913.886	13616
914	13495
914.113	13662
914.226	13712
914.34	13791
914.453	13632
914.566	13590
914.68	13460
914.793	13419
914.906	13324
915.019	13312
915.132	13312
915.245	13263
915.358	13244
915.47	13403
915.583	13293
915.696	13362
915.809	13464
915.921	13495
916.034	13194
916.146	13255
916.259	13133
916.371	13244
916.483	13160
916.595	13168
916.708	13145
916.82	13152
916.932	13088
917.044	13103
917.156	13053
917.268	12989
917.38	13107
917.491	13053
917.603	12989
917.715	13065
917.826	13095
917.938	13012
918.049	12772
918.161	12977
918.272	13160
918.384	12989
918.495	12928
918.606	12753
918.717	12749
918.828	12829
918.939	12795
919.05	12639
919.161	12783
919.272	12521
919.383	12612
919.494	12913
919.604	12939
919.715	12719
919.826	12582
919.936	12684
920.047	12707
920.157	12730
920.267	12939
920.378	12772
920.488	12700
920.598	12863
920.708	13023
920.818	12913
920.928	12852
921.038	12867
921.148	12962
921.258	12662
921.368	12597
921.477	12467
921.587	12509
921.697	12376
921.806	12464
921.916	12376
922.025	12194
922.134	12182
922.244	12190
922.353	12175
922.462	12015
922.571	12003
922.68	11889
922.789	11771
922.898	11828
923.007	11722
923.116	11821
923.224	11779
923.333	11821
923.442	11691
923.55	11672
923.659	11634
923.767	11737
923.876	11570
923.984	11688
924.092	11600
924.201	11604
924.309	11581
924.417	11630
924.525	11505
924.633	11566
924.741	12532
924.849	11391
924.956	11509
925.064	11337
925.172	11277
925.279	11292
925.387	11292
925.494	11349
925.602	11497
925.709	11467
925.816	11239
925.924	11299
926.031	11406
926.138	11246
926.245	11383
926.352	11250
926.459	11322
926.566	11360
926.673	11258
926.779	11124
926.886	11140
926.993	10995
927.099	10980
927.206	10915
927.312	10892
927.419	10984
927.525	10927
927.631	10949
927.737	10854
927.843	10805
927.95	10710
928.056	10793
928.162	10843
928.267	10847
928.373	11455
928.479	10831
928.585	10649
928.69	10801
928.796	10664
928.901	10721
929.007	10535
929.112	10607
929.218	10645
929.323	10615
929.428	10577
929.533	10725
929.638	10485
929.743	10535
929.848	10577
929.953	10478
930.058	10451
930.163	10375
930.267	10337
930.372	10443
930.477	10303
930.581	10493
930.685	10280
930.79	10162
930.894	10306
930.998	10265
931.103	10246
931.207	9987
931.311	9797
931.415	9785
931.519	9576
931.623	9618
