Data from test_V78500241_542.txt Node
Date: Fri Mar 25 14:37:29 CST 2022
User: usil
Spectrometer: V785-0024
Trigger mode: 0
Integration Time (sec): 4.000000E-1
Scans to average: 1
Nonlinearity correction enabled: false
Boxcar width: 0
Storing dark spectrum: false
XAxis mode: Wavelengths
Number of Pixels in Spectrum: 1024
>>>>>Begin Spectral Data<<<<<
801.071	27382
801.214	27203
801.356	26990
801.499	26807
801.641	26796
801.783	26765
801.926	26678
802.068	26514
802.211	26560
802.353	26469
802.496	26290
802.638	26142
802.78	26252
802.923	26062
803.065	26062
803.208	26149
803.35	26100
803.492	26199
803.635	26317
803.777	26267
803.919	26248
804.061	26556
804.204	26286
804.346	26218
804.488	26195
804.63	26351
804.773	26191
804.915	26450
805.057	26560
805.199	26465
805.341	26442
805.483	26492
805.626	26590
805.768	26412
805.91	26427
806.052	26533
806.194	26575
806.336	26857
806.478	26788
806.62	26785
806.762	27032
806.904	27249
807.046	27618
807.188	27599
807.33	27781
807.472	28017
807.614	28131
807.756	28531
807.898	28828
808.04	29303
808.182	30125
808.324	31027
808.465	32039
808.607	33458
808.749	34493
808.891	35014
809.033	35219
809.174	34322
809.316	33252
809.458	32031
809.6	30817
809.741	29931
809.883	29318
810.025	28797
810.166	28546
810.308	28318
810.45	27842
810.591	27774
810.733	27416
810.875	27268
811.016	27161
811.158	27116
811.299	27180
811.441	27047
811.582	27131
811.724	26906
811.865	26811
812.007	26693
812.148	26701
812.29	26925
812.431	26864
812.573	26944
812.714	27039
812.855	27089
812.997	27176
813.138	27279
813.279	27431
813.421	27077
813.562	27138
813.703	26906
813.845	26613
813.986	26347
814.127	26271
814.268	26103
814.41	26176
814.551	26043
814.692	26122
814.833	25989
814.974	26081
815.115	26020
815.256	25780
815.397	25879
815.539	25807
815.68	25788
815.821	25772
815.962	25712
816.103	25704
816.244	25590
816.385	25460
816.526	25472
816.666	25335
816.807	25266
816.948	25122
817.089	25187
817.23	25129
817.371	25072
817.512	25110
817.653	25027
817.793	24939
817.934	25042
818.075	25008
818.216	24920
818.356	24951
818.497	24913
818.638	24684
818.778	24791
818.919	24642
819.06	24802
819.2	24909
819.341	24878
819.481	24981
819.622	25095
819.762	25362
819.903	25274
820.043	25198
820.184	24981
820.324	25129
820.465	25069
820.605	25057
820.746	24894
820.886	24825
821.026	25008
821.167	24745
821.307	24954
821.447	24897
821.588	24658
821.728	24673
821.868	24464
822.008	24369
822.149	24315
822.289	24273
822.429	24034
822.569	23942
822.709	23935
822.849	23836
822.99	23699
823.13	23714
823.27	23615
823.41	23642
823.55	23360
823.69	23391
823.83	23501
823.97	23516
824.11	23341
824.25	23406
824.389	23280
824.529	23417
824.669	23273
824.809	23376
824.949	23429
825.089	23360
825.228	23315
825.368	23140
825.508	23064
825.648	23052
825.787	23185
825.927	23174
826.067	23086
826.206	23048
826.346	23075
826.485	23025
826.625	22949
826.765	23151
826.904	23083
827.044	22744
827.183	22797
827.323	22755
827.462	22771
827.601	22755
827.741	22645
827.88	22774
828.02	22599
828.159	22637
828.298	22797
828.437	22793
828.577	22660
828.716	22755
828.855	22668
828.994	22382
829.134	22474
829.273	22474
829.412	22249
829.551	22459
829.69	22443
829.829	22352
829.968	22360
830.107	22459
830.246	22417
830.385	22318
830.524	22382
830.663	22276
830.802	22238
830.941	22017
831.08	21873
831.219	22078
831.357	22135
831.496	22181
831.635	22059
831.774	21857
831.913	21911
832.051	21766
832.19	21816
832.329	21850
832.467	21663
832.606	21633
832.744	21724
832.883	21770
833.022	21671
833.16	21850
833.299	21945
833.437	21895
833.576	21987
833.714	21899
833.852	22048
833.991	22048
834.129	22162
834.267	22291
834.406	22048
834.544	22078
834.682	22166
834.821	21975
834.959	22055
835.097	21876
835.235	21964
835.373	21747
835.511	21797
835.65	21545
835.788	21587
835.926	21382
836.064	21340
836.202	21313
836.34	21572
836.478	21652
836.615	21523
836.753	21488
836.891	21568
837.029	21519
837.167	21424
837.305	21462
837.443	21329
837.58	21431
837.718	21443
837.856	21454
837.993	21306
838.131	21397
838.269	21260
838.406	21279
838.544	21104
838.681	20982
838.819	21017
838.956	20925
839.094	20845
839.231	20960
839.369	20876
839.506	21100
839.643	20910
839.781	20746
839.918	20743
840.055	20834
840.193	20659
840.33	20606
840.467	20712
840.604	20800
840.742	20925
840.879	20484
841.016	20617
841.153	20499
841.29	20651
841.427	20724
841.564	20769
841.701	20720
841.838	20716
841.975	20545
842.112	20575
842.249	20461
842.385	20560
842.522	20644
842.659	20549
842.796	20343
842.933	20423
843.069	20385
843.206	20400
843.343	20629
843.479	20461
843.616	20488
843.752	20286
843.889	20278
844.025	20454
844.162	20290
844.298	20431
844.435	20488
844.571	20454
844.708	20568
844.844	20971
844.98	21157
845.117	21123
845.253	21401
845.389	22010
845.525	23010
845.661	24985
845.798	27336
845.934	29429
846.07	30197
846.206	29942
846.342	28497
846.478	25947
846.614	23551
846.75	22128
846.886	21397
847.022	20861
847.158	20450
847.294	20309
847.429	20100
847.565	20008
847.701	20084
847.837	19575
847.972	19472
848.108	19639
848.244	19556
848.379	19415
848.515	19289
848.65	19278
848.786	19422
848.921	19350
849.057	19430
849.192	19350
849.328	19339
849.463	19221
849.598	19145
849.734	19141
849.869	19114
850.004	19069
850.14	19080
850.275	19042
850.41	18837
850.545	18932
850.68	18943
850.815	19027
850.95	18829
851.085	19160
851.22	19046
851.355	19008
851.49	18920
851.625	19034
851.76	18973
851.895	18943
852.03	18856
852.165	19027
852.299	18989
852.434	19050
852.569	18856
852.703	18928
852.838	19076
852.973	19148
853.107	19152
853.242	19015
853.376	18966
853.511	18791
853.645	18913
853.78	19145
853.914	18905
854.048	18859
854.183	18958
854.317	18913
854.451	19225
854.585	18878
854.72	18871
854.854	18943
854.988	18989
855.122	18844
855.256	18802
855.39	18814
855.524	18871
855.658	18909
855.792	18795
855.926	18905
856.06	18901
856.194	18840
856.327	18772
856.461	18795
856.595	18810
856.729	18791
856.862	18844
856.996	18867
857.13	18882
857.263	18848
857.397	18821
857.53	18783
857.664	18837
857.797	18787
857.931	18894
858.064	18757
858.197	18913
858.331	18745
858.464	18741
858.597	18631
858.731	18608
858.864	18658
858.997	18696
859.13	18642
859.263	18764
859.396	18825
859.529	18658
859.662	18601
859.795	18741
859.928	18639
860.061	18859
860.194	18859
860.327	18821
860.46	18768
860.592	18783
860.725	18821
860.858	18814
860.99	18593
861.123	18574
861.256	18631
861.388	18764
861.521	19575
861.653	18601
861.786	18509
861.918	18585
862.05	18681
862.183	18620
862.315	18753
862.447	18745
862.58	18566
862.712	18513
862.844	18498
862.976	18494
863.108	18452
863.24	18711
863.372	18289
863.504	18407
863.636	18475
863.768	18479
863.9	18437
864.032	18338
864.164	18296
864.296	18357
864.428	18418
864.559	18399
864.691	18452
864.823	18296
864.954	18323
865.086	18361
865.217	18399
865.349	18216
865.48	18319
865.612	18357
865.743	18445
865.875	18346
866.006	18365
866.137	18323
866.269	18384
866.4	18273
866.531	18289
866.662	18266
866.793	18239
866.924	18289
867.055	18270
867.186	18262
867.317	18167
867.448	18182
867.579	18171
867.71	18152
867.841	18330
867.972	18213
868.103	18251
868.233	18308
868.364	18311
868.495	18376
868.625	18528
868.756	18563
868.886	18502
869.017	18490
869.147	18703
869.278	18578
869.408	18350
869.539	18464
869.669	18490
869.799	18551
869.929	18669
870.06	18528
870.19	18753
870.32	18817
870.45	18825
870.58	18890
870.71	19152
870.84	19080
870.97	19000
871.1	18943
871.23	19190
871.36	19076
871.489	18932
871.619	19145
871.749	19168
871.879	19274
872.008	19183
872.138	19107
872.267	19091
872.397	18993
872.526	18901
872.656	18962
872.785	19069
872.915	19282
873.044	19301
873.173	19278
873.303	19255
873.432	19270
873.561	19346
873.69	19297
873.819	19209
873.948	19308
874.077	19285
874.206	19255
874.335	19232
874.464	19533
874.593	19632
874.722	19544
874.851	19742
874.979	19681
875.108	19666
875.237	19529
875.365	19578
875.494	19727
875.623	19719
875.751	19746
875.88	19807
876.008	19936
876.136	20039
876.265	20191
876.393	20282
876.521	20290
876.65	20362
876.778	20195
876.906	20218
877.034	20142
877.162	20256
877.29	20275
877.418	20374
877.546	20324
877.674	20385
877.802	20431
877.93	20689
878.058	20476
878.185	20438
878.313	20838
878.441	20849
878.568	20762
878.696	21077
878.824	21542
878.951	22017
879.079	22451
879.206	23425
879.333	23931
879.461	24597
879.588	25015
879.715	25027
879.842	24943
879.97	23946
880.097	22987
880.224	22451
880.351	22086
880.478	21759
880.605	21534
880.732	21374
880.859	21496
880.986	21260
881.112	21332
881.239	21077
881.366	20902
881.493	20796
881.619	20743
881.746	20788
881.872	20845
881.999	20830
882.125	20724
882.252	20876
882.378	20857
882.505	21104
882.631	20876
882.757	20743
882.883	20826
883.01	20720
883.136	20613
883.262	20412
883.388	20400
883.514	20727
883.64	20640
883.766	20609
883.892	20400
884.018	20511
884.143	20590
884.269	20636
884.395	20431
884.52	20347
884.646	20396
884.772	20221
884.897	20271
885.023	20351
885.148	20374
885.274	20370
885.399	20309
885.524	20210
885.65	20119
885.775	20126
885.9	20100
886.025	20145
886.15	20039
886.275	20039
886.4	19856
886.525	19811
886.65	19780
886.775	19670
886.9	19761
887.025	19906
887.149	19559
887.274	19480
887.399	19415
887.523	19308
887.648	19297
887.773	19160
887.897	19358
888.021	19411
888.146	19152
888.27	19244
888.395	19415
888.519	19156
888.643	19274
888.767	19232
888.891	19012
889.015	19053
889.139	18943
889.263	18932
889.387	18954
889.511	19034
889.635	19023
889.759	18852
889.883	18700
890.006	18791
890.13	18833
890.254	18711
890.377	18604
890.501	18639
890.624	18608
890.748	18578
890.871	18540
890.995	18296
891.118	18243
891.241	18365
891.364	18369
891.488	18426
891.611	18281
891.734	18346
891.857	18262
891.98	18289
892.103	18205
892.226	18254
892.349	18201
892.471	18087
892.594	18182
892.717	18144
892.839	18148
892.962	18072
893.085	18224
893.207	18083
893.33	18114
893.452	18019
893.575	18224
893.697	18087
893.819	18239
893.941	18319
894.064	18285
894.186	17920
894.308	17980
894.43	18152
894.552	18182
894.674	18197
894.796	18038
894.918	17996
895.04	17999
895.161	17973
895.283	18034
895.405	17901
895.526	17946
895.648	17954
895.769	18045
895.891	18019
896.012	18064
896.134	18007
896.255	17965
896.376	17912
896.498	18106
896.619	18098
896.74	18087
896.861	18083
896.982	18319
897.103	18467
897.224	18300
897.345	18350
897.466	18262
897.587	18315
897.708	18346
897.828	18270
897.949	18155
898.07	18098
898.19	18174
898.311	18220
898.431	18144
898.552	18197
898.672	18369
898.792	18243
898.913	18270
899.033	18106
899.153	18045
899.273	17912
899.393	17980
899.513	17977
899.633	17977
899.753	18064
899.873	17863
899.993	18007
900.113	17927
900.232	18045
900.352	17946
900.472	17802
900.591	17729
900.711	17836
900.83	17855
900.95	17885
901.069	17851
901.189	17668
901.308	17608
901.427	17512
901.546	17311
901.665	17436
901.784	17482
901.904	17353
902.023	17200
902.141	16942
902.26	16816
902.379	17018
902.498	16949
902.617	16843
902.735	16896
902.854	16911
902.973	16831
903.091	16512
903.21	16554
903.328	16508
903.446	16462
903.565	16459
903.683	16481
903.801	16310
903.919	16386
904.038	16329
904.156	16185
904.274	16295
904.392	16154
904.51	16166
904.627	16112
904.745	16204
904.863	16207
904.981	15934
905.098	15789
905.216	15778
905.334	15892
905.451	15766
905.569	15766
905.686	15842
905.803	15846
905.921	15572
906.038	15682
906.155	15595
906.272	15523
906.389	15561
906.506	15386
906.623	15416
906.74	15367
906.857	15195
906.974	15249
907.091	15462
907.208	15481
907.324	15336
907.441	15268
907.557	15112
907.674	15043
907.79	15093
907.907	15097
908.023	15077
908.139	14990
908.256	14872
908.372	14914
908.488	14941
908.604	14823
908.72	14686
908.836	14781
908.952	14708
909.068	14758
909.184	14861
909.3	14819
909.415	14910
909.531	14727
909.647	14526
909.762	14438
909.878	14385
909.993	14488
910.108	14499
910.224	14423
910.339	14484
910.454	14324
910.57	14275
910.685	14256
910.8	14537
910.915	14385
911.03	14328
911.145	14153
911.259	14084
911.374	14088
911.489	13997
911.604	14020
911.718	13879
911.833	13955
911.947	13822
912.062	13696
912.176	13791
912.291	13807
912.405	13818
912.519	13993
912.633	14012
912.748	14008
912.862	13731
912.976	13704
913.09	13575
913.204	13712
913.318	13658
913.431	13712
913.545	13643
913.659	13750
913.772	13597
913.886	13609
914	13460
914.113	13537
914.226	13578
914.34	13586
914.453	13415
914.566	13597
914.68	13426
914.793	13388
914.906	13255
915.019	13183
915.132	13149
915.245	13236
915.358	13259
915.47	13236
915.583	13141
915.696	13266
915.809	13259
915.921	13289
916.034	13198
916.146	13122
916.259	13080
916.371	13194
916.483	13084
916.595	13004
916.708	13118
916.82	13050
916.932	12989
917.044	13057
917.156	13099
917.268	12924
917.38	12924
917.491	12920
917.603	12928
917.715	12939
917.826	12973
917.938	12985
918.049	12749
918.161	12962
918.272	12924
918.384	13000
918.495	12920
918.606	12757
918.717	12513
918.828	12711
918.939	12768
919.05	12642
919.161	12673
919.272	12506
919.383	12547
919.494	12696
919.604	12833
919.715	12703
919.826	12597
919.936	12639
920.047	12760
920.157	12589
920.267	12897
920.378	12711
920.488	12688
920.598	12833
920.708	12932
920.818	12825
920.928	12798
921.038	12928
921.148	12924
921.258	12597
921.368	12563
921.477	12471
921.587	12429
921.697	12334
921.806	12429
921.916	12414
922.025	12228
922.134	12072
922.244	11988
922.353	12072
922.462	12003
922.571	11893
922.68	11809
922.789	11714
922.898	11794
923.007	11688
923.116	11729
923.224	11642
923.333	11691
923.442	11619
923.55	11600
923.659	11672
923.767	11672
923.876	11623
923.984	11600
924.092	11509
924.201	11581
924.309	11581
924.417	11551
924.525	11486
924.633	11516
924.741	12205
924.849	11280
924.956	11425
925.064	11364
925.172	11220
925.279	11258
925.387	11356
925.494	11258
925.602	11398
925.709	11273
925.816	11250
925.924	11231
926.031	11315
926.138	11227
926.245	11239
926.352	11128
926.459	11383
926.566	11273
926.673	11105
926.779	11064
926.886	11064
926.993	10869
927.099	10892
927.206	10843
927.312	10850
927.419	10923
927.525	10862
927.631	10999
927.737	10797
927.843	10725
927.95	10626
928.056	10793
928.162	10778
928.267	10744
928.373	11204
928.479	10816
928.585	10618
928.69	10668
928.796	10672
928.901	10569
929.007	10478
929.112	10702
929.218	10584
929.323	10542
929.428	10523
929.533	10622
929.638	10379
929.743	10379
929.848	10459
929.953	10462
930.058	10337
930.163	10303
930.267	10234
930.372	10409
930.477	10185
930.581	10318
930.685	10318
930.79	10082
930.894	10139
930.998	10120
931.103	10253
931.207	9888
931.311	9766
931.415	9774
931.519	9564
931.623	9488
