Data from test_V78500241_924.txt Node
Date: Fri Mar 25 14:40:09 CST 2022
User: usil
Spectrometer: V785-0024
Trigger mode: 0
Integration Time (sec): 4.000000E-1
Scans to average: 1
Nonlinearity correction enabled: false
Boxcar width: 0
Storing dark spectrum: false
XAxis mode: Wavelengths
Number of Pixels in Spectrum: 1024
>>>>>Begin Spectral Data<<<<<
801.071	24692
801.214	24692
801.356	24334
801.499	24254
801.641	24034
801.783	24068
801.926	24106
802.068	24034
802.211	23813
802.353	23836
802.496	23634
802.638	23520
802.78	23585
802.923	23398
803.065	23372
803.208	23414
803.35	23341
803.492	23448
803.635	23440
803.777	23433
803.919	23433
804.061	23710
804.204	23486
804.346	23379
804.488	23258
804.63	23265
804.773	23200
804.915	23368
805.057	23516
805.199	23391
805.341	23474
805.483	23448
805.626	23474
805.768	23269
805.91	23486
806.052	23433
806.194	23349
806.336	23661
806.478	23577
806.62	23471
806.762	23703
806.904	23847
807.046	24262
807.188	24060
807.33	24057
807.472	24140
807.614	24361
807.756	24475
807.898	24475
808.04	24711
808.182	24996
808.324	25274
808.465	25883
808.607	26465
808.749	26864
808.891	27207
809.033	27431
809.174	26792
809.316	26484
809.458	25963
809.6	25613
809.741	25152
809.883	24844
810.025	24787
810.166	24616
810.308	24555
810.45	24479
810.591	24243
810.733	24110
810.875	23988
811.016	23863
811.158	23748
811.299	23942
811.441	23882
811.582	23821
811.724	23718
811.865	23695
812.007	23699
812.148	23691
812.29	23665
812.431	23889
812.573	23999
812.714	24034
812.855	24106
812.997	24239
813.138	24277
813.279	24159
813.421	24057
813.562	24083
813.703	23912
813.845	23832
813.986	23337
814.127	23353
814.268	23292
814.41	23170
814.551	23197
814.692	23147
814.833	23117
814.974	23132
815.115	23041
815.256	22987
815.397	23048
815.539	22934
815.68	22793
815.821	22774
815.962	22919
816.103	22713
816.244	22710
816.385	22713
816.526	22554
816.666	22356
816.807	22291
816.948	22348
817.089	22356
817.23	22379
817.371	22173
817.512	22280
817.653	22166
817.793	22147
817.934	22181
818.075	22234
818.216	22238
818.356	22147
818.497	22025
818.638	21827
818.778	21918
818.919	21964
819.06	21972
819.2	22017
819.341	21994
819.481	22067
819.622	22143
819.762	22546
819.903	22287
820.043	22234
820.184	22200
820.324	22215
820.465	22325
820.605	22257
820.746	22177
820.886	22109
821.026	22055
821.167	22078
821.307	22150
821.447	22070
821.588	21899
821.728	21949
821.868	21728
822.008	21515
822.149	21526
822.289	21492
822.429	21287
822.569	21298
822.709	21047
822.849	21024
822.99	21100
823.13	20800
823.27	20956
823.41	20819
823.55	20807
823.69	20739
823.83	20750
823.97	20697
824.11	20522
824.25	20499
824.389	20625
824.529	20648
824.669	20602
824.809	20621
824.949	20693
825.089	20613
825.228	20636
825.368	20278
825.508	20400
825.648	20461
825.787	20374
825.927	20339
826.067	20366
826.206	20461
826.346	20370
826.485	20267
826.625	20366
826.765	20469
826.904	20301
827.044	20084
827.183	20115
827.323	19921
827.462	19989
827.601	19917
827.741	19951
827.88	20081
828.02	19860
828.159	19940
828.298	19989
828.437	20069
828.577	19986
828.716	20016
828.855	19921
828.994	19666
829.134	19753
829.273	19738
829.412	19666
829.551	19605
829.69	19639
829.829	19769
829.968	19761
830.107	19670
830.246	19712
830.385	19639
830.524	19540
830.663	19472
830.802	19411
830.941	19354
831.08	19304
831.219	19502
831.357	19396
831.496	19480
831.635	19240
831.774	19225
831.913	19156
832.051	19126
832.19	19057
832.329	19095
832.467	19084
832.606	19038
832.744	18989
832.883	18989
833.022	19004
833.16	18973
833.299	18928
833.437	19103
833.576	19133
833.714	19198
833.852	19247
833.991	19232
834.129	19202
834.267	19213
834.406	19187
834.544	19255
834.682	19148
834.821	19156
834.959	19206
835.097	19000
835.235	19046
835.373	18894
835.511	19091
835.65	18943
835.788	18935
835.926	18791
836.064	18654
836.202	18665
836.34	18776
836.478	18867
836.615	18840
836.753	18783
836.891	18913
837.029	18951
837.167	18863
837.305	18753
837.443	18741
837.58	18703
837.718	18753
837.856	18661
837.993	18612
838.131	18779
838.269	18540
838.406	18631
838.544	18513
838.681	18353
838.819	18334
838.956	18228
839.094	18171
839.231	18174
839.369	18258
839.506	18559
839.643	18342
839.781	18292
839.918	18174
840.055	18182
840.193	18213
840.33	18091
840.467	18098
840.604	18174
840.742	18311
840.879	18068
841.016	17977
841.153	18003
841.29	18247
841.427	18087
841.564	18129
841.701	18072
841.838	18072
841.975	17996
842.112	18117
842.249	17946
842.385	17840
842.522	18106
842.659	17969
842.796	17931
842.933	17931
843.069	17912
843.206	17897
843.343	17927
843.479	17889
843.616	17923
843.752	17672
843.889	17585
844.025	17874
844.162	17687
844.298	17828
844.435	17756
844.571	17729
844.708	17832
844.844	18003
844.98	18079
845.117	18015
845.253	18060
845.389	18334
845.525	18654
845.661	19525
845.798	20218
845.934	21108
846.07	21606
846.206	21488
846.342	21051
846.478	19769
846.614	18852
846.75	18174
846.886	17882
847.022	17741
847.158	17566
847.294	17444
847.429	17402
847.565	17288
847.701	17535
847.837	17029
847.972	16824
848.108	17025
848.244	17075
848.379	16835
848.515	16850
848.65	16763
848.786	16812
848.921	16774
849.057	16881
849.192	16869
849.328	16850
849.463	16900
849.598	16771
849.734	16729
849.869	16599
850.004	16599
850.14	16660
850.275	16512
850.41	16462
850.545	16550
850.68	16481
850.815	16512
850.95	16535
851.085	16683
851.22	16538
851.355	16504
851.49	16588
851.625	16558
851.76	16428
851.895	16413
852.03	16242
852.165	16367
852.299	16546
852.434	16554
852.569	16531
852.703	16481
852.838	16634
852.973	16736
853.107	16641
853.242	16459
853.376	16360
853.511	16367
853.645	16382
853.78	16462
853.914	16382
854.048	16363
854.183	16386
854.317	16470
854.451	16577
854.585	16421
854.72	16360
854.854	16443
854.988	16379
855.122	16314
855.256	16265
855.39	16333
855.524	16424
855.658	16409
855.792	16390
855.926	16409
856.06	16314
856.194	16436
856.327	16386
856.461	16390
856.595	16325
856.729	16272
856.862	16382
856.996	16424
857.13	16360
857.263	16440
857.397	16481
857.53	16382
857.664	16314
857.797	16481
857.931	16455
858.064	16318
858.197	16440
858.331	16291
858.464	16272
858.597	16173
858.731	16272
858.864	16234
858.997	16276
859.13	16284
859.263	16333
859.396	16386
859.529	16325
859.662	16204
859.795	16344
859.928	16363
860.061	16516
860.194	16421
860.327	16238
860.46	16356
860.592	16451
860.725	16421
860.858	16455
860.99	16253
861.123	16265
861.256	16238
861.388	16287
861.521	16938
861.653	16230
861.786	16150
861.918	16143
862.05	16325
862.183	16280
862.315	16268
862.447	16348
862.58	16253
862.712	16105
862.844	16051
862.976	16071
863.108	16074
863.24	16512
863.372	15994
863.504	15945
863.636	16036
863.768	16135
863.9	16055
864.032	15884
864.164	15956
864.296	16025
864.428	16078
864.559	16211
864.691	16185
864.823	16128
864.954	15979
865.086	16029
865.217	16040
865.349	16036
865.48	16025
865.612	16040
865.743	16150
865.875	15987
866.006	16055
866.137	16078
866.269	16032
866.4	16021
866.531	15972
866.662	15838
866.793	16074
866.924	15972
867.055	16021
867.186	15983
867.317	15949
867.448	15915
867.579	15907
867.71	15850
867.841	16025
867.972	15972
868.103	16055
868.233	15991
868.364	15899
868.495	16059
868.625	16181
868.756	16443
868.886	16173
869.017	16257
869.147	16268
869.278	16352
869.408	16226
869.539	16268
869.669	16375
869.799	16291
869.929	16310
870.06	16322
870.19	16519
870.32	16451
870.45	16580
870.58	16596
870.71	16630
870.84	16786
870.97	16546
871.1	16558
871.23	16721
871.36	16809
871.489	16698
871.619	16820
871.749	16858
871.879	16824
872.008	16942
872.138	16934
872.267	16843
872.397	16660
872.526	16679
872.656	16649
872.785	16622
872.915	16866
873.044	16881
873.173	16934
873.303	16862
873.432	17025
873.561	16980
873.69	16885
873.819	16828
873.948	16938
874.077	16972
874.206	17033
874.335	16889
874.464	17045
874.593	17292
874.722	17185
874.851	17239
874.979	17185
875.108	17197
875.237	17121
875.365	17166
875.494	17227
875.623	17315
875.751	17239
875.88	17208
876.008	17391
876.136	17463
876.265	17855
876.393	17824
876.521	17741
876.65	17798
876.778	17802
876.906	17737
877.034	17722
877.162	17718
877.29	17535
877.418	17691
877.546	17817
877.674	17832
877.802	17672
877.93	17828
878.058	17802
878.185	17676
878.313	17836
878.441	17999
878.568	17783
878.696	18053
878.824	18243
878.951	18544
879.079	18646
879.206	19050
879.333	19343
879.461	19525
879.588	19704
879.715	19803
879.842	19742
879.97	19289
880.097	18654
880.224	18464
880.351	18281
880.478	18216
880.605	18121
880.732	18057
880.859	18182
880.986	18034
881.112	18045
881.239	17935
881.366	17665
881.493	17585
881.619	17615
881.746	17733
881.872	17615
881.999	17596
882.125	17562
882.252	17642
882.378	17707
882.505	17714
882.631	17474
882.757	17440
882.883	17524
883.01	17459
883.136	17474
883.262	17417
883.388	17337
883.514	17421
883.64	17532
883.766	17368
883.892	17273
884.018	17216
884.143	17463
884.269	17505
884.395	17136
884.52	17094
884.646	17143
884.772	17060
884.897	17075
885.023	17124
885.148	17318
885.274	17242
885.399	17162
885.524	17060
885.65	16987
885.775	17147
885.9	16980
886.025	17159
886.15	17014
886.275	17010
886.4	16934
886.525	16915
886.65	16850
886.775	16877
886.9	17067
887.025	17212
887.149	16839
887.274	16748
887.399	16717
887.523	16599
887.648	16535
887.773	16592
887.897	16713
888.021	16683
888.146	16573
888.27	16634
888.395	16771
888.519	16634
888.643	16675
888.767	16615
888.891	16546
889.015	16348
889.139	16455
889.263	16363
889.387	16436
889.511	16649
889.635	16565
889.759	16306
889.883	16360
890.006	16413
890.13	16512
890.254	16284
890.377	16360
890.501	16147
890.624	16169
890.748	16246
890.871	16090
890.995	15861
891.118	15922
891.241	15945
891.364	15934
891.488	16051
891.611	16044
891.734	15998
891.857	16051
891.98	15964
892.103	16044
892.226	15934
892.349	15854
892.471	15736
892.594	15907
892.717	15865
892.839	15857
892.962	15956
893.085	15827
893.207	15915
893.33	15857
893.452	15895
893.575	15987
893.697	15918
893.819	15956
893.941	16082
894.064	16177
894.186	15816
894.308	15797
894.43	16051
894.552	16067
894.674	16002
894.796	15823
894.918	15949
895.04	15892
895.161	15953
895.283	15876
895.405	15884
895.526	16059
895.648	15998
895.769	15915
895.891	16017
896.012	16063
896.134	15956
896.255	15998
896.376	15945
896.498	16010
896.619	15991
896.74	15979
896.861	16158
896.982	16394
897.103	16497
897.224	16268
897.345	16150
897.466	16246
897.587	16291
897.708	16447
897.828	16337
897.949	16246
898.07	16055
898.19	16261
898.311	16295
898.431	16329
898.552	16284
898.672	16265
898.792	16337
898.913	16440
899.033	16268
899.153	16200
899.273	16116
899.393	16071
899.513	16150
899.633	16211
899.753	16169
899.873	16128
899.993	16272
900.113	16143
900.232	16268
900.352	16181
900.472	16071
900.591	15956
900.711	16044
900.83	15956
900.95	16105
901.069	16219
901.189	15975
901.308	15732
901.427	15591
901.546	15675
901.665	15751
901.784	15576
901.904	15576
902.023	15466
902.141	15306
902.26	15226
902.379	15355
902.498	15287
902.617	15066
902.735	15214
902.854	15195
902.973	15127
903.091	14918
903.21	14910
903.328	14872
903.446	14785
903.565	14689
903.683	14788
903.801	14697
903.919	14629
904.038	14686
904.156	14480
904.274	14545
904.392	14396
904.51	14465
904.627	14476
904.745	14480
904.863	14579
904.981	14309
905.098	14161
905.216	14161
905.334	14210
905.451	14138
905.569	14191
905.686	14259
905.803	14046
905.921	14073
906.038	13959
906.155	13894
906.272	13795
906.389	13841
906.506	13700
906.623	13746
906.74	13655
906.857	13628
906.974	13571
907.091	13704
907.208	13742
907.324	13700
907.441	13582
907.557	13422
907.674	13392
907.79	13316
907.907	13266
908.023	13441
908.139	13426
908.256	13373
908.372	13301
908.488	13240
908.604	13160
908.72	13103
908.836	13110
908.952	13012
909.068	13190
909.184	13221
909.3	13088
909.415	13183
909.531	13107
909.647	12795
909.762	12920
909.878	12886
909.993	12916
910.108	12810
910.224	12821
910.339	12897
910.454	12749
910.57	12681
910.685	12627
910.8	12977
910.915	12867
911.03	12673
911.145	12563
911.259	12551
911.374	12544
911.489	12452
911.604	12426
911.718	12353
911.833	12270
911.947	12243
912.062	12095
912.176	12266
912.291	12300
912.405	12247
912.519	12445
912.633	12509
912.748	12376
912.862	12296
912.976	12220
913.09	12030
913.204	12053
913.318	12079
913.431	12197
913.545	12228
913.659	12175
913.772	12155
913.886	12060
914	11931
914.113	12091
914.226	12144
914.34	12064
914.453	11836
914.566	12068
914.68	11897
914.793	11996
914.906	11668
915.019	11756
915.132	11627
915.245	11726
915.358	11710
915.47	11718
915.583	11707
915.696	11764
915.809	11847
915.921	11828
916.034	11699
916.146	11608
916.259	11592
916.371	11798
916.483	11684
916.595	11554
916.708	11668
916.82	11634
916.932	11570
917.044	11596
917.156	11577
917.268	11566
917.38	11436
917.491	11383
917.603	11471
917.715	11619
917.826	11642
917.938	11440
918.049	11410
918.161	11482
918.272	11623
918.384	11608
918.495	11471
918.606	11360
918.717	11288
918.828	11368
918.939	11330
919.05	11277
919.161	11311
919.272	11075
919.383	11197
919.494	11360
919.604	11554
919.715	11376
919.826	11296
919.936	11379
920.047	11334
920.157	11383
920.267	11524
920.378	11345
920.488	11353
920.598	11520
920.708	11665
920.818	11501
920.928	11417
921.038	11718
921.148	11668
921.258	11433
921.368	11223
921.477	11170
921.587	11197
921.697	10995
921.806	11151
921.916	10972
922.025	10915
922.134	10755
922.244	10805
922.353	10900
922.462	10740
922.571	10683
922.68	10504
922.789	10489
922.898	10481
923.007	10459
923.116	10615
923.224	10493
923.333	10424
923.442	10398
923.55	10344
923.659	10386
923.767	10405
923.876	10352
923.984	10295
924.092	10363
924.201	10379
924.309	10318
924.417	10344
924.525	10268
924.633	10306
924.741	11132
924.849	10097
924.956	10238
925.064	10051
925.172	10082
925.279	10116
925.387	10105
925.494	10109
925.602	10306
925.709	10223
925.816	10067
925.924	10082
926.031	10223
926.138	10074
926.245	10143
926.352	9968
926.459	10158
926.566	10101
926.673	10025
926.779	9930
926.886	9956
926.993	9800
927.099	9804
927.206	9713
927.312	9736
927.419	9827
927.525	9869
927.631	9842
927.737	9759
927.843	9717
927.95	9641
928.056	9648
928.162	9633
928.267	9709
928.373	10325
928.479	9800
928.585	9534
928.69	9633
928.796	9667
928.901	9568
929.007	9477
929.112	9610
929.218	9515
929.323	9542
929.428	9473
929.533	9568
929.638	9424
929.743	9454
929.848	9492
929.953	9454
930.058	9351
930.163	9203
930.267	9169
930.372	9359
930.477	9173
930.581	9462
930.685	9310
930.79	9176
930.894	9180
930.998	9108
931.103	9237
931.207	8880
931.311	8868
931.415	8830
931.519	8629
931.623	8507
