Data from test_V78500241_1133.txt Node
Date: Fri Mar 25 14:41:36 CST 2022
User: usil
Spectrometer: V785-0024
Trigger mode: 0
Integration Time (sec): 4.000000E-1
Scans to average: 1
Nonlinearity correction enabled: false
Boxcar width: 0
Storing dark spectrum: false
XAxis mode: Wavelengths
Number of Pixels in Spectrum: 1024
>>>>>Begin Spectral Data<<<<<
801.071	22592
801.214	22440
801.356	22238
801.499	22070
801.641	22017
801.783	22002
801.926	22021
802.068	21934
802.211	21804
802.353	21686
802.496	21504
802.638	21477
802.78	21317
802.923	21279
803.065	21275
803.208	21256
803.35	21173
803.492	21367
803.635	21488
803.777	21222
803.919	21450
804.061	21671
804.204	21355
804.346	21268
804.488	21146
804.63	21287
804.773	21058
804.915	21344
805.057	21268
805.199	21146
805.341	21272
805.483	21272
805.626	21287
805.768	21230
805.91	21100
806.052	21135
806.194	21146
806.336	21344
806.478	21222
806.62	21169
806.762	21287
806.904	21435
807.046	21530
807.188	21580
807.33	21534
807.472	21564
807.614	21530
807.756	21587
807.898	21389
808.04	21408
808.182	21348
808.324	21405
808.465	21458
808.607	21652
808.749	21846
808.891	21972
809.033	22017
809.174	21918
809.316	21785
809.458	21911
809.6	21675
809.741	21770
809.883	21812
810.025	21857
810.166	21956
810.308	21846
810.45	21739
810.591	21599
810.733	21515
810.875	21443
811.016	21420
811.158	21393
811.299	21568
811.441	21492
811.582	21485
811.724	21488
811.865	21336
812.007	21439
812.148	21477
812.29	21306
812.431	21515
812.573	21762
812.714	21720
812.855	21964
812.997	22070
813.138	22131
813.279	22086
813.421	21876
813.562	21808
813.703	21625
813.845	21454
813.986	21150
814.127	21074
814.268	21036
814.41	21017
814.551	21005
814.692	21043
814.833	20937
814.974	20956
815.115	21020
815.256	20750
815.397	20815
815.539	20708
815.68	20724
815.821	20575
815.962	20724
816.103	20609
816.244	20583
816.385	20438
816.526	20495
816.666	20313
816.807	20244
816.948	20195
817.089	20374
817.23	20248
817.371	20088
817.512	20039
817.653	20168
817.793	20084
817.934	20024
818.075	20176
818.216	20046
818.356	20062
818.497	19909
818.638	19700
818.778	19788
818.919	19712
819.06	19727
819.2	19894
819.341	19902
819.481	19890
819.622	20054
819.762	20275
819.903	20225
820.043	20092
820.184	20103
820.324	20043
820.465	20138
820.605	20031
820.746	20092
820.886	20122
821.026	20005
821.167	20065
821.307	20073
821.447	19902
821.588	19921
821.728	19753
821.868	19586
822.008	19609
822.149	19449
822.289	19415
822.429	19183
822.569	19240
822.709	19244
822.849	19145
822.99	18954
823.13	18882
823.27	19004
823.41	18764
823.55	18738
823.69	18882
823.83	18730
823.97	18806
824.11	18566
824.25	18608
824.389	18711
824.529	18623
824.669	18578
824.809	18631
824.949	18612
825.089	18719
825.228	18513
825.368	18445
825.508	18357
825.648	18350
825.787	18285
825.927	18410
826.067	18216
826.206	18304
826.346	18437
826.485	18372
826.625	18372
826.765	18490
826.904	18433
827.044	18182
827.183	18129
827.323	18068
827.462	18174
827.601	18072
827.741	17992
827.88	18064
828.02	17847
828.159	18072
828.298	18125
828.437	18186
828.577	18076
828.716	18152
828.855	18064
828.994	17783
829.134	17939
829.273	17870
829.412	17764
829.551	17718
829.69	17779
829.829	17809
829.968	17885
830.107	17912
830.246	17817
830.385	17737
830.524	17737
830.663	17695
830.802	17634
830.941	17455
831.08	17383
831.219	17505
831.357	17535
831.496	17687
831.635	17467
831.774	17414
831.913	17341
832.051	17265
832.19	17242
832.329	17345
832.467	17124
832.606	17079
832.744	17067
832.883	17170
833.022	17109
833.16	17178
833.299	17086
833.437	17231
833.576	17197
833.714	17170
833.852	17181
833.991	17181
834.129	17170
834.267	17223
834.406	17193
834.544	17265
834.682	17322
834.821	17121
834.959	17299
835.097	17227
835.235	17364
835.373	17277
835.511	17200
835.65	17235
835.788	17048
835.926	16885
836.064	16908
836.202	16854
836.34	17193
836.478	17185
836.615	17079
836.753	17166
836.891	17330
837.029	17132
837.167	17075
837.305	17033
837.443	17033
837.58	16957
837.718	16961
837.856	16915
837.993	16923
838.131	16904
838.269	16866
838.406	16889
838.544	16820
838.681	16687
838.819	16694
838.956	16497
839.094	16481
839.231	16519
839.369	16706
839.506	16877
839.643	16702
839.781	16508
839.918	16459
840.055	16573
840.193	16535
840.33	16596
840.467	16538
840.604	16641
840.742	16778
840.879	16371
841.016	16325
841.153	16474
841.29	16615
841.427	16538
841.564	16485
841.701	16558
841.838	16508
841.975	16424
842.112	16405
842.249	16303
842.385	16242
842.522	16481
842.659	16284
842.796	16318
842.933	16306
843.069	16284
843.206	16310
843.343	16322
843.479	16314
843.616	16352
843.752	16158
843.889	16185
844.025	16219
844.162	16006
844.298	16181
844.435	15998
844.571	16063
844.708	16143
844.844	16261
844.98	16204
845.117	16158
845.253	16143
845.389	16021
845.525	16120
845.661	16128
845.798	16196
845.934	16185
846.07	16238
846.206	16181
846.342	16249
846.478	16074
846.614	15968
846.75	15682
846.886	15584
847.022	15766
847.158	15770
847.294	15724
847.429	15629
847.565	15599
847.701	15846
847.837	15363
847.972	15348
848.108	15386
848.244	15447
848.379	15310
848.515	15203
848.65	15173
848.786	15283
848.921	15233
849.057	15408
849.192	15431
849.328	15249
849.463	15268
849.598	15199
849.734	15272
849.869	15070
850.004	15074
850.14	15005
850.275	15024
850.41	14876
850.545	14876
850.68	14982
850.815	15062
850.95	15043
851.085	15085
851.22	15142
851.355	15074
851.49	14963
851.625	15005
851.76	14971
851.895	14861
852.03	14971
852.165	14944
852.299	15066
852.434	14982
852.569	14982
852.703	14982
852.838	15036
852.973	15058
853.107	15214
853.242	14990
853.376	14823
853.511	14731
853.645	14796
853.78	14941
853.914	14864
854.048	14807
854.183	14834
854.317	14918
854.451	15081
854.585	14845
854.72	14815
854.854	14910
854.988	14693
855.122	14807
855.256	14689
855.39	14807
855.524	14982
855.658	14944
855.792	14895
855.926	14861
856.06	14929
856.194	14952
856.327	14769
856.461	14819
856.595	14910
856.729	14899
856.862	14975
856.996	14864
857.13	14826
857.263	14933
857.397	14967
857.53	14868
857.664	14914
857.797	14956
857.931	15028
858.064	14883
858.197	14925
858.331	14838
858.464	14849
858.597	14800
858.731	14807
858.864	14765
858.997	14804
859.13	14963
859.263	14880
859.396	15017
859.529	14819
859.662	14800
859.795	14876
859.928	14853
860.061	15062
860.194	15085
860.327	14804
860.46	14853
860.592	15013
860.725	14994
860.858	14944
860.99	14807
861.123	14815
861.256	14800
861.388	14781
861.521	15625
861.653	14842
861.786	14689
861.918	14739
862.05	14758
862.183	14792
862.315	14815
862.447	14811
862.58	14815
862.712	14640
862.844	14533
862.976	14659
863.108	14667
863.24	15074
863.372	14602
863.504	14648
863.636	14651
863.768	14632
863.9	14594
864.032	14492
864.164	14495
864.296	14678
864.428	14785
864.559	14670
864.691	14667
864.823	14720
864.954	14651
865.086	14708
865.217	14552
865.349	14484
865.48	14686
865.612	14606
865.743	14689
865.875	14636
866.006	14644
866.137	14602
866.269	14636
866.4	14621
866.531	14488
866.662	14579
866.793	14457
866.924	14480
867.055	14651
867.186	14587
867.317	14507
867.448	14492
867.579	14522
867.71	14583
867.841	14522
867.972	14564
868.103	14518
868.233	14606
868.364	14564
868.495	14610
868.625	14883
868.756	14921
868.886	14754
869.017	14887
869.147	14891
869.278	15009
869.408	14807
869.539	14727
869.669	14906
869.799	14880
869.929	14941
870.06	15009
870.19	15226
870.32	15104
870.45	15180
870.58	15256
870.71	15424
870.84	15302
870.97	15233
871.1	15142
871.23	15382
871.36	15397
871.489	15367
871.619	15439
871.749	15420
871.879	15351
872.008	15530
872.138	15431
872.267	15393
872.397	15283
872.526	15272
872.656	15351
872.785	15264
872.915	15466
873.044	15576
873.173	15523
873.303	15454
873.432	15519
873.561	15584
873.69	15568
873.819	15564
873.948	15526
874.077	15519
874.206	15557
874.335	15488
874.464	15606
874.593	15690
874.722	15622
874.851	15819
874.979	15766
875.108	15789
875.237	15831
875.365	15717
875.494	15694
875.623	15762
875.751	15785
875.88	15873
876.008	15892
876.136	15964
876.265	16109
876.393	16386
876.521	16272
876.65	16272
876.778	16276
876.906	16211
877.034	16074
877.162	16105
877.29	16185
877.418	16166
877.546	16200
877.674	16185
877.802	16192
877.93	16276
878.058	16325
878.185	16090
878.313	16169
878.441	16322
878.568	16044
878.696	16272
878.824	16257
878.951	16356
879.079	16405
879.206	16538
879.333	16535
879.461	16379
879.588	16481
879.715	16531
879.842	16569
879.97	16428
880.097	16135
880.224	16192
880.351	16147
880.478	16093
880.605	16097
880.732	16128
880.859	16318
880.986	16032
881.112	16090
881.239	15994
881.366	15895
881.493	15869
881.619	15648
881.746	15838
881.872	15778
881.999	15762
882.125	15614
882.252	15831
882.378	15759
882.505	15880
882.631	15755
882.757	15545
882.883	15603
883.01	15614
883.136	15504
883.262	15504
883.388	15378
883.514	15568
883.64	15633
883.766	15584
883.892	15340
884.018	15469
884.143	15477
884.269	15587
884.395	15321
884.52	15256
884.646	15268
884.772	15237
884.897	15249
885.023	15317
885.148	15416
885.274	15526
885.399	15443
885.524	15192
885.65	15306
885.775	15291
885.9	15230
886.025	15401
886.15	15340
886.275	15249
886.4	15127
886.525	15195
886.65	15146
886.775	15184
886.9	15405
887.025	15435
887.149	15226
887.274	15081
887.399	15150
887.523	15032
887.648	14979
887.773	15009
887.897	15116
888.021	15081
888.146	14967
888.27	15093
888.395	15294
888.519	15146
888.643	15112
888.767	15108
888.891	14971
889.015	14868
889.139	14979
889.263	14868
889.387	14994
889.511	15150
889.635	15119
889.759	14876
889.883	14838
890.006	14868
890.13	14979
890.254	14823
890.377	14842
890.501	14697
890.624	14697
890.748	14792
890.871	14617
890.995	14476
891.118	14495
891.241	14560
891.364	14590
891.488	14697
891.611	14655
891.734	14610
891.857	14636
891.98	14606
892.103	14674
892.226	14693
892.349	14556
892.471	14404
892.594	14537
892.717	14537
892.839	14613
892.962	14564
893.085	14655
893.207	14610
893.33	14499
893.452	14507
893.575	14613
893.697	14564
893.819	14792
893.941	14781
894.064	14773
894.186	14507
894.308	14598
894.43	14716
894.552	14891
894.674	14613
894.796	14568
894.918	14549
895.04	14659
895.161	14830
895.283	14682
895.405	14613
895.526	14640
895.648	14640
895.769	14682
895.891	14743
896.012	14735
896.134	14762
896.255	14678
896.376	14701
896.498	14743
896.619	14826
896.74	14773
896.861	14891
896.982	15066
897.103	15291
897.224	15039
897.345	14933
897.466	14842
897.587	15039
897.708	15150
897.828	15123
897.949	14918
898.07	14891
898.19	14941
898.311	15192
898.431	15047
898.552	15077
898.672	15161
898.792	15165
898.913	15161
899.033	14960
899.153	14948
899.273	14811
899.393	14861
899.513	14895
899.633	14849
899.753	14963
899.873	14925
899.993	14914
900.113	14944
900.232	14883
900.352	14971
900.472	14880
900.591	14746
900.711	14857
900.83	14777
900.95	14872
901.069	14880
901.189	14811
901.308	14526
901.427	14419
901.546	14351
901.665	14499
901.784	14377
901.904	14313
902.023	14210
902.141	14084
902.26	14050
902.379	14077
902.498	13947
902.617	13955
902.735	13944
902.854	13955
902.973	13963
903.091	13700
903.21	13685
903.328	13757
903.446	13643
903.565	13556
903.683	13636
903.801	13464
903.919	13628
904.038	13540
904.156	13244
904.274	13499
904.392	13384
904.51	13384
904.627	13362
904.745	13457
904.863	13426
904.981	13171
905.098	13012
905.216	13061
905.334	13088
905.451	13034
905.569	13091
905.686	13129
905.803	13091
905.921	12856
906.038	13004
906.155	12924
906.272	12814
906.389	12760
906.506	12677
906.623	12669
906.74	12639
906.857	12479
906.974	12593
907.091	12707
907.208	12779
907.324	12703
907.441	12593
907.557	12517
907.674	12448
907.79	12369
907.907	12395
908.023	12380
908.139	12414
908.256	12388
908.372	12372
908.488	12289
908.604	12186
908.72	12129
908.836	12026
908.952	12171
909.068	12182
909.184	12228
909.3	12121
909.415	12186
909.531	12243
909.647	11920
909.762	11973
909.878	11832
909.993	11893
910.108	11950
910.224	11897
910.339	11916
910.454	11870
910.57	11764
910.685	11680
910.8	11977
910.915	11901
911.03	11783
911.145	11623
911.259	11668
911.374	11615
911.489	11627
911.604	11497
911.718	11368
911.833	11360
911.947	11288
912.062	11174
912.176	11376
912.291	11406
912.405	11364
912.519	11543
912.633	11573
912.748	11455
912.862	11379
912.976	11090
913.09	11064
913.204	11235
913.318	11280
913.431	11307
913.545	11315
913.659	11284
913.772	11303
913.886	11083
914	11098
914.113	11212
914.226	11261
914.34	11140
914.453	11056
914.566	11174
914.68	11010
914.793	11045
914.906	10873
915.019	10831
915.132	10763
915.245	10839
915.358	10923
915.47	10858
915.583	10759
915.696	10873
915.809	11003
915.921	11018
916.034	10854
916.146	10744
916.259	10782
916.371	10854
916.483	10862
916.595	10755
916.708	10774
916.82	10831
916.932	10736
917.044	10763
917.156	10805
917.268	10527
917.38	10694
917.491	10607
917.603	10675
917.715	10782
917.826	10786
917.938	10626
918.049	10459
918.161	10649
918.272	10824
918.384	10877
918.495	10672
918.606	10538
918.717	10527
918.828	10615
918.939	10588
919.05	10424
919.161	10546
919.272	10314
919.383	10375
919.494	10637
919.604	10683
919.715	10577
919.826	10424
919.936	10512
920.047	10573
920.157	10489
920.267	10736
920.378	10592
920.488	10561
920.598	10706
920.708	10877
920.818	10691
920.928	10725
921.038	10919
921.148	10873
921.258	10538
921.368	10550
921.477	10363
921.587	10405
921.697	10196
921.806	10386
921.916	10219
922.025	10169
922.134	10090
922.244	10017
922.353	10147
922.462	9934
922.571	9937
922.68	9774
922.789	9808
922.898	9827
923.007	9747
923.116	9808
923.224	9762
923.333	9709
923.442	9751
923.55	9633
923.659	9637
923.767	9751
923.876	9618
923.984	9755
924.092	9545
924.201	9648
924.309	9629
924.417	9622
924.525	9599
924.633	9618
924.741	10325
924.849	9382
924.956	9553
925.064	9408
925.172	9306
925.279	9386
925.387	9408
925.494	9469
925.602	9549
925.709	9431
925.816	9351
925.924	9450
926.031	9504
926.138	9325
926.245	9481
926.352	9329
926.459	9477
926.566	9526
926.673	9367
926.779	9264
926.886	9241
926.993	9203
927.099	9123
927.206	9081
927.312	9104
927.419	9211
927.525	9138
927.631	9119
927.737	9070
927.843	9047
927.95	8921
928.056	8971
928.162	8975
928.267	9066
928.373	9667
928.479	9142
928.585	8842
928.69	8963
928.796	9036
928.901	8967
929.007	8811
929.112	8914
929.218	8899
929.323	8861
929.428	8788
929.533	8929
929.638	8689
929.743	8842
929.848	8861
929.953	8853
930.058	8731
930.163	8629
930.267	8598
930.372	8796
930.477	8549
930.581	8766
930.685	8598
930.79	8560
930.894	8545
930.998	8530
931.103	8655
931.207	8244
931.311	8298
931.415	8199
931.519	8027
931.623	8016
