Data from test_V78500241_1197.txt Node
Date: Fri Mar 25 14:42:03 CST 2022
User: usil
Spectrometer: V785-0024
Trigger mode: 0
Integration Time (sec): 4.000000E-1
Scans to average: 1
Nonlinearity correction enabled: false
Boxcar width: 0
Storing dark spectrum: false
XAxis mode: Wavelengths
Number of Pixels in Spectrum: 1024
>>>>>Begin Spectral Data<<<<<
801.071	22508
801.214	22253
801.356	22147
801.499	22013
801.641	21785
801.783	21842
801.926	21857
802.068	21751
802.211	21614
802.353	21599
802.496	21370
802.638	21237
802.78	21329
802.923	21203
803.065	21154
803.208	21077
803.35	21089
803.492	21245
803.635	21279
803.777	21017
803.919	21222
804.061	21435
804.204	21195
804.346	21150
804.488	20994
804.63	20918
804.773	21024
804.915	21127
805.057	21203
805.199	21081
805.341	21180
805.483	21279
805.626	21157
805.768	20952
805.91	20990
806.052	21138
806.194	21001
806.336	21154
806.478	21005
806.62	20944
806.762	21135
806.904	21241
807.046	21507
807.188	21302
807.33	21397
807.472	21462
807.614	21321
807.756	21504
807.898	21245
808.04	21203
808.182	21142
808.324	21188
808.465	21336
808.607	21397
808.749	21542
808.891	21660
809.033	21690
809.174	21701
809.316	21469
809.458	21477
809.6	21496
809.741	21591
809.883	21603
810.025	21614
810.166	21633
810.308	21663
810.45	21557
810.591	21397
810.733	21386
810.875	21298
811.016	21249
811.158	21184
811.299	21519
811.441	21306
811.582	21389
811.724	21252
811.865	21279
812.007	21287
812.148	21283
812.29	21313
812.431	21275
812.573	21576
812.714	21660
812.855	21732
812.997	21819
813.138	21937
813.279	21854
813.421	21698
813.562	21766
813.703	21595
813.845	21412
813.986	21157
814.127	21024
814.268	20880
814.41	20895
814.551	20762
814.692	20872
814.833	20735
814.974	20606
815.115	20705
815.256	20648
815.397	20606
815.539	20564
815.68	20579
815.821	20396
815.962	20568
816.103	20480
816.244	20347
816.385	20305
816.526	20263
816.666	20096
816.807	20058
816.948	20020
817.089	20084
817.23	19970
817.371	19959
817.512	19947
817.653	19974
817.793	19871
817.934	19803
818.075	19879
818.216	19970
818.356	19879
818.497	19746
818.638	19594
818.778	19674
818.919	19734
819.06	19784
819.2	19879
819.341	19997
819.481	19845
819.622	19993
819.762	20180
819.903	20092
820.043	20020
820.184	20031
820.324	19898
820.465	19978
820.605	19997
820.746	19860
820.886	19871
821.026	19959
821.167	19955
821.307	19989
821.447	19849
821.588	19799
821.728	19635
821.868	19518
822.008	19259
822.149	19403
822.289	19441
822.429	18970
822.569	19034
822.709	19038
822.849	18833
822.99	18829
823.13	18875
823.27	18738
823.41	18661
823.55	18559
823.69	18627
823.83	18642
823.97	18563
824.11	18429
824.25	18528
824.389	18452
824.529	18513
824.669	18452
824.809	18517
824.949	18460
825.089	18601
825.228	18479
825.368	18281
825.508	18205
825.648	18144
825.787	18235
825.927	18258
826.067	18079
826.206	18190
826.346	18281
826.485	18292
826.625	18041
826.765	18308
826.904	18273
827.044	18011
827.183	17946
827.323	17901
827.462	18060
827.601	17874
827.741	17855
827.88	17954
828.02	17726
828.159	17889
828.298	17958
828.437	17950
828.577	17866
828.716	18064
828.855	17836
828.994	17630
829.134	17680
829.273	17684
829.412	17642
829.551	17687
829.69	17657
829.829	17627
829.968	17752
830.107	17596
830.246	17585
830.385	17619
830.524	17577
830.663	17516
830.802	17299
830.941	17322
831.08	17166
831.219	17315
831.357	17296
831.496	17482
831.635	17296
831.774	17330
831.913	17193
832.051	17113
832.19	17086
832.329	17079
832.467	16980
832.606	16942
832.744	16923
832.883	16987
833.022	16953
833.16	17014
833.299	17048
833.437	16953
833.576	17003
833.714	17014
833.852	17086
833.991	17109
834.129	17086
834.267	17143
834.406	17033
834.544	17033
834.682	17090
834.821	17090
834.959	17178
835.097	16889
835.235	17045
835.373	17025
835.511	17025
835.65	16930
835.788	16908
835.926	16820
836.064	16801
836.202	16805
836.34	16953
836.478	16946
836.615	16942
836.753	17003
836.891	17075
837.029	16968
837.167	16816
837.305	16854
837.443	16900
837.58	16748
837.718	16995
837.856	16839
837.993	16725
838.131	16801
838.269	16683
838.406	16824
838.544	16675
838.681	16538
838.819	16451
838.956	16287
839.094	16322
839.231	16386
839.369	16409
839.506	16778
839.643	16698
839.781	16394
839.918	16367
840.055	16363
840.193	16325
840.33	16409
840.467	16299
840.604	16375
840.742	16519
840.879	16265
841.016	16238
841.153	16253
841.29	16455
841.427	16382
841.564	16424
841.701	16337
841.838	16325
841.975	16265
842.112	16238
842.249	16131
842.385	16192
842.522	16303
842.659	16166
842.796	16169
842.933	16101
843.069	16059
843.206	16169
843.343	16242
843.479	16207
843.616	16147
843.752	15949
843.889	15926
844.025	16067
844.162	15926
844.298	16010
844.435	15926
844.571	15907
844.708	15994
844.844	16017
844.98	16086
845.117	15975
845.253	15850
845.389	15911
845.525	15918
845.661	15846
845.798	15774
845.934	15892
846.07	15785
846.206	15838
846.342	15869
846.478	15770
846.614	15591
846.75	15481
846.886	15439
847.022	15603
847.158	15469
847.294	15515
847.429	15584
847.565	15428
847.701	15713
847.837	15226
847.972	15272
848.108	15348
848.244	15283
848.379	15127
848.515	15127
848.65	15123
848.786	15066
848.921	15047
849.057	15256
849.192	15150
849.328	15230
849.463	15176
849.598	15020
849.734	15020
849.869	14929
850.004	14868
850.14	14880
850.275	14792
850.41	14792
850.545	14811
850.68	14826
850.815	14785
850.95	14834
851.085	15036
851.22	14982
851.355	14918
851.49	14777
851.625	14796
851.76	14857
851.895	14842
852.03	14727
852.165	14842
852.299	14868
852.434	14937
852.569	14857
852.703	14785
852.838	14956
852.973	15032
853.107	15009
853.242	14895
853.376	14712
853.511	14564
853.645	14743
853.78	14857
853.914	14765
854.048	14769
854.183	14636
854.317	14636
854.451	14845
854.585	14674
854.72	14785
854.854	14777
854.988	14594
855.122	14739
855.256	14674
855.39	14750
855.524	14918
855.658	14746
855.792	14651
855.926	14693
856.06	14754
856.194	14880
856.327	14746
856.461	14708
856.595	14659
856.729	14781
856.862	14819
856.996	14686
857.13	14895
857.263	14849
857.397	14804
857.53	14754
857.664	14758
857.797	14716
857.931	14880
858.064	14792
858.197	14796
858.331	14693
858.464	14613
858.597	14632
858.731	14746
858.864	14689
858.997	14781
859.13	14663
859.263	14823
859.396	14765
859.529	14724
859.662	14693
859.795	14659
859.928	14682
860.061	14796
860.194	14952
860.327	14750
860.46	14716
860.592	14853
860.725	14777
860.858	14796
860.99	14674
861.123	14667
861.256	14625
861.388	14739
861.521	15545
861.653	14648
861.786	14568
861.918	14632
862.05	14632
862.183	14663
862.315	14796
862.447	14735
862.58	14670
862.712	14564
862.844	14336
862.976	14537
863.108	14549
863.24	14990
863.372	14400
863.504	14434
863.636	14442
863.768	14602
863.9	14552
864.032	14492
864.164	14469
864.296	14560
864.428	14568
864.559	14636
864.691	14587
864.823	14575
864.954	14579
865.086	14431
865.217	14427
865.349	14434
865.48	14495
865.612	14568
865.743	14598
865.875	14537
866.006	14507
866.137	14499
866.269	14484
866.4	14469
866.531	14476
866.662	14389
866.793	14358
866.924	14412
867.055	14381
867.186	14389
867.317	14313
867.448	14381
867.579	14358
867.71	14427
867.841	14336
867.972	14514
868.103	14450
868.233	14381
868.364	14488
868.495	14575
868.625	14674
868.756	14834
868.886	14583
869.017	14720
869.147	14754
869.278	14838
869.408	14701
869.539	14651
869.669	14765
869.799	14830
869.929	14830
870.06	14823
870.19	14982
870.32	14982
870.45	14902
870.58	15093
870.71	15169
870.84	15268
870.97	15256
871.1	15066
871.23	15313
871.36	15306
871.489	15165
871.619	15211
871.749	15283
871.879	15329
872.008	15443
872.138	15268
872.267	15150
872.397	15207
872.526	15138
872.656	15055
872.785	15150
872.915	15245
873.044	15389
873.173	15359
873.303	15412
873.432	15370
873.561	15443
873.69	15393
873.819	15359
873.948	15450
874.077	15310
874.206	15268
874.335	15458
874.464	15504
874.593	15660
874.722	15572
874.851	15667
874.979	15641
875.108	15743
875.237	15625
875.365	15584
875.494	15717
875.623	15690
875.751	15694
875.88	15705
876.008	15797
876.136	15945
876.265	16139
876.393	16177
876.521	16185
876.65	16207
876.778	16059
876.906	16055
877.034	15991
877.162	15983
877.29	15991
877.418	16048
877.546	16131
877.674	16059
877.802	15964
877.93	16169
878.058	16101
878.185	16048
878.313	15994
878.441	16002
878.568	15979
878.696	15983
878.824	16139
878.951	16101
879.079	16291
879.206	16398
879.333	16272
879.461	16223
879.588	16131
879.715	16299
879.842	16481
879.97	16173
880.097	15979
880.224	15945
880.351	15892
880.478	15968
880.605	15899
880.732	15972
880.859	16154
880.986	15930
881.112	15941
881.239	15812
881.366	15663
881.493	15599
881.619	15584
881.746	15618
881.872	15587
881.999	15648
882.125	15549
882.252	15682
882.378	15553
882.505	15762
882.631	15622
882.757	15420
882.883	15584
883.01	15386
883.136	15344
883.262	15268
883.388	15291
883.514	15367
883.64	15466
883.766	15374
883.892	15241
884.018	15279
884.143	15393
884.269	15447
884.395	15173
884.52	15028
884.646	15169
884.772	14994
884.897	15017
885.023	15173
885.148	15222
885.274	15256
885.399	15211
885.524	15135
885.65	15127
885.775	15089
885.9	15123
886.025	15157
886.15	15173
886.275	14963
886.4	14986
886.525	14971
886.65	15032
886.775	15135
886.9	15199
887.025	15256
887.149	15051
887.274	14929
887.399	14880
887.523	14830
887.648	14864
887.773	14842
887.897	14960
888.021	14899
888.146	14887
888.27	14906
888.395	15024
888.519	14941
888.643	15036
888.767	14982
888.891	14868
889.015	14765
889.139	14727
889.263	14731
889.387	14902
889.511	14967
889.635	14960
889.759	14815
889.883	14800
890.006	14773
890.13	14887
890.254	14735
890.377	14712
890.501	14568
890.624	14552
890.748	14705
890.871	14651
890.995	14457
891.118	14377
891.241	14526
891.364	14408
891.488	14560
891.611	14556
891.734	14480
891.857	14377
891.98	14457
892.103	14503
892.226	14579
892.349	14389
892.471	14294
892.594	14408
892.717	14514
892.839	14434
892.962	14404
893.085	14488
893.207	14522
893.33	14393
893.452	14385
893.575	14568
893.697	14438
893.819	14625
893.941	14724
894.064	14651
894.186	14457
894.308	14457
894.43	14610
894.552	14636
894.674	14621
894.796	14423
894.918	14434
895.04	14514
895.161	14579
895.283	14484
895.405	14438
895.526	14541
895.648	14560
895.769	14598
895.891	14564
896.012	14648
896.134	14651
896.255	14640
896.376	14598
896.498	14648
896.619	14705
896.74	14640
896.861	14712
896.982	14933
897.103	15138
897.224	14956
897.345	14762
897.466	14796
897.587	14857
897.708	14975
897.828	14899
897.949	14800
898.07	14777
898.19	14849
898.311	15127
898.431	14861
898.552	15077
898.672	15039
898.792	14998
898.913	15043
899.033	14868
899.153	14849
899.273	14754
899.393	14853
899.513	14895
899.633	14857
899.753	14853
899.873	14876
899.993	15028
900.113	14800
900.232	14815
900.352	14781
900.472	14648
900.591	14720
900.711	14739
900.83	14651
900.95	14765
901.069	14785
901.189	14663
901.308	14427
901.427	14248
901.546	14278
901.665	14412
901.784	14370
901.904	14271
902.023	14145
902.141	14054
902.26	13978
902.379	13986
902.498	13898
902.617	13845
902.735	13917
902.854	13887
902.973	13841
903.091	13674
903.21	13575
903.328	13681
903.446	13586
903.565	13510
903.683	13571
903.801	13320
903.919	13449
904.038	13403
904.156	13350
904.274	13282
904.392	13164
904.51	13282
904.627	13240
904.745	13293
904.863	13335
904.981	12973
905.098	12996
905.216	12966
905.334	12954
905.451	13027
905.569	12935
905.686	12958
905.803	12954
905.921	12817
906.038	12909
906.155	12848
906.272	12741
906.389	12722
906.506	12578
906.623	12479
906.74	12604
906.857	12426
906.974	12479
907.091	12616
907.208	12700
907.324	12688
907.441	12506
907.557	12292
907.674	12338
907.79	12209
907.907	12251
908.023	12342
908.139	12395
908.256	12296
908.372	12194
908.488	12072
908.604	12114
908.72	11984
908.836	12159
908.952	12095
909.068	12102
909.184	12300
909.3	12125
909.415	12205
909.531	12011
909.647	11783
909.762	11859
909.878	11817
909.993	11775
910.108	11824
910.224	11817
910.339	11908
910.454	11684
910.57	11703
910.685	11638
910.8	11927
910.915	11870
911.03	11688
911.145	11532
911.259	11566
911.374	11459
911.489	11452
911.604	11433
911.718	11273
911.833	11307
911.947	11246
912.062	11064
912.176	11292
912.291	11292
912.405	11299
912.519	11512
912.633	11406
912.748	11326
912.862	11318
912.976	11136
913.09	11071
913.204	11090
913.318	11060
913.431	11208
913.545	11239
913.659	11239
913.772	11105
913.886	11060
914	11048
914.113	11159
914.226	11105
914.34	11090
914.453	10980
914.566	11006
914.68	10965
914.793	10957
914.906	10714
915.019	10729
915.132	10634
915.245	10683
915.358	10786
915.47	10733
915.583	10698
915.696	10862
915.809	10930
915.921	10896
916.034	10736
916.146	10729
916.259	10641
916.371	10763
916.483	10892
916.595	10786
916.708	10755
916.82	10706
916.932	10702
917.044	10641
917.156	10664
917.268	10592
917.38	10565
917.491	10500
917.603	10618
917.715	10698
917.826	10706
917.938	10554
918.049	10428
918.161	10611
918.272	10683
918.384	10763
918.495	10565
918.606	10432
918.717	10386
918.828	10538
918.939	10470
919.05	10348
919.161	10459
919.272	10272
919.383	10280
919.494	10542
919.604	10672
919.715	10478
919.826	10363
919.936	10382
920.047	10512
920.157	10565
920.267	10653
920.378	10569
920.488	10478
920.598	10679
920.708	10793
920.818	10714
920.928	10668
921.038	10835
921.148	10725
921.258	10577
921.368	10413
921.477	10329
921.587	10303
921.697	10177
921.806	10360
921.916	10200
922.025	10074
922.134	9975
922.244	9975
922.353	10071
922.462	9918
922.571	9740
922.68	9736
922.789	9694
922.898	9728
923.007	9648
923.116	9732
923.224	9701
923.333	9663
923.442	9603
923.55	9572
923.659	9652
923.767	9709
923.876	9557
923.984	9564
924.092	9519
924.201	9568
924.309	9450
924.417	9576
924.525	9511
924.633	9485
924.741	10261
924.849	9359
924.956	9481
925.064	9382
925.172	9203
925.279	9302
925.387	9321
925.494	9370
925.602	9523
925.709	9435
925.816	9336
925.924	9382
926.031	9382
926.138	9363
926.245	9374
926.352	9283
926.459	9401
926.566	9428
926.673	9260
926.779	9233
926.886	9127
926.993	9070
927.099	8956
927.206	9024
927.312	9051
927.419	9081
927.525	9108
927.631	9077
927.737	8990
927.843	8982
927.95	8773
928.056	8899
928.162	8960
928.267	8986
928.373	9557
928.479	9051
928.585	8746
928.69	8910
928.796	9001
928.901	8872
929.007	8678
929.112	8815
929.218	8876
929.323	8769
929.428	8739
929.533	8929
929.638	8731
929.743	8689
929.848	8758
929.953	8769
930.058	8655
930.163	8545
930.267	8568
930.372	8678
930.477	8518
930.581	8762
930.685	8594
930.79	8442
930.894	8522
930.998	8473
931.103	8621
931.207	8237
931.311	8187
931.415	8134
931.519	7978
931.623	7993
