Data from test_V78500241_2140.txt Node
Date: Fri Mar 25 14:48:36 CST 2022
User: usil
Spectrometer: V785-0024
Trigger mode: 0
Integration Time (sec): 4.000000E-1
Scans to average: 1
Nonlinearity correction enabled: false
Boxcar width: 0
Storing dark spectrum: false
XAxis mode: Wavelengths
Number of Pixels in Spectrum: 1024
>>>>>Begin Spectral Data<<<<<
801.071	22139
801.214	22067
801.356	21778
801.499	21755
801.641	21572
801.783	21485
801.926	21481
802.068	21485
802.211	21450
802.353	21291
802.496	21127
802.638	21017
802.78	20979
802.923	20864
803.065	20872
803.208	20796
803.35	20918
803.492	20960
803.635	21047
803.777	20872
803.919	20960
804.061	21184
804.204	21013
804.346	20986
804.488	20701
804.63	20830
804.773	20773
804.915	20765
805.057	20823
805.199	20746
805.341	20804
805.483	20891
805.626	20750
805.768	20689
805.91	20682
806.052	20872
806.194	20823
806.336	20963
806.478	20777
806.62	20762
806.762	20880
806.904	20963
807.046	21173
807.188	21184
807.33	21096
807.472	21199
807.614	21005
807.756	21074
807.898	20849
808.04	20819
808.182	20925
808.324	20819
808.465	20971
808.607	21013
808.749	21123
808.891	21313
809.033	21401
809.174	21325
809.316	21032
809.458	21112
809.6	21119
809.741	21245
809.883	21340
810.025	21367
810.166	21306
810.308	21374
810.45	21256
810.591	21062
810.733	21005
810.875	20979
811.016	20781
811.158	20883
811.299	20830
811.441	21077
811.582	21119
811.724	20765
811.865	20902
812.007	20937
812.148	21005
812.29	21001
812.431	21173
812.573	21233
812.714	21252
812.855	21488
812.997	21488
813.138	21568
813.279	21545
813.421	21526
813.562	21294
813.703	21370
813.845	21093
813.986	20857
814.127	20568
814.268	20594
814.41	20636
814.551	20507
814.692	20434
814.833	20366
814.974	20499
815.115	20412
815.256	20229
815.397	20305
815.539	20305
815.68	20149
815.821	20164
815.962	20309
816.103	20153
816.244	20024
816.385	19936
816.526	19875
816.666	19788
816.807	19750
816.948	19662
817.089	19845
817.23	19628
817.371	19674
817.512	19674
817.653	19662
817.793	19635
817.934	19548
818.075	19502
818.216	19563
818.356	19537
818.497	19552
818.638	19312
818.778	19320
818.919	19316
819.06	19400
819.2	19407
819.341	19422
819.481	19480
819.622	19696
819.762	19776
819.903	19734
820.043	19693
820.184	19594
820.324	19544
820.465	19662
820.605	19502
820.746	19609
820.886	19457
821.026	19696
821.167	19575
821.307	19609
821.447	19407
821.588	19358
821.728	19251
821.868	19240
822.008	19004
822.149	19091
822.289	18966
822.429	18772
822.569	18658
822.709	18844
822.849	18502
822.99	18540
823.13	18486
823.27	18350
823.41	18399
823.55	18258
823.69	18403
823.83	18380
823.97	18289
824.11	18171
824.25	18106
824.389	18152
824.529	18205
824.669	18152
824.809	18144
824.949	18308
825.089	18125
825.228	18121
825.368	17912
825.508	17878
825.648	17859
825.787	17870
825.927	17931
826.067	17748
826.206	17805
826.346	17840
826.485	17836
826.625	17843
826.765	17939
826.904	17813
827.044	17638
827.183	17535
827.323	17429
827.462	17638
827.601	17554
827.741	17516
827.88	17528
828.02	17364
828.159	17516
828.298	17589
828.437	17710
828.577	17554
828.716	17676
828.855	17532
828.994	17368
829.134	17349
829.273	17379
829.412	17337
829.551	17296
829.69	17200
829.829	17379
829.968	17379
830.107	17356
830.246	17417
830.385	17189
830.524	17208
830.663	17025
830.802	17025
830.941	17018
831.08	16877
831.219	17018
831.357	16919
831.496	17086
831.635	16869
831.774	16828
831.913	16809
832.051	16675
832.19	16721
832.329	16854
832.467	16672
832.606	16679
832.744	16546
832.883	16538
833.022	16588
833.16	16641
833.299	16664
833.437	16725
833.576	16615
833.714	16603
833.852	16607
833.991	16740
834.129	16809
834.267	16687
834.406	16691
834.544	16793
834.682	16596
834.821	16672
834.959	16797
835.097	16634
835.235	16752
835.373	16752
835.511	16710
835.65	16550
835.788	16580
835.926	16428
836.064	16375
836.202	16379
836.34	16687
836.478	16672
836.615	16565
836.753	16554
836.891	16736
837.029	16607
837.167	16596
837.305	16577
837.443	16386
837.58	16402
837.718	16394
837.856	16500
837.993	16367
838.131	16462
838.269	16341
838.406	16337
838.544	16303
838.681	16124
838.819	16158
838.956	16082
839.094	15975
839.231	16006
839.369	16185
839.506	16276
839.643	16211
839.781	15934
839.918	15987
840.055	15964
840.193	15994
840.33	15975
840.467	16013
840.604	16055
840.742	16211
840.879	15865
841.016	15918
841.153	15808
841.29	16101
841.427	16017
841.564	15975
841.701	16044
841.838	15979
841.975	15915
842.112	15949
842.249	15823
842.385	15698
842.522	15956
842.659	15850
842.796	15774
842.933	15835
843.069	15781
843.206	15713
843.343	15876
843.479	15736
843.616	15800
843.752	15599
843.889	15606
844.025	15690
844.162	15549
844.298	15682
844.435	15526
844.571	15549
844.708	15523
844.844	15728
844.98	15713
845.117	15759
845.253	15625
845.389	15431
845.525	15507
845.661	15458
845.798	15344
845.934	15408
846.07	15389
846.206	15329
846.342	15431
846.478	15325
846.614	15150
846.75	15039
846.886	15195
847.022	15302
847.158	15112
847.294	15142
847.429	15146
847.565	15161
847.701	15264
847.837	14842
847.972	14902
848.108	14948
848.244	14857
848.379	14724
848.515	14720
848.65	14697
848.786	14743
848.921	14670
849.057	14853
849.192	14826
849.328	14792
849.463	14762
849.598	14720
849.734	14617
849.869	14503
850.004	14503
850.14	14507
850.275	14465
850.41	14393
850.545	14396
850.68	14393
850.815	14431
850.95	14473
851.085	14674
851.22	14606
851.355	14454
851.49	14511
851.625	14438
851.76	14473
851.895	14385
852.03	14412
852.165	14476
852.299	14499
852.434	14606
852.569	14488
852.703	14556
852.838	14556
852.973	14602
853.107	14667
853.242	14419
853.376	14351
853.511	14282
853.645	14336
853.78	14545
853.914	14396
854.048	14347
854.183	14427
854.317	14442
854.451	14492
854.585	14320
854.72	14286
854.854	14499
854.988	14210
855.122	14366
855.256	14229
855.39	14358
855.524	14434
855.658	14355
855.792	14339
855.926	14366
856.06	14480
856.194	14385
856.327	14301
856.461	14355
856.595	14381
856.729	14431
856.862	14499
856.996	14328
857.13	14434
857.263	14568
857.397	14495
857.53	14370
857.664	14412
857.797	14431
857.931	14484
858.064	14320
858.197	14457
858.331	14374
858.464	14366
858.597	14294
858.731	14362
858.864	14313
858.997	14317
859.13	14446
859.263	14358
859.396	14484
859.529	14263
859.662	14309
859.795	14290
859.928	14423
860.061	14465
860.194	14606
860.327	14419
860.46	14339
860.592	14450
860.725	14514
860.858	14393
860.99	14461
861.123	14362
861.256	14286
861.388	14370
861.521	14990
861.653	14298
861.786	14157
861.918	14206
862.05	14294
862.183	14358
862.315	14271
862.447	14366
862.58	14313
862.712	14244
862.844	14126
862.976	14172
863.108	14206
863.24	14465
863.372	14039
863.504	14100
863.636	14115
863.768	14225
863.9	14259
864.032	14134
864.164	14065
864.296	14172
864.428	14278
864.559	14221
864.691	14377
864.823	14244
864.954	14248
865.086	14275
865.217	14180
865.349	14107
865.48	14210
865.612	14161
865.743	14446
865.875	14202
866.006	14191
866.137	14077
866.269	14202
866.4	14134
866.531	14161
866.662	14145
866.793	14168
866.924	14172
867.055	14111
867.186	14210
867.317	14119
867.448	14046
867.579	14134
867.71	14092
867.841	14001
867.972	14206
868.103	14164
868.233	14206
868.364	14210
868.495	14237
868.625	14396
868.756	14465
868.886	14336
869.017	14499
869.147	14495
869.278	14484
869.408	14431
869.539	14454
869.669	14514
869.799	14476
869.929	14518
870.06	14610
870.19	14769
870.32	14686
870.45	14697
870.58	14823
870.71	14910
870.84	14914
870.97	14788
871.1	14773
871.23	15039
871.36	15070
871.489	14876
871.619	14933
871.749	15051
871.879	15104
872.008	15184
872.138	14891
872.267	15036
872.397	14830
872.526	14895
872.656	14868
872.785	14834
872.915	14982
873.044	15077
873.173	15001
873.303	15066
873.432	15028
873.561	15214
873.69	15005
873.819	15074
873.948	15135
874.077	15089
874.206	15039
874.335	15108
874.464	15165
874.593	15351
874.722	15275
874.851	15340
874.979	15424
875.108	15469
875.237	15382
875.365	15294
875.494	15393
875.623	15462
875.751	15378
875.88	15439
876.008	15614
876.136	15603
876.265	15797
876.393	15911
876.521	15831
876.65	15842
876.778	15876
876.906	15720
877.034	15759
877.162	15781
877.29	15675
877.418	15739
877.546	15953
877.674	15873
877.802	15812
877.93	15865
878.058	15747
878.185	15637
878.313	15694
878.441	15835
878.568	15584
878.696	15789
878.824	15770
878.951	15903
879.079	15972
879.206	16166
879.333	15983
879.461	15857
879.588	15793
879.715	15975
879.842	16097
879.97	15812
880.097	15766
880.224	15652
880.351	15641
880.478	15644
880.605	15542
880.732	15637
880.859	15918
880.986	15648
881.112	15667
881.239	15584
881.366	15397
881.493	15397
881.619	15355
881.746	15256
881.872	15230
881.999	15393
882.125	15199
882.252	15264
882.378	15397
882.505	15492
882.631	15317
882.757	15097
882.883	15252
883.01	15112
883.136	15157
883.262	14937
883.388	14967
883.514	15176
883.64	15165
883.766	15074
883.892	14948
884.018	14979
884.143	15184
884.269	15188
884.395	14986
884.52	14830
884.646	14811
884.772	14720
884.897	14720
885.023	14872
885.148	14872
885.274	15001
885.399	14819
885.524	14819
885.65	14845
885.775	14883
885.9	14731
886.025	14925
886.15	14868
886.275	14697
886.4	14701
886.525	14849
886.65	14773
886.775	14746
886.9	14960
887.025	14982
887.149	14857
887.274	14716
887.399	14598
887.523	14773
887.648	14560
887.773	14533
887.897	14678
888.021	14667
888.146	14617
888.27	14689
888.395	14864
888.519	14746
888.643	14716
888.767	14697
888.891	14590
889.015	14377
889.139	14610
889.263	14438
889.387	14705
889.511	14735
889.635	14708
889.759	14423
889.883	14450
890.006	14522
890.13	14651
890.254	14446
890.377	14568
890.501	14275
890.624	14355
890.748	14419
890.871	14301
890.995	14096
891.118	14073
891.241	14218
891.364	14130
891.488	14240
891.611	14172
891.734	14210
891.857	14229
891.98	14183
892.103	14275
892.226	14271
892.349	14195
892.471	14024
892.594	14225
892.717	14206
892.839	14126
892.962	14256
893.085	14328
893.207	14153
893.33	14077
893.452	14176
893.575	14320
893.697	14218
893.819	14259
893.941	14408
894.064	14396
894.186	14172
894.308	14126
894.43	14290
894.552	14415
894.674	14393
894.796	14195
894.918	14259
895.04	14256
895.161	14374
895.283	14271
895.405	14237
895.526	14278
895.648	14343
895.769	14343
895.891	14385
896.012	14389
896.134	14465
896.255	14389
896.376	14332
896.498	14358
896.619	14465
896.74	14465
896.861	14423
896.982	14602
897.103	14944
897.224	14731
897.345	14579
897.466	14632
897.587	14659
897.708	14670
897.828	14602
897.949	14663
898.07	14545
898.19	14587
898.311	14693
898.431	14670
898.552	14743
898.672	14792
898.792	14883
898.913	14838
899.033	14640
899.153	14518
899.273	14446
899.393	14556
899.513	14610
899.633	14552
899.753	14697
899.873	14659
899.993	14648
900.113	14575
900.232	14636
900.352	14541
900.472	14427
900.591	14324
900.711	14560
900.83	14332
900.95	14484
901.069	14526
901.189	14282
901.308	14199
901.427	14065
901.546	14043
901.665	14012
901.784	14142
901.904	14016
902.023	13807
902.141	13674
902.26	13666
902.379	13818
902.498	13670
902.617	13689
902.735	13704
902.854	13715
902.973	13685
903.091	13381
903.21	13403
903.328	13362
903.446	13293
903.565	13312
903.683	13327
903.801	13110
903.919	13308
904.038	13236
904.156	13069
904.274	13114
904.392	12973
904.51	13076
904.627	13099
904.745	13122
904.863	13179
904.981	12840
905.098	12791
905.216	12757
905.334	12814
905.451	12722
905.569	12669
905.686	12776
905.803	12753
905.921	12509
906.038	12623
906.155	12623
906.272	12410
906.389	12582
906.506	12319
906.623	12395
906.74	12353
906.857	12125
906.974	12296
907.091	12407
907.208	12483
907.324	12483
907.441	12254
907.557	12140
907.674	12190
907.79	11958
907.907	12060
908.023	12136
908.139	12087
908.256	12140
908.372	12003
908.488	11950
908.604	11901
908.72	11851
908.836	11771
908.952	11817
909.068	11908
909.184	11889
909.3	11874
909.415	11863
909.531	11885
909.647	11630
909.762	11672
909.878	11581
909.993	11623
910.108	11680
910.224	11551
910.339	11623
910.454	11490
910.57	11482
910.685	11429
910.8	11665
910.915	11619
911.03	11532
911.145	11322
911.259	11303
911.374	11379
911.489	11273
911.604	11246
911.718	11075
911.833	11109
911.947	10915
912.062	10908
912.176	11003
912.291	11124
912.405	11113
912.519	11223
912.633	11227
912.748	11124
912.862	11079
912.976	10980
913.09	10847
913.204	10881
913.318	10911
913.431	10957
913.545	11075
913.659	11067
913.772	11003
913.886	10866
914	10847
914.113	10942
914.226	10949
914.34	10889
914.453	10755
914.566	10839
914.68	10763
914.793	10771
914.906	10546
915.019	10504
915.132	10489
915.245	10584
915.358	10550
915.47	10523
915.583	10596
915.696	10554
915.809	10691
915.921	10687
916.034	10626
916.146	10558
916.259	10550
916.371	10580
916.483	10577
916.595	10504
916.708	10527
916.82	10558
916.932	10440
917.044	10466
917.156	10455
917.268	10375
917.38	10493
917.491	10409
917.603	10459
917.715	10462
917.826	10535
917.938	10329
918.049	10276
918.161	10390
918.272	10546
918.384	10580
918.495	10360
918.606	10196
918.717	10166
918.828	10227
918.939	10299
919.05	10169
919.161	10265
919.272	10032
919.383	10074
919.494	10325
919.604	10481
919.715	10337
919.826	10200
919.936	10306
920.047	10405
920.157	10272
920.267	10470
920.378	10306
920.488	10242
920.598	10428
920.708	10637
920.818	10561
920.928	10436
921.038	10694
921.148	10634
921.258	10360
921.368	10253
921.477	10272
921.587	10112
921.697	10002
921.806	10139
921.916	10036
922.025	9953
922.134	9857
922.244	9785
922.353	9838
922.462	9774
922.571	9705
922.68	9584
922.789	9507
922.898	9504
923.007	9519
923.116	9553
923.224	9431
923.333	9466
923.442	9485
923.55	9344
923.659	9416
923.767	9511
923.876	9363
923.984	9496
924.092	9405
924.201	9389
924.309	9336
924.417	9405
924.525	9310
924.633	9340
924.741	10371
924.849	9157
924.956	9359
925.064	9123
925.172	9032
925.279	9157
925.387	9154
925.494	9135
925.602	9344
925.709	9253
925.816	9104
925.924	9150
926.031	9306
926.138	9176
926.245	9245
926.352	9093
926.459	9233
926.566	9222
926.673	9123
926.779	8998
926.886	9009
926.993	8906
927.099	8887
927.206	8876
927.312	8800
927.419	8952
927.525	8876
927.631	8990
927.737	8868
927.843	8769
927.95	8663
928.056	8762
928.162	8777
928.267	8883
928.373	9344
928.479	8891
928.585	8667
928.69	8766
928.796	8876
928.901	8769
929.007	8602
929.112	8705
929.218	8602
929.323	8590
929.428	8625
929.533	8735
929.638	8533
929.743	8571
929.848	8769
929.953	8590
930.058	8537
930.163	8343
930.267	8355
930.372	8590
930.477	8294
930.581	8579
930.685	8404
930.79	8358
930.894	8343
930.998	8355
931.103	8465
931.207	8138
931.311	8149
931.415	8008
931.519	7845
931.623	7879
