Data from test_V78500241_2303.txt Node
Date: Fri Mar 25 14:49:44 CST 2022
User: usil
Spectrometer: V785-0024
Trigger mode: 0
Integration Time (sec): 4.000000E-1
Scans to average: 1
Nonlinearity correction enabled: false
Boxcar width: 0
Storing dark spectrum: false
XAxis mode: Wavelengths
Number of Pixels in Spectrum: 1024
>>>>>Begin Spectral Data<<<<<
801.071	22257
801.214	22074
801.356	21892
801.499	21701
801.641	21389
801.783	21641
801.926	21530
802.068	21698
802.211	21382
802.353	21405
802.496	21180
802.638	21096
802.78	21055
802.923	20914
803.065	20834
803.208	20845
803.35	20941
803.492	20925
803.635	21142
803.777	20910
803.919	20971
804.061	21154
804.204	20952
804.346	20861
804.488	20796
804.63	20906
804.773	20796
804.915	20769
805.057	20754
805.199	20872
805.341	20925
805.483	20823
805.626	20876
805.768	20773
805.91	20823
806.052	20785
806.194	20739
806.336	20830
806.478	20731
806.62	20697
806.762	20731
806.904	21089
807.046	21188
807.188	21268
807.33	20986
807.472	21199
807.614	21066
807.756	21043
807.898	20982
808.04	20861
808.182	20849
808.324	20914
808.465	20891
808.607	21188
808.749	21264
808.891	21233
809.033	21313
809.174	21169
809.316	20971
809.458	21070
809.6	21180
809.741	21321
809.883	21272
810.025	21386
810.166	21447
810.308	21294
810.45	21157
810.591	21169
810.733	20994
810.875	21066
811.016	20963
811.158	20769
811.299	20899
811.441	21150
811.582	21161
811.724	20948
811.865	20918
812.007	20948
812.148	20986
812.29	21093
812.431	21154
812.573	21260
812.714	21389
812.855	21469
812.997	21583
813.138	21652
813.279	21595
813.421	21591
813.562	21344
813.703	21199
813.845	21157
813.986	20807
814.127	20720
814.268	20644
814.41	20564
814.551	20511
814.692	20587
814.833	20507
814.974	20537
815.115	20514
815.256	20309
815.397	20343
815.539	20362
815.68	20282
815.821	20180
815.962	20244
816.103	20153
816.244	20054
816.385	19978
816.526	19868
816.666	19875
816.807	19605
816.948	19833
817.089	19769
817.23	19719
817.371	19590
817.512	19597
817.653	19696
817.793	19582
817.934	19582
818.075	19632
818.216	19643
818.356	19704
818.497	19476
818.638	19308
818.778	19274
818.919	19381
819.06	19297
819.2	19441
819.341	19521
819.481	19567
819.622	19723
819.762	19757
819.903	19746
820.043	19624
820.184	19643
820.324	19628
820.465	19601
820.605	19651
820.746	19533
820.886	19514
821.026	19582
821.167	19502
821.307	19571
821.447	19453
821.588	19480
821.728	19259
821.868	19194
822.008	19053
822.149	19042
822.289	18985
822.429	18863
822.569	18734
822.709	18821
822.849	18612
822.99	18540
823.13	18460
823.27	18433
823.41	18357
823.55	18209
823.69	18376
823.83	18342
823.97	18243
824.11	18136
824.25	18155
824.389	18053
824.529	18205
824.669	18106
824.809	18152
824.949	18201
825.089	18205
825.228	18121
825.368	17920
825.508	17923
825.648	17969
825.787	17988
825.927	17904
826.067	17885
826.206	17843
826.346	17969
826.485	17760
826.625	17878
826.765	18030
826.904	17954
827.044	17585
827.183	17649
827.323	17444
827.462	17592
827.601	17535
827.741	17596
827.88	17608
828.02	17368
828.159	17589
828.298	17543
828.437	17638
828.577	17490
828.716	17653
828.855	17535
828.994	17349
829.134	17345
829.273	17307
829.412	17265
829.551	17212
829.69	17296
829.829	17307
829.968	17402
830.107	17334
830.246	17307
830.385	17159
830.524	17113
830.663	17014
830.802	17029
830.941	16976
831.08	16934
831.219	17006
831.357	17045
831.496	17098
831.635	16972
831.774	16877
831.913	16869
832.051	16740
832.19	16713
832.329	16767
832.467	16611
832.606	16565
832.744	16565
832.883	16611
833.022	16649
833.16	16516
833.299	16694
833.437	16592
833.576	16675
833.714	16577
833.852	16603
833.991	16713
834.129	16706
834.267	16790
834.406	16641
834.544	16683
834.682	16580
834.821	16592
834.959	16706
835.097	16607
835.235	16641
835.373	16634
835.511	16649
835.65	16634
835.788	16580
835.926	16337
836.064	16382
836.202	16413
836.34	16554
836.478	16580
836.615	16611
836.753	16459
836.891	16622
837.029	16580
837.167	16466
837.305	16497
837.443	16459
837.58	16390
837.718	16481
837.856	16421
837.993	16268
838.131	16451
838.269	16291
838.406	16424
838.544	16272
838.681	16074
838.819	16116
838.956	16006
839.094	16063
839.231	15991
839.369	15998
839.506	16352
839.643	16215
839.781	15941
839.918	15915
840.055	15918
840.193	15975
840.33	15937
840.467	15991
840.604	15968
840.742	16226
840.879	15720
841.016	15876
841.153	15850
841.29	16078
841.427	16002
841.564	15953
841.701	15945
841.838	15823
841.975	15838
842.112	15804
842.249	15778
842.385	15682
842.522	15800
842.659	15755
842.796	15770
842.933	15778
843.069	15728
843.206	15694
843.343	15778
843.479	15762
843.616	15819
843.752	15496
843.889	15519
844.025	15736
844.162	15473
844.298	15549
844.435	15534
844.571	15477
844.708	15507
844.844	15724
844.98	15595
845.117	15622
845.253	15344
845.389	15359
845.525	15367
845.661	15378
845.798	15344
845.934	15332
846.07	15192
846.206	15405
846.342	15431
846.478	15264
846.614	15180
846.75	15104
846.886	15100
847.022	15066
847.158	15123
847.294	15123
847.429	15173
847.565	15157
847.701	15226
847.837	14872
847.972	14849
848.108	14910
848.244	14876
848.379	14788
848.515	14727
848.65	14667
848.786	14655
848.921	14716
849.057	14746
849.192	14746
849.328	14796
849.463	14762
849.598	14629
849.734	14560
849.869	14450
850.004	14549
850.14	14511
850.275	14355
850.41	14305
850.545	14366
850.68	14492
850.815	14507
850.95	14492
851.085	14488
851.22	14511
851.355	14442
851.49	14476
851.625	14419
851.76	14438
851.895	14313
852.03	14351
852.165	14381
852.299	14450
852.434	14533
852.569	14454
852.703	14457
852.838	14492
852.973	14587
853.107	14594
853.242	14469
853.376	14347
853.511	14168
853.645	14221
853.78	14442
853.914	14374
854.048	14149
854.183	14309
854.317	14389
854.451	14488
854.585	14336
854.72	14252
854.854	14454
854.988	14214
855.122	14256
855.256	14062
855.39	14218
855.524	14347
855.658	14423
855.792	14355
855.926	14313
856.06	14332
856.194	14412
856.327	14343
856.461	14263
856.595	14183
856.729	14263
856.862	14347
856.996	14415
857.13	14358
857.263	14446
857.397	14423
857.53	14206
857.664	14381
857.797	14370
857.931	14473
858.064	14381
858.197	14526
858.331	14362
858.464	14267
858.597	14195
858.731	14317
858.864	14317
858.997	14294
859.13	14278
859.263	14294
859.396	14343
859.529	14237
859.662	14324
859.795	14252
859.928	14377
860.061	14457
860.194	14499
860.327	14370
860.46	14305
860.592	14393
860.725	14514
860.858	14351
860.99	14324
861.123	14313
861.256	14252
861.388	14221
861.521	14891
861.653	14164
861.786	14164
861.918	14161
862.05	14142
862.183	14210
862.315	14233
862.447	14328
862.58	14309
862.712	14161
862.844	14046
862.976	14126
863.108	14157
863.24	14412
863.372	14027
863.504	14005
863.636	14046
863.768	14153
863.9	14161
864.032	13928
864.164	14031
864.296	14058
864.428	14145
864.559	14206
864.691	14275
864.823	14168
864.954	14202
865.086	14134
865.217	14145
865.349	13928
865.48	14027
865.612	14058
865.743	14195
865.875	14031
866.006	13959
866.137	14008
866.269	14058
866.4	14084
866.531	14027
866.662	14031
866.793	14008
866.924	13951
867.055	14130
867.186	14050
867.317	14008
867.448	13871
867.579	13993
867.71	13986
867.841	13974
867.972	14035
868.103	13997
868.233	14073
868.364	14031
868.495	14062
868.625	14275
868.756	14431
868.886	14229
869.017	14233
869.147	14408
869.278	14355
869.408	14286
869.539	14263
869.669	14374
869.799	14259
869.929	14347
870.06	14511
870.19	14644
870.32	14583
870.45	14579
870.58	14785
870.71	14773
870.84	14807
870.97	14724
871.1	14697
871.23	14891
871.36	14811
871.489	14746
871.619	14876
871.749	14899
871.879	14956
872.008	15009
872.138	14800
872.267	14815
872.397	14792
872.526	14731
872.656	14720
872.785	14701
872.915	15020
873.044	15028
873.173	14956
873.303	15028
873.432	14967
873.561	15062
873.69	14994
873.819	14963
873.948	14963
874.077	14925
874.206	14849
874.335	14861
874.464	15089
874.593	15329
874.722	15169
874.851	15268
874.979	15279
875.108	15294
875.237	15184
875.365	15184
875.494	15268
875.623	15420
875.751	15256
875.88	15340
876.008	15431
876.136	15447
876.265	15705
876.393	15895
876.521	15816
876.65	15717
876.778	15694
876.906	15553
877.034	15656
877.162	15679
877.29	15641
877.418	15690
877.546	15690
877.674	15603
877.802	15625
877.93	15766
878.058	15603
878.185	15595
878.313	15599
878.441	15633
878.568	15488
878.696	15622
878.824	15751
878.951	15717
879.079	15842
879.206	15960
879.333	15770
879.461	15622
879.588	15747
879.715	15838
879.842	15861
879.97	15770
880.097	15625
880.224	15568
880.351	15534
880.478	15515
880.605	15515
880.732	15614
880.859	15724
880.986	15538
881.112	15549
881.239	15397
881.366	15378
881.493	15161
881.619	15218
881.746	15195
881.872	15173
881.999	15188
882.125	15207
882.252	15249
882.378	15233
882.505	15310
882.631	15077
882.757	14960
882.883	15055
883.01	15005
883.136	15009
883.262	14807
883.388	14804
883.514	15051
883.64	15013
883.766	14941
883.892	14830
884.018	14819
884.143	14941
884.269	14963
884.395	14781
884.52	14773
884.646	14701
884.772	14743
884.897	14636
885.023	14716
885.148	14826
885.274	14891
885.399	14750
885.524	14689
885.65	14716
885.775	14693
885.9	14670
886.025	14743
886.15	14796
886.275	14655
886.4	14598
886.525	14720
886.65	14640
886.775	14617
886.9	14887
887.025	14956
887.149	14735
887.274	14514
887.399	14503
887.523	14396
887.648	14480
887.773	14408
887.897	14625
888.021	14590
888.146	14530
888.27	14682
888.395	14670
888.519	14617
888.643	14602
888.767	14621
888.891	14434
889.015	14412
889.139	14389
889.263	14434
889.387	14575
889.511	14552
889.635	14503
889.759	14396
889.883	14393
890.006	14366
890.13	14514
890.254	14366
890.377	14336
890.501	14161
890.624	14218
890.748	14199
890.871	14126
890.995	14054
891.118	14020
891.241	14050
891.364	14206
891.488	14157
891.611	14111
891.734	14149
891.857	14199
891.98	14062
892.103	14225
892.226	14096
892.349	14092
892.471	14005
892.594	14096
892.717	14092
892.839	14005
892.962	14176
893.085	14111
893.207	14142
893.33	13986
893.452	14096
893.575	14069
893.697	14168
893.819	14214
893.941	14301
894.064	14206
894.186	14062
894.308	14180
894.43	14282
894.552	14324
894.674	14328
894.796	14046
894.918	14145
895.04	14202
895.161	14256
895.283	14252
895.405	14202
895.526	14123
895.648	14278
895.769	14252
895.891	14214
896.012	14282
896.134	14275
896.255	14271
896.376	14248
896.498	14263
896.619	14343
896.74	14259
896.861	14267
896.982	14610
897.103	14838
897.224	14560
897.345	14560
897.466	14408
897.587	14476
897.708	14708
897.828	14579
897.949	14465
898.07	14431
898.19	14488
898.311	14720
898.431	14587
898.552	14651
898.672	14659
898.792	14731
898.913	14670
899.033	14587
899.153	14511
899.273	14381
899.393	14385
899.513	14507
899.633	14469
899.753	14545
899.873	14469
899.993	14522
900.113	14480
900.232	14564
900.352	14465
900.472	14336
900.591	14324
900.711	14385
900.83	14305
900.95	14396
901.069	14431
901.189	14183
901.308	14100
901.427	13936
901.546	13940
901.665	14081
901.784	14054
901.904	13902
902.023	13909
902.141	13734
902.26	13552
902.379	13693
902.498	13544
902.617	13540
902.735	13613
902.854	13616
902.973	13552
903.091	13373
903.21	13320
903.328	13358
903.446	13282
903.565	13331
903.683	13225
903.801	13057
903.919	13164
904.038	13152
904.156	13038
904.274	13019
904.392	13034
904.51	12996
904.627	13023
904.745	12985
904.863	13053
904.981	12779
905.098	12623
905.216	12627
905.334	12734
905.451	12662
905.569	12627
905.686	12700
905.803	12681
905.921	12551
906.038	12654
906.155	12566
906.272	12296
906.389	12350
906.506	12304
906.623	12194
906.74	12148
906.857	12121
906.974	12190
907.091	12148
907.208	12407
907.324	12254
907.441	12220
907.557	11999
907.674	11984
907.79	11958
907.907	11939
908.023	11931
908.139	12057
908.256	11893
908.372	11942
908.488	11802
908.604	11767
908.72	11726
908.836	11627
908.952	11630
909.068	11786
909.184	11836
909.3	11729
909.415	11813
909.531	11718
909.647	11566
909.762	11497
909.878	11512
909.993	11520
910.108	11463
910.224	11509
910.339	11520
910.454	11482
910.57	11379
910.685	11303
910.8	11524
910.915	11501
911.03	11398
911.145	11334
911.259	11208
911.374	11235
911.489	11064
911.604	11136
911.718	10984
911.833	11018
911.947	10927
912.062	10904
912.176	10976
912.291	10968
912.405	10919
912.519	11208
912.633	11265
912.748	11140
912.862	10953
912.976	10801
913.09	10763
913.204	10679
913.318	10873
913.431	11003
913.545	10949
913.659	10972
913.772	10927
913.886	10786
914	10679
914.113	10828
914.226	10854
914.34	10862
914.453	10641
914.566	10812
914.68	10626
914.793	10607
914.906	10489
915.019	10531
915.132	10402
915.245	10451
915.358	10554
915.47	10531
915.583	10481
915.696	10573
915.809	10626
915.921	10672
916.034	10512
916.146	10329
916.259	10398
916.371	10485
916.483	10500
916.595	10485
916.708	10451
916.82	10322
916.932	10386
917.044	10386
917.156	10344
917.268	10287
917.38	10348
917.491	10299
917.603	10379
917.715	10379
917.826	10402
917.938	10284
918.049	10223
918.161	10371
918.272	10447
918.384	10413
918.495	10363
918.606	10261
918.717	10181
918.828	10162
918.939	10166
919.05	10086
919.161	10158
919.272	10021
919.383	10071
919.494	10230
919.604	10402
919.715	10219
919.826	10192
919.936	10230
920.047	10249
920.157	10230
920.267	10360
920.378	10230
920.488	10303
920.598	10447
920.708	10561
920.818	10398
920.928	10371
921.038	10611
921.148	10565
921.258	10257
921.368	10166
921.477	10017
921.587	10112
921.697	9953
921.806	10105
921.916	9987
922.025	9850
922.134	9819
922.244	9690
922.353	9728
922.462	9663
922.571	9629
922.68	9511
922.789	9439
922.898	9462
923.007	9405
923.116	9511
923.224	9469
923.333	9443
923.442	9374
923.55	9294
923.659	9389
923.767	9408
923.876	9294
923.984	9378
924.092	9233
924.201	9287
924.309	9367
924.417	9370
924.525	9313
924.633	9351
924.741	10280
924.849	9135
924.956	9317
925.064	9097
925.172	9058
925.279	9119
925.387	9226
925.494	9047
925.602	9222
925.709	9169
925.816	9024
925.924	9131
926.031	9192
926.138	9127
926.245	9104
926.352	9001
926.459	9165
926.566	9218
926.673	9135
926.779	8994
926.886	9032
926.993	8910
927.099	8826
927.206	8754
927.312	8811
927.419	8868
927.525	8857
927.631	8807
927.737	8731
927.843	8777
927.95	8648
928.056	8678
928.162	8758
928.267	8815
928.373	9363
928.479	8823
928.585	8571
928.69	8735
928.796	8781
928.901	8651
929.007	8503
929.112	8640
929.218	8632
929.323	8594
929.428	8556
929.533	8659
929.638	8511
929.743	8488
929.848	8640
929.953	8583
930.058	8473
930.163	8279
930.267	8358
930.372	8492
930.477	8301
930.581	8507
930.685	8393
930.79	8248
930.894	8267
930.998	8294
931.103	8408
931.207	8054
931.311	8035
931.415	8012
931.519	7769
931.623	7723
