Data from test_V78500241_3392.txt Node
Date: Fri Mar 25 14:57:20 CST 2022
User: usil
Spectrometer: V785-0024
Trigger mode: 0
Integration Time (sec): 4.000000E-1
Scans to average: 1
Nonlinearity correction enabled: false
Boxcar width: 0
Storing dark spectrum: false
XAxis mode: Wavelengths
Number of Pixels in Spectrum: 1024
>>>>>Begin Spectral Data<<<<<
801.071	21930
801.214	21934
801.356	21591
801.499	21393
801.641	21310
801.783	21420
801.926	21332
802.068	21344
802.211	21222
802.353	21062
802.496	20975
802.638	20785
802.78	20716
802.923	20651
803.065	20583
803.208	20511
803.35	20674
803.492	20758
803.635	20804
803.777	20621
803.919	20655
804.061	20895
804.204	20659
804.346	20568
804.488	20434
804.63	20602
804.773	20404
804.915	20560
805.057	20640
805.199	20423
805.341	20629
805.483	20640
805.626	20743
805.768	20587
805.91	20484
806.052	20533
806.194	20480
806.336	20735
806.478	20469
806.62	20385
806.762	20488
806.904	20743
807.046	20887
807.188	20872
807.33	20902
807.472	20819
807.614	20807
807.756	20727
807.898	20682
808.04	20583
808.182	20587
808.324	20689
808.465	20651
808.607	20834
808.749	20773
808.891	21005
809.033	21062
809.174	20857
809.316	20758
809.458	20929
809.6	20895
809.741	20982
809.883	20937
810.025	20952
810.166	21104
810.308	21055
810.45	21032
810.591	20777
810.733	20743
810.875	20701
811.016	20606
811.158	20476
811.299	20743
811.441	20708
811.582	20663
811.724	20670
811.865	20537
812.007	20621
812.148	20731
812.29	20667
812.431	20739
812.573	20944
812.714	20929
812.855	21081
812.997	21127
813.138	21321
813.279	21272
813.421	21199
813.562	21039
813.703	20956
813.845	20724
813.986	20518
814.127	20336
814.268	20176
814.41	20180
814.551	20210
814.692	20328
814.833	20119
814.974	20081
815.115	20187
815.256	20001
815.397	19986
815.539	20069
815.68	19982
815.821	19757
815.962	19993
816.103	19811
816.244	19746
816.385	19681
816.526	19696
816.666	19499
816.807	19259
816.948	19316
817.089	19499
817.23	19464
817.371	19343
817.512	19362
817.653	19236
817.793	19369
817.934	19225
818.075	19316
818.216	19278
818.356	19285
818.497	19122
818.638	19038
818.778	18954
818.919	18954
819.06	19008
819.2	19027
819.341	19213
819.481	19225
819.622	19324
819.762	19343
819.903	19324
820.043	19468
820.184	19247
820.324	19145
820.465	19388
820.605	19339
820.746	19396
820.886	19091
821.026	19316
821.167	19274
821.307	19350
821.447	19122
821.588	19095
821.728	18954
821.868	18772
822.008	18665
822.149	18730
822.289	18608
822.429	18422
822.569	18346
822.709	18460
822.849	18239
822.99	18140
823.13	18239
823.27	18106
823.41	18091
823.55	17950
823.69	18003
823.83	18030
823.97	17996
824.11	17851
824.25	17771
824.389	17809
824.529	17832
824.669	17722
824.809	17836
824.949	17942
825.089	17889
825.228	17878
825.368	17562
825.508	17627
825.648	17668
825.787	17577
825.927	17562
826.067	17436
826.206	17493
826.346	17630
826.485	17585
826.625	17512
826.765	17600
826.904	17676
827.044	17318
827.183	17337
827.323	17353
827.462	17307
827.601	17250
827.741	17166
827.88	17273
828.02	17181
828.159	17185
828.298	17242
828.437	17315
828.577	17200
828.716	17326
828.855	17258
828.994	16995
829.134	17010
829.273	17181
829.412	16942
829.551	16987
829.69	17025
829.829	16965
829.968	17162
830.107	17162
830.246	17052
830.385	16961
830.524	16847
830.663	16881
830.802	16812
830.941	16634
831.08	16656
831.219	16744
831.357	16725
831.496	16911
831.635	16580
831.774	16599
831.913	16561
832.051	16504
832.19	16489
832.329	16440
832.467	16246
832.606	16379
832.744	16280
832.883	16276
833.022	16291
833.16	16402
833.299	16367
833.437	16261
833.576	16360
833.714	16341
833.852	16371
833.991	16363
834.129	16527
834.267	16382
834.406	16424
834.544	16504
834.682	16367
834.821	16417
834.959	16523
835.097	16367
835.235	16443
835.373	16466
835.511	16348
835.65	16352
835.788	16234
835.926	16177
836.064	16135
836.202	16158
836.34	16265
836.478	16424
836.615	16352
836.753	16337
836.891	16348
837.029	16257
837.167	16272
837.305	16211
837.443	16207
837.58	16135
837.718	16188
837.856	16131
837.993	16013
838.131	16257
838.269	16071
838.406	16135
838.544	16040
838.681	15983
838.819	15876
838.956	15671
839.094	15633
839.231	15857
839.369	15911
839.506	16109
839.643	15949
839.781	15774
839.918	15743
840.055	15732
840.193	15614
840.33	15686
840.467	15778
840.604	15785
840.742	15975
840.879	15644
841.016	15610
841.153	15652
841.29	15842
841.427	15743
841.564	15793
841.701	15762
841.838	15610
841.975	15633
842.112	15644
842.249	15469
842.385	15576
842.522	15686
842.659	15515
842.796	15526
842.933	15504
843.069	15450
843.206	15572
843.343	15625
843.479	15549
843.616	15603
843.752	15241
843.889	15344
844.025	15447
844.162	15214
844.298	15428
844.435	15291
844.571	15252
844.708	15275
844.844	15443
844.98	15557
845.117	15355
845.253	15272
845.389	15180
845.525	15283
845.661	15203
845.798	15058
845.934	15237
846.07	15009
846.206	15077
846.342	15241
846.478	15074
846.614	14975
846.75	14826
846.886	14811
847.022	14960
847.158	14842
847.294	14887
847.429	14948
847.565	14918
847.701	15005
847.837	14697
847.972	14617
848.108	14708
848.244	14667
848.379	14492
848.515	14457
848.65	14484
848.786	14427
848.921	14545
849.057	14560
849.192	14564
849.328	14511
849.463	14556
849.598	14473
849.734	14431
849.869	14431
850.004	14248
850.14	14336
850.275	14199
850.41	14199
850.545	14206
850.68	14240
850.815	14248
850.95	14256
851.085	14419
851.22	14290
851.355	14202
851.49	14195
851.625	14256
851.76	14180
851.895	14081
852.03	14149
852.165	14328
852.299	14252
852.434	14240
852.569	14233
852.703	14267
852.838	14240
852.973	14499
853.107	14415
853.242	14191
853.376	14145
853.511	14054
853.645	14054
853.78	14286
853.914	14187
854.048	14046
854.183	14164
854.317	14206
854.451	14210
854.585	14183
854.72	14050
854.854	14157
854.988	13997
855.122	14119
855.256	13917
855.39	14130
855.524	14206
855.658	14183
855.792	14100
855.926	14103
856.06	14248
856.194	14259
856.327	14126
856.461	14043
856.595	14069
856.729	14123
856.862	14240
856.996	14111
857.13	14138
857.263	14214
857.397	14183
857.53	14130
857.664	14183
857.797	14206
857.931	14244
858.064	14096
858.197	14252
858.331	14126
858.464	14092
858.597	14096
858.731	14153
858.864	14130
858.997	14123
859.13	14183
859.263	14153
859.396	14195
859.529	14183
859.662	14145
859.795	14084
859.928	14195
860.061	14305
860.194	14347
860.327	14221
860.46	14134
860.592	14202
860.725	14320
860.858	14328
860.99	14168
861.123	13978
861.256	14092
861.388	14195
861.521	14872
861.653	14020
861.786	13978
861.918	14008
862.05	14031
862.183	14115
862.315	14069
862.447	14221
862.58	14012
862.712	13875
862.844	13879
862.976	14096
863.108	13928
863.24	14374
863.372	13902
863.504	13868
863.636	13906
863.768	13970
863.9	13959
864.032	13845
864.164	13788
864.296	13940
864.428	14050
864.559	14005
864.691	14058
864.823	13879
864.954	13928
865.086	13944
865.217	13932
865.349	13750
865.48	13913
865.612	13936
865.743	14050
865.875	13967
866.006	13909
866.137	13963
866.269	13902
866.4	13925
866.531	13883
866.662	13841
866.793	13906
866.924	13841
867.055	13830
867.186	13902
867.317	13849
867.448	13871
867.579	13845
867.71	13822
867.841	13769
867.972	13917
868.103	13871
868.233	13913
868.364	13997
868.495	13951
868.625	14073
868.756	14103
868.886	14100
869.017	14088
869.147	14317
869.278	14195
869.408	14210
869.539	14142
869.669	14180
869.799	14320
869.929	14305
870.06	14225
870.19	14454
870.32	14473
870.45	14480
870.58	14530
870.71	14621
870.84	14667
870.97	14594
871.1	14583
871.23	14670
871.36	14705
871.489	14606
871.619	14743
871.749	14689
871.879	14800
872.008	14883
872.138	14716
872.267	14788
872.397	14629
872.526	14560
872.656	14644
872.785	14644
872.915	14735
873.044	14944
873.173	14842
873.303	14792
873.432	14769
873.561	14914
873.69	14864
873.819	14845
873.948	14861
874.077	14800
874.206	14883
874.335	14777
874.464	14941
874.593	15032
874.722	15062
874.851	15230
874.979	15127
875.108	15218
875.237	15116
875.365	15142
875.494	15100
875.623	15116
875.751	15093
875.88	15188
876.008	15329
876.136	15405
876.265	15690
876.393	15549
876.521	15576
876.65	15629
876.778	15519
876.906	15492
877.034	15473
877.162	15473
877.29	15526
877.418	15523
877.546	15549
877.674	15625
877.802	15564
877.93	15519
878.058	15492
878.185	15355
878.313	15564
878.441	15557
878.568	15393
878.696	15545
878.824	15622
878.951	15515
879.079	15728
879.206	15793
879.333	15713
879.461	15557
879.588	15625
879.715	15804
879.842	15865
879.97	15682
880.097	15272
880.224	15344
880.351	15443
880.478	15443
880.605	15367
880.732	15481
880.859	15713
880.986	15405
881.112	15393
881.239	15203
881.366	15184
881.493	15123
881.619	15070
881.746	15097
881.872	15093
881.999	15024
882.125	14971
882.252	15077
882.378	15081
882.505	15272
882.631	14948
882.757	14830
882.883	14933
883.01	14925
883.136	14838
883.262	14765
883.388	14727
883.514	14864
883.64	14963
883.766	14800
883.892	14667
884.018	14697
884.143	14830
884.269	14880
884.395	14651
884.52	14514
884.646	14629
884.772	14564
884.897	14457
885.023	14545
885.148	14648
885.274	14788
885.399	14708
885.524	14461
885.65	14640
885.775	14610
885.9	14446
886.025	14667
886.15	14625
886.275	14457
886.4	14511
886.525	14507
886.65	14461
886.775	14503
886.9	14693
887.025	14864
887.149	14556
887.274	14454
887.399	14404
887.523	14339
887.648	14343
887.773	14461
887.897	14370
888.021	14556
888.146	14396
888.27	14564
888.395	14484
888.519	14454
888.643	14476
888.767	14575
888.891	14320
889.015	14294
889.139	14305
889.263	14294
889.387	14309
889.511	14412
889.635	14412
889.759	14358
889.883	14244
890.006	14374
890.13	14419
890.254	14229
890.377	14176
890.501	14130
890.624	14115
890.748	14161
890.871	13970
890.995	13959
891.118	13795
891.241	13936
891.364	13928
891.488	14092
891.611	13936
891.734	14054
891.857	14088
891.98	13978
892.103	14191
892.226	14008
892.349	13887
892.471	13887
892.594	13944
892.717	13913
892.839	13932
892.962	13913
893.085	14073
893.207	13978
893.33	13879
893.452	13883
893.575	13959
893.697	13940
893.819	14161
893.941	14191
894.064	14119
894.186	13970
894.308	13940
894.43	14134
894.552	14134
894.674	14263
894.796	13967
894.918	14043
895.04	14035
895.161	14103
895.283	14035
895.405	13993
895.526	14050
895.648	14096
895.769	14103
895.891	14050
896.012	14149
896.134	14115
896.255	14123
896.376	14100
896.498	14115
896.619	14259
896.74	14168
896.861	14142
896.982	14484
897.103	14571
897.224	14450
897.345	14438
897.466	14450
897.587	14351
897.708	14450
897.828	14503
897.949	14370
898.07	14385
898.19	14332
898.311	14503
898.431	14317
898.552	14400
898.672	14560
898.792	14613
898.913	14587
899.033	14339
899.153	14381
899.273	14282
899.393	14282
899.513	14214
899.633	14393
899.753	14347
899.873	14298
899.993	14400
900.113	14332
900.232	14381
900.352	14305
900.472	14275
900.591	14237
900.711	14252
900.83	14195
900.95	14336
901.069	14259
901.189	14100
901.308	13917
901.427	13811
901.546	13856
901.665	13947
901.784	13970
901.904	13803
902.023	13738
902.141	13533
902.26	13449
902.379	13514
902.498	13460
902.617	13426
902.735	13434
902.854	13460
902.973	13369
903.091	13278
903.21	13114
903.328	13232
903.446	13000
903.565	13145
903.683	13057
903.801	12924
903.919	13088
904.038	13046
904.156	12863
904.274	12875
904.392	12821
904.51	12738
904.627	12806
904.745	12916
904.863	12909
904.981	12639
905.098	12559
905.216	12604
905.334	12601
905.451	12528
905.569	12536
905.686	12589
905.803	12616
905.921	12334
906.038	12414
906.155	12407
906.272	12270
906.389	12384
906.506	12125
906.623	12159
906.74	12140
906.857	12068
906.974	12049
907.091	12205
907.208	12273
907.324	12243
907.441	12163
907.557	11973
907.674	11863
907.79	11878
907.907	11855
908.023	11916
908.139	11923
908.256	11809
908.372	11851
908.488	11748
908.604	11653
908.72	11676
908.836	11752
908.952	11589
909.068	11611
909.184	11786
909.3	11642
909.415	11684
909.531	11649
909.647	11345
909.762	11471
909.878	11349
909.993	11467
910.108	11379
910.224	11444
910.339	11421
910.454	11326
910.57	11315
910.685	11185
910.8	11520
910.915	11455
911.03	11349
911.145	11204
911.259	11143
911.374	11178
911.489	11010
911.604	10968
911.718	10900
911.833	10904
911.947	10843
912.062	10702
912.176	10847
912.291	10881
912.405	10927
912.519	11102
912.633	11208
912.748	11018
912.862	10919
912.976	10858
913.09	10611
913.204	10748
913.318	10771
913.431	10927
913.545	10839
913.659	10946
913.772	10717
913.886	10698
914	10622
914.113	10778
914.226	10835
914.34	10721
914.453	10599
914.566	10714
914.68	10622
914.793	10641
914.906	10386
915.019	10394
915.132	10390
915.245	10344
915.358	10352
915.47	10386
915.583	10356
915.696	10424
915.809	10451
915.921	10531
916.034	10413
916.146	10352
916.259	10291
916.371	10428
916.483	10447
916.595	10268
916.708	10333
916.82	10367
916.932	10394
917.044	10337
917.156	10284
917.268	10230
917.38	10280
917.491	10177
917.603	10196
917.715	10276
917.826	10382
917.938	10154
918.049	10143
918.161	10249
918.272	10371
918.384	10413
918.495	10227
918.606	10116
918.717	10029
918.828	10131
918.939	10154
919.05	9979
919.161	10116
919.272	9937
919.383	9945
919.494	10158
919.604	10310
919.715	10128
919.826	9994
919.936	10105
920.047	10150
920.157	10177
920.267	10337
920.378	10143
920.488	10147
920.598	10280
920.708	10508
920.818	10329
920.928	10333
921.038	10447
921.148	10447
921.258	10128
921.368	10097
921.477	9956
921.587	9956
921.697	9930
921.806	9975
921.916	9915
922.025	9774
922.134	9679
922.244	9705
922.353	9713
922.462	9625
922.571	9526
922.68	9397
922.789	9401
922.898	9367
923.007	9359
923.116	9447
923.224	9359
923.333	9386
923.442	9279
923.55	9237
923.659	9287
923.767	9412
923.876	9226
923.984	9344
924.092	9218
924.201	9218
924.309	9294
924.417	9302
924.525	9169
924.633	9302
924.741	10120
924.849	8998
924.956	9184
925.064	9077
925.172	8967
925.279	9032
925.387	9058
925.494	9058
925.602	9074
925.709	9100
925.816	8994
925.924	8971
926.031	9104
926.138	9074
926.245	9127
926.352	8967
926.459	9116
926.566	9165
926.673	9009
926.779	8872
926.886	8864
926.993	8815
927.099	8743
927.206	8651
927.312	8739
927.419	8758
927.525	8746
927.631	8834
927.737	8727
927.843	8724
927.95	8621
928.056	8651
928.162	8701
928.267	8708
928.373	9389
928.479	8735
928.585	8560
928.69	8632
928.796	8701
928.901	8571
929.007	8461
929.112	8583
929.218	8549
929.323	8556
929.428	8480
929.533	8579
929.638	8355
929.743	8370
929.848	8507
929.953	8412
930.058	8374
930.163	8168
930.267	8233
930.372	8377
930.477	8225
930.581	8400
930.685	8400
930.79	8202
930.894	8248
930.998	8157
931.103	8294
931.207	7997
931.311	7974
931.415	7879
931.519	7712
931.623	7757
