Data from test_V78500241_627.txt Node
Date: Fri Mar 25 14:38:05 CST 2022
User: usil
Spectrometer: V785-0024
Trigger mode: 0
Integration Time (sec): 4.000000E-1
Scans to average: 1
Nonlinearity correction enabled: false
Boxcar width: 0
Storing dark spectrum: false
XAxis mode: Wavelengths
Number of Pixels in Spectrum: 1024
>>>>>Begin Spectral Data<<<<<
801.071	27926
801.214	27743
801.356	27561
801.499	27534
801.641	27412
801.783	27294
801.926	27317
802.068	27233
802.211	27112
802.353	27070
802.496	26933
802.638	26754
802.78	26811
802.923	26815
803.065	26701
803.208	26788
803.35	26701
803.492	27005
803.635	26895
803.777	26872
803.919	26910
804.061	27355
804.204	26998
804.346	27001
804.488	26925
804.63	27005
804.773	27001
804.915	27165
805.057	27230
805.199	27192
805.341	27279
805.483	27534
805.626	27469
805.768	27298
805.91	27507
806.052	27637
806.194	27675
806.336	27823
806.478	27880
806.62	28067
806.762	28417
806.904	28778
807.046	29235
807.188	29398
807.33	29699
807.472	30277
807.614	30715
807.756	31392
807.898	32058
808.04	33313
808.182	34968
808.324	36924
808.465	39264
808.607	41653
808.749	43894
808.891	45420
809.033	45363
809.174	44122
809.316	41874
809.458	39222
809.6	36559
809.741	34607
809.883	32925
810.025	31989
810.166	31031
810.308	30334
810.45	29786
810.591	29535
810.733	29064
810.875	28729
811.016	28478
811.158	28246
811.299	28280
811.441	28166
811.582	28097
811.724	27888
811.865	27690
812.007	27679
812.148	27648
812.29	27526
812.431	27603
812.573	27846
812.714	27842
812.855	28025
812.997	28048
813.138	28017
813.279	27865
813.421	27823
813.562	27793
813.703	27526
813.845	27256
813.986	26994
814.127	26823
814.268	26678
814.41	26735
814.551	26708
814.692	26712
814.833	26609
814.974	26602
815.115	26556
815.256	26499
815.397	26492
815.539	26385
815.68	26161
815.821	26259
815.962	26229
816.103	26115
816.244	26115
816.385	25928
816.526	25784
816.666	25674
816.807	25510
816.948	25540
817.089	25696
817.23	25468
817.371	25514
817.512	25571
817.653	25502
817.793	25339
817.934	25403
818.075	25479
818.216	25354
818.356	25586
818.497	25377
818.638	25202
818.778	25221
818.919	25141
819.06	25141
819.2	25293
819.341	25324
819.481	25400
819.622	25407
819.762	25609
819.903	25609
820.043	25514
820.184	25392
820.324	25449
820.465	25449
820.605	25358
820.746	25251
820.886	25198
821.026	25297
821.167	25236
821.307	25202
821.447	25293
821.588	25027
821.728	25034
821.868	24703
822.008	24601
822.149	24673
822.289	24578
822.429	24391
822.569	24262
822.709	24197
822.849	24095
822.99	24091
823.13	23969
823.27	24030
823.41	23775
823.55	23718
823.69	23874
823.83	23904
823.97	23737
824.11	23573
824.25	23512
824.389	23558
824.529	23619
824.669	23463
824.809	23623
824.949	23684
825.089	23509
825.228	23604
825.368	23341
825.508	23402
825.648	23246
825.787	23421
825.927	23455
826.067	23246
826.206	23296
826.346	23459
826.485	23372
826.625	23425
826.765	23444
826.904	23258
827.044	23155
827.183	23223
827.323	23033
827.462	23037
827.601	23014
827.741	23014
827.88	22965
828.02	23052
828.159	22957
828.298	23052
828.437	23041
828.577	23014
828.716	23136
828.855	22892
828.994	22672
829.134	22740
829.273	22706
829.412	22717
829.551	22656
829.69	22736
829.829	22668
829.968	22782
830.107	22755
830.246	22637
830.385	22660
830.524	22565
830.663	22523
830.802	22428
830.941	22318
831.08	22238
831.219	22367
831.357	22382
831.496	22440
831.635	22268
831.774	22185
831.913	22166
832.051	22257
832.19	22181
832.329	22131
832.467	22040
832.606	21979
832.744	22044
832.883	22261
833.022	22147
833.16	22147
833.299	22337
833.437	22443
833.576	22656
833.714	22622
833.852	22790
833.991	22892
834.129	22965
834.267	23071
834.406	22911
834.544	22850
834.682	22733
834.821	22630
834.959	22710
835.097	22466
835.235	22599
835.373	22135
835.511	22162
835.65	22048
835.788	21949
835.926	21937
836.064	21732
836.202	21720
836.34	21774
836.478	22067
836.615	21720
836.753	21736
836.891	21922
837.029	21808
837.167	21770
837.305	21694
837.443	21675
837.58	21701
837.718	21728
837.856	21781
837.993	21504
838.131	21557
838.269	21591
838.406	21420
838.544	21397
838.681	21279
838.819	21218
838.956	21058
839.094	21005
839.231	21077
839.369	21272
839.506	21389
839.643	21340
839.781	20937
839.918	20925
840.055	21062
840.193	21009
840.33	20864
840.467	20918
840.604	21036
840.742	21214
840.879	20788
841.016	20849
841.153	20842
841.29	21150
841.427	20990
841.564	20842
841.701	20956
841.838	20929
841.975	20960
842.112	20849
842.249	20811
842.385	20735
842.522	20906
842.659	20804
842.796	20708
842.933	20743
843.069	20686
843.206	20667
843.343	20811
843.479	20819
843.616	20769
843.752	20670
843.889	20765
844.025	20826
844.162	20667
844.298	21051
844.435	21123
844.571	20994
844.708	21439
844.844	21827
844.98	21979
845.117	22493
845.253	23227
845.389	24642
845.525	27283
845.661	31674
845.798	36928
845.934	41010
846.07	42426
846.206	41474
846.342	37955
846.478	32743
846.614	28219
846.75	25012
846.886	23337
847.022	22318
847.158	21660
847.294	21131
847.429	20963
847.565	20583
847.701	20800
847.837	20111
847.972	20054
848.108	20103
848.244	20126
848.379	19890
848.515	19616
848.65	19693
848.786	19685
848.921	19807
849.057	19689
849.192	19746
849.328	19666
849.463	19670
849.598	19472
849.734	19582
849.869	19502
850.004	19464
850.14	19384
850.275	19396
850.41	19255
850.545	19221
850.68	19274
850.815	19441
850.95	19190
851.085	19419
851.22	19339
851.355	19183
851.49	19247
851.625	19209
851.76	19190
851.895	19213
852.03	19160
852.165	19297
852.299	19396
852.434	19301
852.569	19301
852.703	19289
852.838	19346
852.973	19457
853.107	19453
853.242	19308
853.376	19285
853.511	19198
853.645	19297
853.78	19457
853.914	19369
854.048	19369
854.183	19403
854.317	19453
854.451	19601
854.585	19373
854.72	19411
854.854	19449
854.988	19274
855.122	19308
855.256	19308
855.39	19240
855.524	19331
855.658	19274
855.792	19301
855.926	19236
856.06	19244
856.194	19194
856.327	19156
856.461	19187
856.595	19038
856.729	19168
856.862	19198
856.996	19126
857.13	19187
857.263	19221
857.397	19129
857.53	19084
857.664	19168
857.797	19198
857.931	19168
858.064	18939
858.197	19148
858.331	18970
858.464	18916
858.597	19004
858.731	18932
858.864	18886
858.997	18894
859.13	19015
859.263	18947
859.396	19038
859.529	18970
859.662	18966
859.795	18894
859.928	18962
860.061	19080
860.194	19145
860.327	19012
860.46	18951
860.592	19050
860.725	19072
860.858	19072
860.99	18958
861.123	18901
861.256	18947
861.388	18939
861.521	19643
861.653	18844
861.786	18711
861.918	18909
862.05	18798
862.183	18894
862.315	18993
862.447	19027
862.58	19000
862.712	18703
862.844	18684
862.976	18787
863.108	18711
863.24	19099
863.372	18582
863.504	18722
863.636	18665
863.768	18707
863.9	18681
864.032	18570
864.164	18566
864.296	18684
864.428	18681
864.559	18681
864.691	18772
864.823	18658
864.954	18650
865.086	18597
865.217	18589
865.349	18513
865.48	18502
865.612	18616
865.743	18677
865.875	18570
866.006	18445
866.137	18536
866.269	18517
866.4	18437
866.531	18525
866.662	18563
866.793	18536
866.924	18601
867.055	18479
867.186	18498
867.317	18570
867.448	18384
867.579	18486
867.71	18441
867.841	18410
867.972	18464
868.103	18445
868.233	18418
868.364	18509
868.495	18654
868.625	18764
868.756	18837
868.886	18627
869.017	18760
869.147	18795
869.278	18939
869.408	18760
869.539	18772
869.669	18920
869.799	18760
869.929	18928
870.06	19019
870.19	19053
870.32	19103
870.45	19057
870.58	19095
870.71	19384
870.84	19255
870.97	19274
871.1	19168
871.23	19312
871.36	19457
871.489	19438
871.619	19381
871.749	19491
871.879	19567
872.008	19556
872.138	19354
872.267	19548
872.397	19384
872.526	19343
872.656	19460
872.785	19354
872.915	19556
873.044	19708
873.173	19578
873.303	19651
873.432	19597
873.561	19647
873.69	19677
873.819	19708
873.948	19708
874.077	19769
874.206	19712
874.335	19685
874.464	19890
874.593	20126
874.722	20084
874.851	20122
874.979	20225
875.108	20176
875.237	20111
875.365	20084
875.494	20275
875.623	20301
875.751	20317
875.88	20332
876.008	20476
876.136	20484
876.265	20845
876.393	20918
876.521	21005
876.65	21104
876.778	21074
876.906	21051
877.034	21009
877.162	21169
877.29	21142
877.418	21165
877.546	21336
877.674	21260
877.802	21488
877.93	21466
878.058	21698
878.185	21781
878.313	22002
878.441	22329
878.568	22481
878.696	22995
878.824	23566
878.951	24536
879.079	25708
879.206	27378
879.333	28877
879.461	30304
879.588	31042
879.715	31164
879.842	30525
879.97	28946
880.097	27264
880.224	26092
880.351	24954
880.478	24551
880.605	24083
880.732	23760
880.859	23722
880.986	23330
881.112	23280
881.239	23140
881.366	22957
881.493	22782
881.619	22850
881.746	22927
881.872	22946
881.999	22839
882.125	22991
882.252	22995
882.378	23048
882.505	23067
882.631	23041
882.757	22927
882.883	22889
883.01	22843
883.136	22782
883.262	22736
883.388	22672
883.514	22778
883.64	22778
883.766	22755
883.892	22523
884.018	22634
884.143	22839
884.269	22835
884.395	22580
884.52	22550
884.646	22584
884.772	22580
884.897	22459
885.023	22497
885.148	22592
885.274	22497
885.399	22466
885.524	22382
885.65	22230
885.775	22017
885.9	21911
886.025	21998
886.15	21793
886.275	21660
886.4	21500
886.525	21435
886.65	21378
886.775	21237
886.9	21317
887.025	21367
887.149	21093
887.274	20845
887.399	20739
887.523	20640
887.648	20480
887.773	20423
887.897	20461
888.021	20469
888.146	20358
888.27	20377
888.395	20366
888.519	20362
888.643	20271
888.767	20180
888.891	20058
889.015	19803
889.139	19982
889.263	19909
889.387	20065
889.511	20016
889.635	19955
889.759	19769
889.883	19807
890.006	19765
890.13	19734
890.254	19529
890.377	19609
890.501	19381
890.624	19377
890.748	19411
890.871	19266
890.995	19179
891.118	18947
891.241	19164
891.364	19187
891.488	19148
891.611	19156
891.734	19012
891.857	19080
891.98	19015
892.103	19023
892.226	18993
892.349	18852
892.471	18768
892.594	18867
892.717	18810
892.839	18867
892.962	18783
893.085	18837
893.207	18642
893.33	18627
893.452	18703
893.575	18669
893.697	18673
893.819	18661
893.941	18798
894.064	18757
894.186	18483
894.308	18506
894.43	18513
894.552	18635
894.674	18612
894.796	18357
894.918	18498
895.04	18528
895.161	18578
895.283	18460
895.405	18471
895.526	18429
895.648	18384
895.769	18399
895.891	18475
896.012	18566
896.134	18483
896.255	18445
896.376	18346
896.498	18384
896.619	18399
896.74	18262
896.861	18418
896.982	18749
897.103	18738
897.224	18791
897.345	18593
897.466	18506
897.587	18597
897.708	18627
897.828	18650
897.949	18536
898.07	18376
898.19	18494
898.311	18616
898.431	18486
898.552	18547
898.672	18631
898.792	18650
898.913	18566
899.033	18528
899.153	18376
899.273	18213
899.393	18380
899.513	18334
899.633	18323
899.753	18342
899.873	18281
899.993	18384
900.113	18235
900.232	18258
900.352	18330
900.472	18209
900.591	18064
900.711	18117
900.83	18140
900.95	18194
901.069	18190
901.189	18038
901.308	17752
901.427	17729
901.546	17657
901.665	17756
901.784	17600
901.904	17630
902.023	17497
902.141	17296
902.26	17223
902.379	17204
902.498	17086
902.617	17166
902.735	17189
902.854	17090
902.973	17113
903.091	16847
903.21	16831
903.328	16896
903.446	16748
903.565	16607
903.683	16748
903.801	16504
903.919	16580
904.038	16531
904.156	16489
904.274	16577
904.392	16265
904.51	16462
904.627	16276
904.745	16455
904.863	16451
904.981	16181
905.098	16021
905.216	15998
905.334	16097
905.451	16002
905.569	15960
905.686	15964
905.803	15991
905.921	15766
906.038	15823
906.155	15876
906.272	15739
906.389	15614
906.506	15500
906.623	15572
906.74	15485
906.857	15428
906.974	15420
907.091	15606
907.208	15500
907.324	15561
907.441	15378
907.557	15256
907.674	15180
907.79	15291
907.907	15176
908.023	15287
908.139	15329
908.256	15195
908.372	15085
908.488	15093
908.604	14933
908.72	14944
908.836	14910
908.952	14921
909.068	14902
909.184	15028
909.3	14963
909.415	14952
909.531	14891
909.647	14746
909.762	14651
909.878	14636
909.993	14636
910.108	14644
910.224	14579
910.339	14746
910.454	14632
910.57	14488
910.685	14465
910.8	14720
910.915	14610
911.03	14480
911.145	14332
911.259	14282
911.374	14320
911.489	14096
911.604	14195
911.718	14088
911.833	13959
911.947	13940
912.062	13898
912.176	13993
912.291	13947
912.405	14031
912.519	14199
912.633	14161
912.748	14069
912.862	13970
912.976	13845
913.09	13700
913.204	13753
913.318	13902
913.431	13928
913.545	13890
913.659	13989
913.772	13772
913.886	13746
914	13674
914.113	13788
914.226	13727
914.34	13845
914.453	13677
914.566	13761
914.68	13586
914.793	13518
914.906	13476
915.019	13415
915.132	13160
915.245	13308
915.358	13415
915.47	13388
915.583	13346
915.696	13331
915.809	13525
915.921	13434
916.034	13263
916.146	13316
916.259	13171
916.371	13457
916.483	13415
916.595	13316
916.708	13327
916.82	13274
916.932	13354
917.044	13369
917.156	13266
917.268	13126
917.38	13141
917.491	13107
917.603	13160
917.715	13118
917.826	13285
917.938	13103
918.049	12947
918.161	13008
918.272	13118
918.384	13225
918.495	13084
918.606	12806
918.717	12837
918.828	12920
918.939	12935
919.05	12837
919.161	12844
919.272	12692
919.383	12787
919.494	12856
919.604	12993
919.715	12833
919.826	12779
919.936	12768
920.047	12894
920.157	12821
920.267	12966
920.378	12871
920.488	12730
920.598	12928
920.708	13091
920.818	12939
920.928	12951
921.038	13050
921.148	13019
921.258	12848
921.368	12791
921.477	12578
921.587	12551
921.697	12452
921.806	12551
921.916	12464
922.025	12254
922.134	12270
922.244	12091
922.353	12273
922.462	12098
922.571	12129
922.68	11950
922.789	11866
922.898	11984
923.007	11771
923.116	11973
923.224	11836
923.333	11828
923.442	11760
923.55	11767
923.659	11695
923.767	11710
923.876	11600
923.984	11798
924.092	11611
924.201	11718
924.309	11691
924.417	11680
924.525	11630
924.633	11634
924.741	12384
924.849	11459
924.956	11535
925.064	11383
925.172	11303
925.279	11471
925.387	11391
925.494	11398
925.602	11490
925.709	11471
925.816	11345
925.924	11417
926.031	11398
926.138	11376
926.245	11425
926.352	11269
926.459	11436
926.566	11497
926.673	11193
926.779	11223
926.886	11155
926.993	11029
927.099	11098
927.206	10915
927.312	10984
927.419	11018
927.525	11086
927.631	11052
927.737	10968
927.843	10824
927.95	10839
928.056	10873
928.162	10797
928.267	10942
928.373	11414
928.479	10885
928.585	10710
928.69	10786
928.796	10927
928.901	10873
929.007	10645
929.112	10687
929.218	10801
929.323	10687
929.428	10618
929.533	10843
929.638	10542
929.743	10561
929.848	10596
929.953	10645
930.058	10474
930.163	10329
930.267	10382
930.372	10596
930.477	10284
930.581	10527
930.685	10424
930.79	10291
930.894	10291
930.998	10215
931.103	10436
931.207	10013
931.311	9987
931.415	9838
931.519	9644
931.623	9656
