Data from test_V78500241_2167.txt Node
Date: Fri Mar 25 14:48:48 CST 2022
User: usil
Spectrometer: V785-0024
Trigger mode: 0
Integration Time (sec): 4.000000E-1
Scans to average: 1
Nonlinearity correction enabled: false
Boxcar width: 0
Storing dark spectrum: false
XAxis mode: Wavelengths
Number of Pixels in Spectrum: 1024
>>>>>Begin Spectral Data<<<<<
801.071	22158
801.214	22006
801.356	21713
801.499	21759
801.641	21591
801.783	21542
801.926	21500
802.068	21447
802.211	21348
802.353	21355
802.496	21157
802.638	20971
802.78	21112
802.923	20914
803.065	20743
803.208	20842
803.35	20918
803.492	20899
803.635	21005
803.777	20861
803.919	20914
804.061	21222
804.204	20842
804.346	20823
804.488	20697
804.63	20887
804.773	20731
804.915	20743
805.057	20826
805.199	20811
805.341	20815
805.483	20758
805.626	20891
805.768	20807
805.91	20830
806.052	20788
806.194	20693
806.336	20864
806.478	20834
806.62	20629
806.762	20845
806.904	20979
807.046	21154
807.188	21123
807.33	21138
807.472	21237
807.614	20994
807.756	21085
807.898	20914
808.04	20796
808.182	20868
808.324	20887
808.465	20838
808.607	21058
808.749	21302
808.891	21226
809.033	21294
809.174	21237
809.316	21066
809.458	21131
809.6	21230
809.741	21332
809.883	21169
810.025	21222
810.166	21218
810.308	21408
810.45	21195
810.591	21275
810.733	21039
810.875	20948
811.016	20906
811.158	20868
811.299	20986
811.441	21142
811.582	20986
811.724	20982
811.865	20838
812.007	20933
812.148	20994
812.29	20933
812.431	21039
812.573	21298
812.714	21218
812.855	21370
812.997	21485
813.138	21633
813.279	21511
813.421	21363
813.562	21332
813.703	21195
813.845	21062
813.986	20792
814.127	20743
814.268	20492
814.41	20625
814.551	20465
814.692	20533
814.833	20358
814.974	20454
815.115	20484
815.256	20465
815.397	20347
815.539	20385
815.68	20328
815.821	20183
815.962	20313
816.103	20324
816.244	20092
816.385	20020
816.526	19841
816.666	19811
816.807	19666
816.948	19666
817.089	19784
817.23	19746
817.371	19563
817.512	19613
817.653	19571
817.793	19677
817.934	19544
818.075	19624
818.216	19616
818.356	19556
818.497	19491
818.638	19266
818.778	19301
818.919	19320
819.06	19346
819.2	19339
819.341	19449
819.481	19556
819.622	19700
819.762	19875
819.903	19742
820.043	19715
820.184	19662
820.324	19578
820.465	19685
820.605	19597
820.746	19601
820.886	19552
821.026	19571
821.167	19544
821.307	19620
821.447	19559
821.588	19392
821.728	19327
821.868	19213
822.008	19145
822.149	18989
822.289	18985
822.429	18711
822.569	18673
822.709	18741
822.849	18498
822.99	18403
823.13	18376
823.27	18380
823.41	18380
823.55	18391
823.69	18270
823.83	18308
823.97	18228
824.11	18121
824.25	18049
824.389	18114
824.529	18125
824.669	18125
824.809	18213
824.949	18117
825.089	18087
825.228	18083
825.368	17939
825.508	17939
825.648	18022
825.787	17939
825.927	17779
826.067	17764
826.206	17813
826.346	17961
826.485	17817
826.625	17821
826.765	17836
826.904	17878
827.044	17653
827.183	17623
827.323	17611
827.462	17600
827.601	17505
827.741	17516
827.88	17581
828.02	17395
828.159	17448
828.298	17516
828.437	17729
828.577	17486
828.716	17661
828.855	17360
828.994	17334
829.134	17307
829.273	17356
829.412	17299
829.551	17239
829.69	17322
829.829	17277
829.968	17417
830.107	17292
830.246	17307
830.385	17193
830.524	17170
830.663	17113
830.802	17136
830.941	16938
831.08	16748
831.219	17056
831.357	16869
831.496	17045
831.635	16843
831.774	16713
831.913	16923
832.051	16683
832.19	16622
832.329	16706
832.467	16554
832.606	16493
832.744	16546
832.883	16546
833.022	16489
833.16	16634
833.299	16626
833.437	16569
833.576	16668
833.714	16531
833.852	16618
833.991	16683
834.129	16748
834.267	16668
834.406	16664
834.544	16706
834.682	16736
834.821	16687
834.959	16862
835.097	16736
835.235	16733
835.373	16725
835.511	16694
835.65	16519
835.788	16607
835.926	16443
836.064	16291
836.202	16367
836.34	16550
836.478	16561
836.615	16569
836.753	16656
836.891	16634
837.029	16459
837.167	16466
837.305	16493
837.443	16409
837.58	16299
837.718	16413
837.856	16367
837.993	16261
838.131	16314
838.269	16226
838.406	16257
838.544	16299
838.681	16192
838.819	16150
838.956	15941
839.094	16002
839.231	15975
839.369	16166
839.506	16390
839.643	16303
839.781	15987
839.918	15994
840.055	15846
840.193	15937
840.33	15941
840.467	15964
840.604	16013
840.742	16162
840.879	15797
841.016	15899
841.153	15869
841.29	16055
841.427	15983
841.564	16055
841.701	15956
841.838	15915
841.975	15903
842.112	15857
842.249	15755
842.385	15663
842.522	15842
842.659	15827
842.796	15724
842.933	15705
843.069	15622
843.206	15656
843.343	15717
843.479	15686
843.616	15709
843.752	15519
843.889	15542
844.025	15686
844.162	15538
844.298	15652
844.435	15496
844.571	15500
844.708	15652
844.844	15698
844.98	15682
845.117	15663
845.253	15397
845.389	15336
845.525	15488
845.661	15466
845.798	15351
845.934	15443
846.07	15157
846.206	15416
846.342	15374
846.478	15294
846.614	15211
846.75	15028
846.886	15017
847.022	15279
847.158	15077
847.294	15131
847.429	15135
847.565	15100
847.701	15275
847.837	14872
847.972	14811
848.108	14826
848.244	14960
848.379	14724
848.515	14689
848.65	14758
848.786	14678
848.921	14689
849.057	14819
849.192	14758
849.328	14678
849.463	14708
849.598	14667
849.734	14598
849.869	14530
850.004	14400
850.14	14507
850.275	14476
850.41	14404
850.545	14446
850.68	14415
850.815	14450
850.95	14450
851.085	14575
851.22	14571
851.355	14396
851.49	14415
851.625	14415
851.76	14355
851.895	14290
852.03	14282
852.165	14404
852.299	14389
852.434	14480
852.569	14469
852.703	14492
852.838	14575
852.973	14602
853.107	14594
853.242	14385
853.376	14404
853.511	14225
853.645	14298
853.78	14343
853.914	14351
854.048	14309
854.183	14180
854.317	14351
854.451	14461
854.585	14259
854.72	14332
854.854	14408
854.988	14195
855.122	14278
855.256	14168
855.39	14317
855.524	14328
855.658	14362
855.792	14263
855.926	14393
856.06	14431
856.194	14446
856.327	14343
856.461	14263
856.595	14221
856.729	14320
856.862	14476
856.996	14362
857.13	14385
857.263	14434
857.397	14393
857.53	14282
857.664	14358
857.797	14457
857.931	14434
858.064	14389
858.197	14480
858.331	14328
858.464	14309
858.597	14176
858.731	14278
858.864	14320
858.997	14385
859.13	14298
859.263	14259
859.396	14408
859.529	14119
859.662	14199
859.795	14286
859.928	14480
860.061	14495
860.194	14465
860.327	14282
860.46	14278
860.592	14415
860.725	14461
860.858	14526
860.99	14381
861.123	14278
861.256	14263
861.388	14343
861.521	14876
861.653	14161
861.786	14180
861.918	14088
862.05	14199
862.183	14301
862.315	14244
862.447	14400
862.58	14336
862.712	14012
862.844	13997
862.976	14115
863.108	14202
863.24	14507
863.372	14043
863.504	14107
863.636	14046
863.768	14138
863.9	14134
864.032	13997
864.164	14119
864.296	14043
864.428	14214
864.559	14199
864.691	14210
864.823	14240
864.954	14142
865.086	14126
865.217	14043
865.349	13940
865.48	14077
865.612	14134
865.743	14267
865.875	14206
866.006	14084
866.137	14012
866.269	14069
866.4	13989
866.531	14088
866.662	14046
866.793	14031
866.924	14001
867.055	14096
867.186	14058
867.317	14058
867.448	13890
867.579	13970
867.71	13989
867.841	13978
867.972	14069
868.103	14058
868.233	14073
868.364	14065
868.495	14168
868.625	14275
868.756	14366
868.886	14282
869.017	14282
869.147	14404
869.278	14446
869.408	14362
869.539	14358
869.669	14412
869.799	14294
869.929	14507
870.06	14461
870.19	14640
870.32	14644
870.45	14678
870.58	14731
870.71	14857
870.84	14864
870.97	14712
871.1	14682
871.23	14925
871.36	14975
871.489	14746
871.619	14769
871.749	14868
871.879	15013
872.008	15085
872.138	14880
872.267	14960
872.397	14686
872.526	14701
872.656	14655
872.785	14705
872.915	14998
873.044	15055
873.173	15036
873.303	14899
873.432	14967
873.561	15043
873.69	15070
873.819	14975
873.948	15062
874.077	14975
874.206	14952
874.335	15028
874.464	15214
874.593	15184
874.722	15165
874.851	15408
874.979	15294
875.108	15291
875.237	15195
875.365	15157
875.494	15226
875.623	15401
875.751	15222
875.88	15355
876.008	15447
876.136	15462
876.265	15698
876.393	15823
876.521	15785
876.65	15679
876.778	15774
876.906	15603
877.034	15542
877.162	15709
877.29	15591
877.418	15675
877.546	15739
877.674	15675
877.802	15709
877.93	15755
878.058	15595
878.185	15629
878.313	15682
878.441	15774
878.568	15580
878.696	15694
878.824	15671
878.951	15762
879.079	15827
879.206	16051
879.333	15850
879.461	15694
879.588	15797
879.715	15994
879.842	15979
879.97	15728
880.097	15595
880.224	15492
880.351	15618
880.478	15511
880.605	15439
880.732	15511
880.859	15736
880.986	15580
881.112	15629
881.239	15416
881.366	15279
881.493	15268
881.619	15245
881.746	15184
881.872	15203
881.999	15119
882.125	15169
882.252	15241
882.378	15184
882.505	15287
882.631	15188
882.757	15051
882.883	14990
883.01	15074
883.136	14986
883.262	14861
883.388	14902
883.514	15020
883.64	15001
883.766	14956
883.892	14834
884.018	14956
884.143	15108
884.269	15146
884.395	14754
884.52	14682
884.646	14773
884.772	14556
884.897	14560
885.023	14765
885.148	14853
885.274	14861
885.399	14880
885.524	14765
885.65	14693
885.775	14804
885.9	14743
886.025	14720
886.15	14796
886.275	14735
886.4	14693
886.525	14739
886.65	14667
886.775	14689
886.9	14883
887.025	14887
887.149	14765
887.274	14579
887.399	14495
887.523	14507
887.648	14442
887.773	14427
887.897	14651
888.021	14636
888.146	14526
888.27	14621
888.395	14640
888.519	14568
888.643	14686
888.767	14613
888.891	14480
889.015	14408
889.139	14549
889.263	14427
889.387	14488
889.511	14727
889.635	14526
889.759	14446
889.883	14457
890.006	14393
890.13	14488
890.254	14305
890.377	14362
890.501	14176
890.624	14210
890.748	14244
890.871	14164
890.995	14035
891.118	14020
891.241	14134
891.364	14100
891.488	14271
891.611	14191
891.734	14142
891.857	14206
891.98	14126
892.103	14157
892.226	14084
892.349	14149
892.471	13967
892.594	14142
892.717	14103
892.839	14115
892.962	14130
893.085	14123
893.207	14199
893.33	14031
893.452	14020
893.575	14096
893.697	14138
893.819	14286
893.941	14404
894.064	14172
894.186	14153
894.308	14149
894.43	14221
894.552	14313
894.674	14286
894.796	14119
894.918	14164
895.04	14096
895.161	14237
895.283	14218
895.405	14138
895.526	14278
895.648	14259
895.769	14286
895.891	14267
896.012	14332
896.134	14267
896.255	14355
896.376	14210
896.498	14309
896.619	14355
896.74	14301
896.861	14336
896.982	14670
897.103	14811
897.224	14461
897.345	14556
897.466	14495
897.587	14689
897.708	14594
897.828	14545
897.949	14556
898.07	14415
898.19	14518
898.311	14663
898.431	14503
898.552	14632
898.672	14712
898.792	14724
898.913	14644
899.033	14526
899.153	14495
899.273	14351
899.393	14461
899.513	14457
899.633	14454
899.753	14629
899.873	14461
899.993	14579
900.113	14465
900.232	14514
900.352	14412
900.472	14488
900.591	14343
900.711	14442
900.83	14328
900.95	14419
901.069	14503
901.189	14355
901.308	14081
901.427	14100
901.546	13982
901.665	14111
901.784	14130
901.904	14020
902.023	13750
902.141	13685
902.26	13658
902.379	13784
902.498	13628
902.617	13597
902.735	13624
902.854	13514
902.973	13533
903.091	13362
903.21	13350
903.328	13308
903.446	13255
903.565	13221
903.683	13240
903.801	13061
903.919	13209
904.038	13194
904.156	13050
904.274	13091
904.392	13076
904.51	13000
904.627	13015
904.745	13069
904.863	12985
904.981	12837
905.098	12673
905.216	12688
905.334	12764
905.451	12726
905.569	12604
905.686	12741
905.803	12798
905.921	12521
906.038	12631
906.155	12483
906.272	12365
906.389	12433
906.506	12315
906.623	12296
906.74	12194
906.857	12292
906.974	12270
907.091	12407
907.208	12357
907.324	12277
907.441	12182
907.557	12038
907.674	11999
907.79	11950
907.907	12015
908.023	12007
908.139	11946
908.256	11992
908.372	11965
908.488	11863
908.604	11802
908.72	11748
908.836	11767
908.952	11764
909.068	11836
909.184	11870
909.3	11832
909.415	11733
909.531	11855
909.647	11589
909.762	11512
909.878	11581
909.993	11577
910.108	11524
910.224	11524
910.339	11707
910.454	11467
910.57	11417
910.685	11311
910.8	11608
910.915	11467
911.03	11463
911.145	11185
911.259	11277
911.374	11254
911.489	11132
911.604	11105
911.718	11090
911.833	10946
911.947	10885
912.062	10854
912.176	10976
912.291	11067
912.405	10930
912.519	11193
912.633	11159
912.748	11086
912.862	11022
912.976	10900
913.09	10793
913.204	10889
913.318	10820
913.431	10953
913.545	10923
913.659	10896
913.772	10938
913.886	10805
914	10706
914.113	10900
914.226	10930
914.34	10858
914.453	10637
914.566	10892
914.68	10664
914.793	10710
914.906	10565
915.019	10493
915.132	10417
915.245	10508
915.358	10569
915.47	10512
915.583	10523
915.696	10538
915.809	10554
915.921	10637
916.034	10561
916.146	10535
916.259	10417
916.371	10588
916.483	10523
916.595	10459
916.708	10443
916.82	10478
916.932	10363
917.044	10504
917.156	10409
917.268	10280
917.38	10314
917.491	10299
917.603	10413
917.715	10413
917.826	10443
917.938	10306
918.049	10253
918.161	10329
918.272	10447
918.384	10500
918.495	10310
918.606	10116
918.717	10162
918.828	10246
918.939	10162
919.05	10078
919.161	10204
919.272	9968
919.383	10055
919.494	10177
919.604	10466
919.715	10268
919.826	10166
919.936	10211
920.047	10287
920.157	10265
920.267	10405
920.378	10310
920.488	10196
920.598	10398
920.708	10596
920.818	10371
920.928	10329
921.038	10618
921.148	10424
921.258	10192
921.368	10154
921.477	10101
921.587	10097
921.697	9979
921.806	10154
921.916	9987
922.025	9785
922.134	9755
922.244	9724
922.353	9838
922.462	9709
922.571	9610
922.68	9435
922.789	9431
922.898	9492
923.007	9332
923.116	9553
923.224	9469
923.333	9462
923.442	9378
923.55	9374
923.659	9420
923.767	9397
923.876	9351
923.984	9488
924.092	9241
924.201	9393
924.309	9374
924.417	9275
924.525	9283
924.633	9313
924.741	10048
924.849	9131
924.956	9279
925.064	9173
925.172	9001
925.279	9116
925.387	9169
925.494	9138
925.602	9260
925.709	9176
925.816	9100
925.924	9108
926.031	9203
926.138	9131
926.245	9161
926.352	9066
926.459	9226
926.566	9241
926.673	9150
926.779	9013
926.886	9013
926.993	8857
927.099	8918
927.206	8826
927.312	8788
927.419	8941
927.525	8872
927.631	8918
927.737	8758
927.843	8735
927.95	8667
928.056	8754
928.162	8705
928.267	8895
928.373	9351
928.479	8796
928.585	8594
928.69	8724
928.796	8800
928.901	8629
929.007	8587
929.112	8678
929.218	8632
929.323	8606
929.428	8590
929.533	8678
929.638	8454
929.743	8545
929.848	8583
929.953	8541
930.058	8522
930.163	8290
930.267	8339
930.372	8552
930.477	8259
930.581	8579
930.685	8438
930.79	8286
930.894	8313
930.998	8339
931.103	8400
931.207	8111
931.311	7970
931.415	7951
931.519	7772
931.623	7742
