Data from test_V78500241_121.txt Node
Date: Fri Mar 25 14:34:34 CST 2022
User: usil
Spectrometer: V785-0024
Trigger mode: 0
Integration Time (sec): 4.000000E-1
Scans to average: 1
Nonlinearity correction enabled: false
Boxcar width: 0
Storing dark spectrum: false
XAxis mode: Wavelengths
Number of Pixels in Spectrum: 1024
>>>>>Begin Spectral Data<<<<<
801.071	29973
801.214	29821
801.356	29566
801.499	29471
801.641	29452
801.783	29341
801.926	29360
802.068	29200
802.211	29151
802.353	29204
802.496	29109
802.638	28965
802.78	29052
802.923	28949
803.065	28923
803.208	29159
803.35	28911
803.492	29220
803.635	29220
803.777	28953
803.919	29128
804.061	29493
804.204	29296
804.346	29162
804.488	29094
804.63	29341
804.773	29231
804.915	29463
805.057	29539
805.199	29577
805.341	29581
805.483	29843
805.626	29710
805.768	29756
805.91	29931
806.052	29965
806.194	29817
806.336	30376
806.478	30243
806.62	30460
806.762	30631
806.904	30970
807.046	31392
807.188	31590
807.33	31818
807.472	32427
807.614	33005
807.756	33424
807.898	34329
808.04	35444
808.182	37088
808.324	38887
808.465	41079
808.607	43502
808.749	45671
808.891	46847
809.033	47098
809.174	45568
809.316	43445
809.458	40892
809.6	38571
809.741	36509
809.883	34927
810.025	34124
810.166	33119
810.308	32629
810.45	32183
810.591	31769
810.733	31301
810.875	31004
811.016	30772
811.158	30559
811.299	30517
811.441	30486
811.582	30555
811.724	30095
811.865	30186
812.007	30117
812.148	30041
812.29	29984
812.431	30106
812.573	30155
812.714	30388
812.855	30285
812.997	30300
813.138	30661
813.279	30388
813.421	30133
813.562	30186
813.703	29916
813.845	29798
813.986	29501
814.127	29311
814.268	29220
814.41	29212
814.551	29200
814.692	29212
814.833	28999
814.974	28938
815.115	28980
815.256	28961
815.397	28847
815.539	28774
815.68	28618
815.821	28584
815.962	28637
816.103	28577
816.244	28523
816.385	28268
816.526	28287
816.666	28128
816.807	27975
816.948	28032
817.089	28124
817.23	28177
817.371	27884
817.512	27907
817.653	27960
817.793	27892
817.934	27873
818.075	27880
818.216	27903
818.356	27789
818.497	27762
818.638	27663
818.778	27583
818.919	27576
819.06	27591
819.2	27656
819.341	27861
819.481	27770
819.622	27892
819.762	28051
819.903	27949
820.043	27968
820.184	27918
820.324	27819
820.465	27994
820.605	27793
820.746	27633
820.886	27686
821.026	27644
821.167	27648
821.307	27739
821.447	27671
821.588	27454
821.728	27294
821.868	27226
822.008	26979
822.149	27066
822.289	27017
822.429	26765
822.569	26746
822.709	26689
822.849	26530
822.99	26461
823.13	26381
823.27	26263
823.41	26381
823.55	26122
823.69	26282
823.83	26126
823.97	26214
824.11	25974
824.25	25955
824.389	26050
824.529	25963
824.669	25989
824.809	26084
824.949	26092
825.089	26210
825.228	26084
825.368	25807
825.508	25883
825.648	25852
825.787	25864
825.927	25879
826.067	25830
826.206	25704
826.346	25818
826.485	25776
826.625	25875
826.765	25818
826.904	25784
827.044	25597
827.183	25460
827.323	25460
827.462	25487
827.601	25529
827.741	25457
827.88	25434
828.02	25259
828.159	25343
828.298	25438
828.437	25453
828.577	25373
828.716	25403
828.855	25316
828.994	25228
829.134	25107
829.273	25019
829.412	25095
829.551	25015
829.69	25065
829.829	24981
829.968	25179
830.107	25156
830.246	25091
830.385	24954
830.524	24875
830.663	24833
830.802	24734
830.941	24696
831.08	24665
831.219	25000
831.357	24791
831.496	24951
831.635	24612
831.774	24589
831.913	24555
832.051	24388
832.19	24391
832.329	24467
832.467	24403
832.606	24418
832.744	24441
832.883	24559
833.022	24441
833.16	24654
833.299	24669
833.437	24738
833.576	24856
833.714	24996
833.852	25107
833.991	25381
834.129	25194
834.267	25217
834.406	25316
834.544	25118
834.682	25050
834.821	24916
834.959	24966
835.097	24650
835.235	24753
835.373	24525
835.511	24509
835.65	24456
835.788	24357
835.926	24159
836.064	24060
836.202	24102
836.34	24178
836.478	24315
836.615	24106
836.753	24110
836.891	24232
837.029	24190
837.167	24095
837.305	24136
837.443	23999
837.58	23904
837.718	24079
837.856	24034
837.993	23836
838.131	23942
838.269	23790
838.406	23832
838.544	23726
838.681	23543
838.819	23440
838.956	23318
839.094	23231
839.231	23322
839.369	23402
839.506	23627
839.643	23649
839.781	23197
839.918	23261
840.055	23166
840.193	23265
840.33	23143
840.467	23083
840.604	23204
840.742	23417
840.879	23143
841.016	23098
841.153	23181
841.29	23307
841.427	23254
841.564	23296
841.701	23197
841.838	23254
841.975	23128
842.112	23083
842.249	22980
842.385	22946
842.522	23185
842.659	23086
842.796	22854
842.933	23029
843.069	22900
843.206	22957
843.343	23079
843.479	23022
843.616	23006
843.752	22831
843.889	22976
844.025	23121
844.162	22934
844.298	23242
844.435	23162
844.571	23223
844.708	23516
844.844	23889
844.98	24300
845.117	24494
845.253	25297
845.389	26632
845.525	29174
845.661	33447
845.798	38488
845.934	42224
846.07	43750
846.206	42757
846.342	39214
846.478	34440
846.614	29996
846.75	26982
846.886	25285
847.022	24429
847.158	23726
847.294	23265
847.429	22915
847.565	22774
847.701	22847
847.837	22310
847.972	22147
848.108	22329
848.244	22131
848.379	22093
848.515	21911
848.65	21972
848.786	21888
848.921	21827
849.057	21899
849.192	21854
849.328	21827
849.463	21751
849.598	21743
849.734	21671
849.869	21641
850.004	21447
850.14	21500
850.275	21534
850.41	21401
850.545	21416
850.68	21542
850.815	21507
850.95	21511
851.085	21614
851.22	21553
851.355	21504
851.49	21359
851.625	21397
851.76	21412
851.895	21321
852.03	21310
852.165	21515
852.299	21462
852.434	21519
852.569	21488
852.703	21561
852.838	21561
852.973	21690
853.107	21633
853.242	21405
853.376	21336
853.511	21298
853.645	21230
853.78	21625
853.914	21568
854.048	21637
854.183	21481
854.317	21583
854.451	21698
854.585	21641
854.72	21477
854.854	21561
854.988	21507
855.122	21416
855.256	21374
855.39	21458
855.524	21496
855.658	21317
855.792	21317
855.926	21264
856.06	21230
856.194	21302
856.327	21298
856.461	21184
856.595	21180
856.729	21226
856.862	21317
856.996	21222
857.13	21218
857.263	21393
857.397	21359
857.53	21093
857.664	21180
857.797	21306
857.931	21275
858.064	21123
858.197	21142
858.331	21108
858.464	21154
858.597	21135
858.731	21020
858.864	21032
858.997	21066
859.13	21085
859.263	21020
859.396	21226
859.529	21081
859.662	21058
859.795	20910
859.928	21096
860.061	21245
860.194	21169
860.327	21089
860.46	21127
860.592	21135
860.725	21154
860.858	21268
860.99	21017
861.123	21017
861.256	20994
861.388	21089
861.521	21732
861.653	20975
861.786	20895
861.918	20872
862.05	20921
862.183	20982
862.315	21146
862.447	21222
862.58	21005
862.712	20815
862.844	20781
862.976	20754
863.108	20830
863.24	21066
863.372	20636
863.504	20796
863.636	20785
863.768	20708
863.9	20682
864.032	20735
864.164	20629
864.296	20750
864.428	20743
864.559	20678
864.691	20842
864.823	20583
864.954	20716
865.086	20693
865.217	20556
865.349	20552
865.48	20655
865.612	20651
865.743	20674
865.875	20625
866.006	20511
866.137	20545
866.269	20541
866.4	20667
866.531	20537
866.662	20465
866.793	20495
866.924	20579
867.055	20594
867.186	20552
867.317	20377
867.448	20355
867.579	20507
867.71	20556
867.841	20461
867.972	20526
868.103	20454
868.233	20590
868.364	20431
868.495	20716
868.625	20792
868.756	20785
868.886	20773
869.017	20765
869.147	20834
869.278	20887
869.408	20807
869.539	20864
869.669	20807
869.799	20659
869.929	20948
870.06	20910
870.19	21157
870.32	21058
870.45	21123
870.58	21142
870.71	21367
870.84	21428
870.97	21268
871.1	21283
871.23	21408
871.36	21321
871.489	21443
871.619	21496
871.749	21443
871.879	21564
872.008	21595
872.138	21538
872.267	21447
872.397	21466
872.526	21260
872.656	21294
872.785	21412
872.915	21568
873.044	21660
873.173	21424
873.303	21728
873.432	21580
873.561	21785
873.69	21698
873.819	21682
873.948	21663
874.077	21747
874.206	21637
874.335	21846
874.464	21907
874.593	21979
874.722	22010
874.851	22105
874.979	22211
875.108	22131
875.237	22105
875.365	22158
875.494	22143
875.623	22234
875.751	22078
875.88	22348
876.008	22512
876.136	22565
876.265	22755
876.393	22881
876.521	22873
876.65	23044
876.778	22976
876.906	22774
877.034	22957
877.162	23041
877.29	22957
877.418	23147
877.546	23261
877.674	23223
877.802	23417
877.93	23410
878.058	23535
878.185	23623
878.313	23954
878.441	24182
878.568	24353
878.696	24741
878.824	25483
878.951	26389
879.079	27507
879.206	29037
879.333	30498
879.461	31594
879.588	32609
879.715	32598
879.842	32092
879.97	30540
880.097	28934
880.224	27603
880.351	26937
880.478	26282
880.605	25837
880.732	25510
880.859	25556
880.986	25152
881.112	25080
881.239	24947
881.366	24791
881.493	24692
881.619	24639
881.746	24894
881.872	24684
881.999	24696
882.125	24585
882.252	24722
882.378	24787
882.505	24882
882.631	24707
882.757	24669
882.883	24593
883.01	24658
883.136	24665
883.262	24384
883.388	24467
883.514	24498
883.64	24532
883.766	24414
883.892	24460
884.018	24296
884.143	24509
884.269	24532
884.395	24342
884.52	24304
884.646	24270
884.772	24125
884.897	24129
885.023	24369
885.148	24144
885.274	24292
885.399	24251
885.524	24011
885.65	24045
885.775	23779
885.9	23813
886.025	23767
886.15	23615
886.275	23402
886.4	23174
886.525	23143
886.65	23056
886.775	22911
886.9	23124
887.025	23083
887.149	22752
887.274	22649
887.399	22413
887.523	22474
887.648	22363
887.773	22048
887.897	22299
888.021	22196
888.146	22055
888.27	22154
888.395	22082
888.519	22074
888.643	22029
888.767	21899
888.891	21850
889.015	21523
889.139	21804
889.263	21720
889.387	21614
889.511	21724
889.635	21553
889.759	21534
889.883	21473
890.006	21435
890.13	21572
890.254	21268
890.377	21367
890.501	21077
890.624	21081
890.748	21142
890.871	21051
890.995	20925
891.118	20830
891.241	21017
891.364	20883
891.488	20967
891.611	20849
891.734	20689
891.857	20921
891.98	20659
892.103	20746
892.226	20571
892.349	20636
892.471	20476
892.594	20598
892.717	20583
892.839	20457
892.962	20423
893.085	20511
893.207	20480
893.33	20336
893.452	20408
893.575	20381
893.697	20362
893.819	20575
893.941	20473
894.064	20442
894.186	20195
894.308	20206
894.43	20328
894.552	20431
894.674	20381
894.796	20088
894.918	20214
895.04	20107
895.161	20229
895.283	20157
895.405	20054
895.526	20122
895.648	20069
895.769	20187
895.891	20122
896.012	20157
896.134	20084
896.255	19951
896.376	19970
896.498	20054
896.619	20107
896.74	20016
896.861	20084
896.982	20278
897.103	20522
897.224	20313
897.345	20206
897.466	20180
897.587	20290
897.708	20332
897.828	20168
897.949	20301
898.07	19940
898.19	20153
898.311	20153
898.431	20122
898.552	20138
898.672	20206
898.792	20351
898.913	20050
899.033	20005
899.153	19986
899.273	19898
899.393	19875
899.513	19951
899.633	19894
899.753	19890
899.873	19742
899.993	19875
900.113	19807
900.232	19799
900.352	19723
900.472	19715
900.591	19715
900.711	19670
900.83	19506
900.95	19738
901.069	19811
901.189	19578
901.308	19343
901.427	19335
901.546	19263
901.665	19327
901.784	19198
901.904	19080
902.023	18958
902.141	18730
902.26	18650
902.379	18764
902.498	18547
902.617	18631
902.735	18608
902.854	18639
902.973	18665
903.091	18247
903.21	18311
903.328	18342
903.446	18155
903.565	18030
903.683	18041
903.801	17946
903.919	18163
904.038	18098
904.156	17870
904.274	17954
904.392	17885
904.51	17813
904.627	17786
904.745	17908
904.863	17779
904.981	17684
905.098	17433
905.216	17410
905.334	17459
905.451	17452
905.569	17429
905.686	17444
905.803	17459
905.921	17284
906.038	17311
906.155	17178
906.272	17200
906.389	17151
906.506	16980
906.623	16995
906.74	16991
906.857	16919
906.974	16843
907.091	16965
907.208	17102
907.324	16889
907.441	16923
907.557	16755
907.674	16603
907.79	16580
907.907	16618
908.023	16698
908.139	16607
908.256	16588
908.372	16546
908.488	16546
908.604	16447
908.72	16322
908.836	16421
908.952	16230
909.068	16333
909.184	16344
909.3	16261
909.415	16318
909.531	16265
909.647	16048
909.762	16044
909.878	15968
909.993	16025
910.108	15934
910.224	15994
910.339	16067
910.454	15869
910.57	15865
910.685	15785
910.8	16097
910.915	15922
911.03	15816
911.145	15766
911.259	15618
911.374	15663
911.489	15572
911.604	15431
911.718	15424
911.833	15321
911.947	15161
912.062	15184
912.176	15367
912.291	15359
912.405	15302
912.519	15389
912.633	15542
912.748	15348
912.862	15348
912.976	15245
913.09	15119
913.204	15173
913.318	15146
913.431	15241
913.545	15298
913.659	15169
913.772	15066
913.886	14979
914	14891
914.113	15047
914.226	15058
914.34	15100
914.453	14891
914.566	15013
914.68	14933
914.793	14842
914.906	14739
915.019	14594
915.132	14629
915.245	14545
915.358	14686
915.47	14701
915.583	14640
915.696	14663
915.809	14746
915.921	14826
916.034	14670
916.146	14511
916.259	14564
916.371	14549
916.483	14594
916.595	14571
916.708	14511
916.82	14503
916.932	14579
917.044	14503
917.156	14469
917.268	14393
917.38	14438
917.491	14343
917.603	14351
917.715	14419
917.826	14438
917.938	14278
918.049	14134
918.161	14233
918.272	14278
918.384	14415
918.495	14199
918.606	14145
918.717	14088
918.828	14039
918.939	14073
919.05	14008
919.161	14035
919.272	13765
919.383	13791
919.494	14012
919.604	14275
919.715	13921
919.826	13906
919.936	13970
920.047	14050
920.157	13936
920.267	14100
920.378	13997
920.488	13978
920.598	14164
920.708	14294
920.818	14012
920.928	14073
921.038	14244
921.148	14145
921.258	13928
921.368	13795
921.477	13723
921.587	13628
921.697	13655
921.806	13655
921.916	13601
922.025	13415
922.134	13320
922.244	13320
922.353	13400
922.462	13171
922.571	13122
922.68	13027
922.789	12939
922.898	13069
923.007	12909
923.116	13008
923.224	12981
923.333	12928
923.442	12871
923.55	12821
923.659	12909
923.767	12905
923.876	12681
923.984	12806
924.092	12711
924.201	12772
924.309	12749
924.417	12738
924.525	12650
924.633	12677
924.741	13597
924.849	12448
924.956	12589
925.064	12429
925.172	12338
925.279	12490
925.387	12479
925.494	12479
925.602	12585
925.709	12517
925.816	12338
925.924	12384
926.031	12410
926.138	12445
926.245	12498
926.352	12220
926.459	12410
926.566	12452
926.673	12308
926.779	12213
926.886	12194
926.993	12072
927.099	12011
927.206	11980
927.312	11961
927.419	12034
927.525	11992
927.631	12117
927.737	11954
927.843	11836
927.95	11783
928.056	11813
928.162	11923
928.267	11908
928.373	12388
928.479	11980
928.585	11707
928.69	11737
928.796	11710
928.901	11589
929.007	11634
929.112	11680
929.218	11623
929.323	11558
929.428	11566
929.533	11726
929.638	11410
929.743	11543
929.848	11532
929.953	11535
930.058	11429
930.163	11212
930.267	11258
930.372	11360
930.477	11159
930.581	11532
930.685	11288
930.79	11132
930.894	11189
930.998	11052
931.103	11239
931.207	10877
931.311	10850
931.415	10725
931.519	10542
931.623	10508
