Data from test_V78500241_2791.txt Node
Date: Fri Mar 25 14:53:08 CST 2022
User: usil
Spectrometer: V785-0024
Trigger mode: 0
Integration Time (sec): 4.000000E-1
Scans to average: 1
Nonlinearity correction enabled: false
Boxcar width: 0
Storing dark spectrum: false
XAxis mode: Wavelengths
Number of Pixels in Spectrum: 1024
>>>>>Begin Spectral Data<<<<<
801.071	22135
801.214	22090
801.356	21652
801.499	21663
801.641	21393
801.783	21431
801.926	21458
802.068	21393
802.211	21344
802.353	21123
802.496	21009
802.638	21001
802.78	20739
802.923	20880
803.065	20754
803.208	20667
803.35	20861
803.492	20921
803.635	20826
803.777	20891
803.919	20765
804.061	21154
804.204	20788
804.346	20716
804.488	20663
804.63	20727
804.773	20511
804.915	20621
805.057	20693
805.199	20678
805.341	20674
805.483	20807
805.626	20796
805.768	20541
805.91	20598
806.052	20705
806.194	20571
806.336	20815
806.478	20621
806.62	20629
806.762	20792
806.904	20769
807.046	21005
807.188	20979
807.33	20975
807.472	20990
807.614	20823
807.756	20967
807.898	20758
808.04	20667
808.182	20792
808.324	20800
808.465	20777
808.607	20979
808.749	21081
808.891	21055
809.033	21165
809.174	21116
809.316	20914
809.458	20998
809.6	21001
809.741	21058
809.883	21138
810.025	21218
810.166	21116
810.308	21157
810.45	21119
810.591	20986
810.733	20914
810.875	20887
811.016	20739
811.158	20705
811.299	20754
811.441	20883
811.582	20944
811.724	20712
811.865	20708
812.007	20754
812.148	20739
812.29	20929
812.431	20845
812.573	21066
812.714	21214
812.855	21348
812.997	21344
813.138	21439
813.279	21439
813.421	21245
813.562	21104
813.703	21074
813.845	20963
813.986	20549
814.127	20609
814.268	20343
814.41	20324
814.551	20396
814.692	20370
814.833	20153
814.974	20275
815.115	20309
815.256	20176
815.397	20282
815.539	20149
815.68	20012
815.821	20050
815.962	20130
816.103	20024
816.244	19868
816.385	19841
816.526	19674
816.666	19632
816.807	19445
816.948	19537
817.089	19616
817.23	19548
817.371	19483
817.512	19457
817.653	19430
817.793	19438
817.934	19411
818.075	19601
818.216	19567
818.356	19358
818.497	19202
818.638	19072
818.778	19099
818.919	19137
819.06	19171
819.2	19259
819.341	19388
819.481	19297
819.622	19445
819.762	19628
819.903	19578
820.043	19609
820.184	19449
820.324	19468
820.465	19521
820.605	19506
820.746	19411
820.886	19320
821.026	19521
821.167	19495
821.307	19529
821.447	19377
821.588	19259
821.728	19110
821.868	19050
822.008	18821
822.149	18939
822.289	18981
822.429	18688
822.569	18582
822.709	18589
822.849	18235
822.99	18422
823.13	18399
823.27	18235
823.41	17999
823.55	18064
823.69	18114
823.83	18144
823.97	18136
824.11	17874
824.25	17809
824.389	17961
824.529	18015
824.669	17950
824.809	18083
824.949	18049
825.089	18041
825.228	17866
825.368	17760
825.508	17710
825.648	17821
825.787	17733
825.927	17767
826.067	17509
826.206	17596
826.346	17729
826.485	17668
826.625	17767
826.765	17748
826.904	17695
827.044	17455
827.183	17379
827.323	17307
827.462	17417
827.601	17444
827.741	17368
827.88	17349
828.02	17296
828.159	17296
828.298	17353
828.437	17398
828.577	17452
828.716	17395
828.855	17299
828.994	17143
829.134	17124
829.273	17261
829.412	17140
829.551	17064
829.69	17140
829.829	17162
829.968	17284
830.107	17181
830.246	17136
830.385	17083
830.524	17006
830.663	16995
830.802	16763
830.941	16744
831.08	16729
831.219	16797
831.357	16790
831.496	16881
831.635	16679
831.774	16691
831.913	16668
832.051	16542
832.19	16607
832.329	16519
832.467	16390
832.606	16451
832.744	16356
832.883	16535
833.022	16459
833.16	16344
833.299	16459
833.437	16443
833.576	16565
833.714	16504
833.852	16481
833.991	16500
834.129	16569
834.267	16538
834.406	16470
834.544	16573
834.682	16535
834.821	16462
834.959	16744
835.097	16519
835.235	16656
835.373	16645
835.511	16459
835.65	16394
835.788	16337
835.926	16329
836.064	16310
836.202	16246
836.34	16329
836.478	16527
836.615	16390
836.753	16421
836.891	16535
837.029	16474
837.167	16413
837.305	16413
837.443	16291
837.58	16261
837.718	16398
837.856	16352
837.993	16204
838.131	16169
838.269	16177
838.406	16272
838.544	16181
838.681	15960
838.819	16029
838.956	15816
839.094	15880
839.231	15835
839.369	15956
839.506	16314
839.643	16124
839.781	15816
839.918	15835
840.055	15880
840.193	15800
840.33	15892
840.467	15880
840.604	15766
840.742	16150
840.879	15679
841.016	15736
841.153	15732
841.29	16048
841.427	15884
841.564	15838
841.701	15895
841.838	15819
841.975	15804
842.112	15766
842.249	15648
842.385	15599
842.522	15728
842.659	15717
842.796	15610
842.933	15580
843.069	15568
843.206	15545
843.343	15759
843.479	15557
843.616	15690
843.752	15370
843.889	15416
844.025	15587
844.162	15439
844.298	15515
844.435	15435
844.571	15450
844.708	15488
844.844	15530
844.98	15534
845.117	15591
845.253	15291
845.389	15359
845.525	15332
845.661	15325
845.798	15397
845.934	15374
846.07	15123
846.206	15249
846.342	15431
846.478	15264
846.614	15058
846.75	14834
846.886	14963
847.022	14998
847.158	15123
847.294	15017
847.429	14994
847.565	14967
847.701	15279
847.837	14743
847.972	14735
848.108	14826
848.244	14796
848.379	14552
848.515	14610
848.65	14526
848.786	14552
848.921	14602
849.057	14568
849.192	14667
849.328	14625
849.463	14545
849.598	14484
849.734	14503
849.869	14450
850.004	14324
850.14	14492
850.275	14415
850.41	14336
850.545	14282
850.68	14446
850.815	14362
850.95	14381
851.085	14564
851.22	14374
851.355	14381
851.49	14309
851.625	14278
851.76	14385
851.895	14134
852.03	14202
852.165	14214
852.299	14259
852.434	14370
852.569	14320
852.703	14404
852.838	14343
852.973	14461
853.107	14530
853.242	14309
853.376	14275
853.511	14103
853.645	14210
853.78	14339
853.914	14256
854.048	14142
854.183	14206
854.317	14206
854.451	14336
854.585	14107
854.72	14191
854.854	14168
854.988	14084
855.122	14126
855.256	14035
855.39	14065
855.524	14320
855.658	14259
855.792	14294
855.926	14210
856.06	14324
856.194	14286
856.327	14210
856.461	14172
856.595	14172
856.729	14149
856.862	14290
856.996	14271
857.13	14309
857.263	14233
857.397	14290
857.53	14180
857.664	14225
857.797	14233
857.931	14431
858.064	14229
858.197	14347
858.331	14134
858.464	14157
858.597	14138
858.731	14256
858.864	14199
858.997	14119
859.13	14259
859.263	14282
859.396	14320
859.529	14172
859.662	14134
859.795	14157
859.928	14294
860.061	14298
860.194	14522
860.327	14240
860.46	14126
860.592	14282
860.725	14374
860.858	14301
860.99	14183
861.123	14145
861.256	14180
861.388	14206
861.521	14910
861.653	14084
861.786	14058
861.918	14084
862.05	14176
862.183	14134
862.315	14256
862.447	14263
862.58	14153
862.712	13932
862.844	13959
862.976	14031
863.108	14062
863.24	14473
863.372	13936
863.504	13993
863.636	13932
863.768	14077
863.9	14058
864.032	13906
864.164	13982
864.296	14077
864.428	14092
864.559	14134
864.691	14046
864.823	14065
864.954	14065
865.086	14001
865.217	14054
865.349	13913
865.48	14012
865.612	13974
865.743	14149
865.875	13909
866.006	13947
866.137	14111
866.269	13913
866.4	13940
866.531	13997
866.662	13974
866.793	13917
866.924	13989
867.055	14024
867.186	13993
867.317	13917
867.448	13860
867.579	13833
867.71	13917
867.841	13864
867.972	14008
868.103	14005
868.233	14035
868.364	14100
868.495	13955
868.625	14286
868.756	14415
868.886	14206
869.017	14149
869.147	14385
869.278	14355
869.408	14248
869.539	14191
869.669	14366
869.799	14377
869.929	14412
870.06	14313
870.19	14511
870.32	14495
870.45	14575
870.58	14750
870.71	14724
870.84	14727
870.97	14697
871.1	14579
871.23	14941
871.36	14792
871.489	14705
871.619	14796
871.749	14762
871.879	14830
872.008	14899
872.138	14864
872.267	14811
872.397	14792
872.526	14663
872.656	14640
872.785	14670
872.915	14872
873.044	14963
873.173	14853
873.303	14872
873.432	14887
873.561	14941
873.69	14872
873.819	14800
873.948	14929
874.077	14914
874.206	14914
874.335	14895
874.464	15047
874.593	15214
874.722	15062
874.851	15226
874.979	15245
875.108	15298
875.237	15283
875.365	15051
875.494	15161
875.623	15245
875.751	15135
875.88	15176
876.008	15458
876.136	15538
876.265	15637
876.393	15797
876.521	15762
876.65	15698
876.778	15713
876.906	15515
877.034	15599
877.162	15606
877.29	15572
877.418	15591
877.546	15538
877.674	15572
877.802	15595
877.93	15614
878.058	15545
878.185	15504
878.313	15633
878.441	15686
878.568	15488
878.696	15553
878.824	15599
878.951	15724
879.079	15808
879.206	15949
879.333	15876
879.461	15568
879.588	15778
879.715	15751
879.842	15861
879.97	15774
880.097	15435
880.224	15367
880.351	15488
880.478	15534
880.605	15435
880.732	15473
880.859	15705
880.986	15450
881.112	15439
881.239	15382
881.366	15237
881.493	15169
881.619	15119
881.746	15066
881.872	15150
881.999	15188
882.125	14998
882.252	15157
882.378	15123
882.505	15226
882.631	15081
882.757	14982
882.883	15039
883.01	14937
883.136	14842
883.262	14811
883.388	14788
883.514	14902
883.64	14971
883.766	14899
883.892	14769
884.018	14910
884.143	14986
884.269	14990
884.395	14693
884.52	14590
884.646	14667
884.772	14598
884.897	14518
885.023	14716
885.148	14754
885.274	14811
885.399	14739
885.524	14613
885.65	14629
885.775	14621
885.9	14651
886.025	14716
886.15	14663
886.275	14575
886.4	14625
886.525	14663
886.65	14560
886.775	14552
886.9	14777
887.025	14868
887.149	14629
887.274	14518
887.399	14442
887.523	14484
887.648	14317
887.773	14389
887.897	14545
888.021	14625
888.146	14393
888.27	14556
888.395	14670
888.519	14579
888.643	14579
888.767	14495
888.891	14393
889.015	14370
889.139	14362
889.263	14290
889.387	14457
889.511	14507
889.635	14480
889.759	14320
889.883	14328
890.006	14427
890.13	14408
890.254	14221
890.377	14393
890.501	14180
890.624	14077
890.748	14282
890.871	14100
890.995	14084
891.118	13928
891.241	14077
891.364	14012
891.488	14119
891.611	14172
891.734	13944
891.857	14024
891.98	14081
892.103	14107
892.226	14027
892.349	13986
892.471	13894
892.594	14050
892.717	14054
892.839	14016
892.962	14069
893.085	14077
893.207	14111
893.33	13997
893.452	13993
893.575	14088
893.697	14103
893.819	14107
893.941	14256
894.064	14218
894.186	14035
894.308	13921
894.43	14115
894.552	14233
894.674	14168
894.796	14062
894.918	14088
895.04	14103
895.161	14138
895.283	14142
895.405	14123
895.526	14149
895.648	14035
895.769	14176
895.891	14153
896.012	14317
896.134	14320
896.255	14202
896.376	14065
896.498	14168
896.619	14225
896.74	14206
896.861	14362
896.982	14613
897.103	14735
897.224	14476
897.345	14423
897.466	14396
897.587	14412
897.708	14446
897.828	14560
897.949	14514
898.07	14381
898.19	14469
898.311	14746
898.431	14514
898.552	14568
898.672	14705
898.792	14667
898.913	14511
899.033	14480
899.153	14446
899.273	14362
899.393	14332
899.513	14328
899.633	14526
899.753	14469
899.873	14305
899.993	14480
900.113	14423
900.232	14461
900.352	14347
900.472	14305
900.591	14153
900.711	14267
900.83	14183
900.95	14450
901.069	14393
901.189	14221
901.308	13970
901.427	13963
901.546	13967
901.665	14043
901.784	14050
901.904	13814
902.023	13833
902.141	13556
902.26	13499
902.379	13601
902.498	13514
902.617	13495
902.735	13616
902.854	13529
902.973	13476
903.091	13263
903.21	13282
903.328	13282
903.446	13259
903.565	13114
903.683	13187
903.801	13027
903.919	13122
904.038	13107
904.156	12985
904.274	13015
904.392	12882
904.51	12932
904.627	12878
904.745	12966
904.863	13008
904.981	12688
905.098	12707
905.216	12608
905.334	12608
905.451	12627
905.569	12601
905.686	12677
905.803	12642
905.921	12471
906.038	12547
906.155	12460
906.272	12300
906.389	12410
906.506	12129
906.623	12155
906.74	12209
906.857	12003
906.974	12064
907.091	12209
907.208	12292
907.324	12239
907.441	12110
907.557	12007
907.674	11954
907.79	11893
907.907	11866
908.023	12030
908.139	11935
908.256	11882
908.372	11832
908.488	11908
908.604	11805
908.72	11554
908.836	11729
908.952	11630
909.068	11691
909.184	11802
909.3	11665
909.415	11779
909.531	11764
909.647	11509
909.762	11459
909.878	11566
909.993	11512
910.108	11455
910.224	11440
910.339	11493
910.454	11334
910.57	11364
910.685	11246
910.8	11592
910.915	11562
911.03	11337
911.145	11170
911.259	11197
911.374	11181
911.489	11109
911.604	11075
911.718	10961
911.833	10900
911.947	10793
912.062	10782
912.176	10885
912.291	10953
912.405	10987
912.519	11170
912.633	11155
912.748	10999
912.862	10904
912.976	10839
913.09	10748
913.204	10778
913.318	10805
913.431	10881
913.545	10953
913.659	11041
913.772	10938
913.886	10656
914	10679
914.113	10797
914.226	10816
914.34	10809
914.453	10550
914.566	10828
914.68	10622
914.793	10603
914.906	10440
915.019	10405
915.132	10337
915.245	10451
915.358	10474
915.47	10421
915.583	10447
915.696	10405
915.809	10641
915.921	10664
916.034	10447
916.146	10333
916.259	10341
916.371	10470
916.483	10493
916.595	10367
916.708	10447
916.82	10363
916.932	10398
917.044	10367
917.156	10356
917.268	10280
917.38	10306
917.491	10227
917.603	10303
917.715	10402
917.826	10379
917.938	10344
918.049	10200
918.161	10303
918.272	10310
918.384	10455
918.495	10276
918.606	10124
918.717	10055
918.828	10227
918.939	10196
919.05	10112
919.161	10200
919.272	9964
919.383	10051
919.494	10234
919.604	10360
919.715	10204
919.826	10131
919.936	10078
920.047	10257
920.157	10276
920.267	10394
920.378	10306
920.488	10158
920.598	10382
920.708	10508
920.818	10409
920.928	10325
921.038	10561
921.148	10447
921.258	10223
921.368	10154
921.477	10055
921.587	9987
921.697	9926
921.806	10044
921.916	9945
922.025	9880
922.134	9732
922.244	9740
922.353	9747
922.462	9587
922.571	9618
922.68	9450
922.789	9435
922.898	9450
923.007	9382
923.116	9431
923.224	9363
923.333	9393
923.442	9279
923.55	9321
923.659	9355
923.767	9401
923.876	9256
923.984	9336
924.092	9211
924.201	9310
924.309	9313
924.417	9367
924.525	9294
924.633	9294
924.741	9979
924.849	9074
924.956	9192
925.064	9089
925.172	9028
925.279	9062
925.387	9135
925.494	9051
925.602	9256
925.709	9218
925.816	9017
925.924	9093
926.031	9199
926.138	9100
926.245	9184
926.352	9028
926.459	9173
926.566	9146
926.673	9074
926.779	8929
926.886	8982
926.993	8857
927.099	8746
927.206	8785
927.312	8712
927.419	8868
927.525	8750
927.631	8868
927.737	8788
927.843	8682
927.95	8602
928.056	8682
928.162	8724
928.267	8739
928.373	9370
928.479	8777
928.585	8514
928.69	8640
928.796	8659
928.901	8602
929.007	8492
929.112	8625
929.218	8549
929.323	8560
929.428	8549
929.533	8621
929.638	8473
929.743	8518
929.848	8590
929.953	8476
930.058	8438
930.163	8263
930.267	8298
930.372	8446
930.477	8313
930.581	8503
930.685	8332
930.79	8248
930.894	8195
930.998	8290
931.103	8412
931.207	8054
931.311	8020
931.415	7860
931.519	7765
931.623	7689
