Data from test_V78500241_1048.txt Node
Date: Fri Mar 25 14:41:00 CST 2022
User: usil
Spectrometer: V785-0024
Trigger mode: 0
Integration Time (sec): 4.000000E-1
Scans to average: 1
Nonlinearity correction enabled: false
Boxcar width: 0
Storing dark spectrum: false
XAxis mode: Wavelengths
Number of Pixels in Spectrum: 1024
>>>>>Begin Spectral Data<<<<<
801.071	22835
801.214	22805
801.356	22672
801.499	22417
801.641	22322
801.783	22234
801.926	22154
802.068	22093
802.211	22029
802.353	21994
802.496	21808
802.638	21755
802.78	21762
802.923	21549
803.065	21557
803.208	21633
803.35	21511
803.492	21515
803.635	21686
803.777	21523
803.919	21633
804.061	21926
804.204	21759
804.346	21431
804.488	21340
804.63	21538
804.773	21336
804.915	21412
805.057	21568
805.199	21603
805.341	21553
805.483	21462
805.626	21500
805.768	21507
805.91	21469
806.052	21401
806.194	21545
806.336	21736
806.478	21629
806.62	21443
806.762	21519
806.904	21781
807.046	21994
807.188	21972
807.33	21979
807.472	22029
807.614	21880
807.756	21968
807.898	21793
808.04	21804
808.182	21960
808.324	21861
808.465	22200
808.607	22344
808.749	22470
808.891	22729
809.033	22733
809.174	22637
809.316	22424
809.458	22390
809.6	22223
809.741	22299
809.883	22249
810.025	22253
810.166	22090
810.308	22246
810.45	22143
810.591	22055
810.733	21854
810.875	21743
811.016	21720
811.158	21736
811.299	21907
811.441	21930
811.582	21854
811.724	21660
811.865	21747
812.007	21660
812.148	21732
812.29	21789
812.431	21926
812.573	22070
812.714	22112
812.855	22234
812.997	22177
813.138	22516
813.279	22318
813.421	22135
813.562	22192
813.703	21876
813.845	21915
813.986	21618
814.127	21412
814.268	21424
814.41	21416
814.551	21355
814.692	21454
814.833	21157
814.974	21279
815.115	21233
815.256	21157
815.397	21058
815.539	21165
815.68	21047
815.821	20990
815.962	21009
816.103	20933
816.244	20758
816.385	20750
816.526	20800
816.666	20518
816.807	20389
816.948	20476
817.089	20476
817.23	20404
817.371	20454
817.512	20412
817.653	20358
817.793	20366
817.934	20419
818.075	20495
818.216	20465
818.356	20381
818.497	20374
818.638	19982
818.778	20126
818.919	20027
819.06	20073
819.2	20199
819.341	20225
819.481	20328
819.622	20423
819.762	20617
819.903	20465
820.043	20575
820.184	20457
820.324	20309
820.465	20575
820.605	20457
820.746	20358
820.886	20183
821.026	20465
821.167	20393
821.307	20427
821.447	20324
821.588	20244
821.728	20039
821.868	19887
822.008	19811
822.149	19795
822.289	19856
822.429	19590
822.569	19575
822.709	19529
822.849	19331
822.99	19175
823.13	19301
823.27	19175
823.41	19103
823.55	19019
823.69	19206
823.83	19034
823.97	18981
824.11	18905
824.25	18817
824.389	18878
824.529	18985
824.669	18909
824.809	19019
824.949	18886
825.089	18932
825.228	18875
825.368	18486
825.508	18753
825.648	18772
825.787	18696
825.927	18825
826.067	18776
826.206	18646
826.346	18692
826.485	18776
826.625	18616
826.765	18749
826.904	18760
827.044	18418
827.183	18334
827.323	18327
827.462	18376
827.601	18292
827.741	18277
827.88	18319
828.02	18243
828.159	18270
828.298	18304
828.437	18334
828.577	18304
828.716	18437
828.855	18319
828.994	18106
829.134	18095
829.273	18125
829.412	17996
829.551	18136
829.69	18011
829.829	18194
829.968	18232
830.107	18117
830.246	18087
830.385	18045
830.524	17889
830.663	17809
830.802	17771
830.941	17764
831.08	17630
831.219	17794
831.357	17714
831.496	17904
831.635	17752
831.774	17653
831.913	17638
832.051	17497
832.19	17490
832.329	17615
832.467	17368
832.606	17261
832.744	17379
832.883	17391
833.022	17482
833.16	17429
833.299	17547
833.437	17471
833.576	17474
833.714	17524
833.852	17490
833.991	17452
834.129	17661
834.267	17547
834.406	17482
834.544	17497
834.682	17474
834.821	17417
834.959	17604
835.097	17379
835.235	17490
835.373	17505
835.511	17414
835.65	17360
835.788	17334
835.926	17197
836.064	17185
836.202	17181
836.34	17356
836.478	17520
836.615	17277
836.753	17284
836.891	17436
837.029	17372
837.167	17311
837.305	17212
837.443	17189
837.58	17223
837.718	17322
837.856	17261
837.993	17105
838.131	17288
838.269	17025
838.406	17155
838.544	17102
838.681	16934
838.819	16812
838.956	16691
839.094	16778
839.231	16710
839.369	16843
839.506	17098
839.643	16957
839.781	16809
839.918	16649
840.055	16717
840.193	16782
840.33	16721
840.467	16759
840.604	16706
840.742	16904
840.879	16611
841.016	16611
841.153	16634
841.29	16873
841.427	16706
841.564	16797
841.701	16687
841.838	16588
841.975	16641
842.112	16660
842.249	16478
842.385	16489
842.522	16698
842.659	16611
842.796	16493
842.933	16512
843.069	16363
843.206	16474
843.343	16584
843.479	16508
843.616	16531
843.752	16280
843.889	16253
844.025	16394
844.162	16291
844.298	16280
844.435	16295
844.571	16261
844.708	16329
844.844	16451
844.98	16489
845.117	16516
845.253	16261
845.389	16268
845.525	16451
845.661	16641
845.798	16596
845.934	16934
846.07	16873
846.206	16987
846.342	16793
846.478	16508
846.614	16211
846.75	16021
846.886	15964
847.022	15964
847.158	15934
847.294	15831
847.429	15899
847.565	15915
847.701	16025
847.837	15538
847.972	15549
848.108	15739
848.244	15549
848.379	15515
848.515	15306
848.65	15450
848.786	15431
848.921	15530
849.057	15572
849.192	15625
849.328	15545
849.463	15500
849.598	15462
849.734	15355
849.869	15329
850.004	15275
850.14	15241
850.275	15241
850.41	15070
850.545	15211
850.68	15256
850.815	15169
850.95	15165
851.085	15317
851.22	15203
851.355	15237
851.49	15173
851.625	15195
851.76	15131
851.895	15089
852.03	15070
852.165	15176
852.299	15218
852.434	15264
852.569	15237
852.703	15332
852.838	15313
852.973	15374
853.107	15374
853.242	15268
853.376	15089
853.511	15024
853.645	14986
853.78	15180
853.914	15146
854.048	15085
854.183	15047
854.317	15119
854.451	15237
854.585	15089
854.72	15001
854.854	15154
854.988	15028
855.122	15036
855.256	14895
855.39	15142
855.524	15150
855.658	15127
855.792	15085
855.926	15123
856.06	15108
856.194	15176
856.327	15077
856.461	15017
856.595	15028
856.729	15043
856.862	15291
856.996	15116
857.13	15192
857.263	15138
857.397	15249
857.53	15032
857.664	15131
857.797	15123
857.931	15214
858.064	15165
858.197	15184
858.331	15081
858.464	14963
858.597	14982
858.731	15081
858.864	15093
858.997	15074
859.13	15157
859.263	15097
859.396	15249
859.529	15112
859.662	15188
859.795	15127
859.928	15108
860.061	15237
860.194	15306
860.327	15051
860.46	15097
860.592	15192
860.725	15211
860.858	15260
860.99	15081
861.123	14929
861.256	15001
861.388	15108
861.521	15759
861.653	14895
861.786	14960
861.918	14895
862.05	14990
862.183	14975
862.315	15070
862.447	15020
862.58	14982
862.712	14834
862.844	14819
862.976	14918
863.108	14899
863.24	15294
863.372	14788
863.504	14807
863.636	14883
863.768	14918
863.9	14914
864.032	14773
864.164	14830
864.296	14971
864.428	14914
864.559	14864
864.691	14895
864.823	14861
864.954	14960
865.086	14918
865.217	14819
865.349	14773
865.48	14826
865.612	14864
865.743	14941
865.875	14834
866.006	14746
866.137	14853
866.269	14739
866.4	14864
866.531	14777
866.662	14792
866.793	14754
866.924	14754
867.055	14819
867.186	14773
867.317	14701
867.448	14750
867.579	14769
867.71	14682
867.841	14823
867.972	14826
868.103	14788
868.233	14872
868.364	14800
868.495	14906
868.625	15013
868.756	15142
868.886	14986
869.017	14994
869.147	15119
869.278	15203
869.408	15142
869.539	15039
869.669	15127
869.799	15157
869.929	15157
870.06	15188
870.19	15397
870.32	15367
870.45	15435
870.58	15545
870.71	15618
870.84	15538
870.97	15397
871.1	15481
871.23	15694
871.36	15637
871.489	15614
871.619	15682
871.749	15656
871.879	15667
872.008	15694
872.138	15622
872.267	15614
872.397	15439
872.526	15466
872.656	15485
872.785	15534
872.915	15694
873.044	15755
873.173	15720
873.303	15663
873.432	15759
873.561	15781
873.69	15720
873.819	15618
873.948	15739
874.077	15838
874.206	15778
874.335	15766
874.464	15842
874.593	15907
874.722	16036
874.851	16021
874.979	15941
875.108	16116
875.237	15991
875.365	16006
875.494	16021
875.623	16086
875.751	15968
875.88	16013
876.008	16169
876.136	16192
876.265	16405
876.393	16527
876.521	16607
876.65	16459
876.778	16405
876.906	16409
877.034	16344
877.162	16417
877.29	16402
877.418	16447
877.546	16367
877.674	16519
877.802	16561
877.93	16489
878.058	16363
878.185	16337
878.313	16428
878.441	16485
878.568	16333
878.696	16485
878.824	16656
878.951	16592
879.079	16812
879.206	16892
879.333	16927
879.461	16873
879.588	16911
879.715	17056
879.842	17109
879.97	16862
880.097	16580
880.224	16474
880.351	16489
880.478	16428
880.605	16375
880.732	16371
880.859	16637
880.986	16352
881.112	16402
881.239	16303
881.366	16147
881.493	16036
881.619	16112
881.746	15922
881.872	15987
881.999	16002
882.125	16013
882.252	16086
882.378	16120
882.505	16166
882.631	15926
882.757	15911
882.883	15880
883.01	15823
883.136	15751
883.262	15808
883.388	15701
883.514	15823
883.64	15991
883.766	15846
883.892	15633
884.018	15660
884.143	15861
884.269	15888
884.395	15557
884.52	15534
884.646	15564
884.772	15416
884.897	15469
885.023	15568
885.148	15641
885.274	15644
885.399	15618
885.524	15416
885.65	15584
885.775	15488
885.9	15450
886.025	15595
886.15	15603
886.275	15397
886.4	15477
886.525	15443
886.65	15370
886.775	15428
886.9	15633
887.025	15686
887.149	15523
887.274	15310
887.399	15367
887.523	15230
887.648	15184
887.773	15081
887.897	15351
888.021	15393
888.146	15351
888.27	15329
888.395	15340
888.519	15249
888.643	15447
888.767	15340
888.891	15230
889.015	15104
889.139	15112
889.263	15051
889.387	15237
889.511	15256
889.635	15287
889.759	15211
889.883	15146
890.006	15211
890.13	15192
890.254	15077
890.377	15032
890.501	14910
890.624	14895
890.748	14948
890.871	14777
890.995	14754
891.118	14765
891.241	14880
891.364	14887
891.488	15032
891.611	14807
891.734	14857
891.857	14792
891.98	14891
892.103	14792
892.226	14864
892.349	14743
892.471	14579
892.594	14811
892.717	14823
892.839	14762
892.962	14826
893.085	14880
893.207	14765
893.33	14640
893.452	14678
893.575	14796
893.697	14697
893.819	14967
893.941	14960
894.064	14967
894.186	14705
894.308	14724
894.43	14758
894.552	14937
894.674	14842
894.796	14731
894.918	14739
895.04	14804
895.161	14823
895.283	14918
895.405	14762
895.526	14773
895.648	14872
895.769	14857
895.891	14929
896.012	14994
896.134	14948
896.255	14967
896.376	14883
896.498	14963
896.619	14998
896.74	14952
896.861	15013
896.982	15260
897.103	15401
897.224	15249
897.345	15176
897.466	15142
897.587	15169
897.708	15317
897.828	15302
897.949	15154
898.07	15066
898.19	15005
898.311	15405
898.431	15260
898.552	15241
898.672	15302
898.792	15275
898.913	15283
899.033	15275
899.153	15180
899.273	15047
899.393	15112
899.513	15150
899.633	15154
899.753	15154
899.873	15097
899.993	15184
900.113	15066
900.232	15142
900.352	15135
900.472	15020
900.591	14921
900.711	14948
900.83	14914
900.95	15074
901.069	15085
901.189	14960
901.308	14701
901.427	14606
901.546	14640
901.665	14621
901.784	14644
901.904	14503
902.023	14427
902.141	14298
902.26	14202
902.379	14259
902.498	14202
902.617	14176
902.735	14328
902.854	14206
902.973	14134
903.091	13871
903.21	13917
903.328	13917
903.446	13864
903.565	13696
903.683	13696
903.801	13662
903.919	13696
904.038	13734
904.156	13548
904.274	13529
904.392	13480
904.51	13613
904.627	13563
904.745	13460
904.863	13609
904.981	13285
905.098	13251
905.216	13285
905.334	13190
905.451	13236
905.569	13255
905.686	13289
905.803	13232
905.921	13114
906.038	13145
906.155	13137
906.272	12951
906.389	12871
906.506	12905
906.623	12890
906.74	12817
906.857	12760
906.974	12722
907.091	12856
907.208	13023
907.324	12924
907.441	12772
907.557	12593
907.674	12570
907.79	12479
907.907	12502
908.023	12589
908.139	12582
908.256	12486
908.372	12483
908.488	12479
908.604	12338
908.72	12243
908.836	12342
908.952	12300
909.068	12308
909.184	12399
909.3	12243
909.415	12376
909.531	12296
909.647	12194
909.762	12011
909.878	12022
909.993	12022
910.108	12068
910.224	12064
910.339	12068
910.454	11980
910.57	11885
910.685	11843
910.8	12171
910.915	12034
911.03	12026
911.145	11775
911.259	11638
911.374	11707
911.489	11657
911.604	11608
911.718	11554
911.833	11554
911.947	11383
912.062	11383
912.176	11486
912.291	11448
912.405	11509
912.519	11714
912.633	11722
912.748	11516
912.862	11459
912.976	11417
913.09	11212
913.204	11330
913.318	11376
913.431	11516
913.545	11509
913.659	11501
913.772	11368
913.886	11261
914	11223
914.113	11376
914.226	11459
914.34	11303
914.453	11178
914.566	11379
914.68	11136
914.793	11136
914.906	11022
915.019	11014
915.132	10923
915.245	11018
915.358	10987
915.47	10984
915.583	11064
915.696	11105
915.809	11060
915.921	11105
916.034	10934
916.146	10976
916.259	10892
916.371	10972
916.483	11048
916.595	10869
916.708	10900
916.82	10900
916.932	10869
917.044	10908
917.156	10957
917.268	10771
917.38	10793
917.491	10710
917.603	10828
917.715	10873
917.826	10866
917.938	10740
918.049	10637
918.161	10782
918.272	10987
918.384	10968
918.495	10790
918.606	10675
918.717	10573
918.828	10580
918.939	10615
919.05	10622
919.161	10573
919.272	10413
919.383	10546
919.494	10733
919.604	10862
919.715	10706
919.826	10656
919.936	10622
920.047	10725
920.157	10630
920.267	10927
920.378	10736
920.488	10664
920.598	10953
920.708	11102
920.818	10892
920.928	10862
921.038	10995
921.148	11010
921.258	10694
921.368	10664
921.477	10569
921.587	10531
921.697	10402
921.806	10497
921.916	10481
922.025	10204
922.134	10196
922.244	10230
922.353	10223
922.462	10025
922.571	10093
922.68	9903
922.789	9869
922.898	9850
923.007	9804
923.116	9953
923.224	10006
923.333	9903
923.442	9774
923.55	9762
923.659	9778
923.767	9831
923.876	9755
923.984	9766
924.092	9724
924.201	9728
924.309	9762
924.417	9785
924.525	9644
924.633	9762
924.741	10634
924.849	9492
924.956	9682
925.064	9488
925.172	9477
925.279	9485
925.387	9530
925.494	9519
925.602	9679
925.709	9629
925.816	9492
925.924	9542
926.031	9675
926.138	9492
926.245	9500
926.352	9466
926.459	9549
926.566	9652
926.673	9492
926.779	9397
926.886	9306
926.993	9264
927.099	9188
927.206	9214
927.312	9188
927.419	9310
927.525	9272
927.631	9306
927.737	9142
927.843	9097
927.95	8929
928.056	9066
928.162	9169
928.267	9131
928.373	9762
928.479	9169
928.585	8967
928.69	9146
928.796	9169
928.901	9036
929.007	8914
929.112	8975
929.218	9005
929.323	8883
929.428	8880
929.533	9070
929.638	8826
929.743	8925
929.848	8960
929.953	8948
930.058	8773
930.163	8629
930.267	8708
930.372	8796
930.477	8648
930.581	8902
930.685	8796
930.79	8644
930.894	8583
930.998	8533
931.103	8762
931.207	8480
931.311	8339
931.415	8282
931.519	8103
931.623	8134
