Data from test_V78500241_2740.txt Node
Date: Fri Mar 25 14:52:47 CST 2022
User: usil
Spectrometer: V785-0024
Trigger mode: 0
Integration Time (sec): 4.000000E-1
Scans to average: 1
Nonlinearity correction enabled: false
Boxcar width: 0
Storing dark spectrum: false
XAxis mode: Wavelengths
Number of Pixels in Spectrum: 1024
>>>>>Begin Spectral Data<<<<<
801.071	22044
801.214	21960
801.356	21755
801.499	21591
801.641	21481
801.783	21367
801.926	21485
802.068	21332
802.211	21313
802.353	21123
802.496	20944
802.638	20948
802.78	20868
802.923	20769
803.065	20861
803.208	20602
803.35	20674
803.492	20918
803.635	20887
803.777	20739
803.919	20712
804.061	21108
804.204	20735
804.346	20689
804.488	20495
804.63	20663
804.773	20636
804.915	20617
805.057	20632
805.199	20568
805.341	20739
805.483	20632
805.626	20762
805.768	20686
805.91	20689
806.052	20724
806.194	20575
806.336	20720
806.478	20720
806.62	20583
806.762	20708
806.904	20819
807.046	21058
807.188	20998
807.33	20952
807.472	20941
807.614	20887
807.756	20864
807.898	20583
808.04	20659
808.182	20648
808.324	20720
808.465	20785
808.607	20902
808.749	21005
808.891	21142
809.033	21211
809.174	20994
809.316	20921
809.458	20921
809.6	20925
809.741	21047
809.883	21074
810.025	21176
810.166	21085
810.308	21085
810.45	21058
810.591	20986
810.733	20925
810.875	20845
811.016	20655
811.158	20636
811.299	20868
811.441	20838
811.582	20868
811.724	20918
811.865	20838
812.007	20754
812.148	20735
812.29	20800
812.431	20975
812.573	21058
812.714	21249
812.855	21340
812.997	21408
813.138	21458
813.279	21447
813.421	21401
813.562	21211
813.703	21066
813.845	20811
813.986	20678
814.127	20457
814.268	20438
814.41	20389
814.551	20244
814.692	20362
814.833	20252
814.974	20290
815.115	20275
815.256	20119
815.397	20153
815.539	20199
815.68	20008
815.821	20058
815.962	20005
816.103	20062
816.244	19890
816.385	19757
816.526	19917
816.666	19597
816.807	19434
816.948	19533
817.089	19590
817.23	19594
817.371	19472
817.512	19457
817.653	19525
817.793	19377
817.934	19544
818.075	19449
818.216	19407
818.356	19430
818.497	19301
818.638	19027
818.778	19156
818.919	19164
819.06	19236
819.2	19164
819.341	19308
819.481	19263
819.622	19483
819.762	19719
819.903	19635
820.043	19377
820.184	19518
820.324	19350
820.465	19506
820.605	19499
820.746	19327
820.886	19209
821.026	19422
821.167	19324
821.307	19343
821.447	19362
821.588	19270
821.728	19137
821.868	19038
822.008	18852
822.149	18783
822.289	18776
822.429	18658
822.569	18555
822.709	18475
822.849	18429
822.99	18323
823.13	18232
823.27	18304
823.41	18152
823.55	18125
823.69	18228
823.83	18201
823.97	18148
824.11	17969
824.25	17847
824.389	17901
824.529	18053
824.669	17874
824.809	17973
824.949	17954
825.089	18007
825.228	17897
825.368	17737
825.508	17737
825.648	17676
825.787	17680
825.927	17676
826.067	17532
826.206	17615
826.346	17634
826.485	17611
826.625	17619
826.765	17775
826.904	17726
827.044	17467
827.183	17429
827.323	17440
827.462	17486
827.601	17360
827.741	17330
827.88	17395
828.02	17299
828.159	17398
828.298	17383
828.437	17471
828.577	17288
828.716	17501
828.855	17258
828.994	17197
829.134	17140
829.273	17162
829.412	17162
829.551	17102
829.69	17132
829.829	17143
829.968	17254
830.107	17098
830.246	17166
830.385	17037
830.524	17052
830.663	16972
830.802	16862
830.941	16755
831.08	16748
831.219	16786
831.357	16755
831.496	17037
831.635	16786
831.774	16649
831.913	16607
832.051	16546
832.19	16569
832.329	16508
832.467	16421
832.606	16390
832.744	16474
832.883	16394
833.022	16348
833.16	16447
833.299	16550
833.437	16531
833.576	16538
833.714	16504
833.852	16584
833.991	16474
834.129	16596
834.267	16440
834.406	16489
834.544	16550
834.682	16599
834.821	16493
834.959	16668
835.097	16493
835.235	16622
835.373	16443
835.511	16565
835.65	16466
835.788	16459
835.926	16204
836.064	16162
836.202	16310
836.34	16508
836.478	16542
836.615	16443
836.753	16474
836.891	16558
837.029	16455
837.167	16409
837.305	16295
837.443	16306
837.58	16348
837.718	16306
837.856	16284
837.993	16226
838.131	16272
838.269	16253
838.406	16230
838.544	16219
838.681	15918
838.819	15987
838.956	15800
839.094	15876
839.231	15873
839.369	15926
839.506	16188
839.643	16074
839.781	15869
839.918	15827
840.055	15873
840.193	15861
840.33	15899
840.467	15865
840.604	15846
840.742	16101
840.879	15739
841.016	15679
841.153	15728
841.29	15991
841.427	15888
841.564	15941
841.701	15972
841.838	15854
841.975	15660
842.112	15732
842.249	15606
842.385	15648
842.522	15869
842.659	15679
842.796	15564
842.933	15648
843.069	15682
843.206	15568
843.343	15667
843.479	15641
843.616	15648
843.752	15389
843.889	15488
844.025	15504
844.162	15317
844.298	15477
844.435	15435
844.571	15340
844.708	15431
844.844	15580
844.98	15519
845.117	15580
845.253	15416
845.389	15344
845.525	15287
845.661	15294
845.798	15203
845.934	15329
846.07	15135
846.206	15268
846.342	15348
846.478	15199
846.614	14979
846.75	15043
846.886	14948
847.022	15043
847.158	15005
847.294	14921
847.429	14952
847.565	14895
847.701	15146
847.837	14796
847.972	14651
848.108	14785
848.244	14857
848.379	14636
848.515	14571
848.65	14606
848.786	14552
848.921	14556
849.057	14655
849.192	14735
849.328	14571
849.463	14568
849.598	14632
849.734	14545
849.869	14480
850.004	14355
850.14	14374
850.275	14355
850.41	14358
850.545	14286
850.68	14343
850.815	14328
850.95	14389
851.085	14606
851.22	14480
851.355	14393
851.49	14332
851.625	14320
851.76	14282
851.895	14313
852.03	14298
852.165	14210
852.299	14476
852.434	14415
852.569	14431
852.703	14313
852.838	14415
852.973	14571
853.107	14526
853.242	14301
853.376	14237
853.511	14065
853.645	14183
853.78	14317
853.914	14206
854.048	14138
854.183	14142
854.317	14294
854.451	14355
854.585	14237
854.72	14161
854.854	14218
854.988	14180
855.122	14206
855.256	14096
855.39	14210
855.524	14149
855.658	14271
855.792	14317
855.926	14210
856.06	14317
856.194	14339
856.327	14263
856.461	14172
856.595	14210
856.729	14191
856.862	14320
856.996	14240
857.13	14305
857.263	14278
857.397	14393
857.53	14164
857.664	14271
857.797	14389
857.931	14298
858.064	14290
858.197	14275
858.331	14199
858.464	14092
858.597	14111
858.731	14164
858.864	14176
858.997	14229
859.13	14256
859.263	14119
859.396	14343
859.529	14164
859.662	14168
859.795	14111
859.928	14282
860.061	14355
860.194	14393
860.327	14339
860.46	14263
860.592	14385
860.725	14324
860.858	14389
860.99	14221
861.123	14115
861.256	14153
861.388	14214
861.521	14868
861.653	14134
861.786	13947
861.918	14164
862.05	14046
862.183	14134
862.315	14153
862.447	14290
862.58	14081
862.712	13986
862.844	13947
862.976	13982
863.108	13997
863.24	14465
863.372	13936
863.504	13932
863.636	13951
863.768	14008
863.9	14073
864.032	13871
864.164	14035
864.296	14069
864.428	14100
864.559	14065
864.691	14153
864.823	14084
864.954	14035
865.086	14050
865.217	13986
865.349	13890
865.48	13913
865.612	13970
865.743	14065
865.875	13944
866.006	13963
866.137	14008
866.269	14092
866.4	13887
866.531	13944
866.662	13856
866.793	13928
866.924	14005
867.055	13993
867.186	13978
867.317	13955
867.448	13917
867.579	13894
867.71	13887
867.841	13921
867.972	13902
868.103	14084
868.233	14008
868.364	13986
868.495	14058
868.625	14225
868.756	14343
868.886	14138
869.017	14168
869.147	14389
869.278	14282
869.408	14278
869.539	14305
869.669	14309
869.799	14214
869.929	14366
870.06	14301
870.19	14560
870.32	14473
870.45	14629
870.58	14648
870.71	14693
870.84	14701
870.97	14644
871.1	14568
871.23	14815
871.36	14754
871.489	14746
871.619	14777
871.749	14910
871.879	14857
872.008	14994
872.138	14883
872.267	14708
872.397	14743
872.526	14674
872.656	14746
872.785	14659
872.915	14853
873.044	15020
873.173	14819
873.303	14914
873.432	14941
873.561	14948
873.69	14849
873.819	14876
873.948	14941
874.077	14956
874.206	14895
874.335	14864
874.464	15112
874.593	15169
874.722	15062
874.851	15184
874.979	15233
875.108	15317
875.237	15070
875.365	15066
875.494	15176
875.623	15218
875.751	15127
875.88	15192
876.008	15344
876.136	15504
876.265	15603
876.393	15751
876.521	15625
876.65	15701
876.778	15663
876.906	15561
877.034	15534
877.162	15595
877.29	15526
877.418	15705
877.546	15595
877.674	15587
877.802	15641
877.93	15485
878.058	15610
878.185	15450
878.313	15652
878.441	15660
878.568	15389
878.696	15614
878.824	15637
878.951	15728
879.079	15800
879.206	15899
879.333	15842
879.461	15682
879.588	15736
879.715	15831
879.842	15915
879.97	15648
880.097	15469
880.224	15466
880.351	15473
880.478	15477
880.605	15405
880.732	15351
880.859	15625
880.986	15511
881.112	15488
881.239	15382
881.366	15260
881.493	15211
881.619	15214
881.746	15211
881.872	15192
881.999	15047
882.125	15089
882.252	15245
882.378	15157
882.505	15283
882.631	15070
882.757	15009
882.883	15055
883.01	15066
883.136	14906
883.262	14746
883.388	14743
883.514	14979
883.64	15013
883.766	14971
883.892	14880
884.018	14773
884.143	14971
884.269	15066
884.395	14758
884.52	14655
884.646	14689
884.772	14678
884.897	14568
885.023	14598
885.148	14746
885.274	14807
885.399	14746
885.524	14735
885.65	14644
885.775	14640
885.9	14594
886.025	14708
886.15	14735
886.275	14606
886.4	14606
886.525	14686
886.65	14549
886.775	14526
886.9	14845
887.025	14826
887.149	14686
887.274	14518
887.399	14423
887.523	14503
887.648	14465
887.773	14396
887.897	14507
888.021	14503
888.146	14427
888.27	14636
888.395	14552
888.519	14484
888.643	14560
888.767	14480
888.891	14412
889.015	14358
889.139	14351
889.263	14358
889.387	14518
889.511	14480
889.635	14514
889.759	14294
889.883	14366
890.006	14362
890.13	14503
890.254	14275
890.377	14248
890.501	14183
890.624	14081
890.748	14244
890.871	13936
890.995	13974
891.118	13989
891.241	14111
891.364	14100
891.488	14172
891.611	13986
891.734	14084
891.857	14084
891.98	14103
892.103	14138
892.226	14084
892.349	13978
892.471	13936
892.594	13982
892.717	14005
892.839	14058
892.962	14058
893.085	14153
893.207	14016
893.33	13826
893.452	14016
893.575	14130
893.697	14035
893.819	14237
893.941	14267
894.064	14161
894.186	14050
894.308	14126
894.43	14149
894.552	14358
894.674	14229
894.796	14012
894.918	14107
895.04	14027
895.161	14206
895.283	14107
895.405	14081
895.526	14119
895.648	14214
895.769	14130
895.891	14214
896.012	14214
896.134	14206
896.255	14240
896.376	14149
896.498	14229
896.619	14168
896.74	14206
896.861	14355
896.982	14522
897.103	14682
897.224	14552
897.345	14560
897.466	14503
897.587	14488
897.708	14648
897.828	14598
897.949	14457
898.07	14355
898.19	14431
898.311	14594
898.431	14431
898.552	14499
898.672	14602
898.792	14670
898.913	14556
899.033	14492
899.153	14415
899.273	14343
899.393	14362
899.513	14518
899.633	14415
899.753	14404
899.873	14358
899.993	14526
900.113	14336
900.232	14457
900.352	14434
900.472	14339
900.591	14336
900.711	14332
900.83	14256
900.95	14259
901.069	14320
901.189	14111
901.308	13974
901.427	13894
901.546	13947
901.665	13921
901.784	14046
901.904	13883
902.023	13772
902.141	13544
902.26	13616
902.379	13559
902.498	13495
902.617	13464
902.735	13563
902.854	13537
902.973	13434
903.091	13244
903.21	13209
903.328	13259
903.446	13244
903.565	13171
903.683	13133
903.801	13034
903.919	13027
904.038	13027
904.156	12905
904.274	12970
904.392	12844
904.51	12924
904.627	12970
904.745	12985
904.863	12962
904.981	12688
905.098	12631
905.216	12646
905.334	12551
905.451	12582
905.569	12585
905.686	12669
905.803	12616
905.921	12399
906.038	12555
906.155	12403
906.272	12330
906.389	12395
906.506	12171
906.623	12171
906.74	12167
906.857	12098
906.974	12125
907.091	12228
907.208	12433
907.324	12243
907.441	12121
907.557	12060
907.674	11855
907.79	11885
907.907	11961
908.023	11885
908.139	11965
908.256	11931
908.372	11904
908.488	11786
908.604	11729
908.72	11760
908.836	11741
908.952	11741
909.068	11729
909.184	11870
909.3	11668
909.415	11710
909.531	11741
909.647	11478
909.762	11402
909.878	11482
909.993	11478
910.108	11543
910.224	11414
910.339	11395
910.454	11436
910.57	11307
910.685	11284
910.8	11581
910.915	11467
911.03	11364
911.145	11162
911.259	11166
911.374	11201
911.489	11143
911.604	11136
911.718	10938
911.833	10942
911.947	10984
912.062	10782
912.176	11003
912.291	10889
912.405	10961
912.519	11079
912.633	11094
912.748	11052
912.862	10866
912.976	10850
913.09	10744
913.204	10771
913.318	10797
913.431	10828
913.545	10889
913.659	10927
913.772	10847
913.886	10736
914	10717
914.113	10782
914.226	10828
914.34	10850
914.453	10649
914.566	10828
914.68	10641
914.793	10626
914.906	10481
915.019	10451
915.132	10329
915.245	10413
915.358	10546
915.47	10523
915.583	10447
915.696	10519
915.809	10542
915.921	10516
916.034	10386
916.146	10459
916.259	10386
916.371	10504
916.483	10531
916.595	10405
916.708	10409
916.82	10390
916.932	10333
917.044	10371
917.156	10360
917.268	10234
917.38	10341
917.491	10276
917.603	10295
917.715	10337
917.826	10367
917.938	10219
918.049	10162
918.161	10341
918.272	10409
918.384	10356
918.495	10287
918.606	10162
918.717	10090
918.828	10150
918.939	10177
919.05	10135
919.161	10169
919.272	9956
919.383	10059
919.494	10322
919.604	10413
919.715	10234
919.826	10086
919.936	10071
920.047	10261
920.157	10188
920.267	10310
920.378	10284
920.488	10158
920.598	10348
920.708	10519
920.818	10485
920.928	10398
921.038	10542
921.148	10470
921.258	10185
921.368	10147
921.477	10040
921.587	9991
921.697	9945
921.806	10063
921.916	9953
922.025	9774
922.134	9793
922.244	9751
922.353	9785
922.462	9629
922.571	9584
922.68	9431
922.789	9431
922.898	9447
923.007	9458
923.116	9424
923.224	9466
923.333	9332
923.442	9378
923.55	9264
923.659	9298
923.767	9428
923.876	9313
923.984	9340
924.092	9222
924.201	9332
924.309	9294
924.417	9249
924.525	9195
924.633	9291
924.741	10013
924.849	9138
924.956	9268
925.064	9077
925.172	8982
925.279	9024
925.387	9055
925.494	9135
925.602	9233
925.709	9154
925.816	8979
925.924	9039
926.031	9203
926.138	9089
926.245	9043
926.352	8971
926.459	9154
926.566	9169
926.673	9017
926.779	8971
926.886	8941
926.993	8830
927.099	8838
927.206	8754
927.312	8766
927.419	8811
927.525	8804
927.631	8792
927.737	8724
927.843	8667
927.95	8686
928.056	8636
928.162	8686
928.267	8705
928.373	9332
928.479	8777
928.585	8541
928.69	8644
928.796	8651
928.901	8545
929.007	8503
929.112	8621
929.218	8598
929.323	8522
929.428	8476
929.533	8655
929.638	8396
929.743	8446
929.848	8530
929.953	8514
930.058	8419
930.163	8324
930.267	8324
930.372	8374
930.477	8305
930.581	8518
930.685	8275
930.79	8279
930.894	8294
930.998	8199
931.103	8358
931.207	8031
931.311	7967
931.415	7906
931.519	7788
931.623	7750
