Data from test_V78500241_293.txt Node
Date: Fri Mar 25 14:35:45 CST 2022
User: usil
Spectrometer: V785-0024
Trigger mode: 0
Integration Time (sec): 4.000000E-1
Scans to average: 1
Nonlinearity correction enabled: false
Boxcar width: 0
Storing dark spectrum: false
XAxis mode: Wavelengths
Number of Pixels in Spectrum: 1024
>>>>>Begin Spectral Data<<<<<
801.071	27081
801.214	27138
801.356	26800
801.499	26891
801.641	26686
801.783	26655
801.926	26613
802.068	26583
802.211	26476
802.353	26400
802.496	26237
802.638	26183
802.78	26221
802.923	26111
803.065	26065
803.208	26122
803.35	26305
803.492	26225
803.635	26282
803.777	26305
803.919	26370
804.061	26556
804.204	26240
804.346	26084
804.488	26149
804.63	26145
804.773	26027
804.915	26145
805.057	26374
805.199	26122
805.341	26206
805.483	26206
805.626	26199
805.768	26157
805.91	26092
806.052	26199
806.194	26024
806.336	26442
806.478	26256
806.62	26145
806.762	26343
806.904	26438
807.046	26670
807.188	26503
807.33	26526
807.472	26579
807.614	26549
807.756	26564
807.898	26377
808.04	26396
808.182	26309
808.324	26518
808.465	26450
808.607	26590
808.749	26781
808.891	26830
809.033	27039
809.174	26864
809.316	26735
809.458	26857
809.6	26629
809.741	26701
809.883	26773
810.025	27009
810.166	26937
810.308	26918
810.45	26826
810.591	26796
810.733	26655
810.875	26568
811.016	26537
811.158	26473
811.299	26552
811.441	26716
811.582	26655
811.724	26583
811.865	26526
812.007	26564
812.148	26488
812.29	26629
812.431	26613
812.573	26906
812.714	26857
812.855	27093
812.997	27020
813.138	27188
813.279	27062
813.421	26883
813.562	26971
813.703	26792
813.845	26743
813.986	26419
814.127	26374
814.268	26221
814.41	25925
814.551	26122
814.692	26263
814.833	26073
814.974	26130
815.115	26062
815.256	25970
815.397	25974
815.539	25986
815.68	25940
815.821	25868
815.962	25887
816.103	25909
816.244	25655
816.385	25655
816.526	25662
816.666	25441
816.807	25381
816.948	25354
817.089	25472
817.23	25156
817.371	25145
817.512	25255
817.653	25266
817.793	25168
817.934	25084
818.075	25301
818.216	25327
818.356	25118
818.497	25069
818.638	24825
818.778	24985
818.919	24783
819.06	25031
819.2	25069
819.341	25145
819.481	25190
819.622	25316
819.762	25495
819.903	25495
820.043	25297
820.184	25259
820.324	25274
820.465	25209
820.605	25255
820.746	25194
820.886	24966
821.026	25236
821.167	25126
821.307	25171
821.447	25057
821.588	25099
821.728	24867
821.868	24795
822.008	24688
822.149	24471
822.289	24525
822.429	24384
822.569	24144
822.709	24235
822.849	24041
822.99	23946
823.13	24049
823.27	23977
823.41	23710
823.55	23745
823.69	23832
823.83	23714
823.97	23874
824.11	23581
824.25	23623
824.389	23566
824.529	23668
824.669	23455
824.809	23764
824.949	23703
825.089	23615
825.228	23642
825.368	23417
825.508	23493
825.648	23337
825.787	23353
825.927	23387
826.067	23254
826.206	23421
826.346	23463
826.485	23417
826.625	23395
826.765	23402
826.904	23509
827.044	23140
827.183	23288
827.323	23079
827.462	23079
827.601	23071
827.741	23075
827.88	23132
828.02	22946
828.159	22999
828.298	22991
828.437	23132
828.577	22862
828.716	23132
828.855	22946
828.994	22694
829.134	22717
829.273	22809
829.412	22672
829.551	22649
829.69	22706
829.829	22694
829.968	22816
830.107	22725
830.246	22656
830.385	22615
830.524	22618
830.663	22462
830.802	22402
830.941	22230
831.08	22261
831.219	22413
831.357	22455
831.496	22421
831.635	22238
831.774	22169
831.913	22253
832.051	22078
832.19	22162
832.329	22010
832.467	22105
832.606	21861
832.744	21808
832.883	21949
833.022	21880
833.16	21907
833.299	22029
833.437	21930
833.576	22128
833.714	21873
833.852	22040
833.991	22093
834.129	22055
834.267	22067
834.406	21956
834.544	21983
834.682	22006
834.821	21975
834.959	22048
835.097	21888
835.235	22036
835.373	21934
835.511	21979
835.65	21789
835.788	21831
835.926	21614
836.064	21629
836.202	21568
836.34	21812
836.478	21774
836.615	21743
836.753	21755
836.891	21827
837.029	21827
837.167	21728
837.305	21751
837.443	21755
837.58	21557
837.718	21717
837.856	21713
837.993	21591
838.131	21595
838.269	21428
838.406	21633
838.544	21519
838.681	21332
838.819	21184
838.956	21024
839.094	21020
839.231	21203
839.369	21199
839.506	21466
839.643	21279
839.781	21169
839.918	20982
840.055	21024
840.193	20963
840.33	20929
840.467	21001
840.604	21036
840.742	21195
840.879	20876
841.016	20845
841.153	20883
841.29	21100
841.427	20990
841.564	20876
841.701	20929
841.838	20891
841.975	20800
842.112	20845
842.249	20762
842.385	20594
842.522	20921
842.659	20792
842.796	20667
842.933	20689
843.069	20609
843.206	20678
843.343	20731
843.479	20758
843.616	20754
843.752	20484
843.889	20476
844.025	20583
844.162	20393
844.298	20533
844.435	20465
844.571	20442
844.708	20514
844.844	20526
844.98	20492
845.117	20587
845.253	20457
845.389	20244
845.525	20301
845.661	20328
845.798	20256
845.934	20206
846.07	20358
846.206	20374
846.342	20503
846.478	20218
846.614	20050
846.75	19959
846.886	19906
847.022	20001
847.158	19906
847.294	19879
847.429	19909
847.565	19890
847.701	20035
847.837	19582
847.972	19480
848.108	19731
848.244	19609
848.379	19559
848.515	19472
848.65	19381
848.786	19434
848.921	19468
849.057	19563
849.192	19662
849.328	19487
849.463	19540
849.598	19460
849.734	19331
849.869	19225
850.004	19259
850.14	19316
850.275	19179
850.41	19072
850.545	19209
850.68	19107
850.815	19088
850.95	19187
851.085	19304
851.22	19289
851.355	19228
851.49	19076
851.625	19263
851.76	19148
851.895	18977
852.03	19042
852.165	19095
852.299	19084
852.434	19190
852.569	19270
852.703	19225
852.838	19187
852.973	19289
853.107	19335
853.242	19042
853.376	19156
853.511	18954
853.645	18939
853.78	19038
853.914	19008
854.048	19057
854.183	18901
854.317	19027
854.451	19171
854.585	18935
854.72	19019
854.854	19034
854.988	18901
855.122	18977
855.256	18920
855.39	19015
855.524	19019
855.658	19027
855.792	19008
855.926	19000
856.06	19034
856.194	19069
856.327	18939
856.461	18973
856.595	18852
856.729	18985
856.862	19069
856.996	19091
857.13	19099
857.263	19129
857.397	19133
857.53	18939
857.664	18939
857.797	19118
857.931	19091
858.064	18935
858.197	19034
858.331	19000
858.464	18951
858.597	18768
858.731	19042
858.864	18844
858.997	18958
859.13	19019
859.263	18890
859.396	18981
859.529	18878
859.662	18890
859.795	18741
859.928	19015
860.061	19004
860.194	19038
860.327	19027
860.46	18924
860.592	18989
860.725	19133
860.858	19031
860.99	18943
861.123	18829
861.256	18760
861.388	18916
861.521	19537
861.653	18749
861.786	18798
861.918	18715
862.05	18909
862.183	18909
862.315	18996
862.447	19012
862.58	18928
862.712	18650
862.844	18673
862.976	18825
863.108	18658
863.24	18943
863.372	18536
863.504	18730
863.636	18570
863.768	18684
863.9	18570
864.032	18517
864.164	18608
864.296	18555
864.428	18779
864.559	18646
864.691	18715
864.823	18700
864.954	18623
865.086	18593
865.217	18544
865.349	18608
865.48	18608
865.612	18525
865.743	18787
865.875	18570
866.006	18456
866.137	18604
866.269	18589
866.4	18627
866.531	18376
866.662	18490
866.793	18429
866.924	18517
867.055	18525
867.186	18528
867.317	18509
867.448	18292
867.579	18437
867.71	18323
867.841	18445
867.972	18452
868.103	18544
868.233	18479
868.364	18429
868.495	18544
868.625	18795
868.756	18696
868.886	18631
869.017	18627
869.147	18882
869.278	18920
869.408	18772
869.539	18791
869.669	18840
869.799	18753
869.929	18814
870.06	18837
870.19	18985
870.32	18962
870.45	18993
870.58	19076
870.71	19190
870.84	19198
870.97	19088
871.1	19164
871.23	19171
871.36	19335
871.489	19194
871.619	19274
871.749	19247
871.879	19392
872.008	19487
872.138	19278
872.267	19293
872.397	19217
872.526	19137
872.656	19168
872.785	19137
872.915	19236
873.044	19343
873.173	19301
873.303	19346
873.432	19331
873.561	19457
873.69	19388
873.819	19381
873.948	19457
874.077	19480
874.206	19388
874.335	19373
874.464	19388
874.593	19719
874.722	19521
874.851	19788
874.979	19662
875.108	19624
875.237	19578
875.365	19464
875.494	19643
875.623	19628
875.751	19525
875.88	19632
876.008	19628
876.136	19947
876.265	19997
876.393	20221
876.521	20062
876.65	20142
876.778	20187
876.906	19940
877.034	19906
877.162	20073
877.29	19997
877.418	20054
877.546	19993
877.674	19959
877.802	20001
877.93	19993
878.058	19974
878.185	19936
878.313	20062
878.441	19978
878.568	19887
878.696	19852
878.824	19997
878.951	20092
879.079	20233
879.206	20290
879.333	20244
879.461	20130
879.588	20183
879.715	20313
879.842	20282
879.97	20111
880.097	19921
880.224	19890
880.351	19978
880.478	19883
880.605	19746
880.732	19826
880.859	20084
880.986	19993
881.112	19921
881.239	19753
881.366	19594
881.493	19540
881.619	19502
881.746	19483
881.872	19441
881.999	19609
882.125	19476
882.252	19540
882.378	19445
882.505	19616
882.631	19396
882.757	19244
882.883	19403
883.01	19266
883.136	19152
883.262	19034
883.388	19038
883.514	19289
883.64	19263
883.766	19221
883.892	18973
884.018	19190
884.143	19282
884.269	19259
884.395	19027
884.52	18951
884.646	18867
884.772	18924
884.897	18833
885.023	18852
885.148	19019
885.274	19038
885.399	19000
885.524	18909
885.65	18954
885.775	18856
885.9	18928
886.025	18909
886.15	18947
886.275	18916
886.4	18772
886.525	18764
886.65	18779
886.775	18795
886.9	18973
887.025	19023
887.149	18848
887.274	18604
887.399	18627
887.523	18650
887.648	18471
887.773	18608
887.897	18795
888.021	18707
888.146	18574
888.27	18681
888.395	18719
888.519	18639
888.643	18631
888.767	18696
888.891	18566
889.015	18452
889.139	18517
889.263	18456
889.387	18513
889.511	18574
889.635	18464
889.759	18376
889.883	18441
890.006	18403
890.13	18540
890.254	18410
890.377	18365
890.501	18224
890.624	18159
890.748	18342
890.871	18148
890.995	18041
891.118	18003
891.241	18133
891.364	17942
891.488	18079
891.611	18076
891.734	17999
891.857	18098
891.98	18068
892.103	18125
892.226	18121
892.349	17999
892.471	17931
892.594	18026
892.717	18019
892.839	17916
892.962	18019
893.085	18038
893.207	17988
893.33	17794
893.452	17878
893.575	18034
893.697	17973
893.819	18251
893.941	18106
894.064	18152
894.186	17851
894.308	17916
894.43	18057
894.552	18121
894.674	18038
894.796	17786
894.918	17973
895.04	18049
895.161	18053
895.283	18102
895.405	17931
895.526	17958
895.648	17920
895.769	18076
895.891	18136
896.012	18098
896.134	18140
896.255	18083
896.376	17954
896.498	18083
896.619	18144
896.74	18114
896.861	18239
896.982	18346
897.103	18517
897.224	18243
897.345	18315
897.466	18304
897.587	18292
897.708	18414
897.828	18407
897.949	18239
898.07	18213
898.19	18285
898.311	18410
898.431	18163
898.552	18232
898.672	18311
898.792	18338
898.913	18346
899.033	18270
899.153	18076
899.273	18034
899.393	18136
899.513	18041
899.633	18098
899.753	18106
899.873	17996
899.993	18091
900.113	17984
900.232	18019
900.352	18007
900.472	17859
900.591	17859
900.711	17847
900.83	17805
900.95	17984
901.069	18007
901.189	17870
901.308	17634
901.427	17577
901.546	17554
901.665	17535
901.784	17516
901.904	17486
902.023	17341
902.141	17090
902.26	17029
902.379	17151
902.498	17003
902.617	16972
902.735	17071
902.854	16949
902.973	16904
903.091	16763
903.21	16710
903.328	16778
903.446	16615
903.565	16417
903.683	16447
903.801	16436
903.919	16542
904.038	16497
904.156	16303
904.274	16371
904.392	16333
904.51	16196
904.627	16379
904.745	16322
904.863	16386
904.981	16051
905.098	15979
905.216	16002
905.334	16109
905.451	15949
905.569	15903
905.686	16025
905.803	16002
905.921	15876
906.038	15854
906.155	15774
906.272	15663
906.389	15603
906.506	15496
906.623	15561
906.74	15481
906.857	15454
906.974	15412
907.091	15549
907.208	15614
907.324	15507
907.441	15310
907.557	15325
907.674	15211
907.79	15142
907.907	15161
908.023	15138
908.139	15203
908.256	15112
908.372	15100
908.488	15028
908.604	15043
908.72	14880
908.836	14880
908.952	14842
909.068	14944
909.184	15055
909.3	14921
909.415	14849
909.531	14956
909.647	14708
909.762	14651
909.878	14564
909.993	14678
910.108	14560
910.224	14568
910.339	14640
910.454	14461
910.57	14438
910.685	14328
910.8	14697
910.915	14552
911.03	14355
911.145	14317
911.259	14153
911.374	14168
911.489	14157
911.604	14202
911.718	14111
911.833	13978
911.947	13890
912.062	13811
912.176	14005
912.291	13982
912.405	13898
912.519	14103
912.633	14191
912.748	14027
912.862	14046
912.976	13913
913.09	13776
913.204	13879
913.318	13780
913.431	13932
913.545	13814
913.659	13986
913.772	13852
913.886	13670
914	13666
914.113	13757
914.226	13788
914.34	13708
914.453	13601
914.566	13666
914.68	13567
914.793	13514
914.906	13396
915.019	13282
915.132	13202
915.245	13282
915.358	13240
915.47	13301
915.583	13373
915.696	13407
915.809	13457
915.921	13460
916.034	13331
916.146	13282
916.259	13152
916.371	13285
916.483	13266
916.595	13194
916.708	13145
916.82	13289
916.932	13129
917.044	13091
917.156	13137
917.268	13008
917.38	13129
917.491	12989
917.603	13023
917.715	13080
917.826	13072
917.938	13027
918.049	12954
918.161	13015
918.272	13122
918.384	13069
918.495	12970
918.606	12791
918.717	12753
918.828	12802
918.939	12783
919.05	12692
919.161	12719
919.272	12620
919.383	12696
919.494	12783
919.604	13072
919.715	12810
919.826	12601
919.936	12791
920.047	12833
920.157	12878
920.267	12985
920.378	12760
920.488	12749
920.598	12958
920.708	13103
920.818	12943
920.928	12939
921.038	13110
921.148	12989
921.258	12772
921.368	12673
921.477	12627
921.587	12498
921.697	12418
921.806	12566
921.916	12315
922.025	12175
922.134	12133
922.244	12148
922.353	12323
922.462	12076
922.571	12079
922.68	11939
922.789	11851
922.898	11946
923.007	11729
923.116	11882
923.224	11847
923.333	11790
923.442	11771
923.55	11710
923.659	11726
923.767	11771
923.876	11684
923.984	11665
924.092	11562
924.201	11589
924.309	11703
924.417	11634
924.525	11646
924.633	11688
924.741	12528
924.849	11444
924.956	11551
925.064	11364
925.172	11288
925.279	11398
925.387	11383
925.494	11356
925.602	11482
925.709	11368
925.816	11246
925.924	11353
926.031	11444
926.138	11337
926.245	11383
926.352	11250
926.459	11410
926.566	11452
926.673	11254
926.779	11121
926.886	11212
926.993	11086
927.099	10976
927.206	11060
927.312	10915
927.419	11048
927.525	11045
927.631	11010
927.737	10923
927.843	10774
927.95	10752
928.056	10782
928.162	10949
928.267	10987
928.373	11478
928.479	10900
928.585	10694
928.69	10782
928.796	10866
928.901	10778
929.007	10618
929.112	10675
929.218	10721
929.323	10603
929.428	10603
929.533	10763
929.638	10558
929.743	10538
929.848	10687
929.953	10531
930.058	10470
930.163	10360
930.267	10318
930.372	10493
930.477	10249
930.581	10519
930.685	10337
930.79	10230
930.894	10268
930.998	10169
931.103	10318
931.207	9964
931.311	9922
931.415	9797
931.519	9675
931.623	9637
