Data from test_V78500241_2670.txt Node
Date: Fri Mar 25 14:52:18 CST 2022
User: usil
Spectrometer: V785-0024
Trigger mode: 0
Integration Time (sec): 4.000000E-1
Scans to average: 1
Nonlinearity correction enabled: false
Boxcar width: 0
Storing dark spectrum: false
XAxis mode: Wavelengths
Number of Pixels in Spectrum: 1024
>>>>>Begin Spectral Data<<<<<
801.071	21975
801.214	21884
801.356	21564
801.499	21454
801.641	21332
801.783	21363
801.926	21367
802.068	21226
802.211	21184
802.353	20963
802.496	20963
802.638	20933
802.78	20792
802.923	20765
803.065	20777
803.208	20575
803.35	20708
803.492	20667
803.635	20861
803.777	20705
803.919	20746
804.061	21051
804.204	20804
804.346	20712
804.488	20587
804.63	20545
804.773	20473
804.915	20640
805.057	20655
805.199	20511
805.341	20682
805.483	20640
805.626	20556
805.768	20602
805.91	20583
806.052	20659
806.194	20438
806.336	20632
806.478	20533
806.62	20602
806.762	20613
806.904	20708
807.046	21039
807.188	20929
807.33	20929
807.472	20944
807.614	20800
807.756	20823
807.898	20689
808.04	20590
808.182	20617
808.324	20762
808.465	20693
808.607	20864
808.749	21036
808.891	21077
809.033	21108
809.174	20971
809.316	20918
809.458	20845
809.6	20731
809.741	20963
809.883	20944
810.025	21176
810.166	21051
810.308	21043
810.45	21100
810.591	20979
810.733	20701
810.875	20739
811.016	20773
811.158	20549
811.299	20663
811.441	20746
811.582	20731
811.724	20655
811.865	20693
812.007	20670
812.148	20625
812.29	20670
812.431	20902
812.573	20998
812.714	21070
812.855	21203
812.997	21237
813.138	21370
813.279	21374
813.421	21268
813.562	21116
813.703	20902
813.845	20819
813.986	20571
814.127	20522
814.268	20271
814.41	20294
814.551	20313
814.692	20210
814.833	20336
814.974	20233
815.115	20210
815.256	20077
815.397	20031
815.539	20084
815.68	20035
815.821	20012
815.962	19917
816.103	19852
816.244	19883
816.385	19655
816.526	19681
816.666	19582
816.807	19362
816.948	19354
817.089	19537
817.23	19396
817.371	19396
817.512	19483
817.653	19358
817.793	19274
817.934	19381
818.075	19407
818.216	19358
818.356	19263
818.497	19278
818.638	18977
818.778	19141
818.919	19141
819.06	19072
819.2	19190
819.341	19308
819.481	19278
819.622	19441
819.762	19567
819.903	19476
820.043	19400
820.184	19415
820.324	19354
820.465	19457
820.605	19430
820.746	19297
820.886	19187
821.026	19350
821.167	19339
821.307	19354
821.447	19232
821.588	19164
821.728	19145
821.868	18993
822.008	18810
822.149	18821
822.289	18810
822.429	18555
822.569	18517
822.709	18483
822.849	18258
822.99	18254
823.13	18353
823.27	18213
823.41	18159
823.55	18114
823.69	18091
823.83	18003
823.97	18038
824.11	17874
824.25	17836
824.389	17847
824.529	17874
824.669	17874
824.809	17882
824.949	18068
825.089	17935
825.228	17794
825.368	17634
825.508	17665
825.648	17642
825.787	17634
825.927	17665
826.067	17467
826.206	17672
826.346	17642
826.485	17627
826.625	17611
826.765	17703
826.904	17665
827.044	17372
827.183	17463
827.323	17284
827.462	17330
827.601	17242
827.741	17421
827.88	17307
828.02	17307
828.159	17349
828.298	17364
828.437	17410
828.577	17330
828.716	17486
828.855	17250
828.994	17212
829.134	17037
829.273	17235
829.412	16995
829.551	17086
829.69	16927
829.829	17083
829.968	17105
830.107	17102
830.246	17090
830.385	17128
830.524	16976
830.663	16858
830.802	16809
830.941	16656
831.08	16626
831.219	16816
831.357	16786
831.496	16847
831.635	16668
831.774	16656
831.913	16630
832.051	16440
832.19	16523
832.329	16531
832.467	16402
832.606	16398
832.744	16390
832.883	16424
833.022	16360
833.16	16291
833.299	16500
833.437	16485
833.576	16363
833.714	16428
833.852	16421
833.991	16485
834.129	16596
834.267	16459
834.406	16535
834.544	16561
834.682	16424
834.821	16561
834.959	16729
835.097	16386
835.235	16584
835.373	16440
835.511	16523
835.65	16436
835.788	16466
835.926	16265
836.064	16207
836.202	16272
836.34	16333
836.478	16459
836.615	16371
836.753	16417
836.891	16424
837.029	16443
837.167	16409
837.305	16310
837.443	16268
837.58	16177
837.718	16249
837.856	16314
837.993	16139
838.131	16280
838.269	16120
838.406	16143
838.544	16158
838.681	15922
838.819	15926
838.956	15819
839.094	15907
839.231	15842
839.369	15960
839.506	16215
839.643	16036
839.781	15873
839.918	15766
840.055	15842
840.193	15869
840.33	15804
840.467	15823
840.604	15793
840.742	16112
840.879	15778
841.016	15698
841.153	15709
841.29	15968
841.427	15854
841.564	15865
841.701	15873
841.838	15755
841.975	15701
842.112	15755
842.249	15739
842.385	15473
842.522	15759
842.659	15553
842.796	15576
842.933	15656
843.069	15504
843.206	15553
843.343	15656
843.479	15709
843.616	15481
843.752	15416
843.889	15363
844.025	15595
844.162	15363
844.298	15500
844.435	15355
844.571	15355
844.708	15370
844.844	15507
844.98	15526
845.117	15545
845.253	15332
845.389	15237
845.525	15329
845.661	15283
845.798	15180
845.934	15211
846.07	15123
846.206	15226
846.342	15222
846.478	15188
846.614	14921
846.75	15058
846.886	14899
847.022	15081
847.158	15055
847.294	14979
847.429	14990
847.565	14849
847.701	15214
847.837	14716
847.972	14682
848.108	14819
848.244	14883
848.379	14640
848.515	14530
848.65	14450
848.786	14583
848.921	14545
849.057	14716
849.192	14655
849.328	14625
849.463	14526
849.598	14514
849.734	14461
849.869	14446
850.004	14313
850.14	14298
850.275	14347
850.41	14301
850.545	14339
850.68	14358
850.815	14412
850.95	14423
851.085	14476
851.22	14377
851.355	14332
851.49	14328
851.625	14377
851.76	14320
851.895	14278
852.03	14214
852.165	14259
852.299	14339
852.434	14389
852.569	14381
852.703	14377
852.838	14400
852.973	14423
853.107	14499
853.242	14294
853.376	14237
853.511	14103
853.645	14138
853.78	14324
853.914	14244
854.048	14054
854.183	14043
854.317	14111
854.451	14309
854.585	14237
854.72	14115
854.854	14233
854.988	14115
855.122	14214
855.256	14054
855.39	14275
855.524	14320
855.658	14324
855.792	14233
855.926	14221
856.06	14301
856.194	14244
856.327	14145
856.461	14187
856.595	14134
856.729	14176
856.862	14278
856.996	14183
857.13	14275
857.263	14374
857.397	14278
857.53	14126
857.664	14202
857.797	14218
857.931	14305
858.064	14199
858.197	14282
858.331	14191
858.464	14115
858.597	14183
858.731	14221
858.864	14252
858.997	14195
859.13	14294
859.263	14259
859.396	14240
859.529	14176
859.662	14119
859.795	14176
859.928	14221
860.061	14370
860.194	14286
860.327	14286
860.46	14313
860.592	14358
860.725	14351
860.858	14290
860.99	14221
861.123	14134
861.256	14119
861.388	14214
861.521	14864
861.653	14111
861.786	14024
861.918	14050
862.05	14069
862.183	14115
862.315	14225
862.447	14199
862.58	14183
862.712	14016
862.844	14005
862.976	14058
863.108	13993
863.24	14370
863.372	13944
863.504	13955
863.636	13978
863.768	14035
863.9	13925
864.032	13894
864.164	13997
864.296	13978
864.428	14058
864.559	14142
864.691	14096
864.823	14062
864.954	14031
865.086	13997
865.217	14035
865.349	13902
865.48	13967
865.612	13940
865.743	14096
865.875	13947
866.006	13989
866.137	14035
866.269	14081
866.4	13982
866.531	14024
866.662	13909
866.793	13921
866.924	13871
867.055	14065
867.186	14016
867.317	13925
867.448	13784
867.579	13856
867.71	13887
867.841	13864
867.972	13997
868.103	13978
868.233	13970
868.364	13959
868.495	14016
868.625	14157
868.756	14237
868.886	14115
869.017	14225
869.147	14248
869.278	14408
869.408	14237
869.539	14233
869.669	14328
869.799	14206
869.929	14343
870.06	14294
870.19	14503
870.32	14541
870.45	14564
870.58	14568
870.71	14724
870.84	14746
870.97	14705
871.1	14575
871.23	14792
871.36	14792
871.489	14754
871.619	14781
871.749	14777
871.879	14925
872.008	14906
872.138	14815
872.267	14773
872.397	14743
872.526	14678
872.656	14674
872.785	14621
872.915	14853
873.044	14956
873.173	14864
873.303	14921
873.432	14982
873.561	15017
873.69	14872
873.819	14834
873.948	15028
874.077	14880
874.206	14826
874.335	14937
874.464	15062
874.593	15203
874.722	15058
874.851	15252
874.979	15230
875.108	15272
875.237	15138
875.365	15043
875.494	15074
875.623	15344
875.751	15055
875.88	15233
876.008	15321
876.136	15485
876.265	15625
876.393	15739
876.521	15603
876.65	15679
876.778	15610
876.906	15625
877.034	15572
877.162	15519
877.29	15519
877.418	15599
877.546	15557
877.674	15671
877.802	15614
877.93	15534
878.058	15424
878.185	15473
878.313	15648
878.441	15648
878.568	15454
878.696	15507
878.824	15610
878.951	15728
879.079	15656
879.206	15926
879.333	15679
879.461	15713
879.588	15656
879.715	15797
879.842	15884
879.97	15656
880.097	15435
880.224	15428
880.351	15462
880.478	15477
880.605	15439
880.732	15477
880.859	15759
880.986	15466
881.112	15389
881.239	15355
881.366	15329
881.493	15146
881.619	15165
881.746	15135
881.872	15176
881.999	15112
882.125	15131
882.252	15135
882.378	15142
882.505	15310
882.631	14925
882.757	14914
882.883	15005
883.01	15036
883.136	14918
883.262	14891
883.388	14807
883.514	14952
883.64	15013
883.766	14883
883.892	14731
884.018	14697
884.143	14921
884.269	14994
884.395	14705
884.52	14560
884.646	14705
884.772	14610
884.897	14507
885.023	14625
885.148	14678
885.274	14769
885.399	14762
885.524	14682
885.65	14613
885.775	14765
885.9	14537
886.025	14758
886.15	14663
886.275	14712
886.4	14545
886.525	14705
886.65	14514
886.775	14598
886.9	14712
887.025	14826
887.149	14632
887.274	14545
887.399	14427
887.523	14419
887.648	14298
887.773	14381
887.897	14556
888.021	14583
888.146	14419
888.27	14526
888.395	14564
888.519	14499
888.643	14530
888.767	14518
888.891	14495
889.015	14339
889.139	14461
889.263	14366
889.387	14541
889.511	14454
889.635	14393
889.759	14313
889.883	14381
890.006	14419
890.13	14457
890.254	14267
890.377	14309
890.501	14107
890.624	14069
890.748	14157
890.871	14180
890.995	13967
891.118	13841
891.241	14035
891.364	14035
891.488	14100
891.611	13978
891.734	14031
891.857	14008
891.98	14054
892.103	14130
892.226	14119
892.349	14081
892.471	13921
892.594	14024
892.717	13997
892.839	14012
892.962	14016
893.085	13978
893.207	14039
893.33	13936
893.452	13906
893.575	14073
893.697	14069
893.819	14309
893.941	14164
894.064	14157
894.186	13963
894.308	14039
894.43	14183
894.552	14240
894.674	14191
894.796	14005
894.918	14069
895.04	14123
895.161	14172
895.283	14164
895.405	14073
895.526	14172
895.648	14138
895.769	14210
895.891	14195
896.012	14233
896.134	14286
896.255	14180
896.376	14115
896.498	14168
896.619	14233
896.74	14240
896.861	14248
896.982	14575
897.103	14693
897.224	14484
897.345	14488
897.466	14415
897.587	14461
897.708	14530
897.828	14461
897.949	14465
898.07	14404
898.19	14423
898.311	14602
898.431	14492
898.552	14503
898.672	14632
898.792	14663
898.913	14651
899.033	14514
899.153	14408
899.273	14396
899.393	14377
899.513	14480
899.633	14431
899.753	14442
899.873	14423
899.993	14434
900.113	14461
900.232	14419
900.352	14332
900.472	14271
900.591	14191
900.711	14229
900.83	14301
900.95	14347
901.069	14256
901.189	14221
901.308	13967
901.427	13898
901.546	13879
901.665	13944
901.784	13982
901.904	13833
902.023	13818
902.141	13537
902.26	13540
902.379	13559
902.498	13559
902.617	13453
902.735	13464
902.854	13491
902.973	13521
903.091	13152
903.21	13274
903.328	13285
903.446	13099
903.565	13046
903.683	13088
903.801	13004
903.919	12985
904.038	13057
904.156	12947
904.274	12924
904.392	12916
904.51	12844
904.627	12859
904.745	12939
904.863	12928
904.981	12719
905.098	12669
905.216	12604
905.334	12642
905.451	12616
905.569	12585
905.686	12582
905.803	12601
905.921	12528
906.038	12566
906.155	12475
906.272	12342
906.389	12327
906.506	12311
906.623	12144
906.74	12224
906.857	12060
906.974	12072
907.091	12334
907.208	12296
907.324	12201
907.441	12026
907.557	12003
907.674	11893
907.79	11908
907.907	11855
908.023	11897
908.139	11931
908.256	11939
908.372	11984
908.488	11821
908.604	11802
908.72	11680
908.836	11676
908.952	11672
909.068	11718
909.184	11775
909.3	11703
909.415	11714
909.531	11680
909.647	11532
909.762	11448
909.878	11558
909.993	11615
910.108	11493
910.224	11436
910.339	11448
910.454	11429
910.57	11258
910.685	11185
910.8	11581
910.915	11562
911.03	11296
911.145	11231
911.259	11193
911.374	11117
911.489	11132
911.604	10961
911.718	10923
911.833	10889
911.947	10786
912.062	10721
912.176	10957
912.291	10854
912.405	10847
912.519	11041
912.633	11109
912.748	10957
912.862	11018
912.976	10778
913.09	10675
913.204	10736
913.318	10866
913.431	10991
913.545	10820
913.659	11041
913.772	10835
913.886	10698
914	10710
914.113	10854
914.226	10927
914.34	10755
914.453	10580
914.566	10805
914.68	10714
914.793	10626
914.906	10478
915.019	10455
915.132	10367
915.245	10440
915.358	10481
915.47	10455
915.583	10451
915.696	10497
915.809	10554
915.921	10569
916.034	10489
916.146	10455
916.259	10382
916.371	10527
916.483	10421
916.595	10421
916.708	10394
916.82	10402
916.932	10409
917.044	10436
917.156	10394
917.268	10268
917.38	10280
917.491	10310
917.603	10322
917.715	10451
917.826	10432
917.938	10402
918.049	10181
918.161	10379
918.272	10523
918.384	10443
918.495	10287
918.606	10234
918.717	10112
918.828	10310
918.939	10219
919.05	10139
919.161	10166
919.272	9983
919.383	10055
919.494	10287
919.604	10405
919.715	10188
919.826	10112
919.936	10242
920.047	10272
920.157	10272
920.267	10436
920.378	10257
920.488	10173
920.598	10421
920.708	10512
920.818	10405
920.928	10417
921.038	10637
921.148	10535
921.258	10284
921.368	10192
921.477	10036
921.587	10051
921.697	9960
921.806	10040
921.916	10002
922.025	9846
922.134	9793
922.244	9682
922.353	9778
922.462	9720
922.571	9625
922.68	9469
922.789	9393
922.898	9424
923.007	9443
923.116	9538
923.224	9454
923.333	9462
923.442	9310
923.55	9317
923.659	9351
923.767	9412
923.876	9370
923.984	9405
924.092	9287
924.201	9313
924.309	9279
924.417	9344
924.525	9233
924.633	9325
924.741	10067
924.849	9150
924.956	9230
925.064	9169
925.172	9089
925.279	9089
925.387	9154
925.494	9150
925.602	9222
925.709	9150
925.816	9047
925.924	9135
926.031	9192
926.138	9085
926.245	9237
926.352	9043
926.459	9207
926.566	9184
926.673	9142
926.779	8967
926.886	9013
926.993	8868
927.099	8708
927.206	8773
927.312	8838
927.419	8887
927.525	8857
927.631	8804
927.737	8727
927.843	8754
927.95	8659
928.056	8697
928.162	8766
928.267	8724
928.373	9344
928.479	8876
928.585	8590
928.69	8712
928.796	8792
928.901	8739
929.007	8537
929.112	8667
929.218	8594
929.323	8511
929.428	8556
929.533	8705
929.638	8476
929.743	8480
929.848	8571
929.953	8480
930.058	8461
930.163	8279
930.267	8259
930.372	8446
930.477	8290
930.581	8610
930.685	8298
930.79	8275
930.894	8202
930.998	8237
931.103	8419
931.207	8054
931.311	8005
931.415	7894
931.519	7788
931.623	7795
