Data from test_V78500241_2526.txt Node
Date: Fri Mar 25 14:51:18 CST 2022
User: usil
Spectrometer: V785-0024
Trigger mode: 0
Integration Time (sec): 4.000000E-1
Scans to average: 1
Nonlinearity correction enabled: false
Boxcar width: 0
Storing dark spectrum: false
XAxis mode: Wavelengths
Number of Pixels in Spectrum: 1024
>>>>>Begin Spectral Data<<<<<
801.071	22105
801.214	21892
801.356	21743
801.499	21614
801.641	21500
801.783	21492
801.926	21416
802.068	21389
802.211	21351
802.353	21283
802.496	20925
802.638	20914
802.78	20941
802.923	20807
803.065	20739
803.208	20769
803.35	20849
803.492	20906
803.635	20906
803.777	20697
803.919	20815
804.061	21127
804.204	20826
804.346	20682
804.488	20659
804.63	20701
804.773	20667
804.915	20606
805.057	20773
805.199	20636
805.341	20853
805.483	20762
805.626	20739
805.768	20629
805.91	20674
806.052	20678
806.194	20552
806.336	20762
806.478	20568
806.62	20552
806.762	20769
806.904	20834
807.046	21020
807.188	20929
807.33	20998
807.472	21047
807.614	20990
807.756	20872
807.898	20758
808.04	20781
808.182	20655
808.324	20731
808.465	20849
808.607	21055
808.749	21024
808.891	21203
809.033	21218
809.174	21146
809.316	21074
809.458	20899
809.6	20971
809.741	21131
809.883	21180
810.025	21230
810.166	21192
810.308	21142
810.45	21157
810.591	21138
810.733	20906
810.875	20815
811.016	20739
811.158	20716
811.299	20800
811.441	20804
811.582	20891
811.724	20819
811.865	20819
812.007	20872
812.148	20826
812.29	20754
812.431	20929
812.573	21195
812.714	21195
812.855	21374
812.997	21416
813.138	21633
813.279	21355
813.421	21340
813.562	21127
813.703	21081
813.845	21055
813.986	20609
814.127	20495
814.268	20267
814.41	20294
814.551	20343
814.692	20393
814.833	20385
814.974	20328
815.115	20240
815.256	20172
815.397	20195
815.539	20298
815.68	20077
815.821	20084
815.962	20145
816.103	19925
816.244	19868
816.385	19791
816.526	19719
816.666	19635
816.807	19556
816.948	19525
817.089	19666
817.23	19567
817.371	19491
817.512	19502
817.653	19388
817.793	19365
817.934	19460
818.075	19460
818.216	19525
818.356	19400
818.497	19282
818.638	19133
818.778	19183
818.919	19198
819.06	19247
819.2	19301
819.341	19365
819.481	19369
819.622	19605
819.762	19624
819.903	19529
820.043	19445
820.184	19480
820.324	19472
820.465	19514
820.605	19422
820.746	19499
820.886	19369
821.026	19324
821.167	19438
821.307	19480
821.447	19384
821.588	19228
821.728	19061
821.868	19065
822.008	18935
822.149	18848
822.289	18882
822.429	18658
822.569	18429
822.709	18559
822.849	18395
822.99	18357
823.13	18304
823.27	18338
823.41	18209
823.55	18251
823.69	18292
823.83	18186
823.97	18030
824.11	17954
824.25	17935
824.389	18038
824.529	18064
824.669	18087
824.809	17992
824.949	18007
825.089	18011
825.228	17999
825.368	17798
825.508	17722
825.648	17726
825.787	17703
825.927	17745
826.067	17699
826.206	17775
826.346	17798
826.485	17691
826.625	17726
826.765	17843
826.904	17668
827.044	17436
827.183	17512
827.323	17360
827.462	17501
827.601	17520
827.741	17349
827.88	17421
828.02	17448
828.159	17463
828.298	17452
828.437	17482
828.577	17372
828.716	17596
828.855	17417
828.994	17239
829.134	17239
829.273	17269
829.412	17140
829.551	17269
829.69	17128
829.829	17174
829.968	17235
830.107	17288
830.246	17330
830.385	17079
830.524	17109
830.663	17006
830.802	16927
830.941	16892
831.08	16801
831.219	16858
831.357	16915
831.496	17056
831.635	16923
831.774	16850
831.913	16630
832.051	16592
832.19	16664
832.329	16683
832.467	16459
832.606	16493
832.744	16504
832.883	16478
833.022	16531
833.16	16561
833.299	16558
833.437	16527
833.576	16588
833.714	16577
833.852	16592
833.991	16588
834.129	16656
834.267	16641
834.406	16577
834.544	16538
834.682	16535
834.821	16500
834.959	16679
835.097	16554
835.235	16523
835.373	16565
835.511	16565
835.65	16470
835.788	16421
835.926	16295
836.064	16306
836.202	16314
836.34	16451
836.478	16493
836.615	16440
836.753	16504
836.891	16664
837.029	16504
837.167	16436
837.305	16360
837.443	16314
837.58	16344
837.718	16462
837.856	16367
837.993	16375
838.131	16348
838.269	16265
838.406	16322
838.544	16200
838.681	16044
838.819	16055
838.956	15956
839.094	15888
839.231	15934
839.369	16093
839.506	16325
839.643	16188
839.781	15915
839.918	15835
840.055	15979
840.193	15854
840.33	15880
840.467	15854
840.604	15949
840.742	16093
840.879	15838
841.016	15812
841.153	15819
841.29	16124
841.427	15918
841.564	15945
841.701	15911
841.838	15907
841.975	15762
842.112	15838
842.249	15705
842.385	15652
842.522	15869
842.659	15686
842.796	15675
842.933	15762
843.069	15584
843.206	15561
843.343	15751
843.479	15713
843.616	15743
843.752	15557
843.889	15477
844.025	15686
844.162	15401
844.298	15595
844.435	15496
844.571	15523
844.708	15466
844.844	15492
844.98	15667
845.117	15557
845.253	15473
845.389	15275
845.525	15424
845.661	15355
845.798	15237
845.934	15264
846.07	15222
846.206	15340
846.342	15408
846.478	15252
846.614	15116
846.75	14876
846.886	15017
847.022	15028
847.158	15024
847.294	15119
847.429	15020
847.565	15066
847.701	15302
847.837	14708
847.972	14792
848.108	14845
848.244	14834
848.379	14674
848.515	14606
848.65	14697
848.786	14636
848.921	14659
849.057	14743
849.192	14667
849.328	14640
849.463	14754
849.598	14579
849.734	14556
849.869	14492
850.004	14446
850.14	14362
850.275	14454
850.41	14252
850.545	14431
850.68	14339
850.815	14484
850.95	14389
851.085	14518
851.22	14537
851.355	14530
851.49	14404
851.625	14317
851.76	14328
851.895	14305
852.03	14309
852.165	14298
852.299	14351
852.434	14587
852.569	14469
852.703	14419
852.838	14488
852.973	14514
853.107	14549
853.242	14298
853.376	14282
853.511	14195
853.645	14225
853.78	14381
853.914	14271
854.048	14180
854.183	14123
854.317	14248
854.451	14454
854.585	14305
854.72	14206
854.854	14366
854.988	14138
855.122	14233
855.256	14081
855.39	14294
855.524	14248
855.658	14202
855.792	14244
855.926	14286
856.06	14332
856.194	14461
856.327	14168
856.461	14149
856.595	14218
856.729	14275
856.862	14366
856.996	14317
857.13	14423
857.263	14309
857.397	14427
857.53	14313
857.664	14278
857.797	14355
857.931	14328
858.064	14396
858.197	14370
858.331	14210
858.464	14229
858.597	14225
858.731	14233
858.864	14275
858.997	14286
859.13	14237
859.263	14339
859.396	14355
859.529	14271
859.662	14176
859.795	14176
859.928	14244
860.061	14389
860.194	14495
860.327	14229
860.46	14210
860.592	14427
860.725	14454
860.858	14415
860.99	14282
861.123	14153
861.256	14229
861.388	14347
861.521	14883
861.653	14050
861.786	13978
861.918	14172
862.05	14221
862.183	14172
862.315	14278
862.447	14275
862.58	14187
862.712	14077
862.844	14092
862.976	14142
863.108	14081
863.24	14351
863.372	13978
863.504	14069
863.636	14058
863.768	14123
863.9	14050
864.032	14012
864.164	14043
864.296	14031
864.428	14142
864.559	14142
864.691	14176
864.823	14202
864.954	14008
865.086	14088
865.217	14039
865.349	13974
865.48	14039
865.612	14103
865.743	14202
865.875	14069
866.006	14077
866.137	14088
866.269	14035
866.4	13974
866.531	14039
866.662	14005
866.793	13940
866.924	13989
867.055	13978
867.186	14031
867.317	14012
867.448	13928
867.579	13921
867.71	13989
867.841	13951
867.972	13989
868.103	14126
868.233	14046
868.364	14069
868.495	14183
868.625	14271
868.756	14377
868.886	14195
869.017	14233
869.147	14355
869.278	14423
869.408	14336
869.539	14225
869.669	14294
869.799	14267
869.929	14412
870.06	14442
870.19	14629
870.32	14594
870.45	14682
870.58	14693
870.71	14819
870.84	14758
870.97	14689
871.1	14640
871.23	14857
871.36	14918
871.489	14731
871.619	14830
871.749	14853
871.879	14864
872.008	15009
872.138	14918
872.267	14834
872.397	14697
872.526	14678
872.656	14693
872.785	14880
872.915	14891
873.044	14941
873.173	14838
873.303	14918
873.432	14880
873.561	14895
873.69	14998
873.819	14887
873.948	15070
874.077	14952
874.206	14902
874.335	15024
874.464	15024
874.593	15237
874.722	15279
874.851	15279
874.979	15249
875.108	15302
875.237	15195
875.365	15165
875.494	15214
875.623	15245
875.751	15176
875.88	15260
876.008	15348
876.136	15431
876.265	15705
876.393	15797
876.521	15641
876.65	15743
876.778	15781
876.906	15610
877.034	15591
877.162	15606
877.29	15618
877.418	15568
877.546	15701
877.674	15701
877.802	15587
877.93	15618
878.058	15656
878.185	15568
878.313	15648
878.441	15633
878.568	15439
878.696	15637
878.824	15663
878.951	15755
879.079	15869
879.206	16051
879.333	15751
879.461	15656
879.588	15804
879.715	15823
879.842	15922
879.97	15667
880.097	15435
880.224	15428
880.351	15568
880.478	15591
880.605	15538
880.732	15545
880.859	15679
880.986	15644
881.112	15492
881.239	15447
881.366	15291
881.493	15203
881.619	15169
881.746	15157
881.872	15150
881.999	15112
882.125	15081
882.252	15203
882.378	15135
882.505	15310
882.631	15116
882.757	14998
882.883	14971
883.01	15024
883.136	14845
883.262	14792
883.388	14842
883.514	14910
883.64	15020
883.766	14925
883.892	14876
884.018	14777
884.143	14975
884.269	15104
884.395	14750
884.52	14689
884.646	14667
884.772	14598
884.897	14564
885.023	14689
885.148	14849
885.274	14838
885.399	14838
885.524	14743
885.65	14705
885.775	14724
885.9	14697
886.025	14800
886.15	14716
886.275	14629
886.4	14518
886.525	14636
886.65	14655
886.775	14621
886.9	14750
887.025	14948
887.149	14655
887.274	14583
887.399	14457
887.523	14507
887.648	14465
887.773	14484
887.897	14644
888.021	14564
888.146	14408
888.27	14602
888.395	14712
888.519	14587
888.643	14648
888.767	14602
888.891	14522
889.015	14366
889.139	14450
889.263	14389
889.387	14530
889.511	14545
889.635	14522
889.759	14438
889.883	14343
890.006	14389
890.13	14465
890.254	14267
890.377	14290
890.501	14157
890.624	14107
890.748	14267
890.871	14081
890.995	14016
891.118	13959
891.241	14103
891.364	14092
891.488	14180
891.611	14046
891.734	14069
891.857	14145
891.98	14172
892.103	14191
892.226	14046
892.349	14100
892.471	13959
892.594	14062
892.717	14084
892.839	14012
892.962	14050
893.085	14183
893.207	14126
893.33	14012
893.452	14115
893.575	14187
893.697	14103
893.819	14263
893.941	14267
894.064	14191
894.186	14043
894.308	14016
894.43	14180
894.552	14298
894.674	14298
894.796	14119
894.918	14134
895.04	14111
895.161	14225
895.283	14229
895.405	14016
895.526	14199
895.648	14237
895.769	14168
895.891	14225
896.012	14320
896.134	14282
896.255	14210
896.376	14153
896.498	14210
896.619	14221
896.74	14206
896.861	14298
896.982	14594
897.103	14762
897.224	14590
897.345	14457
897.466	14511
897.587	14514
897.708	14651
897.828	14636
897.949	14434
898.07	14385
898.19	14530
898.311	14678
898.431	14480
898.552	14549
898.672	14640
898.792	14583
898.913	14617
899.033	14530
899.153	14492
899.273	14377
899.393	14415
899.513	14442
899.633	14514
899.753	14492
899.873	14408
899.993	14499
900.113	14465
900.232	14476
900.352	14381
900.472	14355
900.591	14298
900.711	14415
900.83	14332
900.95	14366
901.069	14465
901.189	14324
901.308	14119
901.427	14020
901.546	13989
901.665	14062
901.784	14043
901.904	13887
902.023	13791
902.141	13605
902.26	13502
902.379	13643
902.498	13590
902.617	13476
902.735	13601
902.854	13548
902.973	13430
903.091	13339
903.21	13384
903.328	13358
903.446	13285
903.565	13095
903.683	13187
903.801	13099
903.919	13103
904.038	13099
904.156	12932
904.274	13057
904.392	12939
904.51	12897
904.627	12981
904.745	13057
904.863	12943
904.981	12711
905.098	12677
905.216	12597
905.334	12681
905.451	12753
905.569	12669
905.686	12776
905.803	12707
905.921	12456
906.038	12616
906.155	12475
906.272	12418
906.389	12384
906.506	12220
906.623	12114
906.74	12190
906.857	12243
906.974	12125
907.091	12239
907.208	12384
907.324	12285
907.441	12129
907.557	12079
907.674	11942
907.79	11954
907.907	11946
908.023	12076
908.139	12011
908.256	11855
908.372	11969
908.488	11828
908.604	11783
908.72	11737
908.836	11756
908.952	11714
909.068	11813
909.184	11912
909.3	11726
909.415	11828
909.531	11813
909.647	11592
909.762	11524
909.878	11490
909.993	11509
910.108	11471
910.224	11368
910.339	11524
910.454	11368
910.57	11440
910.685	11265
910.8	11558
910.915	11501
911.03	11417
911.145	11189
911.259	11292
911.374	11166
911.489	11140
911.604	11033
911.718	11025
911.833	10972
911.947	10820
912.062	10854
912.176	10953
912.291	10957
912.405	10911
912.519	11185
912.633	11147
912.748	11033
912.862	11018
912.976	10839
913.09	10660
913.204	10900
913.318	10824
913.431	10980
913.545	10949
913.659	11006
913.772	10854
913.886	10752
914	10744
914.113	10831
914.226	10793
914.34	10820
914.453	10622
914.566	10847
914.68	10672
914.793	10577
914.906	10512
915.019	10417
915.132	10344
915.245	10466
915.358	10546
915.47	10451
915.583	10546
915.696	10531
915.809	10622
915.921	10584
916.034	10516
916.146	10478
916.259	10405
916.371	10497
916.483	10493
916.595	10382
916.708	10424
916.82	10424
916.932	10371
917.044	10325
917.156	10337
917.268	10291
917.38	10249
917.491	10287
917.603	10360
917.715	10402
917.826	10470
917.938	10291
918.049	10215
918.161	10386
918.272	10409
918.384	10367
918.495	10284
918.606	10116
918.717	10154
918.828	10150
918.939	10249
919.05	10101
919.161	10162
919.272	9968
919.383	10021
919.494	10325
919.604	10421
919.715	10257
919.826	10040
919.936	10200
920.047	10242
920.157	10150
920.267	10432
920.378	10215
920.488	10219
920.598	10424
920.708	10622
920.818	10409
920.928	10478
921.038	10554
921.148	10470
921.258	10280
921.368	10128
921.477	10154
921.587	10025
921.697	9945
921.806	10093
921.916	9953
922.025	9812
922.134	9854
922.244	9728
922.353	9781
922.462	9652
922.571	9606
922.68	9466
922.789	9473
922.898	9500
923.007	9363
923.116	9443
923.224	9401
923.333	9473
923.442	9367
923.55	9344
923.659	9325
923.767	9397
923.876	9313
923.984	9428
924.092	9279
924.201	9340
924.309	9389
924.417	9332
924.525	9226
924.633	9306
924.741	10230
924.849	9184
924.956	9226
925.064	9157
925.172	9028
925.279	9036
925.387	9104
925.494	9161
925.602	9226
925.709	9169
925.816	9062
925.924	9066
926.031	9199
926.138	9146
926.245	9169
926.352	8963
926.459	9188
926.566	9222
926.673	9047
926.779	8899
926.886	8967
926.993	8868
927.099	8781
927.206	8792
927.312	8727
927.419	8815
927.525	8826
927.631	8868
927.737	8746
927.843	8674
927.95	8590
928.056	8689
928.162	8739
928.267	8796
928.373	9321
928.479	8796
928.585	8526
928.69	8708
928.796	8788
928.901	8632
929.007	8450
929.112	8625
929.218	8613
929.323	8541
929.428	8545
929.533	8663
929.638	8454
929.743	8499
929.848	8556
929.953	8518
930.058	8389
930.163	8259
930.267	8370
930.372	8408
930.477	8301
930.581	8522
930.685	8347
930.79	8263
930.894	8294
930.998	8252
931.103	8377
931.207	7974
931.311	8050
931.415	7944
931.519	7761
931.623	7742
