Data from test_V78500241_876.txt Node
Date: Fri Mar 25 14:39:49 CST 2022
User: usil
Spectrometer: V785-0024
Trigger mode: 0
Integration Time (sec): 4.000000E-1
Scans to average: 1
Nonlinearity correction enabled: false
Boxcar width: 0
Storing dark spectrum: false
XAxis mode: Wavelengths
Number of Pixels in Spectrum: 1024
>>>>>Begin Spectral Data<<<<<
801.071	25616
801.214	25316
801.356	25232
801.499	25057
801.641	24973
801.783	24848
801.926	24962
802.068	24810
802.211	24612
802.353	24646
802.496	24403
802.638	24407
802.78	24296
802.923	24262
803.065	24194
803.208	24186
803.35	24266
803.492	24258
803.635	24388
803.777	24338
803.919	24350
804.061	24612
804.204	24452
804.346	24311
804.488	24216
804.63	24285
804.773	24201
804.915	24403
805.057	24555
805.199	24426
805.341	24471
805.483	24486
805.626	24593
805.768	24551
805.91	24528
806.052	24547
806.194	24585
806.336	24875
806.478	24749
806.62	24696
806.762	24932
806.904	25179
807.046	25537
807.188	25704
807.33	25677
807.472	26062
807.614	26065
807.756	26514
807.898	26777
808.04	27313
808.182	27934
808.324	28953
808.465	29973
808.607	31103
808.749	32237
808.891	32765
809.033	32921
809.174	32145
809.316	31023
809.458	30003
809.6	28733
809.741	27953
809.883	27150
810.025	26811
810.166	26427
810.308	26016
810.45	25966
810.591	25780
810.733	25635
810.875	25297
811.016	25202
811.158	25012
811.299	25080
811.441	25122
811.582	25027
811.724	24760
811.865	24738
812.007	24802
812.148	24738
812.29	24597
812.431	24806
812.573	24977
812.714	24989
812.855	25080
812.997	25263
813.138	25278
813.279	25118
813.421	25091
813.562	25076
813.703	24856
813.845	24536
813.986	24391
814.127	24216
814.268	24155
814.41	24194
814.551	24140
814.692	24136
814.833	23927
814.974	23984
815.115	24007
815.256	23908
815.397	23779
815.539	23893
815.68	23779
815.821	23809
815.962	23809
816.103	23752
816.244	23551
816.385	23326
816.526	23459
816.666	23318
816.807	23056
816.948	23250
817.089	23117
817.23	23128
817.371	23105
817.512	23090
817.653	23086
817.793	23006
817.934	23140
818.075	23178
818.216	23010
818.356	22930
818.497	22816
818.638	22831
818.778	22736
818.919	22790
819.06	22691
819.2	22835
819.341	22991
819.481	22938
819.622	23022
819.762	23284
819.903	23197
820.043	23117
820.184	23090
820.324	22946
820.465	22942
820.605	22961
820.746	22927
820.886	22778
821.026	22972
821.167	22942
821.307	22957
821.447	22752
821.588	22679
821.728	22702
821.868	22421
822.008	22310
822.149	22348
822.289	22162
822.429	21983
822.569	21930
822.709	21876
822.849	21732
822.99	21736
823.13	21762
823.27	21717
823.41	21538
823.55	21454
823.69	21500
823.83	21549
823.97	21538
824.11	21256
824.25	21279
824.389	21291
824.529	21340
824.669	21348
824.809	21477
824.949	21428
825.089	21477
825.228	21443
825.368	21005
825.508	21176
825.648	21192
825.787	21161
825.927	21275
826.067	21024
826.206	21146
826.346	21077
826.485	21173
826.625	21055
826.765	21142
826.904	21085
827.044	20750
827.183	20773
827.323	20724
827.462	20895
827.601	20811
827.741	20598
827.88	20804
828.02	20617
828.159	20724
828.298	20830
828.437	20826
828.577	20682
828.716	20918
828.855	20598
828.994	20431
829.134	20530
829.273	20590
829.412	20362
829.551	20396
829.69	20415
829.829	20465
829.968	20526
830.107	20537
830.246	20560
830.385	20366
830.524	20370
830.663	20210
830.802	20130
830.941	19959
831.08	19951
831.219	20077
831.357	20043
831.496	20320
831.635	20001
831.774	19982
831.913	19875
832.051	19822
832.19	19811
832.329	19803
832.467	19788
832.606	19738
832.744	19712
832.883	19811
833.022	19791
833.16	19826
833.299	19883
833.437	19841
833.576	20100
833.714	20054
833.852	20073
833.991	20008
834.129	20294
834.267	20107
834.406	20050
834.544	20069
834.682	20138
834.821	19944
834.959	20237
835.097	19849
835.235	19906
835.373	19898
835.511	19833
835.65	19734
835.788	19696
835.926	19514
836.064	19388
836.202	19464
836.34	19567
836.478	19594
836.615	19655
836.753	19582
836.891	19712
837.029	19590
837.167	19499
837.305	19419
837.443	19346
837.58	19419
837.718	19464
837.856	19434
837.993	19343
838.131	19354
838.269	19316
838.406	19369
838.544	19263
838.681	19038
838.819	19023
838.956	18913
839.094	18859
839.231	18951
839.369	18954
839.506	19183
839.643	19164
839.781	18814
839.918	18768
840.055	18947
840.193	18852
840.33	18627
840.467	18821
840.604	19019
840.742	18962
840.879	18669
841.016	18650
841.153	18703
841.29	18932
841.427	18764
841.564	18928
841.701	18810
841.838	18707
841.975	18673
842.112	18639
842.249	18566
842.385	18544
842.522	18627
842.659	18620
842.796	18642
842.933	18525
843.069	18608
843.206	18532
843.343	18578
843.479	18601
843.616	18551
843.752	18513
843.889	18506
844.025	18490
844.162	18445
844.298	18517
844.435	18665
844.571	18547
844.708	18753
844.844	19019
844.98	19095
845.117	19236
845.253	19449
845.389	19894
845.525	21058
845.661	22919
845.798	25202
845.934	27237
846.07	27865
846.206	27644
846.342	26256
846.478	23802
846.614	21572
846.75	20244
846.886	19377
847.022	18970
847.158	18582
847.294	18365
847.429	18342
847.565	17980
847.701	18323
847.837	17771
847.972	17699
848.108	17775
848.244	17638
848.379	17585
848.515	17444
848.65	17478
848.786	17463
848.921	17516
849.057	17490
849.192	17551
849.328	17463
849.463	17543
849.598	17410
849.734	17269
849.869	17299
850.004	17140
850.14	17235
850.275	17151
850.41	17102
850.545	17128
850.68	17121
850.815	17258
850.95	17136
851.085	17395
851.22	17204
851.355	17273
851.49	17197
851.625	17094
851.76	17094
851.895	17090
852.03	17022
852.165	17128
852.299	17227
852.434	17239
852.569	17227
852.703	17193
852.838	17246
852.973	17299
853.107	17337
853.242	17147
853.376	17067
853.511	16946
853.645	17079
853.78	17220
853.914	17064
854.048	17216
854.183	17060
854.317	17083
854.451	17292
854.585	17132
854.72	17140
854.854	17155
854.988	17086
855.122	16995
855.256	16911
855.39	16987
855.524	17128
855.658	17109
855.792	17056
855.926	17029
856.06	17086
856.194	17117
856.327	16991
856.461	16900
856.595	16961
856.729	16968
856.862	17121
856.996	17022
857.13	17128
857.263	17064
857.397	17102
857.53	16991
857.664	17010
857.797	17029
857.931	17117
858.064	16957
858.197	17079
858.331	17014
858.464	16801
858.597	16881
858.731	16904
858.864	16911
858.997	16953
859.13	16987
859.263	16980
859.396	16961
859.529	16896
859.662	16805
859.795	16828
859.928	16965
860.061	17060
860.194	17159
860.327	16862
860.46	16930
860.592	17022
860.725	17079
860.858	17071
860.99	16919
861.123	16873
861.256	16877
861.388	16911
861.521	17623
861.653	16843
861.786	16767
861.918	16801
862.05	16748
862.183	16790
862.315	16900
862.447	16934
862.58	16866
862.712	16702
862.844	16531
862.976	16744
863.108	16774
863.24	16987
863.372	16637
863.504	16637
863.636	16687
863.768	16710
863.9	16675
864.032	16569
864.164	16626
864.296	16656
864.428	16778
864.559	16721
864.691	16854
864.823	16672
864.954	16687
865.086	16626
865.217	16611
865.349	16493
865.48	16504
865.612	16512
865.743	16717
865.875	16626
866.006	16535
866.137	16615
866.269	16512
866.4	16558
866.531	16554
866.662	16554
866.793	16432
866.924	16565
867.055	16634
867.186	16500
867.317	16592
867.448	16398
867.579	16523
867.71	16428
867.841	16481
867.972	16653
868.103	16558
868.233	16500
868.364	16554
868.495	16767
868.625	16801
868.756	16911
868.886	16782
869.017	16744
869.147	16949
869.278	16934
869.408	16869
869.539	16816
869.669	16866
869.799	16885
869.929	16885
870.06	17010
870.19	17102
870.32	17025
870.45	17113
870.58	17162
870.71	17231
870.84	17349
870.97	17216
871.1	17231
871.23	17368
871.36	17448
871.489	17395
871.619	17356
871.749	17406
871.879	17619
872.008	17478
872.138	17402
872.267	17471
872.397	17307
872.526	17364
872.656	17299
872.785	17364
872.915	17490
873.044	17623
873.173	17497
873.303	17611
873.432	17562
873.561	17672
873.69	17600
873.819	17570
873.948	17668
874.077	17649
874.206	17638
874.335	17562
874.464	17771
874.593	17863
874.722	17805
874.851	17843
874.979	17916
875.108	17973
875.237	18026
875.365	17809
875.494	17958
875.623	17999
875.751	18045
875.88	17878
876.008	18178
876.136	18266
876.265	18433
876.393	18715
876.521	18601
876.65	18604
876.778	18517
876.906	18509
877.034	18467
877.162	18684
877.29	18551
877.418	18566
877.546	18753
877.674	18696
877.802	18875
877.93	18707
878.058	18821
878.185	18715
878.313	18947
878.441	19133
878.568	19042
878.696	19308
878.824	19609
878.951	20092
879.079	20686
879.206	21637
879.333	22131
879.461	22588
879.588	23250
879.715	23277
879.842	22976
879.97	22048
880.097	21226
880.224	20648
880.351	20199
880.478	19879
880.605	19761
880.732	19609
880.859	19628
880.986	19537
881.112	19354
881.239	19240
881.366	19213
881.493	19129
881.619	19008
881.746	19099
881.872	18951
881.999	19015
882.125	18966
882.252	19164
882.378	19114
882.505	19278
882.631	19148
882.757	19027
882.883	18970
883.01	18840
883.136	18776
883.262	18719
883.388	18776
883.514	18920
883.64	18954
883.766	18856
883.892	18749
884.018	18620
884.143	18920
884.269	18989
884.395	18684
884.52	18528
884.646	18597
884.772	18532
884.897	18547
885.023	18620
885.148	18654
885.274	18673
885.399	18620
885.524	18506
885.65	18429
885.775	18422
885.9	18247
886.025	18506
886.15	18391
886.275	18201
886.4	18114
886.525	18167
886.65	17984
886.775	17992
886.9	18197
887.025	18277
887.149	18079
887.274	17885
887.399	17745
887.523	17710
887.648	17630
887.773	17657
887.897	17798
888.021	17566
888.146	17532
888.27	17710
888.395	17665
888.519	17649
888.643	17710
888.767	17668
888.891	17444
889.015	17223
889.139	17383
889.263	17254
889.387	17360
889.511	17292
889.635	17280
889.759	17208
889.883	17254
890.006	17136
890.13	17284
890.254	17109
890.377	17102
890.501	16957
890.624	16961
890.748	17064
890.871	16790
890.995	16721
891.118	16729
891.241	16782
891.364	16809
891.488	16843
891.611	16668
891.734	16771
891.857	16847
891.98	16725
892.103	16820
892.226	16774
892.349	16637
892.471	16577
892.594	16596
892.717	16691
892.839	16561
892.962	16527
893.085	16660
893.207	16527
893.33	16516
893.452	16550
893.575	16561
893.697	16489
893.819	16679
893.941	16706
894.064	16611
894.186	16443
894.308	16352
894.43	16599
894.552	16634
894.674	16668
894.796	16474
894.918	16516
895.04	16535
895.161	16637
895.283	16516
895.405	16379
895.526	16561
895.648	16462
895.769	16527
895.891	16592
896.012	16558
896.134	16645
896.255	16535
896.376	16466
896.498	16538
896.619	16649
896.74	16561
896.861	16683
896.982	17010
897.103	17041
897.224	16885
897.345	16831
897.466	16717
897.587	16793
897.708	16911
897.828	16915
897.949	16771
898.07	16630
898.19	16733
898.311	16892
898.431	16809
898.552	16885
898.672	16968
898.792	16839
898.913	16881
899.033	16767
899.153	16710
899.273	16656
899.393	16721
899.513	16774
899.633	16698
899.753	16820
899.873	16618
899.993	16759
900.113	16687
900.232	16675
900.352	16588
900.472	16660
900.591	16546
900.711	16542
900.83	16504
900.95	16626
901.069	16675
901.189	16474
901.308	16238
901.427	16150
901.546	16181
901.665	16185
901.784	16280
901.904	16090
902.023	16029
902.141	15743
902.26	15739
902.379	15778
902.498	15698
902.617	15667
902.735	15762
902.854	15724
902.973	15561
903.091	15332
903.21	15245
903.328	15332
903.446	15245
903.565	15146
903.683	15142
903.801	15020
903.919	15017
904.038	15097
904.156	14925
904.274	15043
904.392	14963
904.51	14796
904.627	14918
904.745	14952
904.863	14929
904.981	14674
905.098	14587
905.216	14583
905.334	14617
905.451	14651
905.569	14507
905.686	14705
905.803	14568
905.921	14294
906.038	14488
906.155	14358
906.272	14240
906.389	14275
906.506	14206
906.623	14119
906.74	14084
906.857	14012
906.974	14012
907.091	14073
907.208	14191
907.324	14168
907.441	13967
907.557	13871
907.674	13849
907.79	13712
907.907	13772
908.023	13761
908.139	13890
908.256	13814
908.372	13712
908.488	13738
908.604	13552
908.72	13457
908.836	13537
908.952	13563
909.068	13559
909.184	13613
909.3	13499
909.415	13460
909.531	13499
909.647	13388
909.762	13327
909.878	13282
909.993	13320
910.108	13274
910.224	13228
910.339	13240
910.454	13247
910.57	13175
910.685	13118
910.8	13285
910.915	13183
911.03	13061
911.145	13023
911.259	12966
911.374	12920
911.489	12825
911.604	12825
911.718	12707
911.833	12639
911.947	12532
912.062	12506
912.176	12654
912.291	12662
912.405	12654
912.519	12871
912.633	12890
912.748	12684
912.862	12692
912.976	12521
913.09	12483
913.204	12429
913.318	12536
913.431	12585
913.545	12604
913.659	12658
913.772	12494
913.886	12429
914	12319
914.113	12467
914.226	12490
914.34	12521
914.453	12235
914.566	12486
914.68	12327
914.793	12239
914.906	12095
915.019	12057
915.132	12015
915.245	12117
915.358	12106
915.47	12011
915.583	12068
915.696	12072
915.809	12239
915.921	12209
916.034	12072
916.146	12049
916.259	11999
916.371	12072
916.483	12068
916.595	11935
916.708	11984
916.82	11942
916.932	11893
917.044	11920
917.156	11893
917.268	11847
917.38	11920
917.491	11809
917.603	11961
917.715	12030
917.826	11901
917.938	11813
918.049	11733
918.161	11805
918.272	11984
918.384	11916
918.495	11851
918.606	11703
918.717	11611
918.828	11695
918.939	11672
919.05	11668
919.161	11585
919.272	11497
919.383	11570
919.494	11764
919.604	11798
919.715	11703
919.826	11604
919.936	11703
920.047	11733
920.157	11638
920.267	11843
920.378	11714
920.488	11657
920.598	11908
920.708	11893
920.818	11798
920.928	11760
921.038	12007
921.148	11988
921.258	11627
921.368	11604
921.477	11509
921.587	11471
921.697	11322
921.806	11478
921.916	11421
922.025	11208
922.134	11124
922.244	11136
922.353	11166
922.462	11071
922.571	10896
922.68	10812
922.789	10850
922.898	10782
923.007	10793
923.116	10854
923.224	10828
923.333	10778
923.442	10687
923.55	10683
923.659	10744
923.767	10763
923.876	10588
923.984	10828
924.092	10634
924.201	10599
924.309	10683
924.417	10634
924.525	10584
924.633	10512
924.741	11322
924.849	10352
924.956	10630
925.064	10440
925.172	10291
925.279	10356
925.387	10424
925.494	10455
925.602	10569
925.709	10451
925.816	10375
925.924	10375
926.031	10466
926.138	10386
926.245	10440
926.352	10238
926.459	10481
926.566	10455
926.673	10257
926.779	10253
926.886	10227
926.993	10082
927.099	10036
927.206	10048
927.312	10055
927.419	10036
927.525	10044
927.631	10116
927.737	9934
927.843	9903
927.95	9819
928.056	9934
928.162	9884
928.267	9983
928.373	10527
928.479	10017
928.585	9709
928.69	9903
928.796	9907
928.901	9812
929.007	9785
929.112	9785
929.218	9724
929.323	9759
929.428	9701
929.533	9842
929.638	9705
929.743	9770
929.848	9728
929.953	9648
930.058	9629
930.163	9492
930.267	9424
930.372	9610
930.477	9466
930.581	9690
930.685	9526
930.79	9416
930.894	9416
930.998	9416
931.103	9561
931.207	9203
931.311	9077
931.415	9028
931.519	8830
931.623	8910
