Data from test_V78500241_2848.txt Node
Date: Fri Mar 25 14:53:32 CST 2022
User: usil
Spectrometer: V785-0024
Trigger mode: 0
Integration Time (sec): 4.000000E-1
Scans to average: 1
Nonlinearity correction enabled: false
Boxcar width: 0
Storing dark spectrum: false
XAxis mode: Wavelengths
Number of Pixels in Spectrum: 1024
>>>>>Begin Spectral Data<<<<<
801.071	22131
801.214	21808
801.356	21705
801.499	21564
801.641	21450
801.783	21428
801.926	21496
802.068	21306
802.211	21256
802.353	21306
802.496	20990
802.638	20960
802.78	20861
802.923	20834
803.065	20804
803.208	20701
803.35	20682
803.492	20891
803.635	20872
803.777	20781
803.919	20883
804.061	21131
804.204	20845
804.346	20655
804.488	20667
804.63	20712
804.773	20587
804.915	20606
805.057	20583
805.199	20579
805.341	20674
805.483	20781
805.626	20705
805.768	20636
805.91	20667
806.052	20667
806.194	20606
806.336	20800
806.478	20636
806.62	20701
806.762	20746
806.904	20849
807.046	21138
807.188	21005
807.33	21089
807.472	20876
807.614	20864
807.756	20929
807.898	20708
808.04	20689
808.182	20788
808.324	20739
808.465	20906
808.607	20849
808.749	21001
808.891	21058
809.033	21245
809.174	21131
809.316	21043
809.458	21051
809.6	20975
809.741	21089
809.883	21032
810.025	21222
810.166	21214
810.308	21188
810.45	20971
810.591	21051
810.733	20914
810.875	20819
811.016	20861
811.158	20636
811.299	21001
811.441	20826
811.582	20952
811.724	20743
811.865	20689
812.007	20834
812.148	20716
812.29	20868
812.431	20941
812.573	21093
812.714	21154
812.855	21370
812.997	21492
813.138	21549
813.279	21420
813.421	21454
813.562	21252
813.703	20986
813.845	21074
813.986	20587
814.127	20514
814.268	20400
814.41	20450
814.551	20252
814.692	20358
814.833	20282
814.974	20282
815.115	20332
815.256	20134
815.397	20214
815.539	20031
815.68	20081
815.821	19959
815.962	20043
816.103	20065
816.244	19917
816.385	19799
816.526	19795
816.666	19616
816.807	19674
816.948	19510
817.089	19559
817.23	19635
817.371	19441
817.512	19426
817.653	19491
817.793	19419
817.934	19441
818.075	19487
818.216	19540
818.356	19403
818.497	19407
818.638	19122
818.778	19213
818.919	19171
819.06	19160
819.2	19213
819.341	19362
819.481	19430
819.622	19506
819.762	19559
819.903	19696
820.043	19548
820.184	19514
820.324	19331
820.465	19559
820.605	19354
820.746	19438
820.886	19308
821.026	19415
821.167	19270
821.307	19441
821.447	19403
821.588	19339
821.728	19175
821.868	18935
822.008	18886
822.149	18810
822.289	18901
822.429	18616
822.569	18528
822.709	18601
822.849	18296
822.99	18289
823.13	18422
823.27	18262
823.41	18159
823.55	18114
823.69	18201
823.83	18117
823.97	18060
824.11	17920
824.25	17893
824.389	17927
824.529	17999
824.669	17992
824.809	17965
824.949	17984
825.089	17950
825.228	17969
825.368	17729
825.508	17710
825.648	17653
825.787	17760
825.927	17733
826.067	17592
826.206	17634
826.346	17710
826.485	17878
826.625	17764
826.765	17946
826.904	17699
827.044	17592
827.183	17452
827.323	17410
827.462	17589
827.601	17318
827.741	17444
827.88	17478
828.02	17254
828.159	17311
828.298	17356
828.437	17478
828.577	17341
828.716	17452
828.855	17296
828.994	17178
829.134	17132
829.273	17109
829.412	17014
829.551	17162
829.69	17045
829.829	17235
829.968	17406
830.107	17181
830.246	17140
830.385	17143
830.524	17025
830.663	16957
830.802	16877
830.941	16805
831.08	16805
831.219	16782
831.357	16850
831.496	16980
831.635	16721
831.774	16634
831.913	16558
832.051	16637
832.19	16504
832.329	16512
832.467	16443
832.606	16341
832.744	16424
832.883	16371
833.022	16379
833.16	16474
833.299	16451
833.437	16462
833.576	16470
833.714	16436
833.852	16489
833.991	16451
834.129	16535
834.267	16588
834.406	16417
834.544	16611
834.682	16459
834.821	16447
834.959	16577
835.097	16436
835.235	16569
835.373	16565
835.511	16538
835.65	16417
835.788	16462
835.926	16242
836.064	16211
836.202	16299
836.34	16459
836.478	16538
836.615	16386
836.753	16462
836.891	16402
837.029	16466
837.167	16318
837.305	16257
837.443	16287
837.58	16196
837.718	16314
837.856	16284
837.993	16173
838.131	16261
838.269	16284
838.406	16162
838.544	16196
838.681	16040
838.819	16112
838.956	15793
839.094	15785
839.231	15934
839.369	16051
839.506	16215
839.643	16090
839.781	15865
839.918	15865
840.055	15831
840.193	15842
840.33	15804
840.467	15823
840.604	15884
840.742	15991
840.879	15781
841.016	15759
841.153	15774
841.29	16055
841.427	15781
841.564	15892
841.701	15876
841.838	15800
841.975	15747
842.112	15724
842.249	15625
842.385	15622
842.522	15759
842.659	15679
842.796	15610
842.933	15599
843.069	15557
843.206	15580
843.343	15778
843.479	15641
843.616	15584
843.752	15473
843.889	15424
844.025	15568
844.162	15363
844.298	15481
844.435	15401
844.571	15332
844.708	15485
844.844	15526
844.98	15538
845.117	15431
845.253	15367
845.389	15313
845.525	15302
845.661	15233
845.798	15195
845.934	15230
846.07	15188
846.206	15192
846.342	15370
846.478	15184
846.614	15009
846.75	14906
846.886	14891
847.022	15032
847.158	14895
847.294	14944
847.429	14956
847.565	14883
847.701	15230
847.837	14720
847.972	14674
848.108	14880
848.244	14804
848.379	14625
848.515	14590
848.65	14400
848.786	14606
848.921	14571
849.057	14701
849.192	14663
849.328	14556
849.463	14537
849.598	14564
849.734	14457
849.869	14377
850.004	14362
850.14	14320
850.275	14317
850.41	14263
850.545	14362
850.68	14248
850.815	14332
850.95	14320
851.085	14587
851.22	14442
851.355	14358
851.49	14282
851.625	14240
851.76	14290
851.895	14229
852.03	14187
852.165	14309
852.299	14393
852.434	14438
852.569	14438
852.703	14351
852.838	14385
852.973	14423
853.107	14438
853.242	14374
853.376	14210
853.511	14149
853.645	14103
853.78	14396
853.914	14286
854.048	14161
854.183	14199
854.317	14202
854.451	14419
854.585	14111
854.72	14180
854.854	14286
854.988	14164
855.122	14183
855.256	14130
855.39	14221
855.524	14301
855.658	14138
855.792	14229
855.926	14286
856.06	14202
856.194	14233
856.327	14164
856.461	14168
856.595	14164
856.729	14180
856.862	14309
856.996	14252
857.13	14202
857.263	14282
857.397	14343
857.53	14180
857.664	14259
857.797	14278
857.931	14267
858.064	14248
858.197	14275
858.331	14161
858.464	14161
858.597	14130
858.731	14206
858.864	14240
858.997	14187
859.13	14248
859.263	14294
859.396	14301
859.529	14180
859.662	14187
859.795	14176
859.928	14157
860.061	14339
860.194	14461
860.327	14199
860.46	14225
860.592	14317
860.725	14294
860.858	14229
860.99	14176
861.123	14164
861.256	14126
861.388	14157
861.521	14701
861.653	14111
861.786	14043
861.918	14065
862.05	14100
862.183	14096
862.315	14210
862.447	14149
862.58	14039
862.712	14054
862.844	13928
862.976	14134
863.108	14020
863.24	14415
863.372	13856
863.504	14020
863.636	14005
863.768	14027
863.9	14005
864.032	13898
864.164	14043
864.296	14077
864.428	14039
864.559	14016
864.691	14088
864.823	14039
864.954	14016
865.086	14020
865.217	13955
865.349	13868
865.48	13989
865.612	13974
865.743	14054
865.875	13928
866.006	13902
866.137	13936
866.269	13970
866.4	13902
866.531	13890
866.662	13902
866.793	13879
866.924	13993
867.055	13894
867.186	13909
867.317	13845
867.448	13925
867.579	13887
867.71	13928
867.841	13902
867.972	13940
868.103	14005
868.233	13864
868.364	13989
868.495	13986
868.625	14229
868.756	14244
868.886	14142
869.017	14195
869.147	14309
869.278	14294
869.408	14324
869.539	14229
869.669	14355
869.799	14214
869.929	14294
870.06	14290
870.19	14492
870.32	14450
870.45	14583
870.58	14629
870.71	14781
870.84	14659
870.97	14659
871.1	14617
871.23	14792
871.36	14785
871.489	14708
871.619	14781
871.749	14861
871.879	14857
872.008	14876
872.138	14845
872.267	14834
872.397	14648
872.526	14651
872.656	14648
872.785	14636
872.915	14925
873.044	14899
873.173	14899
873.303	14914
873.432	14868
873.561	15055
873.69	14830
873.819	14811
873.948	14956
874.077	14868
874.206	14743
874.335	14842
874.464	15077
874.593	15112
874.722	15119
874.851	15283
874.979	15211
875.108	15275
875.237	15077
875.365	15089
875.494	15188
875.623	15256
875.751	15146
875.88	15207
876.008	15359
876.136	15386
876.265	15557
876.393	15778
876.521	15679
876.65	15663
876.778	15603
876.906	15530
877.034	15534
877.162	15633
877.29	15641
877.418	15553
877.546	15656
877.674	15606
877.802	15561
877.93	15553
878.058	15637
878.185	15553
878.313	15591
878.441	15568
878.568	15492
878.696	15523
878.824	15667
878.951	15671
879.079	15823
879.206	15915
879.333	15812
879.461	15618
879.588	15728
879.715	15759
879.842	15907
879.97	15732
880.097	15447
880.224	15287
880.351	15367
880.478	15424
880.605	15496
880.732	15507
880.859	15671
880.986	15500
881.112	15473
881.239	15370
881.366	15192
881.493	15211
881.619	15058
881.746	15123
881.872	15051
881.999	15089
882.125	15062
882.252	15207
882.378	15214
882.505	15249
882.631	15138
882.757	14914
882.883	14941
883.01	15001
883.136	14880
883.262	14765
883.388	14727
883.514	14902
883.64	14842
883.766	14994
883.892	14739
884.018	14796
884.143	14906
884.269	14952
884.395	14655
884.52	14640
884.646	14670
884.772	14541
884.897	14583
885.023	14739
885.148	14743
885.274	14739
885.399	14689
885.524	14670
885.65	14705
885.775	14632
885.9	14682
886.025	14750
886.15	14727
886.275	14541
886.4	14583
886.525	14545
886.65	14511
886.775	14507
886.9	14754
887.025	14834
887.149	14648
887.274	14423
887.399	14385
887.523	14480
887.648	14465
887.773	14313
887.897	14514
888.021	14549
888.146	14549
888.27	14579
888.395	14522
888.519	14545
888.643	14636
888.767	14518
888.891	14305
889.015	14286
889.139	14358
889.263	14374
889.387	14412
889.511	14484
889.635	14442
889.759	14286
889.883	14263
890.006	14419
890.13	14431
890.254	14237
890.377	14256
890.501	14119
890.624	14096
890.748	14214
890.871	14088
890.995	13940
891.118	13906
891.241	14103
891.364	13936
891.488	14172
891.611	13944
891.734	13917
891.857	14126
891.98	14062
892.103	14126
892.226	14016
892.349	14111
892.471	13917
892.594	14001
892.717	13967
892.839	14031
892.962	14069
893.085	14107
893.207	14039
893.33	13959
893.452	13955
893.575	14073
893.697	14062
893.819	14202
893.941	14206
894.064	14161
894.186	13917
894.308	13989
894.43	14130
894.552	14225
894.674	14221
894.796	13947
894.918	14073
895.04	14107
895.161	14183
895.283	14210
895.405	14054
895.526	14092
895.648	14084
895.769	14157
895.891	14142
896.012	14221
896.134	14259
896.255	14111
896.376	14183
896.498	14206
896.619	14191
896.74	14073
896.861	14271
896.982	14549
897.103	14708
897.224	14533
897.345	14522
897.466	14396
897.587	14423
897.708	14648
897.828	14579
897.949	14438
898.07	14347
898.19	14450
898.311	14621
898.431	14473
898.552	14632
898.672	14568
898.792	14640
898.913	14636
899.033	14465
899.153	14362
899.273	14347
899.393	14400
899.513	14457
899.633	14469
899.753	14396
899.873	14347
899.993	14454
900.113	14415
900.232	14450
900.352	14400
900.472	14237
900.591	14267
900.711	14229
900.83	14244
900.95	14370
901.069	14381
901.189	14164
901.308	14035
901.427	13868
901.546	13951
901.665	13967
901.784	14031
901.904	13784
902.023	13727
902.141	13521
902.26	13552
902.379	13521
902.498	13521
902.617	13445
902.735	13510
902.854	13552
902.973	13457
903.091	13270
903.21	13247
903.328	13335
903.446	13213
903.565	13179
903.683	13133
903.801	13065
903.919	13137
904.038	13168
904.156	12951
904.274	12954
904.392	12905
904.51	12886
904.627	12905
904.745	12909
904.863	13015
904.981	12681
905.098	12601
905.216	12544
905.334	12555
905.451	12589
905.569	12544
905.686	12642
905.803	12517
905.921	12490
906.038	12464
906.155	12445
906.272	12384
906.389	12357
906.506	12178
906.623	12213
906.74	12213
906.857	12163
906.974	12129
907.091	12224
907.208	12289
907.324	12209
907.441	12133
907.557	11973
907.674	11901
907.79	11828
907.907	11920
908.023	11996
908.139	11908
908.256	11904
908.372	11901
908.488	11764
908.604	11786
908.72	11722
908.836	11661
908.952	11649
909.068	11741
909.184	11897
909.3	11661
909.415	11790
909.531	11672
909.647	11505
909.762	11455
909.878	11490
909.993	11490
910.108	11455
910.224	11474
910.339	11455
910.454	11345
910.57	11254
910.685	11220
910.8	11501
910.915	11501
911.03	11368
911.145	11136
911.259	11174
911.374	11113
911.489	11083
911.604	11086
911.718	10889
911.833	11060
911.947	10862
912.062	10706
912.176	10908
912.291	10949
912.405	10968
912.519	11037
912.633	11075
912.748	10984
912.862	10835
912.976	10862
913.09	10763
913.204	10797
913.318	10755
913.431	10919
913.545	10915
913.659	10946
913.772	10748
913.886	10736
914	10698
914.113	10759
914.226	10793
914.34	10763
914.453	10588
914.566	10812
914.68	10649
914.793	10622
914.906	10519
915.019	10436
915.132	10356
915.245	10405
915.358	10474
915.47	10428
915.583	10508
915.696	10459
915.809	10634
915.921	10599
916.034	10462
916.146	10413
916.259	10291
916.371	10474
916.483	10424
916.595	10306
916.708	10390
916.82	10341
916.932	10291
917.044	10436
917.156	10272
917.268	10276
917.38	10246
917.491	10287
917.603	10329
917.715	10390
917.826	10344
917.938	10348
918.049	10112
918.161	10371
918.272	10375
918.384	10470
918.495	10234
918.606	10177
918.717	10051
918.828	10268
918.939	10181
919.05	10112
919.161	10082
919.272	9949
919.383	9983
919.494	10169
919.604	10371
919.715	10234
919.826	10074
919.936	10162
920.047	10261
920.157	10109
920.267	10413
920.378	10227
920.488	10128
920.598	10352
920.708	10478
920.818	10352
920.928	10314
921.038	10512
921.148	10531
921.258	10219
921.368	10154
921.477	9975
921.587	9960
921.697	9869
921.806	10074
921.916	9987
922.025	9759
922.134	9682
922.244	9717
922.353	9759
922.462	9629
922.571	9568
922.68	9462
922.789	9401
922.898	9466
923.007	9382
923.116	9492
923.224	9431
923.333	9447
923.442	9329
923.55	9233
923.659	9249
923.767	9382
923.876	9344
923.984	9336
924.092	9253
924.201	9291
924.309	9275
924.417	9359
924.525	9218
924.633	9241
924.741	10169
924.849	9085
924.956	9283
925.064	9085
925.172	8956
925.279	9062
925.387	9097
925.494	9013
925.602	9226
925.709	9150
925.816	9055
925.924	9066
926.031	9165
926.138	9100
926.245	9089
926.352	9043
926.459	9161
926.566	9165
926.673	9051
926.779	8960
926.886	8937
926.993	8804
927.099	8845
927.206	8693
927.312	8743
927.419	8883
927.525	8762
927.631	8868
927.737	8705
927.843	8697
927.95	8613
928.056	8682
928.162	8716
928.267	8762
928.373	9317
928.479	8769
928.585	8610
928.69	8697
928.796	8807
928.901	8598
929.007	8454
929.112	8549
929.218	8575
929.323	8606
929.428	8503
929.533	8697
929.638	8552
929.743	8488
929.848	8571
929.953	8522
930.058	8412
930.163	8339
930.267	8252
930.372	8438
930.477	8256
930.581	8568
930.685	8377
930.79	8290
930.894	8298
930.998	8210
931.103	8317
931.207	8016
931.311	7986
931.415	7822
931.519	7776
931.623	7651
