Data from test_V78500241_2122.txt Node
Date: Fri Mar 25 14:48:29 CST 2022
User: usil
Spectrometer: V785-0024
Trigger mode: 0
Integration Time (sec): 4.000000E-1
Scans to average: 1
Nonlinearity correction enabled: false
Boxcar width: 0
Storing dark spectrum: false
XAxis mode: Wavelengths
Number of Pixels in Spectrum: 1024
>>>>>Begin Spectral Data<<<<<
801.071	22078
801.214	21994
801.356	21808
801.499	21694
801.641	21576
801.783	21481
801.926	21405
802.068	21378
802.211	21218
802.353	21325
802.496	21043
802.638	21066
802.78	20944
802.923	20788
803.065	20724
803.208	20773
803.35	20746
803.492	21047
803.635	20990
803.777	20880
803.919	20929
804.061	21161
804.204	20769
804.346	20655
804.488	20777
804.63	20830
804.773	20648
804.915	20735
805.057	20845
805.199	20659
805.341	20853
805.483	20941
805.626	20868
805.768	20636
805.91	20792
806.052	20727
806.194	20708
806.336	20925
806.478	20583
806.62	20636
806.762	20823
806.904	20998
807.046	21116
807.188	21116
807.33	21195
807.472	21028
807.614	20956
807.756	21005
807.898	20902
808.04	20762
808.182	20826
808.324	20849
808.465	20823
808.607	20967
808.749	20971
808.891	21180
809.033	21268
809.174	21188
809.316	21131
809.458	21074
809.6	21043
809.741	21176
809.883	21237
810.025	21397
810.166	21310
810.308	21233
810.45	21222
810.591	21146
810.733	20944
810.875	21013
811.016	20861
811.158	20876
811.299	20963
811.441	21047
811.582	20990
811.724	20819
811.865	20849
812.007	20845
812.148	20864
812.29	20925
812.431	21169
812.573	21207
812.714	21294
812.855	21359
812.997	21477
813.138	21591
813.279	21378
813.421	21542
813.562	21192
813.703	21146
813.845	20982
813.986	20663
814.127	20651
814.268	20438
814.41	20629
814.551	20484
814.692	20594
814.833	20355
814.974	20484
815.115	20370
815.256	20313
815.397	20290
815.539	20240
815.68	20145
815.821	20126
815.962	20069
816.103	20221
816.244	20008
816.385	19944
816.526	19837
816.666	19765
816.807	19677
816.948	19681
817.089	19696
817.23	19632
817.371	19495
817.512	19632
817.653	19734
817.793	19525
817.934	19594
818.075	19674
818.216	19613
818.356	19578
818.497	19415
818.638	19316
818.778	19251
818.919	19312
819.06	19331
819.2	19445
819.341	19434
819.481	19441
819.622	19590
819.762	19704
819.903	19693
820.043	19586
820.184	19559
820.324	19677
820.465	19620
820.605	19578
820.746	19514
820.886	19426
821.026	19620
821.167	19525
821.307	19597
821.447	19506
821.588	19449
821.728	19228
821.868	19160
822.008	18924
822.149	19031
822.289	18894
822.429	18741
822.569	18661
822.709	18631
822.849	18414
822.99	18372
823.13	18410
823.27	18422
823.41	18296
823.55	18155
823.69	18201
823.83	18346
823.97	18190
824.11	18102
824.25	17992
824.389	18072
824.529	18045
824.669	18034
824.809	18174
824.949	18068
825.089	18011
825.228	18038
825.368	17954
825.508	17798
825.648	17836
825.787	17878
825.927	17885
826.067	17737
826.206	17821
826.346	17779
826.485	17824
826.625	17710
826.765	17863
826.904	17764
827.044	17532
827.183	17520
827.323	17467
827.462	17623
827.601	17433
827.741	17512
827.88	17486
828.02	17368
828.159	17395
828.298	17425
828.437	17627
828.577	17376
828.716	17653
828.855	17410
828.994	17216
829.134	17299
829.273	17197
829.412	17242
829.551	17121
829.69	17200
829.829	17193
829.968	17360
830.107	17315
830.246	17269
830.385	17166
830.524	17159
830.663	17067
830.802	16946
830.941	16786
831.08	16847
831.219	16911
831.357	16965
831.496	17037
831.635	16839
831.774	16831
831.913	16786
832.051	16596
832.19	16653
832.329	16729
832.467	16546
832.606	16489
832.744	16519
832.883	16504
833.022	16622
833.16	16577
833.299	16729
833.437	16573
833.576	16599
833.714	16588
833.852	16618
833.991	16580
834.129	16672
834.267	16603
834.406	16603
834.544	16531
834.682	16622
834.821	16561
834.959	16660
835.097	16527
835.235	16641
835.373	16615
835.511	16634
835.65	16466
835.788	16421
835.926	16265
836.064	16284
836.202	16333
836.34	16493
836.478	16653
836.615	16409
836.753	16542
836.891	16599
837.029	16558
837.167	16584
837.305	16432
837.443	16402
837.58	16333
837.718	16447
837.856	16386
837.993	16318
838.131	16314
838.269	16314
838.406	16303
838.544	16280
838.681	16017
838.819	16112
838.956	15854
839.094	15945
839.231	15979
839.369	16036
839.506	16390
839.643	16196
839.781	15915
839.918	15937
840.055	16006
840.193	15895
840.33	16036
840.467	15960
840.604	15987
840.742	16337
840.879	15831
841.016	15759
841.153	15778
841.29	16059
841.427	16086
841.564	15945
841.701	15968
841.838	15892
841.975	15903
842.112	15838
842.249	15781
842.385	15633
842.522	15892
842.659	15694
842.796	15762
842.933	15739
843.069	15637
843.206	15690
843.343	15709
843.479	15717
843.616	15690
843.752	15591
843.889	15606
844.025	15629
844.162	15504
844.298	15622
844.435	15564
844.571	15466
844.708	15500
844.844	15576
844.98	15572
845.117	15595
845.253	15431
845.389	15340
845.525	15416
845.661	15287
845.798	15241
845.934	15298
846.07	15245
846.206	15325
846.342	15507
846.478	15389
846.614	15230
846.75	15161
846.886	15017
847.022	15165
847.158	15085
847.294	15074
847.429	15127
847.565	15036
847.701	15435
847.837	14872
847.972	14727
848.108	14830
848.244	14902
848.379	14739
848.515	14636
848.65	14655
848.786	14705
848.921	14693
849.057	14773
849.192	14739
849.328	14644
849.463	14613
849.598	14640
849.734	14587
849.869	14552
850.004	14457
850.14	14560
850.275	14476
850.41	14358
850.545	14412
850.68	14415
850.815	14431
850.95	14396
851.085	14518
851.22	14431
851.355	14389
851.49	14355
851.625	14393
851.76	14366
851.895	14317
852.03	14286
852.165	14469
852.299	14465
852.434	14465
852.569	14476
852.703	14415
852.838	14632
852.973	14606
853.107	14594
853.242	14408
853.376	14389
853.511	14138
853.645	14320
853.78	14465
853.914	14298
854.048	14252
854.183	14313
854.317	14294
854.451	14427
854.585	14294
854.72	14233
854.854	14431
854.988	14225
855.122	14225
855.256	14221
855.39	14362
855.524	14374
855.658	14385
855.792	14351
855.926	14290
856.06	14355
856.194	14381
856.327	14244
856.461	14206
856.595	14172
856.729	14229
856.862	14499
856.996	14374
857.13	14400
857.263	14347
857.397	14358
857.53	14313
857.664	14393
857.797	14396
857.931	14393
858.064	14256
858.197	14374
858.331	14317
858.464	14347
858.597	14282
858.731	14286
858.864	14317
858.997	14275
859.13	14248
859.263	14343
859.396	14400
859.529	14275
859.662	14317
859.795	14278
859.928	14313
860.061	14377
860.194	14522
860.327	14328
860.46	14339
860.592	14415
860.725	14434
860.858	14404
860.99	14248
861.123	14259
861.256	14187
861.388	14362
861.521	14979
861.653	14263
861.786	14138
861.918	14180
862.05	14187
862.183	14252
862.315	14183
862.447	14408
862.58	14343
862.712	14062
862.844	13997
862.976	14115
863.108	14069
863.24	14374
863.372	14016
863.504	14206
863.636	14142
863.768	14145
863.9	14168
864.032	13993
864.164	14081
864.296	14180
864.428	14191
864.559	14172
864.691	14191
864.823	14164
864.954	14214
865.086	14065
865.217	14103
865.349	14062
865.48	13993
865.612	14077
865.743	14157
865.875	14100
866.006	13967
866.137	14123
866.269	14027
866.4	13997
866.531	14024
866.662	14001
866.793	14005
866.924	14065
867.055	14054
867.186	14050
867.317	13993
867.448	13925
867.579	14035
867.71	14043
867.841	13894
867.972	14043
868.103	14035
868.233	14050
868.364	14058
868.495	14081
868.625	14362
868.756	14423
868.886	14172
869.017	14324
869.147	14438
869.278	14431
869.408	14271
869.539	14263
869.669	14351
869.799	14328
869.929	14400
870.06	14423
870.19	14693
870.32	14655
870.45	14602
870.58	14758
870.71	14807
870.84	14842
870.97	14651
871.1	14678
871.23	14830
871.36	14906
871.489	14796
871.619	14857
871.749	14842
871.879	15020
872.008	15112
872.138	14918
872.267	14849
872.397	14804
872.526	14758
872.656	14712
872.785	14735
872.915	14914
873.044	15036
873.173	14960
873.303	14963
873.432	14956
873.561	15020
873.69	15009
873.819	14998
873.948	15062
874.077	14994
874.206	14967
874.335	15024
874.464	15176
874.593	15245
874.722	15150
874.851	15313
874.979	15367
875.108	15397
875.237	15272
875.365	15203
875.494	15336
875.623	15348
875.751	15332
875.88	15241
876.008	15378
876.136	15496
876.265	15755
876.393	15800
876.521	15724
876.65	15781
876.778	15804
876.906	15671
877.034	15720
877.162	15762
877.29	15542
877.418	15622
877.546	15717
877.674	15610
877.802	15595
877.93	15572
878.058	15633
878.185	15496
878.313	15599
878.441	15743
878.568	15530
878.696	15519
878.824	15648
878.951	15705
879.079	15728
879.206	16097
879.333	15781
879.461	15720
879.588	15816
879.715	15816
879.842	16036
879.97	15785
880.097	15606
880.224	15507
880.351	15507
880.478	15568
880.605	15469
880.732	15443
880.859	15759
880.986	15492
881.112	15549
881.239	15466
881.366	15344
881.493	15226
881.619	15199
881.746	15131
881.872	15218
881.999	15157
882.125	15188
882.252	15176
882.378	15119
882.505	15389
882.631	15081
882.757	14971
882.883	15051
883.01	15028
883.136	14956
883.262	14842
883.388	14883
883.514	14994
883.64	15043
883.766	14963
883.892	14887
884.018	14864
884.143	15020
884.269	15142
884.395	14735
884.52	14758
884.646	14678
884.772	14655
884.897	14674
885.023	14819
885.148	14739
885.274	14842
885.399	14785
885.524	14746
885.65	14750
885.775	14716
885.9	14785
886.025	14891
886.15	14762
886.275	14727
886.4	14602
886.525	14659
886.65	14781
886.775	14617
886.9	14834
887.025	14944
887.149	14785
887.274	14568
887.399	14541
887.523	14495
887.648	14488
887.773	14590
887.897	14667
888.021	14579
888.146	14575
888.27	14712
888.395	14686
888.519	14727
888.643	14689
888.767	14693
888.891	14560
889.015	14385
889.139	14484
889.263	14419
889.387	14564
889.511	14659
889.635	14610
889.759	14450
889.883	14389
890.006	14499
890.13	14484
890.254	14370
890.377	14393
890.501	14259
890.624	14195
890.748	14366
890.871	14221
890.995	14069
891.118	14035
891.241	14134
891.364	14172
891.488	14320
891.611	14218
891.734	14149
891.857	14259
891.98	14134
892.103	14210
892.226	14210
892.349	14073
892.471	13932
892.594	14115
892.717	14161
892.839	14100
892.962	14134
893.085	14244
893.207	14142
893.33	14031
893.452	14008
893.575	14149
893.697	14145
893.819	14286
893.941	14385
894.064	14263
894.186	14088
894.308	14058
894.43	14290
894.552	14400
894.674	14320
894.796	14161
894.918	14119
895.04	14206
895.161	14313
895.283	14290
895.405	14161
895.526	14237
895.648	14237
895.769	14271
895.891	14221
896.012	14351
896.134	14366
896.255	14381
896.376	14301
896.498	14244
896.619	14374
896.74	14351
896.861	14271
896.982	14670
897.103	14838
897.224	14648
897.345	14545
897.466	14442
897.587	14465
897.708	14682
897.828	14617
897.949	14659
898.07	14343
898.19	14568
898.311	14872
898.431	14629
898.552	14682
898.672	14800
898.792	14670
898.913	14724
899.033	14545
899.153	14488
899.273	14370
899.393	14438
899.513	14514
899.633	14571
899.753	14587
899.873	14571
899.993	14564
900.113	14438
900.232	14488
900.352	14370
900.472	14465
900.591	14339
900.711	14419
900.83	14294
900.95	14488
901.069	14499
901.189	14290
901.308	14138
901.427	13963
901.546	14046
901.665	14115
901.784	14096
901.904	13951
902.023	13830
902.141	13636
902.26	13544
902.379	13715
902.498	13578
902.617	13616
902.735	13613
902.854	13647
902.973	13518
903.091	13384
903.21	13327
903.328	13350
903.446	13304
903.565	13164
903.683	13160
903.801	13095
903.919	13179
904.038	13183
904.156	13015
904.274	13107
904.392	12985
904.51	12894
904.627	13046
904.745	12989
904.863	13034
904.981	12798
905.098	12677
905.216	12665
905.334	12760
905.451	12719
905.569	12597
905.686	12814
905.803	12776
905.921	12483
906.038	12741
906.155	12536
906.272	12426
906.389	12395
906.506	12429
906.623	12289
906.74	12190
906.857	12224
906.974	12228
907.091	12300
907.208	12437
907.324	12365
907.441	12190
907.557	12125
907.674	12079
907.79	11939
907.907	12053
908.023	12159
908.139	12049
908.256	12106
908.372	11988
908.488	11946
908.604	11824
908.72	11779
908.836	11783
908.952	11783
909.068	11741
909.184	11859
909.3	11726
909.415	11821
909.531	11863
909.647	11699
909.762	11589
909.878	11471
909.993	11653
910.108	11497
910.224	11649
910.339	11570
910.454	11501
910.57	11448
910.685	11311
910.8	11623
910.915	11554
911.03	11395
911.145	11239
911.259	11239
911.374	11303
911.489	11239
911.604	11174
911.718	11022
911.833	11060
911.947	10889
912.062	10835
912.176	10961
912.291	11025
912.405	10987
912.519	11265
912.633	11288
912.748	11143
912.862	10987
912.976	10889
913.09	10892
913.204	10866
913.318	10881
913.431	11045
913.545	11003
913.659	10987
913.772	10854
913.886	10782
914	10740
914.113	10900
914.226	10946
914.34	10927
914.453	10649
914.566	10816
914.68	10729
914.793	10679
914.906	10512
915.019	10554
915.132	10459
915.245	10569
915.358	10542
915.47	10523
915.583	10577
915.696	10592
915.809	10668
915.921	10691
916.034	10504
916.146	10546
916.259	10386
916.371	10504
916.483	10607
916.595	10440
916.708	10504
916.82	10432
916.932	10424
917.044	10428
917.156	10447
917.268	10337
917.38	10363
917.491	10390
917.603	10356
917.715	10489
917.826	10409
917.938	10341
918.049	10325
918.161	10352
918.272	10527
918.384	10455
918.495	10409
918.606	10272
918.717	10204
918.828	10223
918.939	10249
919.05	10181
919.161	10230
919.272	10074
919.383	10044
919.494	10314
919.604	10459
919.715	10242
919.826	10169
919.936	10246
920.047	10287
920.157	10219
920.267	10451
920.378	10303
920.488	10280
920.598	10554
920.708	10569
920.818	10455
920.928	10500
921.038	10603
921.148	10493
921.258	10253
921.368	10181
921.477	10188
921.587	10097
921.697	9975
921.806	10109
921.916	10025
922.025	9880
922.134	9781
922.244	9713
922.353	9793
922.462	9671
922.571	9679
922.68	9507
922.789	9504
922.898	9504
923.007	9454
923.116	9557
923.224	9496
923.333	9515
923.442	9340
923.55	9397
923.659	9416
923.767	9466
923.876	9279
923.984	9401
924.092	9344
924.201	9386
924.309	9386
924.417	9306
924.525	9283
924.633	9355
924.741	10344
924.849	9123
924.956	9268
925.064	9108
925.172	9058
925.279	9123
925.387	9176
925.494	9230
925.602	9253
925.709	9226
925.816	9093
925.924	9264
926.031	9256
926.138	9112
926.245	9245
926.352	9104
926.459	9237
926.566	9272
926.673	9169
926.779	9020
926.886	8982
926.993	8918
927.099	8899
927.206	8819
927.312	8883
927.419	9009
927.525	8891
927.631	8941
927.737	8838
927.843	8811
927.95	8617
928.056	8724
928.162	8781
928.267	8887
928.373	9329
928.479	8914
928.585	8667
928.69	8804
928.796	8781
928.901	8651
929.007	8560
929.112	8663
929.218	8651
929.323	8598
929.428	8579
929.533	8667
929.638	8568
929.743	8575
929.848	8598
929.953	8590
930.058	8522
930.163	8301
930.267	8301
930.372	8393
930.477	8313
930.581	8522
930.685	8385
930.79	8298
930.894	8298
930.998	8263
931.103	8434
931.207	8065
931.311	8062
931.415	7944
931.519	7849
931.623	7776
