Data from test_V78500241_3676.txt Node
Date: Fri Mar 25 14:59:18 CST 2022
User: usil
Spectrometer: V785-0024
Trigger mode: 0
Integration Time (sec): 4.000000E-1
Scans to average: 1
Nonlinearity correction enabled: false
Boxcar width: 0
Storing dark spectrum: false
XAxis mode: Wavelengths
Number of Pixels in Spectrum: 1024
>>>>>Begin Spectral Data<<<<<
801.071	21994
801.214	21743
801.356	21564
801.499	21500
801.641	21294
801.783	21294
801.926	21412
802.068	21256
802.211	21116
802.353	21055
802.496	20861
802.638	20796
802.78	20727
802.923	20670
803.065	20533
803.208	20617
803.35	20640
803.492	20739
803.635	20769
803.777	20621
803.919	20735
804.061	20941
804.204	20689
804.346	20571
804.488	20480
804.63	20575
804.773	20454
804.915	20625
805.057	20606
805.199	20457
805.341	20503
805.483	20727
805.626	20609
805.768	20412
805.91	20465
806.052	20606
806.194	20518
806.336	20625
806.478	20514
806.62	20579
806.762	20598
806.904	20670
807.046	20899
807.188	20868
807.33	20883
807.472	20944
807.614	20788
807.756	20792
807.898	20693
808.04	20625
808.182	20533
808.324	20556
808.465	20594
808.607	20720
808.749	20914
808.891	20971
809.033	20982
809.174	20956
809.316	20750
809.458	20887
809.6	20861
809.741	20815
809.883	20891
810.025	20933
810.166	21024
810.308	20979
810.45	20971
810.591	20834
810.733	20891
810.875	20590
811.016	20568
811.158	20549
811.299	20629
811.441	20838
811.582	20644
811.724	20621
811.865	20560
812.007	20522
812.148	20613
812.29	20735
812.431	20689
812.573	20872
812.714	20960
812.855	21203
812.997	21226
813.138	21363
813.279	21245
813.421	21104
813.562	21112
813.703	20792
813.845	20743
813.986	20465
814.127	20240
814.268	20172
814.41	20225
814.551	20259
814.692	20240
814.833	20069
814.974	20027
815.115	20138
815.256	20084
815.397	20005
815.539	19986
815.68	19967
815.821	19906
815.962	19864
816.103	19757
816.244	19734
816.385	19582
816.526	19529
816.666	19460
816.807	19403
816.948	19430
817.089	19430
817.23	19377
817.371	19327
817.512	19244
817.653	19274
817.793	19225
817.934	19251
818.075	19255
818.216	19255
818.356	19198
818.497	19175
818.638	18897
818.778	18973
818.919	19057
819.06	18981
819.2	19038
819.341	19213
819.481	19126
819.622	19407
819.762	19400
819.903	19411
820.043	19335
820.184	19285
820.324	19266
820.465	19270
820.605	19297
820.746	19255
820.886	19168
821.026	19228
821.167	19221
821.307	19293
821.447	19282
821.588	19065
821.728	18901
821.868	18928
822.008	18688
822.149	18787
822.289	18681
822.429	18494
822.569	18429
822.709	18395
822.849	18041
822.99	18194
823.13	18174
823.27	18129
823.41	18091
823.55	17935
823.69	18026
823.83	17996
823.97	18049
824.11	17668
824.25	17767
824.389	17699
824.529	17745
824.669	17741
824.809	17840
824.949	17828
825.089	17882
825.228	17729
825.368	17558
825.508	17467
825.648	17539
825.787	17512
825.927	17486
826.067	17539
826.206	17516
826.346	17596
826.485	17509
826.625	17562
826.765	17611
826.904	17509
827.044	17322
827.183	17318
827.323	17181
827.462	17254
827.601	17185
827.741	17159
827.88	17204
828.02	17147
828.159	17098
828.298	17239
828.437	17223
828.577	17178
828.716	17277
828.855	17170
828.994	16961
829.134	17033
829.273	17067
829.412	16938
829.551	16976
829.69	16949
829.829	17033
829.968	17128
830.107	17014
830.246	17102
830.385	16976
830.524	16801
830.663	16831
830.802	16675
830.941	16580
831.08	16672
831.219	16778
831.357	16653
831.496	16877
831.635	16630
831.774	16512
831.913	16451
832.051	16379
832.19	16432
832.329	16512
832.467	16344
832.606	16204
832.744	16272
832.883	16329
833.022	16291
833.16	16318
833.299	16333
833.437	16348
833.576	16379
833.714	16451
833.852	16329
833.991	16402
834.129	16493
834.267	16405
834.406	16280
834.544	16409
834.682	16470
834.821	16394
834.959	16493
835.097	16466
835.235	16405
835.373	16462
835.511	16409
835.65	16287
835.788	16367
835.926	16166
836.064	16173
836.202	16150
836.34	16238
836.478	16348
836.615	16314
836.753	16314
836.891	16375
837.029	16356
837.167	16287
837.305	16215
837.443	16162
837.58	16124
837.718	16238
837.856	16147
837.993	16097
838.131	16223
838.269	16154
838.406	16169
838.544	16135
838.681	15880
838.819	15907
838.956	15747
839.094	15724
839.231	15850
839.369	15873
839.506	16078
839.643	15922
839.781	15686
839.918	15709
840.055	15728
840.193	15606
840.33	15705
840.467	15770
840.604	15675
840.742	15964
840.879	15504
841.016	15713
841.153	15690
841.29	15869
841.427	15778
841.564	15717
841.701	15793
841.838	15698
841.975	15648
842.112	15633
842.249	15564
842.385	15454
842.522	15603
842.659	15523
842.796	15408
842.933	15504
843.069	15443
843.206	15454
843.343	15549
843.479	15504
843.616	15576
843.752	15321
843.889	15298
844.025	15405
844.162	15298
844.298	15405
844.435	15192
844.571	15131
844.708	15348
844.844	15378
844.98	15458
845.117	15359
845.253	15294
845.389	15207
845.525	15310
845.661	15188
845.798	15032
845.934	15093
846.07	15055
846.206	15085
846.342	15272
846.478	15097
846.614	14933
846.75	14891
846.886	14823
847.022	14971
847.158	14819
847.294	14918
847.429	14979
847.565	14826
847.701	15203
847.837	14705
847.972	14518
848.108	14796
848.244	14697
848.379	14503
848.515	14438
848.65	14568
848.786	14488
848.921	14495
849.057	14541
849.192	14549
849.328	14522
849.463	14465
849.598	14431
849.734	14484
849.869	14408
850.004	14328
850.14	14271
850.275	14267
850.41	14202
850.545	14259
850.68	14305
850.815	14225
850.95	14134
851.085	14400
851.22	14358
851.355	14358
851.49	14191
851.625	14138
851.76	14164
851.895	14103
852.03	14111
852.165	14233
852.299	14290
852.434	14263
852.569	14263
852.703	14294
852.838	14339
852.973	14343
853.107	14336
853.242	14244
853.376	14065
853.511	13928
853.645	14039
853.78	14149
853.914	14088
854.048	14039
854.183	14050
854.317	14054
854.451	14172
854.585	14088
854.72	14069
854.854	14294
854.988	14069
855.122	14092
855.256	14001
855.39	14126
855.524	14157
855.658	14012
855.792	14100
855.926	14180
856.06	14161
856.194	14244
856.327	14123
856.461	14008
856.595	14084
856.729	14149
856.862	14271
856.996	14168
857.13	14054
857.263	14168
857.397	14286
857.53	14058
857.664	14195
857.797	14161
857.931	14290
858.064	14065
858.197	14145
858.331	14233
858.464	13993
858.597	14008
858.731	14062
858.864	14027
858.997	14088
859.13	14233
859.263	14157
859.396	14180
859.529	14107
859.662	14069
859.795	14031
859.928	14100
860.061	14313
860.194	14267
860.327	14180
860.46	14088
860.592	14191
860.725	14206
860.858	14263
860.99	13993
861.123	13986
861.256	14073
861.388	14180
861.521	14781
861.653	13921
861.786	13902
861.918	13986
862.05	14058
862.183	14183
862.315	14206
862.447	14092
862.58	14077
862.712	13898
862.844	13837
862.976	13982
863.108	13887
863.24	14233
863.372	13753
863.504	13799
863.636	13837
863.768	13951
863.9	13856
864.032	13856
864.164	13818
864.296	13963
864.428	14016
864.559	13959
864.691	13967
864.823	14005
864.954	13913
865.086	13883
865.217	13837
865.349	13860
865.48	13906
865.612	13909
865.743	14027
865.875	13864
866.006	13940
866.137	13883
866.269	13883
866.4	13807
866.531	13875
866.662	13795
866.793	13833
866.924	13795
867.055	14005
867.186	13906
867.317	13791
867.448	13811
867.579	13822
867.71	13799
867.841	13871
867.972	13856
868.103	13868
868.233	13852
868.364	13849
868.495	13963
868.625	14123
868.756	14218
868.886	14058
869.017	14077
869.147	14237
869.278	14256
869.408	14088
869.539	14153
869.669	14301
869.799	14172
869.929	14294
870.06	14199
870.19	14514
870.32	14400
870.45	14336
870.58	14473
870.71	14670
870.84	14640
870.97	14488
871.1	14556
871.23	14689
871.36	14804
871.489	14579
871.619	14663
871.749	14701
871.879	14800
872.008	14853
872.138	14769
872.267	14743
872.397	14716
872.526	14552
872.656	14670
872.785	14594
872.915	14716
873.044	14792
873.173	14708
873.303	14746
873.432	14864
873.561	14975
873.69	14883
873.819	14815
873.948	14876
874.077	14701
874.206	14823
874.335	14826
874.464	14933
874.593	15077
874.722	15013
874.851	15157
874.979	15055
875.108	15230
875.237	14986
875.365	15024
875.494	15051
875.623	15176
875.751	15070
875.88	15131
876.008	15184
876.136	15401
876.265	15545
876.393	15637
876.521	15679
876.65	15599
876.778	15507
876.906	15416
877.034	15435
877.162	15576
877.29	15325
877.418	15561
877.546	15393
877.674	15477
877.802	15523
877.93	15450
878.058	15488
878.185	15367
878.313	15359
878.441	15492
878.568	15431
878.696	15447
878.824	15568
878.951	15698
879.079	15663
879.206	15797
879.333	15667
879.461	15610
879.588	15656
879.715	15709
879.842	15892
879.97	15641
880.097	15329
880.224	15325
880.351	15473
880.478	15370
880.605	15348
880.732	15469
880.859	15580
880.986	15428
881.112	15389
881.239	15207
881.366	15108
881.493	15055
881.619	14994
881.746	15017
881.872	15013
881.999	15028
882.125	14986
882.252	15131
882.378	15047
882.505	15138
882.631	14967
882.757	14876
882.883	14883
883.01	14925
883.136	14769
883.262	14663
883.388	14655
883.514	14921
883.64	14777
883.766	14785
883.892	14644
884.018	14708
884.143	14838
884.269	14906
884.395	14678
884.52	14552
884.646	14693
884.772	14613
884.897	14396
885.023	14530
885.148	14648
885.274	14758
885.399	14636
885.524	14556
885.65	14374
885.775	14549
885.9	14511
886.025	14655
886.15	14655
886.275	14511
886.4	14473
886.525	14522
886.65	14389
886.775	14499
886.9	14667
887.025	14804
887.149	14461
887.274	14404
887.399	14358
887.523	14442
887.648	14282
887.773	14309
887.897	14419
888.021	14415
888.146	14298
888.27	14587
888.395	14549
888.519	14446
888.643	14434
888.767	14503
888.891	14336
889.015	14225
889.139	14225
889.263	14229
889.387	14313
889.511	14389
889.635	14301
889.759	14115
889.883	14225
890.006	14324
890.13	14389
890.254	14180
890.377	14176
890.501	14001
890.624	14115
890.748	14065
890.871	13997
890.995	13902
891.118	13906
891.241	13875
891.364	13970
891.488	14084
891.611	13837
891.734	13887
891.857	14065
891.98	13894
892.103	14058
892.226	13978
892.349	13944
892.471	13864
892.594	13906
892.717	13936
892.839	13883
892.962	13936
893.085	13955
893.207	13986
893.33	13830
893.452	13921
893.575	13909
893.697	13928
893.819	14081
893.941	14111
894.064	14005
894.186	13875
894.308	13940
894.43	14062
894.552	14142
894.674	14161
894.796	13883
894.918	14134
895.04	13955
895.161	14103
895.283	14100
895.405	13970
895.526	13982
895.648	14027
895.769	14073
895.891	14180
896.012	14130
896.134	14039
896.255	14134
896.376	14100
896.498	14237
896.619	14157
896.74	14100
896.861	14199
896.982	14556
897.103	14651
897.224	14351
897.345	14351
897.466	14423
897.587	14408
897.708	14507
897.828	14511
897.949	14290
898.07	14244
898.19	14256
898.311	14518
898.431	14377
898.552	14412
898.672	14476
898.792	14552
898.913	14560
899.033	14374
899.153	14366
899.273	14237
899.393	14275
899.513	14290
899.633	14290
899.753	14366
899.873	14298
899.993	14305
900.113	14320
900.232	14374
900.352	14336
900.472	14347
900.591	14202
900.711	14305
900.83	14149
900.95	14286
901.069	14358
901.189	14031
901.308	13826
901.427	13769
901.546	13731
901.665	13913
901.784	13864
901.904	13700
902.023	13655
902.141	13552
902.26	13377
902.379	13445
902.498	13453
902.617	13403
902.735	13365
902.854	13449
902.973	13308
903.091	13164
903.21	13110
903.328	13206
903.446	13046
903.565	12951
903.683	13000
903.801	12966
903.919	13069
904.038	12958
904.156	12863
904.274	12989
904.392	12833
904.51	12814
904.627	12791
904.745	12913
904.863	12886
904.981	12582
905.098	12544
905.216	12566
905.334	12570
905.451	12528
905.569	12479
905.686	12532
905.803	12528
905.921	12410
906.038	12384
906.155	12330
906.272	12239
906.389	12270
906.506	12125
906.623	12163
906.74	12171
906.857	11969
906.974	12076
907.091	12167
907.208	12228
907.324	12076
907.441	12091
907.557	11923
907.674	11882
907.79	11775
907.907	11821
908.023	11866
908.139	11828
908.256	11840
908.372	11756
908.488	11764
908.604	11619
908.72	11634
908.836	11619
908.952	11699
909.068	11585
909.184	11779
909.3	11627
909.415	11737
909.531	11638
909.647	11459
909.762	11326
909.878	11417
909.993	11436
910.108	11261
910.224	11364
910.339	11368
910.454	11326
910.57	11239
910.685	11162
910.8	11433
910.915	11360
911.03	11345
911.145	11117
911.259	11143
911.374	11113
911.489	11071
911.604	10991
911.718	10831
911.833	10862
911.947	10782
912.062	10561
912.176	10877
912.291	10820
912.405	10858
912.519	11132
912.633	11037
912.748	10862
912.862	10873
912.976	10831
913.09	10656
913.204	10672
913.318	10771
913.431	10782
913.545	10820
913.659	10942
913.772	10698
913.886	10645
914	10641
914.113	10740
914.226	10793
914.34	10691
914.453	10653
914.566	10729
914.68	10577
914.793	10481
914.906	10360
915.019	10352
915.132	10287
915.245	10310
915.358	10382
915.47	10333
915.583	10390
915.696	10443
915.809	10577
915.921	10516
916.034	10455
916.146	10287
916.259	10314
916.371	10314
916.483	10508
916.595	10363
916.708	10386
916.82	10322
916.932	10303
917.044	10333
917.156	10333
917.268	10105
917.38	10234
917.491	10147
917.603	10219
917.715	10291
917.826	10356
917.938	10177
918.049	10116
918.161	10185
918.272	10379
918.384	10382
918.495	10322
918.606	10131
918.717	9949
918.828	10128
918.939	10150
919.05	10036
919.161	10147
919.272	9846
919.383	9930
919.494	10124
919.604	10310
919.715	10135
919.826	10128
919.936	10090
920.047	10185
920.157	10074
920.267	10360
920.378	10139
920.488	10177
920.598	10318
920.708	10466
920.818	10329
920.928	10360
921.038	10481
921.148	10497
921.258	10162
921.368	10036
921.477	9987
921.587	9960
921.697	9899
921.806	10040
921.916	9797
922.025	9728
922.134	9709
922.244	9591
922.353	9732
922.462	9591
922.571	9557
922.68	9298
922.789	9363
922.898	9424
923.007	9363
923.116	9412
923.224	9363
923.333	9374
923.442	9233
923.55	9157
923.659	9264
923.767	9298
923.876	9180
923.984	9321
924.092	9245
924.201	9291
924.309	9253
924.417	9260
924.525	9214
924.633	9256
924.741	10013
924.849	9020
924.956	9123
925.064	9104
925.172	8933
925.279	8948
925.387	9036
925.494	8990
925.602	9093
925.709	9119
925.816	8986
925.924	8921
926.031	9100
926.138	9066
926.245	9108
926.352	8921
926.459	9127
926.566	9055
926.673	8967
926.779	8910
926.886	8857
926.993	8754
927.099	8773
927.206	8708
927.312	8720
927.419	8838
927.525	8724
927.631	8792
927.737	8693
927.843	8636
927.95	8579
928.056	8617
928.162	8655
928.267	8674
928.373	9214
928.479	8708
928.585	8488
928.69	8674
928.796	8648
928.901	8564
929.007	8412
929.112	8613
929.218	8507
929.323	8492
929.428	8495
929.533	8613
929.638	8419
929.743	8396
929.848	8454
929.953	8492
930.058	8393
930.163	8252
930.267	8176
930.372	8374
930.477	8240
930.581	8537
930.685	8347
930.79	8187
930.894	8263
930.998	8145
931.103	8351
931.207	7940
931.311	7906
931.415	7883
931.519	7704
931.623	7715
