Data from test_V78500241_3703.txt Node
Date: Fri Mar 25 14:59:30 CST 2022
User: usil
Spectrometer: V785-0024
Trigger mode: 0
Integration Time (sec): 4.000000E-1
Scans to average: 1
Nonlinearity correction enabled: false
Boxcar width: 0
Storing dark spectrum: false
XAxis mode: Wavelengths
Number of Pixels in Spectrum: 1024
>>>>>Begin Spectral Data<<<<<
801.071	21934
801.214	21728
801.356	21496
801.499	21408
801.641	21306
801.783	21211
801.926	21294
802.068	21176
802.211	21287
802.353	21055
802.496	20842
802.638	20853
802.78	20697
802.923	20625
803.065	20621
803.208	20613
803.35	20606
803.492	20765
803.635	20712
803.777	20594
803.919	20621
804.061	20952
804.204	20625
804.346	20552
804.488	20404
804.63	20648
804.773	20476
804.915	20556
805.057	20613
805.199	20454
805.341	20469
805.483	20575
805.626	20530
805.768	20446
805.91	20541
806.052	20556
806.194	20423
806.336	20598
806.478	20434
806.62	20351
806.762	20655
806.904	20625
807.046	20765
807.188	20918
807.33	20834
807.472	20864
807.614	20819
807.756	20693
807.898	20556
808.04	20598
808.182	20583
808.324	20518
808.465	20746
808.607	20765
808.749	20944
808.891	20994
809.033	21036
809.174	20979
809.316	20758
809.458	20762
809.6	20720
809.741	20906
809.883	20819
810.025	20982
810.166	21032
810.308	20937
810.45	21024
810.591	20823
810.733	20674
810.875	20579
811.016	20545
811.158	20484
811.299	20659
811.441	20769
811.582	20765
811.724	20651
811.865	20541
812.007	20533
812.148	20587
812.29	20617
812.431	20834
812.573	20967
812.714	21005
812.855	21108
812.997	21203
813.138	21279
813.279	21188
813.421	21142
813.562	20986
813.703	20765
813.845	20731
813.986	20484
814.127	20271
814.268	20256
814.41	20187
814.551	20298
814.692	20176
814.833	20134
814.974	20012
815.115	20126
815.256	19993
815.397	19906
815.539	19974
815.68	19890
815.821	19898
815.962	19864
816.103	19887
816.244	19662
816.385	19578
816.526	19571
816.666	19403
816.807	19297
816.948	19422
817.089	19495
817.23	19270
817.371	19301
817.512	19190
817.653	19236
817.793	19225
817.934	19179
818.075	19198
818.216	19293
818.356	19255
818.497	19091
818.638	19034
818.778	19004
818.919	18958
819.06	19027
819.2	19156
819.341	19129
819.481	19209
819.622	19339
819.762	19518
819.903	19411
820.043	19358
820.184	19221
820.324	19285
820.465	19377
820.605	19339
820.746	19320
820.886	19091
821.026	19183
821.167	19232
821.307	19282
821.447	19164
821.588	19122
821.728	18916
821.868	18757
822.008	18707
822.149	18783
822.289	18597
822.429	18426
822.569	18403
822.709	18281
822.849	18159
822.99	18129
823.13	18159
823.27	18171
823.41	17977
823.55	17923
823.69	17992
823.83	17965
823.97	17897
824.11	17855
824.25	17722
824.389	17703
824.529	17863
824.669	17775
824.809	17745
824.949	17824
825.089	17790
825.228	17832
825.368	17459
825.508	17444
825.648	17596
825.787	17512
825.927	17562
826.067	17417
826.206	17436
826.346	17528
826.485	17589
826.625	17493
826.765	17646
826.904	17497
827.044	17299
827.183	17326
827.323	17261
827.462	17242
827.601	17143
827.741	17155
827.88	17261
828.02	17029
828.159	17132
828.298	17060
828.437	17334
828.577	17235
828.716	17254
828.855	17056
828.994	17010
829.134	16934
829.273	17067
829.412	16987
829.551	16911
829.69	16816
829.829	16949
829.968	16999
830.107	17022
830.246	16965
830.385	16831
830.524	16839
830.663	16820
830.802	16710
830.941	16584
831.08	16592
831.219	16786
831.357	16558
831.496	16805
831.635	16538
831.774	16535
831.913	16641
832.051	16382
832.19	16318
832.329	16504
832.467	16310
832.606	16234
832.744	16341
832.883	16352
833.022	16238
833.16	16211
833.299	16287
833.437	16356
833.576	16322
833.714	16360
833.852	16371
833.991	16390
834.129	16466
834.267	16504
834.406	16394
834.544	16451
834.682	16417
834.821	16348
834.959	16554
835.097	16382
835.235	16341
835.373	16409
835.511	16333
835.65	16310
835.788	16344
835.926	16048
836.064	16044
836.202	16135
836.34	16257
836.478	16333
836.615	16139
836.753	16303
836.891	16329
837.029	16306
837.167	16253
837.305	16219
837.443	16162
837.58	16120
837.718	16280
837.856	16173
837.993	16169
838.131	16147
838.269	16055
838.406	16086
838.544	16048
838.681	15922
838.819	15789
838.956	15766
839.094	15682
839.231	15778
839.369	15983
839.506	16150
839.643	15884
839.781	15789
839.918	15736
840.055	15762
840.193	15679
840.33	15709
840.467	15686
840.604	15762
840.742	16063
840.879	15618
841.016	15701
841.153	15644
841.29	15789
841.427	15701
841.564	15698
841.701	15713
841.838	15701
841.975	15663
842.112	15614
842.249	15553
842.385	15504
842.522	15690
842.659	15519
842.796	15504
842.933	15553
843.069	15416
843.206	15443
843.343	15667
843.479	15549
843.616	15439
843.752	15260
843.889	15302
844.025	15504
844.162	15245
844.298	15348
844.435	15329
844.571	15272
844.708	15279
844.844	15466
844.98	15428
845.117	15393
845.253	15298
845.389	15142
845.525	15237
845.661	15203
845.798	15123
845.934	15047
846.07	14971
846.206	15146
846.342	15157
846.478	15081
846.614	14960
846.75	14982
846.886	14887
847.022	14963
847.158	14819
847.294	14880
847.429	14937
847.565	14727
847.701	15093
847.837	14705
847.972	14606
848.108	14682
848.244	14705
848.379	14400
848.515	14469
848.65	14511
848.786	14461
848.921	14412
849.057	14533
849.192	14541
849.328	14522
849.463	14480
849.598	14366
849.734	14351
849.869	14275
850.004	14225
850.14	14278
850.275	14206
850.41	14199
850.545	14176
850.68	14252
850.815	14233
850.95	14263
851.085	14427
851.22	14343
851.355	14309
851.49	14237
851.625	14161
851.76	14161
851.895	14073
852.03	14008
852.165	14195
852.299	14214
852.434	14252
852.569	14301
852.703	14229
852.838	14294
852.973	14366
853.107	14427
853.242	14164
853.376	14157
853.511	13951
853.645	14043
853.78	14210
853.914	14088
854.048	14145
854.183	14081
854.317	14088
854.451	14256
854.585	14084
854.72	14012
854.854	14168
854.988	14062
855.122	14073
855.256	13974
855.39	14054
855.524	14134
855.658	14210
855.792	14157
855.926	14096
856.06	14103
856.194	14244
856.327	14164
856.461	13982
856.595	14050
856.729	14103
856.862	14195
856.996	14138
857.13	14164
857.263	14237
857.397	14294
857.53	14092
857.664	14130
857.797	14233
857.931	14214
858.064	14214
858.197	14275
858.331	14077
858.464	14092
858.597	13993
858.731	14111
858.864	14058
858.997	14054
859.13	14142
859.263	14145
859.396	14168
859.529	14103
859.662	14103
859.795	13982
859.928	14176
860.061	14339
860.194	14305
860.327	14115
860.46	14024
860.592	14301
860.725	14256
860.858	14317
860.99	14092
861.123	13944
861.256	13955
861.388	14119
861.521	14701
861.653	13997
861.786	13909
861.918	14008
862.05	13974
862.183	14103
862.315	14050
862.447	14267
862.58	14020
862.712	13902
862.844	13849
862.976	13890
863.108	14043
863.24	14328
863.372	13772
863.504	13822
863.636	13947
863.768	13951
863.9	13906
864.032	13837
864.164	13833
864.296	13890
864.428	13936
864.559	13967
864.691	13890
864.823	13993
864.954	13959
865.086	13928
865.217	13898
865.349	13830
865.48	13803
865.612	13898
865.743	14069
865.875	13955
866.006	13822
866.137	13909
866.269	13746
866.4	13898
866.531	13883
866.662	13845
866.793	13830
866.924	13795
867.055	13913
867.186	13902
867.317	13807
867.448	13780
867.579	13795
867.71	13731
867.841	13811
867.972	13928
868.103	13757
868.233	13864
868.364	13830
868.495	14008
868.625	14096
868.756	14229
868.886	14065
869.017	14039
869.147	14195
869.278	14191
869.408	14123
869.539	14180
869.669	14195
869.799	14153
869.929	14096
870.06	14263
870.19	14469
870.32	14343
870.45	14488
870.58	14530
870.71	14625
870.84	14617
870.97	14438
871.1	14583
871.23	14758
871.36	14716
871.489	14667
871.619	14746
871.749	14670
871.879	14674
872.008	14876
872.138	14705
872.267	14743
872.397	14549
872.526	14598
872.656	14518
872.785	14610
872.915	14693
873.044	14807
873.173	14781
873.303	14918
873.432	14826
873.561	14887
873.69	14701
873.819	14758
873.948	14765
874.077	14762
874.206	14708
874.335	14845
874.464	14925
874.593	15051
874.722	14998
874.851	15131
874.979	15138
875.108	15169
875.237	15097
875.365	15017
875.494	15093
875.623	15226
875.751	15036
875.88	15127
876.008	15272
876.136	15306
876.265	15481
876.393	15682
876.521	15618
876.65	15622
876.778	15682
876.906	15382
877.034	15458
877.162	15614
877.29	15466
877.418	15538
877.546	15477
877.674	15534
877.802	15504
877.93	15511
878.058	15462
878.185	15378
878.313	15496
878.441	15538
878.568	15302
878.696	15447
878.824	15507
878.951	15473
879.079	15724
879.206	15823
879.333	15743
879.461	15545
879.588	15572
879.715	15667
879.842	15816
879.97	15622
880.097	15359
880.224	15283
880.351	15469
880.478	15412
880.605	15298
880.732	15310
880.859	15667
880.986	15363
881.112	15412
881.239	15268
881.366	15119
881.493	15077
881.619	15081
881.746	15089
881.872	14994
881.999	14998
882.125	15024
882.252	14956
882.378	15001
882.505	15127
882.631	14960
882.757	14876
882.883	14815
883.01	14864
883.136	14800
883.262	14724
883.388	14712
883.514	14834
883.64	14853
883.766	14754
883.892	14644
884.018	14693
884.143	14807
884.269	14845
884.395	14503
884.52	14457
884.646	14571
884.772	14514
884.897	14320
885.023	14636
885.148	14598
885.274	14667
885.399	14625
885.524	14549
885.65	14511
885.775	14590
885.9	14556
886.025	14689
886.15	14613
886.275	14545
886.4	14484
886.525	14602
886.65	14400
886.775	14473
886.9	14682
887.025	14785
887.149	14526
887.274	14385
887.399	14415
887.523	14305
887.648	14221
887.773	14351
887.897	14415
888.021	14404
888.146	14412
888.27	14465
888.395	14537
888.519	14423
888.643	14442
888.767	14465
888.891	14377
889.015	14298
889.139	14278
889.263	14267
889.387	14328
889.511	14469
889.635	14339
889.759	14332
889.883	14301
890.006	14355
890.13	14400
890.254	14195
890.377	14229
890.501	14016
890.624	14100
890.748	14107
890.871	14024
890.995	13909
891.118	13814
891.241	13902
891.364	13936
891.488	13906
891.611	13906
891.734	13921
891.857	13989
891.98	13982
892.103	13997
892.226	13970
892.349	13947
892.471	13868
892.594	13860
892.717	13974
892.839	13917
892.962	13917
893.085	13963
893.207	13936
893.33	13845
893.452	13837
893.575	14043
893.697	13826
893.819	14077
893.941	14103
894.064	14161
894.186	13967
894.308	13944
894.43	14069
894.552	14191
894.674	14088
894.796	13944
894.918	14043
895.04	13906
895.161	14126
895.283	14031
895.405	13963
895.526	14039
895.648	14092
895.769	14081
895.891	14123
896.012	14259
896.134	14221
896.255	14088
896.376	14149
896.498	14081
896.619	14153
896.74	14138
896.861	14202
896.982	14549
897.103	14621
897.224	14366
897.345	14336
897.466	14233
897.587	14461
897.708	14613
897.828	14465
897.949	14355
898.07	14259
898.19	14351
898.311	14629
898.431	14461
898.552	14461
898.672	14522
898.792	14606
898.913	14476
899.033	14412
899.153	14313
899.273	14256
899.393	14259
899.513	14343
899.633	14290
899.753	14313
899.873	14320
899.993	14438
900.113	14229
900.232	14328
900.352	14332
900.472	14248
900.591	14161
900.711	14187
900.83	14176
900.95	14278
901.069	14301
901.189	14073
901.308	13898
901.427	13776
901.546	13868
901.665	13868
901.784	13898
901.904	13753
902.023	13666
902.141	13510
902.26	13403
902.379	13529
902.498	13434
902.617	13422
902.735	13422
902.854	13400
902.973	13270
903.091	13236
903.21	13187
903.328	13149
903.446	13069
903.565	13004
903.683	13034
903.801	12970
903.919	13129
904.038	12905
904.156	12779
904.274	12871
904.392	12825
904.51	12848
904.627	12772
904.745	12867
904.863	12886
904.981	12642
905.098	12471
905.216	12574
905.334	12544
905.451	12555
905.569	12483
905.686	12559
905.803	12521
905.921	12391
906.038	12490
906.155	12414
906.272	12224
906.389	12220
906.506	12125
906.623	12091
906.74	12068
906.857	11965
906.974	12026
907.091	12110
907.208	12235
907.324	12190
907.441	11996
907.557	11836
907.674	11821
907.79	11764
907.907	11828
908.023	11912
908.139	11923
908.256	11786
908.372	11916
908.488	11817
908.604	11672
908.72	11592
908.836	11665
908.952	11551
909.068	11661
909.184	11790
909.3	11672
909.415	11611
909.531	11672
909.647	11448
909.762	11440
909.878	11360
909.993	11429
910.108	11402
910.224	11387
910.339	11387
910.454	11307
910.57	11227
910.685	11208
910.8	11452
910.915	11463
911.03	11254
911.145	11098
911.259	11083
911.374	11193
911.489	11090
911.604	11010
911.718	10885
911.833	10881
911.947	10793
912.062	10675
912.176	10843
912.291	10949
912.405	10915
912.519	11048
912.633	11056
912.748	10995
912.862	10896
912.976	10774
913.09	10717
913.204	10729
913.318	10790
913.431	10831
913.545	10862
913.659	10938
913.772	10740
913.886	10672
914	10599
914.113	10694
914.226	10649
914.34	10721
914.453	10455
914.566	10706
914.68	10577
914.793	10466
914.906	10428
915.019	10268
915.132	10207
915.245	10341
915.358	10352
915.47	10382
915.583	10333
915.696	10409
915.809	10516
915.921	10519
916.034	10344
916.146	10356
916.259	10295
916.371	10413
916.483	10348
916.595	10242
916.708	10341
916.82	10375
916.932	10348
917.044	10261
917.156	10291
917.268	10166
917.38	10223
917.491	10219
917.603	10253
917.715	10329
917.826	10459
917.938	10173
918.049	10109
918.161	10211
918.272	10329
918.384	10322
918.495	10219
918.606	10154
918.717	10078
918.828	10090
918.939	10063
919.05	10013
919.161	10131
919.272	9876
919.383	9850
919.494	10071
919.604	10310
919.715	10116
919.826	10017
919.936	10021
920.047	10101
920.157	10128
920.267	10284
920.378	10162
920.488	10082
920.598	10227
920.708	10462
920.818	10322
920.928	10303
921.038	10386
921.148	10333
921.258	10154
921.368	10124
921.477	9945
921.587	9945
921.697	9884
921.806	9998
921.916	9831
922.025	9751
922.134	9701
922.244	9576
922.353	9743
922.462	9523
922.571	9530
922.68	9359
922.789	9321
922.898	9370
923.007	9313
923.116	9428
923.224	9306
923.333	9408
923.442	9329
923.55	9226
923.659	9336
923.767	9359
923.876	9264
923.984	9359
924.092	9157
924.201	9275
924.309	9161
924.417	9226
924.525	9165
924.633	9199
924.741	10116
924.849	9043
924.956	9176
925.064	9097
925.172	9032
925.279	8944
925.387	9017
925.494	9005
925.602	9150
925.709	9131
925.816	8998
925.924	9043
926.031	9173
926.138	9043
926.245	9127
926.352	9024
926.459	9112
926.566	9085
926.673	9001
926.779	8883
926.886	8826
926.993	8800
927.099	8739
927.206	8712
927.312	8708
927.419	8777
927.525	8708
927.631	8762
927.737	8697
927.843	8583
927.95	8533
928.056	8644
928.162	8598
928.267	8705
928.373	9218
928.479	8720
928.585	8499
928.69	8651
928.796	8644
928.901	8606
929.007	8366
929.112	8473
929.218	8560
929.323	8488
929.428	8488
929.533	8621
929.638	8457
929.743	8393
929.848	8469
929.953	8480
930.058	8362
930.163	8206
930.267	8256
930.372	8339
930.477	8153
930.581	8446
930.685	8244
930.79	8126
930.894	8267
930.998	8134
931.103	8294
931.207	8024
931.311	7944
931.415	7841
931.519	7704
931.623	7700
