Data from test_V78500241_212.txt Node
Date: Fri Mar 25 14:35:12 CST 2022
User: usil
Spectrometer: V785-0024
Trigger mode: 0
Integration Time (sec): 4.000000E-1
Scans to average: 1
Nonlinearity correction enabled: false
Boxcar width: 0
Storing dark spectrum: false
XAxis mode: Wavelengths
Number of Pixels in Spectrum: 1024
>>>>>Begin Spectral Data<<<<<
801.071	27983
801.214	27972
801.356	27576
801.499	27481
801.641	27378
801.783	27382
801.926	27317
802.068	27313
802.211	27165
802.353	27154
802.496	26990
802.638	26948
802.78	26830
802.923	26807
803.065	26796
803.208	26762
803.35	26861
803.492	26876
803.635	27032
803.777	26804
803.919	27070
804.061	27184
804.204	27005
804.346	26857
804.488	26727
804.63	26872
804.773	26670
804.915	26819
805.057	26960
805.199	26819
805.341	26842
805.483	26990
805.626	26940
805.768	26819
805.91	26895
806.052	26986
806.194	26826
806.336	27180
806.478	27093
806.62	26906
806.762	26963
806.904	27180
807.046	27367
807.188	27298
807.33	27374
807.472	27359
807.614	27222
807.756	27230
807.898	27291
808.04	27096
808.182	27416
808.324	27340
808.465	27511
808.607	27667
808.749	27812
808.891	28032
809.033	28074
809.174	27892
809.316	27968
809.458	27831
809.6	27660
809.741	27648
809.883	27633
810.025	27789
810.166	27641
810.308	27759
810.45	27625
810.591	27496
810.733	27332
810.875	27370
811.016	27264
811.158	27226
811.299	27237
811.441	27435
811.582	27469
811.724	27173
811.865	27325
812.007	27230
812.148	27374
812.29	27386
812.431	27561
812.573	27511
812.714	27747
812.855	27705
812.997	27720
813.138	28010
813.279	27922
813.421	27812
813.562	27728
813.703	27614
813.845	27348
813.986	27104
814.127	26899
814.268	26872
814.41	26910
814.551	26796
814.692	26883
814.833	26735
814.974	26739
815.115	26788
815.256	26724
815.397	26727
815.539	26556
815.68	26602
815.821	26419
815.962	26495
816.103	26457
816.244	26438
816.385	26214
816.526	26202
816.666	25989
816.807	25936
816.948	26065
817.089	25966
817.23	26096
817.371	26016
817.512	25940
817.653	26012
817.793	25978
817.934	25944
818.075	25818
818.216	25959
818.356	25890
818.497	25719
818.638	25506
818.778	25655
818.919	25719
819.06	25613
819.2	25727
819.341	25868
819.481	25875
819.622	25963
819.762	26001
819.903	26084
820.043	25932
820.184	25966
820.324	25807
820.465	25856
820.605	25830
820.746	25799
820.886	25750
821.026	25849
821.167	25849
821.307	25841
821.447	25776
821.588	25563
821.728	25491
821.868	25384
822.008	25365
822.149	25316
822.289	25213
822.429	24901
822.569	24962
822.709	24954
822.849	24867
822.99	24772
823.13	24582
823.27	24570
823.41	24509
823.55	24445
823.69	24467
823.83	24467
823.97	24445
824.11	24247
824.25	24254
824.389	24273
824.529	24281
824.669	24311
824.809	24338
824.949	24376
825.089	24315
825.228	24338
825.368	24087
825.508	24129
825.648	24038
825.787	24155
825.927	24083
826.067	24018
826.206	24007
826.346	24018
826.485	24034
826.625	24041
826.765	24194
826.904	23950
827.044	23779
827.183	23684
827.323	23699
827.462	23756
827.601	23783
827.741	23687
827.88	23798
828.02	23551
828.159	23722
828.298	23653
828.437	23726
828.577	23646
828.716	23832
828.855	23592
828.994	23433
829.134	23406
829.273	23307
829.412	23391
829.551	23387
829.69	23376
829.829	23398
829.968	23486
830.107	23379
830.246	23315
830.385	23273
830.524	23512
830.663	23239
830.802	23075
830.941	22972
831.08	22930
831.219	23151
831.357	23060
831.496	23143
831.635	22961
831.774	22782
831.913	22885
832.051	22771
832.19	22847
832.329	22740
832.467	22618
832.606	22573
832.744	22527
832.883	22615
833.022	22466
833.16	22577
833.299	22580
833.437	22580
833.576	22622
833.714	22622
833.852	22622
833.991	22618
834.129	22717
834.267	22618
834.406	22653
834.544	22740
834.682	22561
834.821	22542
834.959	22767
835.097	22557
835.235	22694
835.373	22637
835.511	22474
835.65	22447
835.788	22538
835.926	22375
836.064	22188
836.202	22242
836.34	22455
836.478	22436
836.615	22413
836.753	22398
836.891	22542
837.029	22390
837.167	22413
837.305	22238
837.443	22215
837.58	22276
837.718	22424
837.856	22287
837.993	22162
838.131	22162
838.269	22082
838.406	22147
838.544	22128
838.681	22063
838.819	21759
838.956	21728
839.094	21785
839.231	21698
839.369	21884
839.506	22112
839.643	21903
839.781	21713
839.918	21625
840.055	21644
840.193	21515
840.33	21568
840.467	21603
840.604	21564
840.742	21926
840.879	21447
841.016	21523
841.153	21431
841.29	21751
841.427	21713
841.564	21606
841.701	21580
841.838	21523
841.975	21428
842.112	21424
842.249	21332
842.385	21142
842.522	21511
842.659	21192
842.796	21279
842.933	21245
843.069	21321
843.206	21195
843.343	21363
843.479	21283
843.616	21348
843.752	21001
843.889	21142
844.025	21192
844.162	21032
844.298	21036
844.435	21085
844.571	21051
844.708	21051
844.844	21127
844.98	21138
845.117	21192
845.253	21058
845.389	21032
845.525	21119
845.661	21310
845.798	21260
845.934	21469
846.07	21477
846.206	21507
846.342	21504
846.478	21123
846.614	20823
846.75	20609
846.886	20545
847.022	20663
847.158	20507
847.294	20412
847.429	20454
847.565	20480
847.701	20758
847.837	20343
847.972	20073
848.108	20336
848.244	20191
848.379	20084
848.515	20035
848.65	20107
848.786	20031
848.921	20111
849.057	20145
849.192	20183
849.328	20050
849.463	20027
849.598	19970
849.734	19959
849.869	19837
850.004	19852
850.14	19860
850.275	19845
850.41	19597
850.545	19704
850.68	19677
850.815	19769
850.95	19708
851.085	19940
851.22	19746
851.355	19715
851.49	19651
851.625	19712
851.76	19696
851.895	19624
852.03	19696
852.165	19563
852.299	19708
852.434	19814
852.569	19715
852.703	19776
852.838	19807
852.973	19875
853.107	19963
853.242	19734
853.376	19533
853.511	19468
853.645	19525
853.78	19651
853.914	19537
854.048	19426
854.183	19613
854.317	19624
854.451	19731
854.585	19563
854.72	19525
854.854	19506
854.988	19544
855.122	19537
855.256	19457
855.39	19441
855.524	19597
855.658	19502
855.792	19533
855.926	19567
856.06	19590
856.194	19586
856.327	19651
856.461	19464
856.595	19514
856.729	19483
856.862	19693
856.996	19635
857.13	19548
857.263	19616
857.397	19677
857.53	19468
857.664	19559
857.797	19620
857.931	19647
858.064	19510
858.197	19582
858.331	19525
858.464	19480
858.597	19381
858.731	19434
858.864	19464
858.997	19369
859.13	19525
859.263	19571
859.396	19476
859.529	19316
859.662	19460
859.795	19430
859.928	19548
860.061	19616
860.194	19712
860.327	19449
860.46	19449
860.592	19586
860.725	19628
860.858	19571
860.99	19464
861.123	19529
861.256	19350
861.388	19483
861.521	19940
861.653	19362
861.786	19240
861.918	19304
862.05	19438
862.183	19521
862.315	19525
862.447	19635
862.58	19533
862.712	19278
862.844	19251
862.976	19362
863.108	19278
863.24	19609
863.372	19297
863.504	19137
863.636	19194
863.768	19304
863.9	19171
864.032	19145
864.164	19103
864.296	19152
864.428	19304
864.559	19358
864.691	19289
864.823	19232
864.954	19175
865.086	19232
865.217	19190
865.349	19091
865.48	19126
865.612	19137
865.743	19304
865.875	19152
866.006	19053
866.137	19145
866.269	19042
866.4	19137
866.531	18973
866.662	18981
866.793	19072
866.924	19103
867.055	19091
867.186	19046
867.317	18996
867.448	19091
867.579	19069
867.71	19065
867.841	19008
867.972	19114
868.103	19042
868.233	19012
868.364	19057
868.495	19175
868.625	19240
868.756	19335
868.886	19133
869.017	19282
869.147	19422
869.278	19499
869.408	19274
869.539	19365
869.669	19430
869.799	19316
869.929	19396
870.06	19354
870.19	19609
870.32	19731
870.45	19609
870.58	19620
870.71	19784
870.84	19830
870.97	19693
871.1	19715
871.23	19970
871.36	19811
871.489	19772
871.619	19753
871.749	19852
871.879	19856
872.008	19974
872.138	19917
872.267	19860
872.397	19776
872.526	19738
872.656	19776
872.785	19746
872.915	19928
873.044	19936
873.173	19894
873.303	19940
873.432	19982
873.561	20046
873.69	20046
873.819	19932
873.948	19811
874.077	19963
874.206	19944
874.335	19845
874.464	20001
874.593	20199
874.722	20054
874.851	20339
874.979	20286
875.108	20115
875.237	20111
875.365	20145
875.494	20225
875.623	20271
875.751	20122
875.88	20168
876.008	20347
876.136	20366
876.265	20602
876.393	20724
876.521	20583
876.65	20598
876.778	20571
876.906	20503
877.034	20518
877.162	20651
877.29	20469
877.418	20632
877.546	20594
877.674	20556
877.802	20716
877.93	20640
878.058	20484
878.185	20442
878.313	20598
878.441	20602
878.568	20621
878.696	20655
878.824	20575
878.951	20769
879.079	20876
879.206	21062
879.333	21077
879.461	20906
879.588	20921
879.715	21226
879.842	21127
879.97	20952
880.097	20629
880.224	20488
880.351	20621
880.478	20552
880.605	20507
880.732	20632
880.859	20788
880.986	20480
881.112	20465
881.239	20385
881.366	20328
881.493	20081
881.619	20046
881.746	20100
881.872	20058
881.999	20142
882.125	20016
882.252	20164
882.378	20043
882.505	20206
882.631	19921
882.757	19940
882.883	19909
883.01	19890
883.136	19902
883.262	19727
883.388	19696
883.514	19875
883.64	19921
883.766	19860
883.892	19700
884.018	19639
884.143	19776
884.269	19909
884.395	19613
884.52	19540
884.646	19449
884.772	19415
884.897	19282
885.023	19616
885.148	19620
885.274	19632
885.399	19510
885.524	19533
885.65	19487
885.775	19582
885.9	19563
886.025	19476
886.15	19548
886.275	19449
886.4	19190
886.525	19297
886.65	19308
886.775	19369
886.9	19620
887.025	19590
887.149	19350
887.274	19247
887.399	19168
887.523	19289
887.648	19164
887.773	19000
887.897	19274
888.021	19263
888.146	19263
888.27	19152
888.395	19339
888.519	19156
888.643	19240
888.767	19122
888.891	19110
889.015	19031
889.139	19114
889.263	18924
889.387	19118
889.511	19179
889.635	19057
889.759	18935
889.883	19008
890.006	19000
890.13	19110
890.254	18970
890.377	18882
890.501	18875
890.624	18802
890.748	18753
890.871	18570
890.995	18498
891.118	18547
891.241	18574
891.364	18532
891.488	18711
891.611	18681
891.734	18616
891.857	18661
891.98	18612
892.103	18620
892.226	18585
892.349	18410
892.471	18414
892.594	18460
892.717	18490
892.839	18486
892.962	18513
893.085	18608
893.207	18521
893.33	18418
893.452	18369
893.575	18528
893.697	18372
893.819	18719
893.941	18623
894.064	18597
894.186	18479
894.308	18410
894.43	18506
894.552	18642
894.674	18650
894.796	18502
894.918	18441
895.04	18471
895.161	18585
895.283	18475
895.405	18460
895.526	18540
895.648	18490
895.769	18597
895.891	18544
896.012	18677
896.134	18597
896.255	18456
896.376	18525
896.498	18601
896.619	18620
896.74	18513
896.861	18639
896.982	18913
897.103	18989
897.224	18833
897.345	18825
897.466	18608
897.587	18802
897.708	18863
897.828	18859
897.949	18795
898.07	18509
898.19	18726
898.311	18859
898.431	18703
898.552	18871
898.672	18863
898.792	18856
898.913	18844
899.033	18703
899.153	18593
899.273	18555
899.393	18502
899.513	18635
899.633	18540
899.753	18460
899.873	18464
899.993	18665
900.113	18578
900.232	18570
900.352	18532
900.472	18376
900.591	18304
900.711	18350
900.83	18395
900.95	18467
901.069	18490
901.189	18262
901.308	18095
901.427	17874
901.546	18171
901.665	18011
901.784	17973
901.904	17775
902.023	17817
902.141	17558
902.26	17398
902.379	17589
902.498	17573
902.617	17307
902.735	17463
902.854	17402
902.973	17482
903.091	17250
903.21	17132
903.328	17220
903.446	17140
903.565	16999
903.683	17029
903.801	16908
903.919	16790
904.038	16805
904.156	16790
904.274	16820
904.392	16713
904.51	16691
904.627	16691
904.745	16793
904.863	16630
904.981	16523
905.098	16363
905.216	16447
905.334	16360
905.451	16306
905.569	16341
905.686	16485
905.803	16371
905.921	16314
906.038	16341
906.155	16181
906.272	16112
906.389	16010
906.506	15880
906.623	15994
906.74	15895
906.857	15812
906.974	15812
907.091	16021
907.208	16025
907.324	15949
907.441	15816
907.557	15686
907.674	15648
907.79	15416
907.907	15561
908.023	15587
908.139	15667
908.256	15530
908.372	15515
908.488	15408
908.604	15294
908.72	15313
908.836	15310
908.952	15275
909.068	15340
909.184	15386
909.3	15252
909.415	15332
909.531	15279
909.647	15070
909.762	14971
909.878	15005
909.993	15097
910.108	14861
910.224	14960
910.339	14963
910.454	14887
910.57	14895
910.685	14880
910.8	15001
910.915	14990
911.03	14864
911.145	14667
911.259	14644
911.374	14552
911.489	14613
911.604	14503
911.718	14396
911.833	14355
911.947	14244
912.062	14191
912.176	14343
912.291	14317
912.405	14298
912.519	14461
912.633	14518
912.748	14370
912.862	14366
912.976	14263
913.09	14081
913.204	14107
913.318	14206
913.431	14267
913.545	14259
913.659	14339
913.772	14180
913.886	14084
914	13993
914.113	14069
914.226	14214
914.34	14088
914.453	13890
914.566	14153
914.68	13932
914.793	13879
914.906	13765
915.019	13609
915.132	13548
915.245	13674
915.358	13693
915.47	13738
915.583	13624
915.696	13715
915.809	13845
915.921	13769
916.034	13681
916.146	13533
916.259	13582
916.371	13670
916.483	13681
916.595	13396
916.708	13518
916.82	13445
916.932	13411
917.044	13499
917.156	13411
917.268	13350
917.38	13365
917.491	13396
917.603	13403
917.715	13445
917.826	13426
917.938	13346
918.049	13217
918.161	13232
918.272	13411
918.384	13415
918.495	13346
918.606	13141
918.717	13027
918.828	13202
918.939	13198
919.05	13076
919.161	13091
919.272	12905
919.383	12958
919.494	13141
919.604	13266
919.715	13156
919.826	13053
919.936	13084
920.047	13145
920.157	13076
920.267	13232
920.378	13126
920.488	13091
920.598	13324
920.708	13373
920.818	13278
920.928	13266
921.038	13518
921.148	13335
921.258	13099
921.368	12954
921.477	12859
921.587	12863
921.697	12791
921.806	12871
921.916	12688
922.025	12593
922.134	12566
922.244	12494
922.353	12502
922.462	12433
922.571	12273
922.68	12197
922.789	12140
922.898	12235
923.007	12163
923.116	12178
923.224	12205
923.333	12159
923.442	11992
923.55	12022
923.659	11977
923.767	12068
923.876	11935
923.984	11961
924.092	11927
924.201	11912
924.309	11901
924.417	11950
924.525	11817
924.633	11954
924.741	12856
924.849	11657
924.956	11870
925.064	11668
925.172	11615
925.279	11558
925.387	11642
925.494	11691
925.602	11779
925.709	11649
925.816	11581
925.924	11604
926.031	11726
926.138	11604
926.245	11703
926.352	11535
926.459	11665
926.566	11668
926.673	11551
926.779	11421
926.886	11383
926.993	11360
927.099	11307
927.206	11250
927.312	11299
927.419	11258
927.525	11185
927.631	11341
927.737	11181
927.843	11067
927.95	11056
928.056	11098
928.162	11212
928.267	11155
928.373	11840
928.479	11105
928.585	10930
928.69	11083
928.796	11132
928.901	10987
929.007	10820
929.112	11025
929.218	10881
929.323	10896
929.428	10812
929.533	10934
929.638	10812
929.743	10820
929.848	10869
929.953	10725
930.058	10763
930.163	10489
930.267	10584
930.372	10767
930.477	10538
930.581	10797
930.685	10668
930.79	10497
930.894	10500
930.998	10481
931.103	10599
931.207	10310
931.311	10147
931.415	10120
931.519	9937
931.623	9937
