Data from test_V78500241_762.txt Node
Date: Fri Mar 25 14:39:01 CST 2022
User: usil
Spectrometer: V785-0024
Trigger mode: 0
Integration Time (sec): 4.000000E-1
Scans to average: 1
Nonlinearity correction enabled: false
Boxcar width: 0
Storing dark spectrum: false
XAxis mode: Wavelengths
Number of Pixels in Spectrum: 1024
>>>>>Begin Spectral Data<<<<<
801.071	26975
801.214	26891
801.356	26636
801.499	26575
801.641	26351
801.783	26252
801.926	26339
802.068	26396
802.211	26081
802.353	26012
802.496	25837
802.638	25761
802.78	25811
802.923	25746
803.065	25757
803.208	25761
803.35	25791
803.492	25887
803.635	25753
803.777	25868
803.919	25944
804.061	26324
804.204	26134
804.346	26069
804.488	25856
804.63	25921
804.773	25795
804.915	26149
805.057	26256
805.199	26237
805.341	26309
805.483	26408
805.626	26450
805.768	26404
805.91	26609
806.052	26811
806.194	26868
806.336	27173
806.478	27203
806.62	27348
806.762	27739
806.904	28032
807.046	28660
807.188	28961
807.33	29296
807.472	29904
807.614	30505
807.756	31514
807.898	32503
808.04	34067
808.182	36072
808.324	38682
808.465	41710
808.607	45123
808.749	47916
808.891	49616
809.033	49810
809.174	48117
809.316	45218
809.458	41893
809.6	38450
809.741	35722
809.883	33523
810.025	31993
810.166	30996
810.308	30171
810.45	29516
810.591	29113
810.733	28367
810.875	27876
811.016	27755
811.158	27557
811.299	27504
811.441	27313
811.582	27241
811.724	26956
811.865	26845
812.007	26804
812.148	26689
812.29	26629
812.431	26697
812.573	26906
812.714	26826
812.855	26830
812.997	26967
813.138	27146
813.279	26868
813.421	26769
813.562	26693
813.703	26511
813.845	26210
813.986	25986
814.127	25738
814.268	25521
814.41	25514
814.551	25479
814.692	25445
814.833	25308
814.974	25415
815.115	25373
815.256	25301
815.397	25304
815.539	25259
815.68	25137
815.821	24970
815.962	25148
816.103	24840
816.244	24806
816.385	24639
816.526	24642
816.666	24505
816.807	24319
816.948	24445
817.089	24410
817.23	24357
817.371	24243
817.512	24258
817.653	24213
817.793	24190
817.934	24235
818.075	24334
818.216	24163
818.356	24148
818.497	24091
818.638	23874
818.778	23927
818.919	23927
819.06	24030
819.2	23999
819.341	24171
819.481	24136
819.622	24213
819.762	24422
819.903	24262
820.043	24129
820.184	24140
820.324	24083
820.465	24163
820.605	24053
820.746	24049
820.886	23870
821.026	24163
821.167	23980
821.307	24079
821.447	23920
821.588	23809
821.728	23718
821.868	23486
822.008	23356
822.149	23383
822.289	23326
822.429	23113
822.569	23052
822.709	23033
822.849	22778
822.99	22797
823.13	22736
823.27	22752
823.41	22557
823.55	22451
823.69	22637
823.83	22698
823.97	22485
824.11	22405
824.25	22268
824.389	22272
824.529	22356
824.669	22303
824.809	22424
824.949	22356
825.089	22413
825.228	22230
825.368	22051
825.508	22257
825.648	22124
825.787	22124
825.927	22204
826.067	22070
826.206	22025
826.346	22139
826.485	22067
826.625	22147
826.765	22215
826.904	22086
827.044	21972
827.183	21816
827.323	21717
827.462	21781
827.601	21770
827.741	21603
827.88	21797
828.02	21488
828.159	21599
828.298	21770
828.437	21804
828.577	21599
828.716	21774
828.855	21720
828.994	21435
829.134	21519
829.273	21519
829.412	21431
829.551	21359
829.69	21378
829.829	21443
829.968	21519
830.107	21473
830.246	21435
830.385	21325
830.524	21321
830.663	21207
830.802	21173
830.941	20929
831.08	20994
831.219	21100
831.357	21161
831.496	21268
831.635	21032
831.774	21005
831.913	21009
832.051	20800
832.19	20807
832.329	21024
832.467	20769
832.606	20739
832.744	20960
832.883	21028
833.022	20956
833.16	21009
833.299	21237
833.437	21287
833.576	21462
833.714	21743
833.852	21968
833.991	21850
834.129	22051
834.267	22040
834.406	22070
834.544	21926
834.682	21701
834.821	21587
834.959	21663
835.097	21431
835.235	21310
835.373	21252
835.511	21131
835.65	20933
835.788	20849
835.926	20583
836.064	20427
836.202	20651
836.34	20636
836.478	20876
836.615	20495
836.753	20659
836.891	20564
837.029	20682
837.167	20511
837.305	20408
837.443	20450
837.58	20442
837.718	20431
837.856	20381
837.993	20233
838.131	20396
838.269	20259
838.406	20218
838.544	20069
838.681	20130
838.819	20024
838.956	19940
839.094	19788
839.231	19852
839.369	19963
839.506	20134
839.643	19993
839.781	19807
839.918	19761
840.055	19753
840.193	19727
840.33	19776
840.467	19772
840.604	19852
840.742	20035
840.879	19693
841.016	19632
841.153	19651
841.29	19917
841.427	19784
841.564	19799
841.701	19742
841.838	19689
841.975	19727
842.112	19613
842.249	19639
842.385	19537
842.522	19841
842.659	19609
842.796	19537
842.933	19582
843.069	19559
843.206	19616
843.343	19765
843.479	19727
843.616	19757
843.752	19609
843.889	19624
844.025	19921
844.162	19765
844.298	20039
844.435	20073
844.571	20210
844.708	20530
844.844	20887
844.98	21321
845.117	22017
845.253	22801
845.389	24772
845.525	28455
845.661	34158
845.798	41113
845.934	46303
846.07	48079
846.206	46470
846.342	41851
846.478	35071
846.614	29216
846.75	25396
846.886	22942
847.022	21781
847.158	20876
847.294	20343
847.429	19997
847.565	19742
847.701	19799
847.837	19194
847.972	19023
848.108	19114
848.244	19061
848.379	18817
848.515	18703
848.65	18623
848.786	18753
848.921	18601
849.057	18658
849.192	18673
849.328	18582
849.463	18589
849.598	18509
849.734	18433
849.869	18441
850.004	18334
850.14	18247
850.275	18213
850.41	18053
850.545	18114
850.68	18224
850.815	18273
850.95	18220
851.085	18357
851.22	18266
851.355	18327
851.49	18300
851.625	18197
851.76	18228
851.895	18186
852.03	18140
852.165	18243
852.299	18270
852.434	18384
852.569	18315
852.703	18289
852.838	18277
852.973	18414
853.107	18681
853.242	18452
853.376	18220
853.511	18232
853.645	18273
853.78	18532
853.914	18353
854.048	18452
854.183	18410
854.317	18407
854.451	18604
854.585	18559
854.72	18327
854.854	18570
854.988	18296
855.122	18357
855.256	18171
855.39	18277
855.524	18304
855.658	18308
855.792	18155
855.926	18194
856.06	18140
856.194	18251
856.327	18174
856.461	18125
856.595	18060
856.729	18125
856.862	18144
856.996	18068
857.13	18117
857.263	18076
857.397	18224
857.53	18041
857.664	18110
857.797	18163
857.931	18068
858.064	18011
858.197	18026
858.331	17984
858.464	17916
858.597	17863
858.731	17988
858.864	17946
858.997	17927
859.13	18083
859.263	17908
859.396	17992
859.529	17824
859.662	17897
859.795	17965
859.928	17863
860.061	18049
860.194	17958
860.327	17946
860.46	17984
860.592	18026
860.725	18019
860.858	18057
860.99	17779
861.123	17764
861.256	17798
861.388	17809
861.521	18612
861.653	17824
861.786	17619
861.918	17726
862.05	17760
862.183	17805
862.315	17843
862.447	17946
862.58	17786
862.712	17680
862.844	17570
862.976	17653
863.108	17615
863.24	17996
863.372	17467
863.504	17520
863.636	17440
863.768	17600
863.9	17547
864.032	17478
864.164	17532
864.296	17505
864.428	17630
864.559	17630
864.691	17638
864.823	17528
864.954	17581
865.086	17474
865.217	17528
865.349	17474
865.48	17516
865.612	17608
865.743	17680
865.875	17452
866.006	17387
866.137	17448
866.269	17493
866.4	17406
866.531	17391
866.662	17379
866.793	17364
866.924	17474
867.055	17463
867.186	17425
867.317	17353
867.448	17376
867.579	17512
867.71	17360
867.841	17360
867.972	17406
868.103	17463
868.233	17493
868.364	17436
868.495	17577
868.625	17737
868.756	17775
868.886	17703
869.017	17676
869.147	17805
869.278	17882
869.408	17790
869.539	17798
869.669	17828
869.799	17741
869.929	17832
870.06	17920
870.19	18106
870.32	17969
870.45	18095
870.58	18239
870.71	18289
870.84	18277
870.97	18106
871.1	18178
871.23	18407
871.36	18513
871.489	18376
871.619	18388
871.749	18357
871.879	18456
872.008	18563
872.138	18509
872.267	18509
872.397	18506
872.526	18467
872.656	18296
872.785	18388
872.915	18498
873.044	18646
873.173	18623
873.303	18673
873.432	18582
873.561	18825
873.69	18726
873.819	18734
873.948	18741
874.077	18829
874.206	18837
874.335	18749
874.464	18951
874.593	19110
874.722	19095
874.851	19175
874.979	19259
875.108	19369
875.237	19289
875.365	19293
875.494	19327
875.623	19430
875.751	19339
875.88	19537
876.008	19727
876.136	19655
876.265	20069
876.393	20240
876.521	20199
876.65	20271
876.778	20195
876.906	20218
877.034	20225
877.162	20499
877.29	20438
877.418	20587
877.546	20644
877.674	20697
877.802	20861
877.93	20948
878.058	21157
878.185	21230
878.313	21580
878.441	22002
878.568	22348
878.696	22915
878.824	23832
878.951	24768
879.079	26533
879.206	28447
879.333	30547
879.461	32103
879.588	33412
879.715	33370
879.842	32530
879.97	30559
880.097	28390
880.224	26811
880.351	25624
880.478	24760
880.605	24125
880.732	23832
880.859	23672
880.986	23406
881.112	23265
881.239	22968
881.366	22942
881.493	22957
881.619	22729
881.746	22782
881.872	22862
881.999	22869
882.125	22854
882.252	22949
882.378	22991
882.505	23098
882.631	22942
882.757	22919
882.883	22873
883.01	22919
883.136	22790
883.262	22702
883.388	22702
883.514	22873
883.64	22908
883.766	22698
883.892	22577
884.018	22729
884.143	22694
884.269	22793
884.395	22664
884.52	22653
884.646	22531
884.772	22497
884.897	22485
885.023	22584
885.148	22584
885.274	22641
885.399	22546
885.524	22303
885.65	22101
885.775	22082
885.9	21979
886.025	21884
886.15	21732
886.275	21523
886.4	21294
886.525	21264
886.65	21081
886.775	20880
886.9	21066
887.025	21062
887.149	20640
887.274	20362
887.399	20259
887.523	20237
887.648	20164
887.773	20020
887.897	20084
888.021	19959
888.146	19875
888.27	19856
888.395	19894
888.519	19826
888.643	19723
888.767	19609
888.891	19601
889.015	19304
889.139	19373
889.263	19236
889.387	19365
889.511	19377
889.635	19335
889.759	19251
889.883	19050
890.006	19091
890.13	19225
890.254	19004
890.377	18966
890.501	18867
890.624	18814
890.748	18783
890.871	18540
890.995	18471
891.118	18426
891.241	18479
891.364	18426
891.488	18494
891.611	18384
891.734	18254
891.857	18433
891.98	18311
892.103	18311
892.226	18186
892.349	18197
892.471	18045
892.594	18068
892.717	18102
892.839	18038
892.962	18011
893.085	17977
893.207	17901
893.33	17923
893.452	17775
893.575	17927
893.697	17707
893.819	17912
893.941	17969
894.064	17923
894.186	17745
894.308	17676
894.43	17786
894.552	17927
894.674	17805
894.796	17554
894.918	17619
895.04	17672
895.161	17668
895.283	17562
895.405	17619
895.526	17604
895.648	17638
895.769	17581
895.891	17528
896.012	17532
896.134	17608
896.255	17600
896.376	17581
896.498	17554
896.619	17604
896.74	17668
896.861	17512
896.982	17897
897.103	17973
897.224	17805
897.345	17722
897.466	17577
897.587	17767
897.708	17889
897.828	17718
897.949	17611
898.07	17661
898.19	17619
898.311	17813
898.431	17589
898.552	17779
898.672	17703
898.792	17870
898.913	17630
899.033	17684
899.153	17524
899.273	17501
899.393	17433
899.513	17414
899.633	17558
899.753	17452
899.873	17474
899.993	17482
900.113	17376
900.232	17524
900.352	17436
900.472	17349
900.591	17235
900.711	17455
900.83	17261
900.95	17330
901.069	17440
901.189	17242
901.308	17006
901.427	16900
901.546	16801
901.665	16881
901.784	16911
901.904	16744
902.023	16618
902.141	16367
902.26	16436
902.379	16440
902.498	16375
902.617	16284
902.735	16272
902.854	16295
902.973	16211
903.091	16029
903.21	16059
903.328	15945
903.446	15857
903.565	15747
903.683	15705
903.801	15762
903.919	15701
904.038	15793
904.156	15610
904.274	15667
904.392	15511
904.51	15431
904.627	15553
904.745	15568
904.863	15519
904.981	15272
905.098	15123
905.216	15127
905.334	15370
905.451	15173
905.569	15173
905.686	15173
905.803	15169
905.921	14925
906.038	15047
906.155	14948
906.272	14743
906.389	14845
906.506	14743
906.623	14670
906.74	14724
906.857	14651
906.974	14549
907.091	14819
907.208	14811
907.324	14750
907.441	14579
907.557	14434
907.674	14347
907.79	14389
907.907	14278
908.023	14427
908.139	14366
908.256	14362
908.372	14214
908.488	14225
908.604	14161
908.72	14107
908.836	14168
908.952	14191
909.068	14229
909.184	14221
909.3	14107
909.415	14161
909.531	14058
909.647	13883
909.762	13906
909.878	13833
909.993	13860
910.108	13814
910.224	13890
910.339	13856
910.454	13658
910.57	13674
910.685	13658
910.8	13890
910.915	13906
911.03	13674
911.145	13499
911.259	13518
911.374	13510
911.489	13407
911.604	13373
911.718	13426
911.833	13282
911.947	13206
912.062	13133
912.176	13251
912.291	13236
912.405	13209
912.519	13377
912.633	13362
912.748	13293
912.862	13312
912.976	13072
913.09	12981
913.204	13076
913.318	13129
913.431	13225
913.545	13164
913.659	13221
913.772	13031
913.886	13019
914	12962
914.113	13114
914.226	13069
914.34	13065
914.453	12977
914.566	13015
914.68	12989
914.793	12829
914.906	12738
915.019	12681
915.132	12627
915.245	12642
915.358	12715
915.47	12635
915.583	12635
915.696	12810
915.809	12859
915.921	12825
916.034	12665
916.146	12658
916.259	12563
916.371	12730
916.483	12711
916.595	12593
916.708	12662
916.82	12631
916.932	12612
917.044	12597
917.156	12597
917.268	12464
917.38	12509
917.491	12525
917.603	12391
917.715	12422
917.826	12467
917.938	12365
918.049	12281
918.161	12342
918.272	12532
918.384	12646
918.495	12357
918.606	12235
918.717	12129
918.828	12178
918.939	12243
919.05	12098
919.161	12205
919.272	12026
919.383	11996
919.494	12319
919.604	12369
919.715	12300
919.826	12106
919.936	12121
920.047	12232
920.157	12205
920.267	12456
920.378	12148
920.488	12148
920.598	12342
920.708	12555
920.818	12365
920.928	12384
921.038	12490
921.148	12471
921.258	12201
921.368	12041
921.477	11961
921.587	11893
921.697	11901
921.806	11840
921.916	11859
922.025	11707
922.134	11707
922.244	11623
922.353	11672
922.462	11509
922.571	11425
922.68	11402
922.789	11288
922.898	11322
923.007	11288
923.116	11318
923.224	11227
923.333	11322
923.442	11235
923.55	11033
923.659	11140
923.767	11170
923.876	11067
923.984	11193
924.092	11075
924.201	11128
924.309	11090
924.417	11109
924.525	11037
924.633	10938
924.741	11851
924.849	10759
924.956	10991
925.064	10847
925.172	10790
925.279	10843
925.387	10847
925.494	10835
925.602	11018
925.709	10881
925.816	10744
925.924	10812
926.031	10877
926.138	10752
926.245	10881
926.352	10786
926.459	10892
926.566	10953
926.673	10717
926.779	10702
926.886	10618
926.993	10485
927.099	10462
927.206	10451
927.312	10360
927.419	10535
927.525	10527
927.631	10493
927.737	10390
927.843	10360
927.95	10276
928.056	10390
928.162	10341
928.267	10398
928.373	10984
928.479	10390
928.585	10219
928.69	10333
928.796	10394
928.901	10238
929.007	10059
929.112	10306
929.218	10188
929.323	10036
929.428	10143
929.533	10253
929.638	10093
929.743	10048
929.848	10105
929.953	10063
930.058	10002
930.163	9793
930.267	9854
930.372	10048
930.477	9819
930.581	10021
930.685	9880
930.79	9728
930.894	9732
930.998	9751
931.103	9816
931.207	9526
931.311	9435
931.415	9370
931.519	9188
931.623	9173
