Data from test_V78500241_3129.txt Node
Date: Fri Mar 25 14:55:30 CST 2022
User: usil
Spectrometer: V785-0024
Trigger mode: 0
Integration Time (sec): 4.000000E-1
Scans to average: 1
Nonlinearity correction enabled: false
Boxcar width: 0
Storing dark spectrum: false
XAxis mode: Wavelengths
Number of Pixels in Spectrum: 1024
>>>>>Begin Spectral Data<<<<<
801.071	22169
801.214	21994
801.356	21819
801.499	21504
801.641	21405
801.783	21393
801.926	21393
802.068	21401
802.211	21264
802.353	21203
802.496	21062
802.638	20960
802.78	20929
802.923	20708
803.065	20682
803.208	20686
803.35	20712
803.492	20785
803.635	20998
803.777	20667
803.919	20861
804.061	21116
804.204	20838
804.346	20724
804.488	20583
804.63	20754
804.773	20674
804.915	20716
805.057	20807
805.199	20594
805.341	20701
805.483	20853
805.626	20640
805.768	20545
805.91	20705
806.052	20549
806.194	20560
806.336	20765
806.478	20640
806.62	20678
806.762	20746
806.904	20796
807.046	21093
807.188	21055
807.33	21032
807.472	21001
807.614	20868
807.756	20956
807.898	20762
808.04	20807
808.182	20800
808.324	20750
808.465	20693
808.607	20891
808.749	21100
808.891	21165
809.033	21180
809.174	21230
809.316	20937
809.458	21055
809.6	21058
809.741	21093
809.883	21074
810.025	21252
810.166	21287
810.308	21093
810.45	21157
810.591	21001
810.733	20990
810.875	20796
811.016	20804
811.158	20720
811.299	20887
811.441	20868
811.582	20971
811.724	20731
811.865	20792
812.007	20815
812.148	20842
812.29	20758
812.431	20948
812.573	21051
812.714	21131
812.855	21302
812.997	21466
813.138	21500
813.279	21447
813.421	21344
813.562	21268
813.703	21039
813.845	20952
813.986	20632
814.127	20423
814.268	20355
814.41	20358
814.551	20320
814.692	20446
814.833	20374
814.974	20233
815.115	20237
815.256	20237
815.397	20142
815.539	20062
815.68	20111
815.821	19993
815.962	20092
816.103	20024
816.244	19852
816.385	19818
816.526	19746
816.666	19544
816.807	19472
816.948	19453
817.089	19658
817.23	19571
817.371	19464
817.512	19483
817.653	19403
817.793	19415
817.934	19460
818.075	19407
818.216	19430
818.356	19499
818.497	19369
818.638	19133
818.778	19095
818.919	19175
819.06	19183
819.2	19240
819.341	19373
819.481	19464
819.622	19624
819.762	19662
819.903	19548
820.043	19563
820.184	19369
820.324	19453
820.465	19449
820.605	19441
820.746	19441
820.886	19198
821.026	19422
821.167	19335
821.307	19400
821.447	19407
821.588	19247
821.728	19164
821.868	19065
822.008	18753
822.149	18856
822.289	18856
822.429	18639
822.569	18589
822.709	18601
822.849	18410
822.99	18376
823.13	18369
823.27	18300
823.41	18148
823.55	18152
823.69	18201
823.83	18121
823.97	18167
824.11	17901
824.25	17840
824.389	17923
824.529	17977
824.669	17904
824.809	17977
824.949	18026
825.089	17977
825.228	17946
825.368	17775
825.508	17771
825.648	17684
825.787	17710
825.927	17764
826.067	17733
826.206	17672
826.346	17615
826.485	17691
826.625	17615
826.765	17786
826.904	17615
827.044	17486
827.183	17459
827.323	17303
827.462	17478
827.601	17349
827.741	17242
827.88	17383
828.02	17200
828.159	17322
828.298	17410
828.437	17532
828.577	17250
828.716	17402
828.855	17311
828.994	17189
829.134	17086
829.273	17185
829.412	17075
829.551	17090
829.69	17064
829.829	17071
829.968	17220
830.107	17166
830.246	17102
830.385	17124
830.524	17060
830.663	16911
830.802	16889
830.941	16801
831.08	16656
831.219	16831
831.357	16786
831.496	17018
831.635	16809
831.774	16634
831.913	16645
832.051	16622
832.19	16508
832.329	16561
832.467	16512
832.606	16421
832.744	16329
832.883	16523
833.022	16363
833.16	16421
833.299	16493
833.437	16516
833.576	16519
833.714	16409
833.852	16466
833.991	16558
834.129	16641
834.267	16497
834.406	16440
834.544	16580
834.682	16546
834.821	16558
834.959	16573
835.097	16474
835.235	16565
835.373	16535
835.511	16512
835.65	16409
835.788	16459
835.926	16318
836.064	16150
836.202	16261
836.34	16421
836.478	16538
836.615	16314
836.753	16462
836.891	16409
837.029	16386
837.167	16386
837.305	16268
837.443	16246
837.58	16169
837.718	16348
837.856	16291
837.993	16185
838.131	16211
838.269	16188
838.406	16249
838.544	16162
838.681	15953
838.819	15953
838.956	15751
839.094	15831
839.231	15842
839.369	16032
839.506	16181
839.643	16029
839.781	15797
839.918	15656
840.055	15846
840.193	15717
840.33	15755
840.467	15800
840.604	15915
840.742	16112
840.879	15709
841.016	15766
841.153	15682
841.29	15861
841.427	15808
841.564	15797
841.701	15865
841.838	15797
841.975	15652
842.112	15633
842.249	15561
842.385	15477
842.522	15720
842.659	15614
842.796	15580
842.933	15591
843.069	15549
843.206	15538
843.343	15625
843.479	15523
843.616	15595
843.752	15378
843.889	15374
844.025	15477
844.162	15329
844.298	15473
844.435	15389
844.571	15351
844.708	15378
844.844	15610
844.98	15519
845.117	15424
845.253	15298
845.389	15195
845.525	15310
845.661	15332
845.798	15112
845.934	15180
846.07	15108
846.206	15207
846.342	15306
846.478	15195
846.614	15028
846.75	14899
846.886	14880
847.022	14990
847.158	14872
847.294	14918
847.429	15043
847.565	14921
847.701	15249
847.837	14640
847.972	14724
848.108	14826
848.244	14701
848.379	14480
848.515	14503
848.65	14533
848.786	14526
848.921	14541
849.057	14621
849.192	14648
849.328	14511
849.463	14514
849.598	14579
849.734	14446
849.869	14396
850.004	14305
850.14	14301
850.275	14347
850.41	14195
850.545	14278
850.68	14233
850.815	14324
850.95	14301
851.085	14545
851.22	14351
851.355	14313
851.49	14256
851.625	14240
851.76	14225
851.895	14206
852.03	14225
852.165	14225
852.299	14240
852.434	14324
852.569	14320
852.703	14374
852.838	14320
852.973	14465
853.107	14374
853.242	14275
853.376	14138
853.511	14027
853.645	13986
853.78	14366
853.914	14221
854.048	14172
854.183	14218
854.317	14153
854.451	14370
854.585	14191
854.72	14221
854.854	14218
854.988	14100
855.122	14054
855.256	14027
855.39	14199
855.524	14199
855.658	14214
855.792	14119
855.926	14187
856.06	14271
856.194	14263
856.327	14096
856.461	14142
856.595	14126
856.729	14157
856.862	14263
856.996	14187
857.13	14339
857.263	14298
857.397	14278
857.53	14195
857.664	14187
857.797	14218
857.931	14218
858.064	14237
858.197	14275
858.331	14111
858.464	14164
858.597	14035
858.731	14134
858.864	14145
858.997	14142
859.13	14206
859.263	14176
859.396	14294
859.529	14058
859.662	14164
859.795	14138
859.928	14248
860.061	14370
860.194	14385
860.327	14145
860.46	14172
860.592	14267
860.725	14248
860.858	14282
860.99	14081
861.123	14115
861.256	14058
861.388	14168
861.521	14769
861.653	14073
861.786	14084
861.918	14111
862.05	14088
862.183	14123
862.315	14195
862.447	14183
862.58	14161
862.712	14039
862.844	13932
862.976	14073
863.108	13978
863.24	14248
863.372	13879
863.504	13982
863.636	13936
863.768	14046
863.9	14001
864.032	13875
864.164	13967
864.296	13947
864.428	14103
864.559	14088
864.691	14149
864.823	14039
864.954	14043
865.086	13997
865.217	13978
865.349	13898
865.48	13963
865.612	13970
865.743	14142
865.875	13970
866.006	13997
866.137	13959
866.269	13997
866.4	14008
866.531	13959
866.662	13936
866.793	13906
866.924	13864
867.055	13997
867.186	13955
867.317	13868
867.448	13830
867.579	13925
867.71	13989
867.841	13909
867.972	13997
868.103	13955
868.233	13963
868.364	13970
868.495	14035
868.625	14126
868.756	14294
868.886	14195
869.017	14168
869.147	14355
869.278	14343
869.408	14301
869.539	14145
869.669	14355
869.799	14320
869.929	14358
870.06	14389
870.19	14488
870.32	14514
870.45	14568
870.58	14689
870.71	14689
870.84	14830
870.97	14667
871.1	14659
871.23	14773
871.36	14906
871.489	14708
871.619	14724
871.749	14769
871.879	14762
872.008	14925
872.138	14910
872.267	14792
872.397	14724
872.526	14670
872.656	14625
872.785	14636
872.915	14838
873.044	14876
873.173	14819
873.303	14868
873.432	14872
873.561	14933
873.69	14849
873.819	14895
873.948	14925
874.077	14872
874.206	14883
874.335	14849
874.464	14948
874.593	15199
874.722	15089
874.851	15214
874.979	15184
875.108	15237
875.237	15123
875.365	15116
875.494	15123
875.623	15218
875.751	15154
875.88	15211
876.008	15230
876.136	15389
876.265	15591
876.393	15679
876.521	15603
876.65	15587
876.778	15656
876.906	15561
877.034	15492
877.162	15595
877.29	15485
877.418	15568
877.546	15694
877.674	15584
877.802	15595
877.93	15542
878.058	15599
878.185	15439
878.313	15557
878.441	15595
878.568	15412
878.696	15462
878.824	15633
878.951	15671
879.079	15816
879.206	15926
879.333	15770
879.461	15580
879.588	15682
879.715	15800
879.842	15949
879.97	15622
880.097	15469
880.224	15507
880.351	15507
880.478	15454
880.605	15351
880.732	15370
880.859	15690
880.986	15386
881.112	15496
881.239	15287
881.366	15218
881.493	15230
881.619	14967
881.746	15081
881.872	15127
881.999	15036
882.125	15070
882.252	15127
882.378	15127
882.505	15294
882.631	15051
882.757	14906
882.883	15009
883.01	14906
883.136	14975
883.262	14796
883.388	14750
883.514	14929
883.64	14918
883.766	14918
883.892	14720
884.018	14758
884.143	14906
884.269	14971
884.395	14762
884.52	14590
884.646	14689
884.772	14522
884.897	14587
885.023	14621
885.148	14689
885.274	14849
885.399	14663
885.524	14602
885.65	14587
885.775	14640
885.9	14644
886.025	14815
886.15	14682
886.275	14598
886.4	14488
886.525	14514
886.65	14606
886.775	14522
886.9	14754
887.025	14883
887.149	14625
887.274	14541
887.399	14454
887.523	14545
887.648	14442
887.773	14370
887.897	14511
888.021	14495
888.146	14503
888.27	14598
888.395	14716
888.519	14511
888.643	14480
888.767	14571
888.891	14446
889.015	14347
889.139	14332
889.263	14320
889.387	14408
889.511	14514
889.635	14385
889.759	14248
889.883	14320
890.006	14377
890.13	14465
890.254	14263
890.377	14278
890.501	14195
890.624	14088
890.748	14339
890.871	14069
890.995	13989
891.118	13970
891.241	13993
891.364	14119
891.488	14168
891.611	14126
891.734	13940
891.857	14157
891.98	14107
892.103	14218
892.226	14012
892.349	14039
892.471	13917
892.594	13947
892.717	14065
892.839	13951
892.962	13978
893.085	14149
893.207	14046
893.33	13906
893.452	13963
893.575	13978
893.697	13879
893.819	14164
893.941	14339
894.064	14218
894.186	14016
894.308	13936
894.43	14225
894.552	14263
894.674	14244
894.796	14031
894.918	14065
895.04	14107
895.161	14237
895.283	14142
895.405	14119
895.526	14065
895.648	14149
895.769	14214
895.891	14157
896.012	14240
896.134	14301
896.255	14221
896.376	14218
896.498	14168
896.619	14221
896.74	14180
896.861	14187
896.982	14537
897.103	14693
897.224	14530
897.345	14400
897.466	14507
897.587	14446
897.708	14583
897.828	14526
897.949	14431
898.07	14415
898.19	14465
898.311	14663
898.431	14454
898.552	14556
898.672	14610
898.792	14629
898.913	14632
899.033	14507
899.153	14419
899.273	14324
899.393	14377
899.513	14469
899.633	14419
899.753	14366
899.873	14454
899.993	14427
900.113	14404
900.232	14412
900.352	14454
900.472	14290
900.591	14271
900.711	14237
900.83	14206
900.95	14362
901.069	14358
901.189	14164
901.308	14119
901.427	13921
901.546	13963
901.665	13997
901.784	13993
901.904	13826
902.023	13643
902.141	13502
902.26	13559
902.379	13590
902.498	13457
902.617	13491
902.735	13624
902.854	13521
902.973	13495
903.091	13335
903.21	13236
903.328	13240
903.446	13247
903.565	13126
903.683	13103
903.801	12947
903.919	12962
904.038	13099
904.156	12954
904.274	12989
904.392	12966
904.51	12795
904.627	12859
904.745	12882
904.863	12962
904.981	12734
905.098	12612
905.216	12612
905.334	12597
905.451	12654
905.569	12547
905.686	12623
905.803	12662
905.921	12437
906.038	12467
906.155	12494
906.272	12266
906.389	12361
906.506	12197
906.623	12163
906.74	12194
906.857	12079
906.974	12110
907.091	12300
907.208	12357
907.324	12186
907.441	12110
907.557	11958
907.674	12003
907.79	11908
907.907	11935
908.023	11958
908.139	11912
908.256	11863
908.372	11843
908.488	11851
908.604	11691
908.72	11691
908.836	11653
908.952	11718
909.068	11718
909.184	11737
909.3	11646
909.415	11764
909.531	11745
909.647	11482
909.762	11474
909.878	11478
909.993	11501
910.108	11452
910.224	11395
910.339	11493
910.454	11364
910.57	11318
910.685	11220
910.8	11535
910.915	11455
911.03	11349
911.145	11197
911.259	11162
911.374	11204
911.489	11071
911.604	11033
911.718	10885
911.833	10923
911.947	10828
912.062	10771
912.176	10900
912.291	10889
912.405	10847
912.519	11094
912.633	11178
912.748	10919
912.862	10968
912.976	10820
913.09	10725
913.204	10782
913.318	10733
913.431	10896
913.545	10869
913.659	10946
913.772	10759
913.886	10645
914	10622
914.113	10752
914.226	10793
914.34	10793
914.453	10653
914.566	10809
914.68	10634
914.793	10493
914.906	10478
915.019	10390
915.132	10333
915.245	10443
915.358	10462
915.47	10424
915.583	10474
915.696	10424
915.809	10565
915.921	10592
916.034	10428
916.146	10405
916.259	10394
916.371	10474
916.483	10440
916.595	10348
916.708	10394
916.82	10398
916.932	10386
917.044	10310
917.156	10363
917.268	10322
917.38	10268
917.491	10211
917.603	10333
917.715	10405
917.826	10344
917.938	10211
918.049	10154
918.161	10188
918.272	10382
918.384	10379
918.495	10257
918.606	10188
918.717	10051
918.828	10112
918.939	10150
919.05	10063
919.161	10147
919.272	9899
919.383	9960
919.494	10143
919.604	10443
919.715	10223
919.826	10086
919.936	10169
920.047	10238
920.157	10215
920.267	10447
920.378	10196
920.488	10143
920.598	10424
920.708	10447
920.818	10299
920.928	10314
921.038	10504
921.148	10584
921.258	10154
921.368	10192
921.477	9994
921.587	10040
921.697	9854
921.806	10059
921.916	9926
922.025	9797
922.134	9698
922.244	9728
922.353	9861
922.462	9561
922.571	9557
922.68	9443
922.789	9351
922.898	9408
923.007	9367
923.116	9443
923.224	9450
923.333	9386
923.442	9310
923.55	9294
923.659	9351
923.767	9378
923.876	9230
923.984	9367
924.092	9233
924.201	9287
924.309	9287
924.417	9329
924.525	9279
924.633	9211
924.741	10181
924.849	9081
924.956	9184
925.064	9070
925.172	9020
925.279	8998
925.387	9093
925.494	9009
925.602	9218
925.709	9131
925.816	8994
925.924	9093
926.031	9192
926.138	9127
926.245	9131
926.352	8990
926.459	9154
926.566	9275
926.673	9028
926.779	8902
926.886	8910
926.993	8781
927.099	8766
927.206	8727
927.312	8674
927.419	8891
927.525	8823
927.631	8872
927.737	8743
927.843	8663
927.95	8511
928.056	8587
928.162	8670
928.267	8766
928.373	9199
928.479	8746
928.585	8552
928.69	8701
928.796	8735
928.901	8602
929.007	8526
929.112	8545
929.218	8530
929.323	8549
929.428	8556
929.533	8708
929.638	8492
929.743	8495
929.848	8583
929.953	8457
930.058	8358
930.163	8237
930.267	8313
930.372	8431
930.477	8240
930.581	8511
930.685	8362
930.79	8195
930.894	8244
930.998	8237
931.103	8366
931.207	8100
931.311	8016
931.415	7894
931.519	7818
931.623	7723
