Data from test_V78500241_512.txt Node
Date: Fri Mar 25 14:37:17 CST 2022
User: usil
Spectrometer: V785-0024
Trigger mode: 0
Integration Time (sec): 4.000000E-1
Scans to average: 1
Nonlinearity correction enabled: false
Boxcar width: 0
Storing dark spectrum: false
XAxis mode: Wavelengths
Number of Pixels in Spectrum: 1024
>>>>>Begin Spectral Data<<<<<
801.071	26975
801.214	26960
801.356	26689
801.499	26590
801.641	26465
801.783	26503
801.926	26434
802.068	26290
802.211	26237
802.353	26134
802.496	25993
802.638	26012
802.78	26069
802.923	25833
803.065	25803
803.208	25883
803.35	25708
803.492	25925
803.635	26039
803.777	25883
803.919	26001
804.061	26225
804.204	25963
804.346	25906
804.488	25871
804.63	25898
804.773	25750
804.915	25966
805.057	25894
805.199	25738
805.341	25898
805.483	25997
805.626	26020
805.768	25898
805.91	25951
806.052	26043
806.194	25811
806.336	26183
806.478	25997
806.62	25906
806.762	26191
806.904	26476
807.046	26762
807.188	26530
807.33	26625
807.472	26781
807.614	26686
807.756	26686
807.898	26815
808.04	26944
808.182	27222
808.324	27629
808.465	27972
808.607	28455
808.749	28995
808.891	29189
809.033	29356
809.174	29006
809.316	28481
809.458	28074
809.6	27610
809.741	27500
809.883	27264
810.025	27165
810.166	27020
810.308	27039
810.45	26724
810.591	26857
810.733	26583
810.875	26450
811.016	26339
811.158	26221
811.299	26377
811.441	26320
811.582	26473
811.724	26259
811.865	26172
812.007	26355
812.148	26328
812.29	26301
812.431	26339
812.573	26446
812.714	26552
812.855	26697
812.997	26705
813.138	26902
813.279	26845
813.421	26530
813.562	26571
813.703	26362
813.845	26377
813.986	26035
814.127	25837
814.268	25932
814.41	25712
814.551	25822
814.692	25769
814.833	25548
814.974	25685
815.115	25727
815.256	25582
815.397	25556
815.539	25616
815.68	25396
815.821	25362
815.962	25457
816.103	25316
816.244	25213
816.385	25187
816.526	25015
816.666	24913
816.807	24779
816.948	24966
817.089	25072
817.23	24840
817.371	24692
817.512	24753
817.653	24772
817.793	24757
817.934	24768
818.075	24707
818.216	24802
818.356	24620
818.497	24585
818.638	24460
818.778	24410
818.919	24513
819.06	24471
819.2	24616
819.341	24669
819.481	24677
819.622	24798
819.762	24905
819.903	24935
820.043	24852
820.184	24730
820.324	24806
820.465	24776
820.605	24665
820.746	24669
820.886	24555
821.026	24738
821.167	24692
821.307	24837
821.447	24608
821.588	24388
821.728	24327
821.868	24270
822.008	24148
822.149	23946
822.289	23935
822.429	23710
822.569	23851
822.709	23771
822.849	23505
822.99	23653
823.13	23596
823.27	23497
823.41	23109
823.55	23250
823.69	23318
823.83	23334
823.97	23277
824.11	23151
824.25	22991
824.389	23033
824.529	23113
824.669	22965
824.809	23223
824.949	23208
825.089	23223
825.228	23105
825.368	22900
825.508	22889
825.648	22892
825.787	22976
825.927	22965
826.067	22862
826.206	22873
826.346	22782
826.485	22957
826.625	22816
826.765	22862
826.904	22877
827.044	22459
827.183	22557
827.323	22584
827.462	22710
827.601	22531
827.741	22535
827.88	22481
828.02	22367
828.159	22481
828.298	22428
828.437	22535
828.577	22519
828.716	22573
828.855	22481
828.994	22181
829.134	22147
829.273	22185
829.412	22082
829.551	22200
829.69	22143
829.829	22131
829.968	22295
830.107	22181
830.246	22173
830.385	22124
830.524	22029
830.663	21953
830.802	21960
830.941	21682
831.08	21679
831.219	21930
831.357	21812
831.496	21930
831.635	21728
831.774	21728
831.913	21641
832.051	21553
832.19	21614
832.329	21633
832.467	21481
832.606	21329
832.744	21473
832.883	21469
833.022	21492
833.16	21500
833.299	21466
833.437	21553
833.576	21466
833.714	21652
833.852	21603
833.991	21595
834.129	21644
834.267	21542
834.406	21679
834.544	21595
834.682	21568
834.821	21507
834.959	21553
835.097	21488
835.235	21542
835.373	21397
835.511	21431
835.65	21294
835.788	21363
835.926	21161
836.064	21024
836.202	21093
836.34	21370
836.478	21344
836.615	21272
836.753	21412
836.891	21359
837.029	21359
837.167	21256
837.305	21154
837.443	21119
837.58	21142
837.718	21256
837.856	21169
837.993	21047
838.131	21169
838.269	21013
838.406	21001
838.544	20979
838.681	20788
838.819	20716
838.956	20583
839.094	20526
839.231	20609
839.369	20785
839.506	20883
839.643	20811
839.781	20518
839.918	20450
840.055	20541
840.193	20560
840.33	20442
840.467	20495
840.604	20537
840.742	20720
840.879	20271
841.016	20461
841.153	20324
841.29	20625
841.427	20442
841.564	20522
841.701	20434
841.838	20400
841.975	20267
842.112	20298
842.249	20183
842.385	20115
842.522	20434
842.659	20324
842.796	20206
842.933	20233
843.069	20096
843.206	20111
843.343	20233
843.479	20195
843.616	20195
843.752	20062
843.889	19852
844.025	20122
844.162	19871
844.298	20077
844.435	20012
844.571	19978
844.708	20020
844.844	20168
844.98	20221
845.117	20336
845.253	20294
845.389	20313
845.525	20823
845.661	21435
845.798	22036
845.934	22862
846.07	23003
846.206	23056
846.342	22622
846.478	21599
846.614	20743
846.75	20157
846.886	19982
847.022	19913
847.158	19731
847.294	19445
847.429	19597
847.565	19540
847.701	19639
847.837	19156
847.972	19171
848.108	19297
848.244	19228
848.379	19156
848.515	18913
848.65	18993
848.786	19012
848.921	18905
849.057	19038
849.192	19031
849.328	18928
849.463	19000
849.598	18943
849.734	18867
849.869	18817
850.004	18749
850.14	18779
850.275	18692
850.41	18669
850.545	18623
850.68	18703
850.815	18608
850.95	18604
851.085	18837
851.22	18753
851.355	18604
851.49	18635
851.625	18631
851.76	18703
851.895	18547
852.03	18585
852.165	18692
852.299	18658
852.434	18745
852.569	18734
852.703	18661
852.838	18623
852.973	18833
853.107	18787
853.242	18703
853.376	18547
853.511	18391
853.645	18403
853.78	18665
853.914	18483
854.048	18555
854.183	18414
854.317	18452
854.451	18692
854.585	18627
854.72	18513
854.854	18547
854.988	18498
855.122	18612
855.256	18467
855.39	18513
855.524	18658
855.658	18490
855.792	18528
855.926	18639
856.06	18646
856.194	18532
856.327	18521
856.461	18483
856.595	18414
856.729	18563
856.862	18483
856.996	18525
857.13	18509
857.263	18578
857.397	18490
857.53	18429
857.664	18498
857.797	18601
857.931	18616
858.064	18490
858.197	18536
858.331	18410
858.464	18361
858.597	18342
858.731	18513
858.864	18445
858.997	18369
859.13	18502
859.263	18445
859.396	18475
859.529	18467
859.662	18350
859.795	18350
859.928	18403
860.061	18467
860.194	18475
860.327	18342
860.46	18391
860.592	18589
860.725	18597
860.858	18597
860.99	18422
861.123	18467
861.256	18300
861.388	18437
861.521	19179
861.653	18292
861.786	18072
861.918	18334
862.05	18330
862.183	18361
862.315	18365
862.447	18578
862.58	18380
862.712	18201
862.844	18060
862.976	18247
863.108	18201
863.24	18738
863.372	18144
863.504	18258
863.636	18095
863.768	18136
863.9	18079
864.032	17954
864.164	18076
864.296	18083
864.428	18224
864.559	18239
864.691	18213
864.823	18102
864.954	18220
865.086	18133
865.217	18045
865.349	17946
865.48	17946
865.612	18079
865.743	18232
865.875	18083
866.006	18057
866.137	18072
866.269	18159
866.4	18072
866.531	17992
866.662	17969
866.793	17878
866.924	17946
867.055	18114
867.186	18064
867.317	18049
867.448	17927
867.579	17996
867.71	17916
867.841	17923
867.972	18007
868.103	18041
868.233	18015
868.364	18045
868.495	18087
868.625	18228
868.756	18437
868.886	18201
869.017	18140
869.147	18338
869.278	18304
869.408	18232
869.539	18163
869.669	18213
869.799	18247
869.929	18338
870.06	18391
870.19	18612
870.32	18551
870.45	18566
870.58	18639
870.71	18738
870.84	18760
870.97	18650
871.1	18639
871.23	18810
871.36	18821
871.489	18711
871.619	18795
871.749	18821
871.879	18928
872.008	18973
872.138	18817
872.267	18787
872.397	18688
872.526	18673
872.656	18707
872.785	18825
872.915	18848
873.044	18939
873.173	18863
873.303	18901
873.432	19034
873.561	18962
873.69	18966
873.819	18882
873.948	18958
874.077	18840
874.206	18973
874.335	18920
874.464	19110
874.593	19129
874.722	19114
874.851	19263
874.979	19232
875.108	19202
875.237	19236
875.365	19171
875.494	19194
875.623	19285
875.751	19285
875.88	19320
876.008	19293
876.136	19430
876.265	19639
876.393	19769
876.521	19807
876.65	19780
876.778	19791
876.906	19635
877.034	19556
877.162	19681
877.29	19628
877.418	19803
877.546	19594
877.674	19772
877.802	19677
877.93	19620
878.058	19753
878.185	19674
878.313	19833
878.441	19894
878.568	19765
878.696	19955
878.824	20054
878.951	20263
879.079	20503
879.206	20921
879.333	21150
879.461	21157
879.588	21462
879.715	21515
879.842	21412
879.97	21066
880.097	20514
880.224	20286
880.351	20313
880.478	20111
880.605	20035
880.732	19955
880.859	20164
880.986	19951
881.112	19959
881.239	19731
881.366	19635
881.493	19567
881.619	19559
881.746	19468
881.872	19518
881.999	19495
882.125	19464
882.252	19594
882.378	19525
882.505	19674
882.631	19346
882.757	19251
882.883	19228
883.01	19346
883.136	19289
883.262	19110
883.388	19171
883.514	19350
883.64	19297
883.766	19187
883.892	18985
884.018	19057
884.143	19297
884.269	19369
884.395	18973
884.52	18985
884.646	18993
884.772	18878
884.897	18886
885.023	19004
885.148	19126
885.274	19190
885.399	19019
885.524	18901
885.65	18829
885.775	18886
885.9	18856
886.025	19008
886.15	18878
886.275	18673
886.4	18612
886.525	18760
886.65	18639
886.775	18593
886.9	18905
887.025	18833
887.149	18642
887.274	18525
887.399	18528
887.523	18490
887.648	18380
887.773	18300
887.897	18623
888.021	18555
888.146	18384
888.27	18475
888.395	18467
888.519	18464
888.643	18452
888.767	18502
888.891	18338
889.015	18201
889.139	18155
889.263	18220
889.387	18334
889.511	18350
889.635	18369
889.759	18190
889.883	18194
890.006	18190
890.13	18209
890.254	18110
890.377	18251
890.501	17904
890.624	18003
890.748	17935
890.871	17821
890.995	17756
891.118	17733
891.241	17786
891.364	17851
891.488	17901
891.611	17813
891.734	17828
891.857	17828
891.98	17927
892.103	17760
892.226	17729
892.349	17752
892.471	17516
892.594	17722
892.717	17687
892.839	17573
892.962	17642
893.085	17771
893.207	17699
893.33	17467
893.452	17657
893.575	17714
893.697	17585
893.819	17691
893.941	17908
894.064	17786
894.186	17608
894.308	17672
894.43	17653
894.552	17836
894.674	17790
894.796	17558
894.918	17505
895.04	17604
895.161	17676
895.283	17672
895.405	17577
895.526	17779
895.648	17710
895.769	17703
895.891	17821
896.012	17657
896.134	17771
896.255	17680
896.376	17668
896.498	17672
896.619	17859
896.74	17665
896.861	17840
896.982	18125
897.103	18095
897.224	17931
897.345	18038
897.466	17927
897.587	17969
897.708	18041
897.828	17992
897.949	17874
898.07	17843
898.19	17950
898.311	18076
898.431	17851
898.552	18049
898.672	18060
898.792	17977
898.913	18026
899.033	17851
899.153	17737
899.273	17748
899.393	17752
899.513	17832
899.633	17752
899.753	17878
899.873	17653
899.993	17752
900.113	17703
900.232	17680
900.352	17748
900.472	17634
900.591	17608
900.711	17707
900.83	17520
900.95	17680
901.069	17615
901.189	17433
901.308	17284
901.427	17181
901.546	17239
901.665	17216
901.784	17265
901.904	17128
902.023	16930
902.141	16759
902.26	16843
902.379	16774
902.498	16679
902.617	16569
902.735	16831
902.854	16672
902.973	16611
903.091	16451
903.21	16325
903.328	16409
903.446	16341
903.565	16200
903.683	16238
903.801	16131
903.919	16169
904.038	16128
904.156	15979
904.274	16093
904.392	15876
904.51	15922
904.627	16021
904.745	15865
904.863	16055
904.981	15781
905.098	15618
905.216	15667
905.334	15713
905.451	15705
905.569	15534
905.686	15572
905.803	15584
905.921	15485
906.038	15435
906.155	15462
906.272	15325
906.389	15336
906.506	15142
906.623	15135
906.74	15074
906.857	14967
906.974	14990
907.091	15119
907.208	15233
907.324	15142
907.441	15047
907.557	14902
907.674	14796
907.79	14705
907.907	14750
908.023	14967
908.139	14773
908.256	14739
908.372	14739
908.488	14724
908.604	14640
908.72	14621
908.836	14541
908.952	14632
909.068	14613
909.184	14579
909.3	14530
909.415	14522
909.531	14484
909.647	14309
909.762	14294
909.878	14282
909.993	14267
910.108	14237
910.224	14199
910.339	14301
910.454	14164
910.57	14062
910.685	14016
910.8	14237
910.915	14218
911.03	14153
911.145	13974
911.259	13845
911.374	13925
911.489	13769
911.604	13742
911.718	13712
911.833	13719
911.947	13537
912.062	13460
912.176	13666
912.291	13624
912.405	13628
912.519	13883
912.633	13776
912.748	13636
912.862	13556
912.976	13537
913.09	13373
913.204	13362
913.318	13499
913.431	13556
913.545	13563
913.659	13582
913.772	13392
913.886	13304
914	13263
914.113	13343
914.226	13438
914.34	13266
914.453	13244
914.566	13403
914.68	13217
914.793	13213
914.906	13076
915.019	13038
915.132	12928
915.245	12916
915.358	13038
915.47	13118
915.583	12939
915.696	13019
915.809	13202
915.921	13175
916.034	12901
916.146	12890
916.259	12856
916.371	12981
916.483	12878
916.595	12779
916.708	12863
916.82	12863
916.932	12810
917.044	12871
917.156	12757
917.268	12719
917.38	12749
917.491	12707
917.603	12726
917.715	12837
917.826	12798
917.938	12642
918.049	12604
918.161	12703
918.272	12738
918.384	12833
918.495	12776
918.606	12536
918.717	12467
918.828	12532
918.939	12623
919.05	12410
919.161	12521
919.272	12308
919.383	12346
919.494	12544
919.604	12734
919.715	12464
919.826	12414
919.936	12460
920.047	12570
920.157	12517
920.267	12684
920.378	12483
920.488	12410
920.598	12631
920.708	12730
920.818	12665
920.928	12589
921.038	12791
921.148	12772
921.258	12429
921.368	12369
921.477	12175
921.587	12224
921.697	12057
921.806	12254
921.916	12171
922.025	11980
922.134	11931
922.244	11802
922.353	11893
922.462	11779
922.571	11798
922.68	11638
922.789	11520
922.898	11551
923.007	11440
923.116	11570
923.224	11539
923.333	11505
923.442	11448
923.55	11387
923.659	11459
923.767	11493
923.876	11353
923.984	11452
924.092	11349
924.201	11402
924.309	11391
924.417	11379
924.525	11311
924.633	11280
924.741	12251
924.849	11174
924.956	11341
925.064	11151
925.172	11029
925.279	11067
925.387	11159
925.494	11147
925.602	11296
925.709	11212
925.816	11037
925.924	11056
926.031	11204
926.138	11181
926.245	11113
926.352	10908
926.459	11147
926.566	11185
926.673	11105
926.779	10908
926.886	10923
926.993	10778
927.099	10740
927.206	10668
927.312	10706
927.419	10847
927.525	10774
927.631	10797
927.737	10615
927.843	10546
927.95	10630
928.056	10588
928.162	10630
928.267	10603
928.373	11204
928.479	10668
928.585	10512
928.69	10481
928.796	10615
928.901	10489
929.007	10386
929.112	10379
929.218	10402
929.323	10398
929.428	10413
929.533	10508
929.638	10337
929.743	10352
929.848	10409
929.953	10299
930.058	10272
930.163	10063
930.267	10135
930.372	10204
930.477	10150
930.581	10299
930.685	10185
930.79	10021
930.894	9975
930.998	10017
931.103	10150
931.207	9831
931.311	9762
931.415	9603
931.519	9401
931.623	9443
