Data from test_V78500241_1557.txt Node
Date: Fri Mar 25 14:44:33 CST 2022
User: usil
Spectrometer: V785-0024
Trigger mode: 0
Integration Time (sec): 4.000000E-1
Scans to average: 1
Nonlinearity correction enabled: false
Boxcar width: 0
Storing dark spectrum: false
XAxis mode: Wavelengths
Number of Pixels in Spectrum: 1024
>>>>>Begin Spectral Data<<<<<
801.071	22466
801.214	22417
801.356	22120
801.499	21972
801.641	21743
801.783	21747
801.926	21781
802.068	21660
802.211	21713
802.353	21614
802.496	21340
802.638	21260
802.78	21233
802.923	21062
803.065	21066
803.208	21070
803.35	21024
803.492	21157
803.635	21211
803.777	21207
803.919	21195
804.061	21447
804.204	21165
804.346	20979
804.488	20895
804.63	21009
804.773	20811
804.915	21051
805.057	21058
805.199	20998
805.341	21184
805.483	21161
805.626	21032
805.768	21020
805.91	21036
806.052	21032
806.194	21089
806.336	21260
806.478	21146
806.62	21020
806.762	21119
806.904	21165
807.046	21458
807.188	21485
807.33	21424
807.472	21348
807.614	21287
807.756	21386
807.898	21233
808.04	21211
808.182	21138
808.324	21329
808.465	21313
808.607	21496
808.749	21557
808.891	21599
809.033	21789
809.174	21633
809.316	21519
809.458	21488
809.6	21416
809.741	21545
809.883	21473
810.025	21542
810.166	21564
810.308	21583
810.45	21561
810.591	21435
810.733	21291
810.875	21340
811.016	21043
811.158	21104
811.299	21317
811.441	21485
811.582	21431
811.724	21142
811.865	21100
812.007	21279
812.148	21252
812.29	21169
812.431	21317
812.573	21572
812.714	21622
812.855	21656
812.997	21800
813.138	21907
813.279	21774
813.421	21667
813.562	21629
813.703	21443
813.845	21348
813.986	21077
814.127	20868
814.268	20853
814.41	20739
814.551	20830
814.692	20838
814.833	20625
814.974	20632
815.115	20678
815.256	20568
815.397	20651
815.539	20682
815.68	20469
815.821	20324
815.962	20537
816.103	20408
816.244	20385
816.385	20278
816.526	20180
816.666	20122
816.807	19902
816.948	20024
817.089	20012
817.23	19974
817.371	19845
817.512	19921
817.653	19822
817.793	19902
817.934	19955
818.075	19986
818.216	19883
818.356	19932
818.497	19753
818.638	19597
818.778	19632
818.919	19487
819.06	19556
819.2	19712
819.341	19769
819.481	19826
819.622	19959
819.762	20153
819.903	20130
820.043	19947
820.184	19947
820.324	19902
820.465	19894
820.605	19849
820.746	19982
820.886	19852
821.026	19814
821.167	19788
821.307	19986
821.447	19864
821.588	19708
821.728	19556
821.868	19441
822.008	19293
822.149	19308
822.289	19320
822.429	19057
822.569	18951
822.709	18920
822.849	18897
822.99	18757
823.13	18852
823.27	18597
823.41	18551
823.55	18536
823.69	18528
823.83	18601
823.97	18570
824.11	18323
824.25	18346
824.389	18232
824.529	18365
824.669	18388
824.809	18395
824.949	18494
825.089	18330
825.228	18361
825.368	18254
825.508	18216
825.648	18216
825.787	18235
825.927	18136
826.067	18129
826.206	18019
826.346	18155
826.485	18072
826.625	18079
826.765	18239
826.904	18129
827.044	17923
827.183	17805
827.323	17771
827.462	17805
827.601	17790
827.741	17847
827.88	17843
828.02	17748
828.159	17863
828.298	17897
828.437	17851
828.577	17737
828.716	17996
828.855	17817
828.994	17463
829.134	17524
829.273	17570
829.412	17436
829.551	17528
829.69	17440
829.829	17577
829.968	17687
830.107	17532
830.246	17596
830.385	17493
830.524	17334
830.663	17299
830.802	17402
830.941	17117
831.08	17128
831.219	17231
831.357	17235
831.496	17486
831.635	17052
831.774	17048
831.913	17136
832.051	16934
832.19	17006
832.329	16980
832.467	16885
832.606	16824
832.744	16820
832.883	16820
833.022	16725
833.16	16919
833.299	16949
833.437	16771
833.576	16915
833.714	16869
833.852	16915
833.991	16919
834.129	16885
834.267	17033
834.406	16892
834.544	16885
834.682	17052
834.821	16919
834.959	17037
835.097	16919
835.235	16972
835.373	16847
835.511	16869
835.65	16740
835.788	16774
835.926	16603
836.064	16523
836.202	16565
836.34	16790
836.478	16835
836.615	16774
836.753	16771
836.891	16854
837.029	16759
837.167	16698
837.305	16634
837.443	16649
837.58	16592
837.718	16668
837.856	16584
837.993	16634
838.131	16615
838.269	16622
838.406	16538
838.544	16558
838.681	16371
838.819	16333
838.956	16211
839.094	16188
839.231	16253
839.369	16314
839.506	16577
839.643	16409
839.781	16181
839.918	16097
840.055	16181
840.193	16128
840.33	16097
840.467	16162
840.604	16185
840.742	16379
840.879	16082
841.016	16059
841.153	16051
841.29	16265
841.427	16234
841.564	16261
841.701	16196
841.838	16051
841.975	15987
842.112	16090
842.249	16029
842.385	15903
842.522	16185
842.659	16029
842.796	15854
842.933	15937
843.069	15895
843.206	15884
843.343	16071
843.479	15907
843.616	16017
843.752	15637
843.889	15774
844.025	15937
844.162	15675
844.298	15835
844.435	15766
844.571	15698
844.708	15800
844.844	15987
844.98	15956
845.117	15861
845.253	15656
845.389	15713
845.525	15770
845.661	15648
845.798	15625
845.934	15698
846.07	15762
846.206	15762
846.342	15762
846.478	15633
846.614	15431
846.75	15176
846.886	15321
847.022	15264
847.158	15348
847.294	15348
847.429	15306
847.565	15340
847.701	15538
847.837	15203
847.972	15043
848.108	15146
848.244	15184
848.379	15058
848.515	14838
848.65	14819
848.786	14937
848.921	14963
849.057	14982
849.192	14914
849.328	14925
849.463	14960
849.598	14823
849.734	14880
849.869	14746
850.004	14697
850.14	14701
850.275	14636
850.41	14579
850.545	14697
850.68	14598
850.815	14693
850.95	14610
851.085	14906
851.22	14788
851.355	14606
851.49	14556
851.625	14629
851.76	14610
851.895	14518
852.03	14495
852.165	14659
852.299	14708
852.434	14712
852.569	14731
852.703	14708
852.838	14724
852.973	14720
853.107	14823
853.242	14720
853.376	14511
853.511	14480
853.645	14541
853.78	14625
853.914	14488
854.048	14389
854.183	14370
854.317	14530
854.451	14697
854.585	14438
854.72	14492
854.854	14575
854.988	14545
855.122	14526
855.256	14339
855.39	14571
855.524	14590
855.658	14530
855.792	14617
855.926	14511
856.06	14590
856.194	14693
856.327	14541
856.461	14431
856.595	14533
856.729	14434
856.862	14575
856.996	14533
857.13	14621
857.263	14773
857.397	14648
857.53	14518
857.664	14594
857.797	14644
857.931	14674
858.064	14663
858.197	14678
858.331	14549
858.464	14511
858.597	14484
858.731	14587
858.864	14602
858.997	14568
859.13	14499
859.263	14571
859.396	14651
859.529	14492
859.662	14522
859.795	14434
859.928	14651
860.061	14708
860.194	14746
860.327	14579
860.46	14545
860.592	14720
860.725	14678
860.858	14636
860.99	14575
861.123	14507
861.256	14438
861.388	14644
861.521	15142
861.653	14427
861.786	14396
861.918	14457
862.05	14473
862.183	14518
862.315	14617
862.447	14537
862.58	14583
862.712	14294
862.844	14244
862.976	14385
863.108	14412
863.24	14777
863.372	14237
863.504	14347
863.636	14275
863.768	14423
863.9	14332
864.032	14351
864.164	14301
864.296	14347
864.428	14537
864.559	14503
864.691	14438
864.823	14381
864.954	14339
865.086	14446
865.217	14313
865.349	14221
865.48	14240
865.612	14286
865.743	14419
865.875	14362
866.006	14313
866.137	14248
866.269	14309
866.4	14317
866.531	14278
866.662	14252
866.793	14305
866.924	14358
867.055	14374
867.186	14313
867.317	14248
867.448	14240
867.579	14248
867.71	14290
867.841	14221
867.972	14263
868.103	14339
868.233	14366
868.364	14248
868.495	14423
868.625	14526
868.756	14655
868.886	14473
869.017	14613
869.147	14762
869.278	14735
869.408	14575
869.539	14594
869.669	14587
869.799	14617
869.929	14705
870.06	14655
870.19	14857
870.32	14861
870.45	14906
870.58	14899
870.71	15001
870.84	15055
870.97	14979
871.1	14937
871.23	15211
871.36	15233
871.489	15108
871.619	15119
871.749	15100
871.879	15157
872.008	15188
872.138	15074
872.267	15047
872.397	15047
872.526	15017
872.656	14986
872.785	15051
872.915	15142
873.044	15291
873.173	15180
873.303	15165
873.432	15329
873.561	15268
873.69	15294
873.819	15230
873.948	15226
874.077	15237
874.206	15233
874.335	15173
874.464	15393
874.593	15496
874.722	15416
874.851	15549
874.979	15481
875.108	15652
875.237	15401
875.365	15496
875.494	15477
875.623	15629
875.751	15576
875.88	15538
876.008	15648
876.136	15755
876.265	16017
876.393	16086
876.521	15998
876.65	16017
876.778	15850
876.906	15819
877.034	15808
877.162	16048
877.29	15785
877.418	15960
877.546	16013
877.674	15846
877.802	15960
877.93	15876
878.058	15831
878.185	15800
878.313	15865
878.441	15975
878.568	15785
878.696	15842
878.824	15865
878.951	16036
879.079	16173
879.206	16314
879.333	16143
879.461	16025
879.588	16181
879.715	16162
879.842	16261
879.97	16150
880.097	15778
880.224	15732
880.351	15907
880.478	15884
880.605	15827
880.732	15831
880.859	16040
880.986	15899
881.112	15835
881.239	15698
881.366	15561
881.493	15526
881.619	15450
881.746	15485
881.872	15435
881.999	15485
882.125	15469
882.252	15447
882.378	15443
882.505	15564
882.631	15374
882.757	15294
882.883	15264
883.01	15203
883.136	15272
883.262	15104
883.388	15108
883.514	15348
883.64	15332
883.766	15226
883.892	14998
884.018	15127
884.143	15203
884.269	15351
884.395	15051
884.52	14967
884.646	15039
884.772	14861
884.897	14944
885.023	15081
885.148	15039
885.274	15081
885.399	15013
885.524	15028
885.65	14975
885.775	14910
885.9	14902
886.025	15066
886.15	15100
886.275	14914
886.4	14857
886.525	14937
886.65	14956
886.775	14876
886.9	15089
887.025	15154
887.149	14979
887.274	14811
887.399	14678
887.523	14834
887.648	14743
887.773	14670
887.897	14880
888.021	14762
888.146	14754
888.27	14933
888.395	14876
888.519	14823
888.643	14762
888.767	14845
888.891	14686
889.015	14689
889.139	14583
889.263	14575
889.387	14735
889.511	14830
889.635	14811
889.759	14648
889.883	14644
890.006	14667
890.13	14648
890.254	14636
890.377	14564
890.501	14518
890.624	14400
890.748	14568
890.871	14370
890.995	14339
891.118	14286
891.241	14298
891.364	14309
891.488	14442
891.611	14358
891.734	14370
891.857	14404
891.98	14355
892.103	14450
892.226	14339
892.349	14259
892.471	14233
892.594	14286
892.717	14328
892.839	14305
892.962	14317
893.085	14317
893.207	14298
893.33	14142
893.452	14290
893.575	14442
893.697	14301
893.819	14514
893.941	14522
894.064	14499
894.186	14256
894.308	14210
894.43	14362
894.552	14556
894.674	14465
894.796	14347
894.918	14343
895.04	14317
895.161	14484
895.283	14511
895.405	14343
895.526	14362
895.648	14419
895.769	14552
895.891	14499
896.012	14541
896.134	14495
896.255	14511
896.376	14476
896.498	14495
896.619	14552
896.74	14632
896.861	14556
896.982	14857
897.103	14933
897.224	14804
897.345	14750
897.466	14697
897.587	14735
897.708	14864
897.828	14872
897.949	14796
898.07	14716
898.19	14697
898.311	14906
898.431	14705
898.552	14842
898.672	14994
898.792	14868
898.913	14864
899.033	14762
899.153	14727
899.273	14610
899.393	14708
899.513	14739
899.633	14720
899.753	14743
899.873	14689
899.993	14853
900.113	14678
900.232	14750
900.352	14724
900.472	14621
900.591	14469
900.711	14484
900.83	14518
900.95	14522
901.069	14663
901.189	14503
901.308	14332
901.427	14145
901.546	14233
901.665	14271
901.784	14278
901.904	14069
902.023	14024
902.141	13974
902.26	13833
902.379	13906
902.498	13814
902.617	13791
902.735	13837
902.854	13837
902.973	13704
903.091	13548
903.21	13537
903.328	13525
903.446	13502
903.565	13407
903.683	13377
903.801	13266
903.919	13434
904.038	13293
904.156	13149
904.274	13194
904.392	13247
904.51	13160
904.627	13088
904.745	13152
904.863	13198
904.981	13065
905.098	12837
905.216	12905
905.334	12935
905.451	12875
905.569	12901
905.686	12947
905.803	12905
905.921	12662
906.038	12886
906.155	12757
906.272	12563
906.389	12616
906.506	12525
906.623	12456
906.74	12445
906.857	12262
906.974	12380
907.091	12467
907.208	12547
907.324	12490
907.441	12395
907.557	12270
907.674	12167
907.79	12194
907.907	12038
908.023	12159
908.139	12258
908.256	12133
908.372	12155
908.488	12030
908.604	12019
908.72	11920
908.836	11916
908.952	11942
909.068	12026
909.184	12041
909.3	11931
909.415	11969
909.531	12015
909.647	11722
909.762	11695
909.878	11638
909.993	11786
910.108	11649
910.224	11646
910.339	11733
910.454	11638
910.57	11566
910.685	11649
910.8	11790
910.915	11745
911.03	11619
911.145	11417
911.259	11425
911.374	11425
911.489	11410
911.604	11334
911.718	11132
911.833	11246
911.947	11048
912.062	11052
912.176	11201
912.291	11090
912.405	11094
912.519	11322
912.633	11376
912.748	11178
912.862	11174
912.976	10995
913.09	10953
913.204	11033
913.318	11045
913.431	11204
913.545	11102
913.659	11189
913.772	11105
913.886	10930
914	10858
914.113	11045
914.226	11006
914.34	11041
914.453	10812
914.566	10980
914.68	10908
914.793	10790
914.906	10641
915.019	10615
915.132	10611
915.245	10611
915.358	10698
915.47	10706
915.583	10714
915.696	10687
915.809	10805
915.921	10911
916.034	10637
916.146	10607
916.259	10561
916.371	10729
916.483	10641
916.595	10569
916.708	10668
916.82	10626
916.932	10550
917.044	10565
917.156	10615
917.268	10443
917.38	10470
917.491	10371
917.603	10459
917.715	10603
917.826	10561
917.938	10493
918.049	10436
918.161	10459
918.272	10611
918.384	10607
918.495	10527
918.606	10329
918.717	10295
918.828	10390
918.939	10325
919.05	10306
919.161	10337
919.272	10173
919.383	10211
919.494	10421
919.604	10615
919.715	10318
919.826	10291
919.936	10322
920.047	10466
920.157	10428
920.267	10512
920.378	10432
920.488	10459
920.598	10630
920.708	10691
920.818	10599
920.928	10561
921.038	10782
921.148	10710
921.258	10382
921.368	10337
921.477	10268
921.587	10116
921.697	10021
921.806	10291
921.916	10112
922.025	9937
922.134	9922
922.244	9922
922.353	9991
922.462	9774
922.571	9759
922.68	9698
922.789	9507
922.898	9553
923.007	9572
923.116	9686
923.224	9523
923.333	9584
923.442	9507
923.55	9462
923.659	9538
923.767	9549
923.876	9542
923.984	9545
924.092	9401
924.201	9492
924.309	9447
924.417	9519
924.525	9416
924.633	9458
924.741	10329
924.849	9249
924.956	9370
925.064	9298
925.172	9154
925.279	9226
925.387	9264
925.494	9317
925.602	9393
925.709	9321
925.816	9207
925.924	9226
926.031	9363
926.138	9268
926.245	9332
926.352	9089
926.459	9329
926.566	9374
926.673	9207
926.779	9146
926.886	9116
926.993	9039
927.099	8872
927.206	8895
927.312	9005
927.419	9043
927.525	9013
927.631	9032
927.737	8963
927.843	8883
927.95	8800
928.056	8895
928.162	8948
928.267	8941
928.373	9408
928.479	9047
928.585	8667
928.69	8883
928.796	8921
928.901	8864
929.007	8659
929.112	8838
929.218	8842
929.323	8712
929.428	8743
929.533	8849
929.638	8629
929.743	8663
929.848	8720
929.953	8788
930.058	8640
930.163	8488
930.267	8518
930.372	8644
930.477	8461
930.581	8651
930.685	8598
930.79	8461
930.894	8446
930.998	8305
931.103	8579
931.207	8229
931.311	8206
931.415	8134
931.519	7906
931.623	7932
