Data from test_V78500241_2688.txt Node
Date: Fri Mar 25 14:52:25 CST 2022
User: usil
Spectrometer: V785-0024
Trigger mode: 0
Integration Time (sec): 4.000000E-1
Scans to average: 1
Nonlinearity correction enabled: false
Boxcar width: 0
Storing dark spectrum: false
XAxis mode: Wavelengths
Number of Pixels in Spectrum: 1024
>>>>>Begin Spectral Data<<<<<
801.071	22078
801.214	21831
801.356	21580
801.499	21496
801.641	21405
801.783	21344
801.926	21378
802.068	21233
802.211	21294
802.353	21142
802.496	20895
802.638	20807
802.78	20914
802.923	20750
803.065	20716
803.208	20773
803.35	20716
803.492	20845
803.635	20830
803.777	20659
803.919	20788
804.061	21039
804.204	20773
804.346	20689
804.488	20590
804.63	20724
804.773	20583
804.915	20644
805.057	20678
805.199	20640
805.341	20670
805.483	20864
805.626	20686
805.768	20640
805.91	20556
806.052	20663
806.194	20480
806.336	20788
806.478	20560
806.62	20579
806.762	20629
806.904	20727
807.046	21028
807.188	20914
807.33	20910
807.472	21017
807.614	20769
807.756	20861
807.898	20686
808.04	20552
808.182	20602
808.324	20701
808.465	20758
808.607	20933
808.749	20967
808.891	20975
809.033	21173
809.174	20952
809.316	20918
809.458	20998
809.6	20963
809.741	21104
809.883	21074
810.025	21256
810.166	21085
810.308	21024
810.45	21100
810.591	20960
810.733	20792
810.875	20686
811.016	20693
811.158	20625
811.299	20838
811.441	20895
811.582	20948
811.724	20788
811.865	20632
812.007	20716
812.148	20632
812.29	20765
812.431	20876
812.573	20982
812.714	21119
812.855	21344
812.997	21363
813.138	21439
813.279	21287
813.421	21260
813.562	21066
813.703	20929
813.845	20765
813.986	20457
814.127	20469
814.268	20389
814.41	20408
814.551	20229
814.692	20290
814.833	20180
814.974	20145
815.115	20199
815.256	20183
815.397	20062
815.539	20054
815.68	19909
815.821	19856
815.962	20050
816.103	19913
816.244	19799
816.385	19849
816.526	19723
816.666	19491
816.807	19388
816.948	19537
817.089	19594
817.23	19354
817.371	19434
817.512	19403
817.653	19354
817.793	19270
817.934	19422
818.075	19468
818.216	19331
818.356	19324
818.497	19236
818.638	19076
818.778	19034
818.919	19023
819.06	19194
819.2	19206
819.341	19346
819.481	19232
819.622	19460
819.762	19723
819.903	19514
820.043	19487
820.184	19480
820.324	19400
820.465	19403
820.605	19403
820.746	19304
820.886	19251
821.026	19312
821.167	19331
821.307	19312
821.447	19407
821.588	19179
821.728	19110
821.868	18958
822.008	18939
822.149	18798
822.289	18745
822.429	18528
822.569	18426
822.709	18601
822.849	18258
822.99	18247
823.13	18243
823.27	18201
823.41	18106
823.55	18007
823.69	17969
823.83	18167
823.97	17984
824.11	17817
824.25	17821
824.389	17790
824.529	18019
824.669	17832
824.809	17897
824.949	17916
825.089	17927
825.228	17786
825.368	17779
825.508	17707
825.648	17672
825.787	17764
825.927	17760
826.067	17714
826.206	17646
826.346	17672
826.485	17748
826.625	17642
826.765	17741
826.904	17657
827.044	17463
827.183	17490
827.323	17235
827.462	17288
827.601	17296
827.741	17345
827.88	17471
828.02	17231
828.159	17307
828.298	17364
828.437	17406
828.577	17193
828.716	17433
828.855	17235
828.994	17140
829.134	17151
829.273	17200
829.412	17056
829.551	17041
829.69	17128
829.829	17121
829.968	17136
830.107	17136
830.246	17174
830.385	16991
830.524	17022
830.663	16949
830.802	16896
830.941	16702
831.08	16740
831.219	16748
831.357	16713
831.496	17006
831.635	16664
831.774	16645
831.913	16542
832.051	16493
832.19	16538
832.329	16580
832.467	16432
832.606	16291
832.744	16413
832.883	16440
833.022	16379
833.16	16443
833.299	16500
833.437	16542
833.576	16474
833.714	16481
833.852	16440
833.991	16603
834.129	16584
834.267	16565
834.406	16443
834.544	16649
834.682	16558
834.821	16432
834.959	16546
835.097	16413
835.235	16550
835.373	16573
835.511	16516
835.65	16390
835.788	16451
835.926	16329
836.064	16265
836.202	16272
836.34	16424
836.478	16489
836.615	16402
836.753	16409
836.891	16459
837.029	16417
837.167	16344
837.305	16352
837.443	16261
837.58	16253
837.718	16409
837.856	16303
837.993	16287
838.131	16276
838.269	16105
838.406	16143
838.544	16158
838.681	16021
838.819	15915
838.956	15778
839.094	15724
839.231	15956
839.369	15960
839.506	16051
839.643	15994
839.781	15861
839.918	15778
840.055	15778
840.193	15808
840.33	15698
840.467	15827
840.604	15831
840.742	16067
840.879	15774
841.016	15751
841.153	15709
841.29	15972
841.427	15857
841.564	15876
841.701	16010
841.838	15724
841.975	15717
842.112	15709
842.249	15644
842.385	15591
842.522	15816
842.659	15686
842.796	15679
842.933	15622
843.069	15667
843.206	15561
843.343	15648
843.479	15652
843.616	15660
843.752	15382
843.889	15466
844.025	15500
844.162	15294
844.298	15492
844.435	15374
844.571	15275
844.708	15416
844.844	15530
844.98	15603
845.117	15420
845.253	15374
845.389	15260
845.525	15424
845.661	15367
845.798	15211
845.934	15348
846.07	15135
846.206	15184
846.342	15348
846.478	15138
846.614	15036
846.75	15001
846.886	14899
847.022	15112
847.158	14979
847.294	14979
847.429	15001
847.565	14963
847.701	15211
847.837	14716
847.972	14667
848.108	14849
848.244	14830
848.379	14644
848.515	14545
848.65	14575
848.786	14617
848.921	14552
849.057	14670
849.192	14701
849.328	14545
849.463	14476
849.598	14590
849.734	14507
849.869	14476
850.004	14423
850.14	14305
850.275	14320
850.41	14301
850.545	14317
850.68	14305
850.815	14396
850.95	14415
851.085	14518
851.22	14396
851.355	14362
851.49	14393
851.625	14347
851.76	14320
851.895	14244
852.03	14218
852.165	14301
852.299	14370
852.434	14480
852.569	14347
852.703	14263
852.838	14575
852.973	14514
853.107	14503
853.242	14355
853.376	14286
853.511	14134
853.645	14145
853.78	14370
853.914	14248
854.048	14172
854.183	14142
854.317	14267
854.451	14305
854.585	14168
854.72	14233
854.854	14240
854.988	14119
855.122	14145
855.256	14145
855.39	14100
855.524	14180
855.658	14195
855.792	14195
855.926	14195
856.06	14282
856.194	14301
856.327	14248
856.461	14126
856.595	14172
856.729	14084
856.862	14267
856.996	14244
857.13	14313
857.263	14324
857.397	14347
857.53	14206
857.664	14263
857.797	14336
857.931	14298
858.064	14237
858.197	14328
858.331	14199
858.464	14138
858.597	14183
858.731	14286
858.864	14237
858.997	14240
859.13	14305
859.263	14180
859.396	14294
859.529	14317
859.662	14233
859.795	14130
859.928	14233
860.061	14431
860.194	14320
860.327	14294
860.46	14145
860.592	14309
860.725	14339
860.858	14355
860.99	14164
861.123	14123
861.256	14164
861.388	14157
861.521	14861
861.653	14035
861.786	13993
861.918	14039
862.05	14183
862.183	14119
862.315	14172
862.447	14161
862.58	14138
862.712	14008
862.844	13917
862.976	14123
863.108	14069
863.24	14473
863.372	13955
863.504	13879
863.636	13963
863.768	14031
863.9	14027
864.032	14001
864.164	13928
864.296	14077
864.428	14123
864.559	14123
864.691	14134
864.823	14119
864.954	14008
865.086	14043
865.217	13909
865.349	13875
865.48	14077
865.612	13978
865.743	14054
865.875	13986
866.006	13940
866.137	14001
866.269	13928
866.4	13989
866.531	13967
866.662	13841
866.793	13902
866.924	13913
867.055	13978
867.186	14005
867.317	13932
867.448	13864
867.579	13883
867.71	13803
867.841	13890
867.972	14050
868.103	13951
868.233	13970
868.364	14084
868.495	14058
868.625	14259
868.756	14305
868.886	14119
869.017	14206
869.147	14324
869.278	14408
869.408	14240
869.539	14187
869.669	14294
869.799	14305
869.929	14301
870.06	14271
870.19	14530
870.32	14579
870.45	14587
870.58	14701
870.71	14724
870.84	14629
870.97	14621
871.1	14678
871.23	14895
871.36	14731
871.489	14629
871.619	14857
871.749	14902
871.879	14857
872.008	14941
872.138	14872
872.267	14769
872.397	14720
872.526	14629
872.656	14610
872.785	14701
872.915	14750
873.044	14971
873.173	14796
873.303	14963
873.432	14883
873.561	15066
873.69	14929
873.819	14990
873.948	15020
874.077	14944
874.206	14906
874.335	14925
874.464	14960
874.593	15214
874.722	15165
874.851	15233
874.979	15252
875.108	15176
875.237	15169
875.365	15116
875.494	15161
875.623	15241
875.751	15169
875.88	15176
876.008	15393
876.136	15374
876.265	15671
876.393	15717
876.521	15641
876.65	15663
876.778	15637
876.906	15595
877.034	15584
877.162	15538
877.29	15564
877.418	15622
877.546	15652
877.674	15610
877.802	15622
877.93	15622
878.058	15507
878.185	15488
878.313	15698
878.441	15644
878.568	15485
878.696	15614
878.824	15713
878.951	15701
879.079	15793
879.206	15880
879.333	15842
879.461	15641
879.588	15652
879.715	15819
879.842	15850
879.97	15713
880.097	15447
880.224	15477
880.351	15420
880.478	15447
880.605	15523
880.732	15507
880.859	15660
880.986	15587
881.112	15576
881.239	15302
881.366	15252
881.493	15119
881.619	15036
881.746	15131
881.872	15131
881.999	15154
882.125	14994
882.252	15131
882.378	15104
882.505	15279
882.631	15077
882.757	14960
882.883	14979
883.01	14963
883.136	14842
883.262	14857
883.388	14804
883.514	14891
883.64	15032
883.766	14868
883.892	14701
884.018	14701
884.143	14929
884.269	15058
884.395	14705
884.52	14537
884.646	14629
884.772	14621
884.897	14465
885.023	14632
885.148	14796
885.274	14796
885.399	14727
885.524	14625
885.65	14689
885.775	14651
885.9	14610
886.025	14792
886.15	14754
886.275	14636
886.4	14499
886.525	14583
886.65	14621
886.775	14598
886.9	14792
887.025	14834
887.149	14708
887.274	14465
887.399	14454
887.523	14434
887.648	14442
887.773	14404
887.897	14678
888.021	14446
888.146	14400
888.27	14575
888.395	14583
888.519	14484
888.643	14484
888.767	14514
888.891	14442
889.015	14271
889.139	14370
889.263	14187
889.387	14396
889.511	14590
889.635	14484
889.759	14336
889.883	14282
890.006	14355
890.13	14446
890.254	14244
890.377	14290
890.501	14153
890.624	14084
890.748	14149
890.871	14084
890.995	13947
891.118	14001
891.241	13978
891.364	14058
891.488	14119
891.611	14035
891.734	14077
891.857	14008
891.98	14062
892.103	14134
892.226	13997
892.349	13967
892.471	13906
892.594	13993
892.717	14100
892.839	14043
892.962	14103
893.085	14126
893.207	14054
893.33	13951
893.452	13982
893.575	14115
893.697	14024
893.819	14199
893.941	14199
894.064	14157
894.186	14069
894.308	13989
894.43	14123
894.552	14229
894.674	14142
894.796	13944
894.918	14062
895.04	14126
895.161	14157
895.283	14210
895.405	14130
895.526	14149
895.648	14164
895.769	14218
895.891	14278
896.012	14229
896.134	14123
896.255	14237
896.376	14221
896.498	14252
896.619	14225
896.74	14237
896.861	14218
896.982	14526
897.103	14739
897.224	14522
897.345	14511
897.466	14438
897.587	14503
897.708	14610
897.828	14545
897.949	14465
898.07	14377
898.19	14412
898.311	14587
898.431	14549
898.552	14549
898.672	14667
898.792	14625
898.913	14602
899.033	14518
899.153	14389
899.273	14309
899.393	14427
899.513	14442
899.633	14351
899.753	14396
899.873	14358
899.993	14415
900.113	14381
900.232	14374
900.352	14328
900.472	14362
900.591	14157
900.711	14374
900.83	14157
900.95	14461
901.069	14358
901.189	14199
901.308	13978
901.427	13890
901.546	14020
901.665	13978
901.784	13970
901.904	13845
902.023	13826
902.141	13643
902.26	13510
902.379	13597
902.498	13438
902.617	13491
902.735	13537
902.854	13529
902.973	13464
903.091	13247
903.21	13171
903.328	13221
903.446	13213
903.565	13103
903.683	13057
903.801	13050
903.919	13046
904.038	13038
904.156	12890
904.274	12993
904.392	12791
904.51	12905
904.627	12935
904.745	12958
904.863	12981
904.981	12772
905.098	12563
905.216	12604
905.334	12627
905.451	12646
905.569	12616
905.686	12673
905.803	12551
905.921	12410
906.038	12483
906.155	12414
906.272	12323
906.389	12330
906.506	12292
906.623	12232
906.74	12323
906.857	12117
906.974	12072
907.091	12285
907.208	12311
907.324	12281
907.441	12102
907.557	11942
907.674	11950
907.79	11885
907.907	11927
908.023	12076
908.139	11935
908.256	11836
908.372	11859
908.488	11790
908.604	11703
908.72	11703
908.836	11745
908.952	11592
909.068	11665
909.184	11824
909.3	11691
909.415	11775
909.531	11786
909.647	11558
909.762	11459
909.878	11425
909.993	11528
910.108	11379
910.224	11543
910.339	11474
910.454	11353
910.57	11326
910.685	11273
910.8	11528
910.915	11436
911.03	11421
911.145	11193
911.259	11193
911.374	11181
911.489	11143
911.604	11056
911.718	10995
911.833	10980
911.947	10904
912.062	10809
912.176	10889
912.291	10904
912.405	10999
912.519	11102
912.633	11143
912.748	11056
912.862	10911
912.976	10820
913.09	10675
913.204	10797
913.318	10771
913.431	10896
913.545	10946
913.659	10866
913.772	10786
913.886	10755
914	10626
914.113	10877
914.226	10843
914.34	10812
914.453	10668
914.566	10694
914.68	10694
914.793	10599
914.906	10421
915.019	10424
915.132	10493
915.245	10440
915.358	10436
915.47	10428
915.583	10485
915.696	10565
915.809	10573
915.921	10630
916.034	10493
916.146	10371
916.259	10333
916.371	10554
916.483	10459
916.595	10348
916.708	10409
916.82	10394
916.932	10428
917.044	10360
917.156	10382
917.268	10265
917.38	10291
917.491	10287
917.603	10268
917.715	10409
917.826	10409
917.938	10257
918.049	10154
918.161	10253
918.272	10394
918.384	10447
918.495	10246
918.606	10173
918.717	10071
918.828	10173
918.939	10177
919.05	10139
919.161	10185
919.272	9915
919.383	10021
919.494	10230
919.604	10375
919.715	10272
919.826	10055
919.936	10135
920.047	10227
920.157	10219
920.267	10348
920.378	10188
920.488	10158
920.598	10447
920.708	10516
920.818	10405
920.928	10303
921.038	10554
921.148	10462
921.258	10196
921.368	10135
921.477	10059
921.587	10013
921.697	9964
921.806	10147
921.916	9922
922.025	9804
922.134	9732
922.244	9778
922.353	9842
922.462	9614
922.571	9587
922.68	9511
922.789	9458
922.898	9496
923.007	9351
923.116	9447
923.224	9450
923.333	9351
923.442	9294
923.55	9180
923.659	9329
923.767	9477
923.876	9237
923.984	9363
924.092	9272
924.201	9214
924.309	9230
924.417	9264
924.525	9211
924.633	9279
924.741	10150
924.849	9085
924.956	9264
925.064	9009
925.172	8975
925.279	9070
925.387	9100
925.494	9077
925.602	9233
925.709	9173
925.816	9077
925.924	9142
926.031	9207
926.138	9085
926.245	9199
926.352	9039
926.459	9173
926.566	9195
926.673	9043
926.779	9005
926.886	8918
926.993	8811
927.099	8705
927.206	8796
927.312	8712
927.419	8849
927.525	8758
927.631	8838
927.737	8697
927.843	8735
927.95	8606
928.056	8621
928.162	8712
928.267	8727
928.373	9344
928.479	8788
928.585	8590
928.69	8651
928.796	8769
928.901	8636
929.007	8446
929.112	8610
929.218	8594
929.323	8526
929.428	8488
929.533	8587
929.638	8461
929.743	8511
929.848	8568
929.953	8526
930.058	8476
930.163	8271
930.267	8309
930.372	8393
930.477	8244
930.581	8518
930.685	8412
930.79	8252
930.894	8221
930.998	8279
931.103	8313
931.207	8016
931.311	7955
931.415	7894
931.519	7761
931.623	7693
