Data from test_V78500241_120.txt Node
Date: Fri Mar 25 14:34:33 CST 2022
User: usil
Spectrometer: V785-0024
Trigger mode: 0
Integration Time (sec): 4.000000E-1
Scans to average: 1
Nonlinearity correction enabled: false
Boxcar width: 0
Storing dark spectrum: false
XAxis mode: Wavelengths
Number of Pixels in Spectrum: 1024
>>>>>Begin Spectral Data<<<<<
801.071	29920
801.214	29961
801.356	29528
801.499	29558
801.641	29414
801.783	29246
801.926	29436
802.068	29208
802.211	29208
802.353	29223
802.496	29204
802.638	29041
802.78	28987
802.923	29014
803.065	28896
803.208	28984
803.35	28949
803.492	29185
803.635	29197
803.777	29060
803.919	29239
804.061	29547
804.204	29307
804.346	29159
804.488	29223
804.63	29159
804.773	29143
804.915	29379
805.057	29535
805.199	29353
805.341	29566
805.483	29718
805.626	29737
805.768	29794
805.91	29920
806.052	29977
806.194	29859
806.336	30353
806.478	30178
806.62	30330
806.762	30616
806.904	30939
807.046	31365
807.188	31578
807.33	31791
807.472	32400
807.614	32682
807.756	33397
807.898	34169
808.04	35132
808.182	36806
808.324	38807
808.465	40729
808.607	43316
808.749	45523
808.891	46455
809.033	46656
809.174	45184
809.316	43411
809.458	40790
809.6	38259
809.741	36437
809.883	35006
810.025	33892
810.166	33127
810.308	32659
810.45	32096
810.591	31772
810.733	31301
810.875	30840
811.016	30791
811.158	30665
811.299	30604
811.441	30532
811.582	30441
811.724	30110
811.865	30121
812.007	30216
812.148	30007
812.29	30018
812.431	30117
812.573	30296
812.714	30247
812.855	30315
812.997	30376
813.138	30452
813.279	30311
813.421	30372
813.562	30038
813.703	29809
813.845	29821
813.986	29600
814.127	29296
814.268	29086
814.41	29086
814.551	29113
814.692	29155
814.833	28946
814.974	28987
815.115	28987
815.256	28755
815.397	28847
815.539	28835
815.68	28679
815.821	28687
815.962	28649
816.103	28603
816.244	28432
816.385	28459
816.526	28379
816.666	28112
816.807	28010
816.948	28032
817.089	28090
817.23	28048
817.371	27941
817.512	27914
817.653	27739
817.793	27838
817.934	27876
818.075	28070
818.216	27983
818.356	27857
818.497	27690
818.638	27564
818.778	27568
818.919	27553
819.06	27739
819.2	27694
819.341	27865
819.481	27736
819.622	28013
819.762	28139
819.903	28036
820.043	27884
820.184	27751
820.324	27759
820.465	27926
820.605	27755
820.746	27663
820.886	27610
821.026	27774
821.167	27728
821.307	27762
821.447	27576
821.588	27401
821.728	27317
821.868	27268
822.008	27055
822.149	27005
822.289	27119
822.429	26667
822.569	26686
822.709	26762
822.849	26457
822.99	26537
823.13	26362
823.27	26332
823.41	26248
823.55	26324
823.69	26172
823.83	26244
823.97	26309
824.11	25997
824.25	25925
824.389	26096
824.529	26069
824.669	25852
824.809	26153
824.949	26062
825.089	26062
825.228	26046
825.368	25902
825.508	25833
825.648	25837
825.787	25841
825.927	25772
826.067	25776
826.206	25852
826.346	25784
826.485	25917
826.625	25871
826.765	25974
826.904	25765
827.044	25613
827.183	25533
827.323	25403
827.462	25521
827.601	25441
827.741	25422
827.88	25502
828.02	25396
828.159	25491
828.298	25392
828.437	25487
828.577	25377
828.716	25544
828.855	25274
828.994	25110
829.134	25137
829.273	25091
829.412	25164
829.551	24996
829.69	25156
829.829	24928
829.968	25145
830.107	25217
830.246	25145
830.385	25038
830.524	25050
830.663	24878
830.802	24783
830.941	24646
831.08	24547
831.219	24741
831.357	24661
831.496	24795
831.635	24745
831.774	24669
831.913	24521
832.051	24429
832.19	24414
832.329	24418
832.467	24445
832.606	24433
832.744	24445
832.883	24456
833.022	24544
833.16	24604
833.299	24650
833.437	24719
833.576	24840
833.714	24973
833.852	25099
833.991	25171
834.129	25198
834.267	25316
834.406	25217
834.544	25114
834.682	25076
834.821	24973
834.959	25027
835.097	24738
835.235	24817
835.373	24604
835.511	24608
835.65	24346
835.788	24304
835.926	24194
836.064	24110
836.202	23996
836.34	24213
836.478	24308
836.615	24125
836.753	24136
836.891	24194
837.029	24091
837.167	24121
837.305	24045
837.443	23908
837.58	23954
837.718	24057
837.856	23935
837.993	23893
838.131	24003
838.269	23764
838.406	23764
838.544	23691
838.681	23577
838.819	23551
838.956	23299
839.094	23242
839.231	23459
839.369	23433
839.506	23726
839.643	23516
839.781	23463
839.918	23220
840.055	23239
840.193	23231
840.33	23204
840.467	23227
840.604	23246
840.742	23478
840.879	23010
841.016	23178
841.153	23155
841.29	23280
841.427	23143
841.564	23216
841.701	23136
841.838	23193
841.975	23193
842.112	23094
842.249	23037
842.385	22984
842.522	23155
842.659	22980
842.796	23056
842.933	23056
843.069	22877
843.206	22972
843.343	23064
843.479	23029
843.616	23121
843.752	22850
843.889	22972
844.025	23086
844.162	22991
844.298	23174
844.435	23117
844.571	23223
844.708	23467
844.844	23863
844.98	24174
845.117	24521
845.253	25266
845.389	26503
845.525	29048
845.661	33161
845.798	37917
845.934	41684
846.07	43209
846.206	42167
846.342	39051
846.478	34188
846.614	29657
846.75	26891
846.886	25263
847.022	24270
847.158	23646
847.294	23162
847.429	22889
847.565	22786
847.701	22885
847.837	22261
847.972	22306
848.108	22226
848.244	22177
848.379	21972
848.515	21854
848.65	21915
848.786	21808
848.921	21884
849.057	21903
849.192	21907
849.328	21850
849.463	21755
849.598	21759
849.734	21622
849.869	21622
850.004	21572
850.14	21595
850.275	21401
850.41	21420
850.545	21359
850.68	21462
850.815	21473
850.95	21428
851.085	21637
851.22	21713
851.355	21340
851.49	21359
851.625	21408
851.76	21378
851.895	21275
852.03	21439
852.165	21439
852.299	21488
852.434	21561
852.569	21587
852.703	21519
852.838	21496
852.973	21583
853.107	21576
853.242	21428
853.376	21420
853.511	21306
853.645	21481
853.78	21526
853.914	21629
854.048	21481
854.183	21492
854.317	21530
854.451	21781
854.585	21401
854.72	21507
854.854	21561
854.988	21488
855.122	21386
855.256	21408
855.39	21405
855.524	21447
855.658	21447
855.792	21382
855.926	21264
856.06	21370
856.194	21374
856.327	21298
856.461	21279
856.595	21146
856.729	21260
856.862	21374
856.996	21146
857.13	21249
857.263	21291
857.397	21287
857.53	21214
857.664	21203
857.797	21279
857.931	21329
858.064	21233
858.197	21275
858.331	21157
858.464	21116
858.597	21108
858.731	21184
858.864	21237
858.997	21100
859.13	21039
859.263	21142
859.396	21176
859.529	21131
859.662	20941
859.795	20868
859.928	21062
860.061	21203
860.194	21287
860.327	21070
860.46	20944
860.592	21032
860.725	21157
860.858	21100
860.99	21032
861.123	20960
861.256	20944
861.388	21157
861.521	21713
861.653	20918
861.786	20883
861.918	20746
862.05	20990
862.183	21036
862.315	21066
862.447	21180
862.58	21249
862.712	20895
862.844	20899
862.976	20807
863.108	20872
863.24	21108
863.372	20648
863.504	20750
863.636	20693
863.768	20785
863.9	20613
864.032	20575
864.164	20712
864.296	20796
864.428	20948
864.559	20701
864.691	20811
864.823	20674
864.954	20727
865.086	20716
865.217	20636
865.349	20549
865.48	20560
865.612	20724
865.743	20689
865.875	20602
866.006	20602
866.137	20644
866.269	20689
866.4	20545
866.531	20503
866.662	20492
866.793	20518
866.924	20488
867.055	20484
867.186	20598
867.317	20514
867.448	20366
867.579	20556
867.71	20415
867.841	20370
867.972	20541
868.103	20678
868.233	20549
868.364	20549
868.495	20609
868.625	20743
868.756	20937
868.886	20663
869.017	20834
869.147	20880
869.278	20864
869.408	20838
869.539	20777
869.669	20834
869.799	20868
869.929	20979
870.06	20880
870.19	21047
870.32	21058
870.45	21199
870.58	21249
870.71	21355
870.84	21340
870.97	21306
871.1	21351
871.23	21542
871.36	21454
871.489	21252
871.619	21363
871.749	21542
871.879	21466
872.008	21762
872.138	21500
872.267	21473
872.397	21431
872.526	21370
872.656	21348
872.785	21447
872.915	21511
873.044	21576
873.173	21682
873.303	21618
873.432	21568
873.561	21800
873.69	21713
873.819	21736
873.948	21846
874.077	21797
874.206	21778
874.335	21675
874.464	21838
874.593	21991
874.722	22017
874.851	22097
874.979	22249
875.108	22253
875.237	22253
875.365	22158
875.494	22242
875.623	22280
875.751	22135
875.88	22409
876.008	22538
876.136	22535
876.265	22809
876.393	22904
876.521	22927
876.65	23029
876.778	22965
876.906	22976
877.034	22881
877.162	22938
877.29	23067
877.418	23159
877.546	23204
877.674	23334
877.802	23493
877.93	23505
878.058	23570
878.185	23653
878.313	23916
878.441	24197
878.568	24323
878.696	24886
878.824	25453
878.951	26161
879.079	27389
879.206	28885
879.333	30186
879.461	31590
879.588	32332
879.715	32324
879.842	31742
879.97	30353
880.097	28896
880.224	27580
880.351	26667
880.478	26210
880.605	25814
880.732	25479
880.859	25453
880.986	25168
881.112	25084
881.239	24894
881.366	24856
881.493	24711
881.619	24471
881.746	24623
881.872	24623
881.999	24616
882.125	24631
882.252	24821
882.378	24620
882.505	24882
882.631	24696
882.757	24597
882.883	24745
883.01	24536
883.136	24441
883.262	24490
883.388	24372
883.514	24502
883.64	24578
883.766	24460
883.892	24254
884.018	24311
884.143	24456
884.269	24521
884.395	24258
884.52	24235
884.646	24186
884.772	24205
884.897	24053
885.023	24209
885.148	24072
885.274	24258
885.399	24152
885.524	23977
885.65	23908
885.775	23794
885.9	23748
886.025	23733
886.15	23478
886.275	23337
886.4	23250
886.525	23258
886.65	22923
886.775	22908
886.9	22968
887.025	23121
887.149	22706
887.274	22630
887.399	22527
887.523	22291
887.648	22360
887.773	22158
887.897	22147
888.021	22192
888.146	22139
888.27	22109
888.395	22051
888.519	22116
888.643	22082
888.767	21918
888.891	21819
889.015	21671
889.139	21701
889.263	21625
889.387	21633
889.511	21789
889.635	21606
889.759	21519
889.883	21424
890.006	21492
890.13	21583
890.254	21272
890.377	21283
890.501	21169
890.624	21146
890.748	21157
890.871	20979
890.995	20979
891.118	20956
891.241	20899
891.364	20853
891.488	20914
891.611	20762
891.734	20804
891.857	20663
891.98	20765
892.103	20811
892.226	20632
892.349	20636
892.471	20503
892.594	20541
892.717	20549
892.839	20492
892.962	20465
893.085	20533
893.207	20454
893.33	20370
893.452	20362
893.575	20438
893.697	20358
893.819	20442
893.941	20583
894.064	20450
894.186	20157
894.308	20115
894.43	20332
894.552	20248
894.674	20282
894.796	20008
894.918	20248
895.04	20092
895.161	20256
895.283	20126
895.405	20084
895.526	20031
895.648	20161
895.769	20107
895.891	20130
896.012	20164
896.134	20065
896.255	20005
896.376	20058
896.498	20065
896.619	20157
896.74	20001
896.861	20005
896.982	20442
897.103	20511
897.224	20328
897.345	20332
897.466	20278
897.587	20229
897.708	20343
897.828	20199
897.949	20130
898.07	20126
898.19	20115
898.311	20309
898.431	20073
898.552	20221
898.672	20240
898.792	20286
898.913	20107
899.033	20119
899.153	19986
899.273	19715
899.393	19879
899.513	19856
899.633	19890
899.753	19951
899.873	19868
899.993	19814
900.113	19822
900.232	19723
900.352	19788
900.472	19696
900.591	19578
900.711	19605
900.83	19624
900.95	19670
901.069	19731
901.189	19396
901.308	19331
901.427	19232
901.546	19225
901.665	19297
901.784	19225
901.904	19137
902.023	18962
902.141	18905
902.26	18688
902.379	18749
902.498	18616
902.617	18582
902.735	18730
902.854	18566
902.973	18547
903.091	18327
903.21	18353
903.328	18342
903.446	18239
903.565	18159
903.683	18159
903.801	17927
903.919	18041
904.038	17996
904.156	17809
904.274	17961
904.392	17828
904.51	17923
904.627	17699
904.745	17904
904.863	17859
904.981	17623
905.098	17387
905.216	17368
905.334	17547
905.451	17452
905.569	17379
905.686	17436
905.803	17436
905.921	17212
906.038	17307
906.155	17155
906.272	17162
906.389	17166
906.506	17048
906.623	16942
906.74	17048
906.857	16927
906.974	16850
907.091	16991
907.208	17075
907.324	17056
907.441	16904
907.557	16767
907.674	16721
907.79	16596
907.907	16634
908.023	16729
908.139	16592
908.256	16504
908.372	16554
908.488	16519
908.604	16341
908.72	16284
908.836	16409
908.952	16375
909.068	16386
909.184	16382
909.3	16295
909.415	16382
909.531	16386
909.647	16143
909.762	16086
909.878	16071
909.993	16109
910.108	15998
910.224	16025
910.339	15968
910.454	15911
910.57	15888
910.685	15785
910.8	16109
910.915	16010
911.03	15819
911.145	15694
911.259	15633
911.374	15690
911.489	15561
911.604	15466
911.718	15473
911.833	15481
911.947	15313
912.062	15279
912.176	15367
912.291	15405
912.405	15389
912.519	15564
912.633	15534
912.748	15401
912.862	15336
912.976	15142
913.09	15116
913.204	15199
913.318	15123
913.431	15233
913.545	15287
913.659	15233
913.772	15214
913.886	15085
914	14982
914.113	15009
914.226	15142
914.34	15112
914.453	14963
914.566	15127
914.68	14895
914.793	14960
914.906	14750
915.019	14602
915.132	14606
915.245	14670
915.358	14781
915.47	14693
915.583	14686
915.696	14861
915.809	14788
915.921	14902
916.034	14659
916.146	14651
916.259	14514
916.371	14632
916.483	14587
916.595	14583
916.708	14590
916.82	14560
916.932	14511
917.044	14434
917.156	14431
917.268	14404
917.38	14419
917.491	14381
917.603	14381
917.715	14377
917.826	14404
917.938	14271
918.049	14126
918.161	14320
918.272	14495
918.384	14259
918.495	14278
918.606	14081
918.717	14065
918.828	14111
918.939	14248
919.05	13906
919.161	14001
919.272	13788
919.383	13830
919.494	14065
919.604	14225
919.715	14065
919.826	13932
919.936	13898
920.047	14092
920.157	14027
920.267	14123
920.378	14111
920.488	14020
920.598	14119
920.708	14191
920.818	14062
920.928	14096
921.038	14248
921.148	14183
921.258	14001
921.368	13807
921.477	13719
921.587	13700
921.697	13559
921.806	13719
921.916	13521
922.025	13476
922.134	13377
922.244	13407
922.353	13365
922.462	13236
922.571	13084
922.68	13072
922.789	12951
922.898	13076
923.007	12977
923.116	13000
923.224	12913
923.333	12966
923.442	12859
923.55	12787
923.659	12947
923.767	12878
923.876	12730
923.984	12856
924.092	12760
924.201	12817
924.309	12817
924.417	12734
924.525	12696
924.633	12677
924.741	13483
924.849	12509
924.956	12654
925.064	12551
925.172	12327
925.279	12410
925.387	12414
925.494	12441
925.602	12551
925.709	12448
925.816	12376
925.924	12445
926.031	12509
926.138	12433
926.245	12441
926.352	12323
926.459	12391
926.566	12403
926.673	12277
926.779	12194
926.886	12144
926.993	11965
927.099	12049
927.206	12026
927.312	11977
927.419	12117
927.525	12011
927.631	12007
927.737	11824
927.843	11878
927.95	11779
928.056	11946
928.162	11779
928.267	12007
928.373	12353
928.479	11840
928.585	11745
928.69	11764
928.796	11824
928.901	11699
929.007	11608
929.112	11676
929.218	11600
929.323	11653
929.428	11570
929.533	11710
929.638	11524
929.743	11516
929.848	11649
929.953	11505
930.058	11425
930.163	11265
930.267	11383
930.372	11383
930.477	11254
930.581	11539
930.685	11303
930.79	11140
930.894	11086
930.998	11128
931.103	11254
931.207	10938
931.311	10942
931.415	10729
931.519	10565
931.623	10573
