Data from test_V78500241_997.txt Node
Date: Fri Mar 25 14:40:39 CST 2022
User: usil
Spectrometer: V785-0024
Trigger mode: 0
Integration Time (sec): 4.000000E-1
Scans to average: 1
Nonlinearity correction enabled: false
Boxcar width: 0
Storing dark spectrum: false
XAxis mode: Wavelengths
Number of Pixels in Spectrum: 1024
>>>>>Begin Spectral Data<<<<<
801.071	23083
801.214	23022
801.356	22710
801.499	22554
801.641	22611
801.783	22390
801.926	22451
802.068	22295
802.211	22325
802.353	22112
802.496	22074
802.638	21953
802.78	21998
802.923	21930
803.065	21762
803.208	21778
803.35	21953
803.492	21934
803.635	22021
803.777	21816
803.919	21922
804.061	22120
804.204	21937
804.346	21755
804.488	21705
804.63	21800
804.773	21648
804.915	21762
805.057	21770
805.199	21675
805.341	21785
805.483	21766
805.626	21861
805.768	21861
805.91	21793
806.052	21838
806.194	21759
806.336	22074
806.478	21972
806.62	21876
806.762	21953
806.904	22017
807.046	22310
807.188	22276
807.33	22261
807.472	22303
807.614	22226
807.756	22474
807.898	22352
808.04	22375
808.182	22478
808.324	22531
808.465	22755
808.607	23170
808.749	23379
808.891	23604
809.033	23733
809.174	23425
809.316	23151
809.458	22930
809.6	22904
809.741	22698
809.883	22660
810.025	22516
810.166	22637
810.308	22443
810.45	22504
810.591	22402
810.733	22238
810.875	22188
811.016	21949
811.158	21983
811.299	22128
811.441	22147
811.582	22192
811.724	22101
811.865	21991
812.007	22078
812.148	22051
812.29	22116
812.431	22226
812.573	22337
812.714	22367
812.855	22584
812.997	22706
813.138	22713
813.279	22641
813.421	22554
813.562	22561
813.703	22249
813.845	22306
813.986	21876
814.127	21739
814.268	21553
814.41	21618
814.551	21633
814.692	21530
814.833	21568
814.974	21583
815.115	21549
815.256	21370
815.397	21386
815.539	21439
815.68	21249
815.821	21272
815.962	21321
816.103	21233
816.244	21188
816.385	21047
816.526	20960
816.666	20796
816.807	20712
816.948	20804
817.089	20910
817.23	20670
817.371	20735
817.512	20625
817.653	20655
817.793	20724
817.934	20670
818.075	20731
818.216	20697
818.356	20590
818.497	20571
818.638	20362
818.778	20347
818.919	20423
819.06	20492
819.2	20446
819.341	20526
819.481	20484
819.622	20792
819.762	20918
819.903	20880
820.043	20625
820.184	20724
820.324	20590
820.465	20739
820.605	20590
820.746	20712
820.886	20537
821.026	20564
821.167	20590
821.307	20743
821.447	20587
821.588	20571
821.728	20309
821.868	20332
822.008	20065
822.149	20062
822.289	19944
822.429	19746
822.569	19723
822.709	19727
822.849	19552
822.99	19586
823.13	19556
823.27	19567
823.41	19320
823.55	19373
823.69	19377
823.83	19274
823.97	19308
824.11	19129
824.25	19072
824.389	19088
824.529	19137
824.669	19038
824.809	19312
824.949	19232
825.089	19164
825.228	19110
825.368	18989
825.508	18939
825.648	18867
825.787	18996
825.927	18909
826.067	18817
826.206	18757
826.346	18954
826.485	18932
826.625	18913
826.765	18924
826.904	18894
827.044	18669
827.183	18688
827.323	18547
827.462	18715
827.601	18620
827.741	18559
827.88	18582
828.02	18544
828.159	18525
828.298	18616
828.437	18627
828.577	18448
828.716	18684
828.855	18517
828.994	18380
829.134	18365
829.273	18418
829.412	18319
829.551	18327
829.69	18311
829.829	18228
829.968	18513
830.107	18365
830.246	18395
830.385	18216
830.524	18171
830.663	18034
830.802	18076
830.941	17893
831.08	17958
831.219	18011
831.357	18003
831.496	18129
831.635	17999
831.774	17813
831.913	17931
832.051	17710
832.19	17783
832.329	17870
832.467	17581
832.606	17547
832.744	17596
832.883	17703
833.022	17627
833.16	17798
833.299	17718
833.437	17790
833.576	17767
833.714	17767
833.852	17783
833.991	17703
834.129	17912
834.267	17802
834.406	17737
834.544	17832
834.682	17764
834.821	17710
834.959	17870
835.097	17748
835.235	17813
835.373	17722
835.511	17950
835.65	17634
835.788	17627
835.926	17433
836.064	17425
836.202	17467
836.34	17672
836.478	17661
836.615	17600
836.753	17592
836.891	17745
837.029	17676
837.167	17600
837.305	17455
837.443	17482
837.58	17444
837.718	17562
837.856	17440
837.993	17372
838.131	17516
838.269	17406
838.406	17410
838.544	17299
838.681	17098
838.819	17090
838.956	16972
839.094	16946
839.231	17029
839.369	17075
839.506	17395
839.643	17170
839.781	17075
839.918	16961
840.055	17071
840.193	16953
840.33	16885
840.467	17014
840.604	16991
840.742	17174
840.879	16927
841.016	16927
841.153	16809
841.29	17045
841.427	17033
841.564	16957
841.701	16915
841.838	16896
841.975	16828
842.112	16831
842.249	16733
842.385	16649
842.522	16923
842.659	16793
842.796	16759
842.933	16740
843.069	16797
843.206	16622
843.343	16744
843.479	16793
843.616	16733
843.752	16508
843.889	16561
844.025	16702
844.162	16519
844.298	16698
844.435	16561
844.571	16584
844.708	16550
844.844	16729
844.98	16729
845.117	16687
845.253	16645
845.389	16630
845.525	16816
845.661	17159
845.798	17421
845.934	17676
846.07	17741
846.206	17790
846.342	17767
846.478	17083
846.614	16725
846.75	16443
846.886	16272
847.022	16284
847.158	16147
847.294	16128
847.429	16234
847.565	16090
847.701	16303
847.837	15895
847.972	15781
848.108	16006
848.244	15949
848.379	15709
848.515	15584
848.65	15698
848.786	15717
848.921	15679
849.057	15766
849.192	15759
849.328	15747
849.463	15629
849.598	15526
849.734	15584
849.869	15492
850.004	15466
850.14	15416
850.275	15336
850.41	15298
850.545	15378
850.68	15420
850.815	15439
850.95	15523
851.085	15701
851.22	15477
851.355	15447
851.49	15412
851.625	15348
851.76	15466
851.895	15374
852.03	15252
852.165	15306
852.299	15412
852.434	15564
852.569	15306
852.703	15523
852.838	15431
852.973	15633
853.107	15591
853.242	15397
853.376	15279
853.511	15169
853.645	15230
853.78	15378
853.914	15431
854.048	15237
854.183	15233
854.317	15332
854.451	15485
854.585	15214
854.72	15310
854.854	15397
854.988	15260
855.122	15283
855.256	15222
855.39	15283
855.524	15367
855.658	15336
855.792	15378
855.926	15298
856.06	15233
856.194	15401
856.327	15222
856.461	15188
856.595	15230
856.729	15256
856.862	15241
856.996	15256
857.13	15313
857.263	15431
857.397	15420
857.53	15241
857.664	15329
857.797	15252
857.931	15462
858.064	15363
858.197	15306
858.331	15165
858.464	15241
858.597	15241
858.731	15260
858.864	15237
858.997	15252
859.13	15207
859.263	15306
859.396	15272
859.529	15218
859.662	15142
859.795	15176
859.928	15230
860.061	15329
860.194	15443
860.327	15321
860.46	15226
860.592	15313
860.725	15458
860.858	15374
860.99	15211
861.123	15233
861.256	15176
861.388	15218
861.521	15800
861.653	15241
861.786	15100
861.918	15142
862.05	15211
862.183	15218
862.315	15184
862.447	15302
862.58	15173
862.712	15009
862.844	14986
862.976	15058
863.108	15058
863.24	15511
863.372	14921
863.504	15001
863.636	15013
863.768	15085
863.9	15081
864.032	14967
864.164	14937
864.296	15070
864.428	15157
864.559	15176
864.691	15157
864.823	15127
864.954	15017
865.086	15146
865.217	15077
865.349	14937
865.48	14998
865.612	15036
865.743	15184
865.875	15039
866.006	14963
866.137	15024
866.269	14994
866.4	15013
866.531	14948
866.662	14914
866.793	14963
866.924	14971
867.055	15032
867.186	15028
867.317	14952
867.448	14838
867.579	14956
867.71	14902
867.841	14876
867.972	14967
868.103	14960
868.233	15070
868.364	14864
868.495	15127
868.625	15222
868.756	15279
868.886	15093
869.017	15222
869.147	15351
869.278	15344
869.408	15252
869.539	15131
869.669	15180
869.799	15260
869.929	15412
870.06	15317
870.19	15500
870.32	15519
870.45	15485
870.58	15629
870.71	15728
870.84	15701
870.97	15705
871.1	15584
871.23	15804
871.36	15846
871.489	15713
871.619	15728
871.749	15808
871.879	15838
872.008	15956
872.138	15842
872.267	15861
872.397	15751
872.526	15629
872.656	15732
872.785	15732
872.915	15941
873.044	15972
873.173	15865
873.303	15979
873.432	15968
873.561	16036
873.69	15880
873.819	15770
873.948	15964
874.077	15941
874.206	15968
874.335	15842
874.464	16051
874.593	16173
874.722	16143
874.851	16204
874.979	16242
875.108	16257
875.237	16135
875.365	16150
875.494	16169
875.623	16249
875.751	16230
875.88	16230
876.008	16356
876.136	16394
876.265	16679
876.393	16710
876.521	16805
876.65	16790
876.778	16664
876.906	16599
877.034	16478
877.162	16656
877.29	16603
877.418	16774
877.546	16698
877.674	16523
877.802	16767
877.93	16580
878.058	16554
878.185	16634
878.313	16767
878.441	16554
878.568	16584
878.696	16786
878.824	16843
878.951	16942
879.079	17174
879.206	17360
879.333	17383
879.461	17356
879.588	17509
879.715	17592
879.842	17543
879.97	17269
880.097	17071
880.224	16934
880.351	16793
880.478	16752
880.605	16736
880.732	16622
880.859	16927
880.986	16622
881.112	16733
881.239	16618
881.366	16421
881.493	16375
881.619	16341
881.746	16287
881.872	16249
881.999	16325
882.125	16303
882.252	16356
882.378	16242
882.505	16493
882.631	16196
882.757	16192
882.883	16173
883.01	16093
883.136	16055
883.262	15987
883.388	15987
883.514	16177
883.64	16226
883.766	16044
883.892	15937
884.018	15956
884.143	16067
884.269	16093
884.395	15842
884.52	15751
884.646	15823
884.772	15766
884.897	15667
885.023	15827
885.148	16021
885.274	15968
885.399	15922
885.524	15781
885.65	15728
885.775	15926
885.9	15751
886.025	15949
886.15	15804
886.275	15686
886.4	15755
886.525	15705
886.65	15690
886.775	15667
886.9	15751
887.025	15937
887.149	15675
887.274	15587
887.399	15511
887.523	15466
887.648	15367
887.773	15363
887.897	15557
888.021	15576
888.146	15485
888.27	15576
888.395	15690
888.519	15568
888.643	15534
888.767	15511
888.891	15405
889.015	15348
889.139	15317
889.263	15283
889.387	15408
889.511	15576
889.635	15405
889.759	15420
889.883	15329
890.006	15355
890.13	15321
890.254	15245
890.377	15344
890.501	15009
890.624	15116
890.748	15249
890.871	15154
890.995	14933
891.118	14944
891.241	14979
891.364	15028
891.488	15135
891.611	14994
891.734	15062
891.857	15062
891.98	14982
892.103	15055
892.226	15066
892.349	14979
892.471	14796
892.594	14925
892.717	15009
892.839	15013
892.962	14979
893.085	15093
893.207	15005
893.33	14845
893.452	14929
893.575	15051
893.697	14929
893.819	15116
893.941	15051
894.064	15070
894.186	14963
894.308	14906
894.43	15127
894.552	15256
894.674	15104
894.796	14918
894.918	14941
895.04	14887
895.161	15058
895.283	15047
895.405	14902
895.526	15074
895.648	15116
895.769	15047
895.891	15055
896.012	15218
896.134	15150
896.255	15085
896.376	15070
896.498	15077
896.619	15081
896.74	15077
896.861	15112
896.982	15477
897.103	15595
897.224	15382
897.345	15325
897.466	15329
897.587	15469
897.708	15481
897.828	15428
897.949	15310
898.07	15264
898.19	15332
898.311	15473
898.431	15416
898.552	15428
898.672	15488
898.792	15564
898.913	15511
899.033	15344
899.153	15306
899.273	15199
899.393	15302
899.513	15298
899.633	15332
899.753	15294
899.873	15329
899.993	15336
900.113	15344
900.232	15325
900.352	15264
900.472	15214
900.591	15119
900.711	15100
900.83	15180
900.95	15199
901.069	15272
901.189	15074
901.308	14918
901.427	14834
901.546	14785
901.665	14804
901.784	14948
901.904	14621
902.023	14651
902.141	14381
902.26	14374
902.379	14465
902.498	14389
902.617	14301
902.735	14415
902.854	14282
902.973	14309
903.091	14103
903.21	14050
903.328	14123
903.446	13921
903.565	13917
903.683	13887
903.801	13849
903.919	13841
904.038	13868
904.156	13620
904.274	13765
904.392	13647
904.51	13734
904.627	13677
904.745	13643
904.863	13791
904.981	13457
905.098	13384
905.216	13392
905.334	13388
905.451	13327
905.569	13354
905.686	13514
905.803	13392
905.921	13175
906.038	13289
906.155	13240
906.272	13133
906.389	13031
906.506	13053
906.623	13110
906.74	13050
906.857	12779
906.974	12863
907.091	13107
907.208	13164
907.324	13091
907.441	12859
907.557	12707
907.674	12749
907.79	12684
907.907	12673
908.023	12722
908.139	12627
908.256	12639
908.372	12582
908.488	12574
908.604	12471
908.72	12513
908.836	12418
908.952	12422
909.068	12498
909.184	12589
909.3	12532
909.415	12509
909.531	12426
909.647	12289
909.762	12224
909.878	12171
909.993	12262
910.108	12247
910.224	12163
910.339	12201
910.454	12136
910.57	12026
910.685	12041
910.8	12372
910.915	12235
911.03	12095
911.145	11965
911.259	11950
911.374	11889
911.489	11897
911.604	11714
911.718	11661
911.833	11646
911.947	11638
912.062	11452
912.176	11562
912.291	11672
912.405	11646
912.519	11923
912.633	11916
912.748	11737
912.862	11638
912.976	11505
913.09	11383
913.204	11493
913.318	11566
913.431	11646
913.545	11516
913.659	11657
913.772	11486
913.886	11436
914	11429
914.113	11524
914.226	11501
914.34	11482
914.453	11440
914.566	11452
914.68	11303
914.793	11296
914.906	11197
915.019	11060
915.132	11029
915.245	11197
915.358	11159
915.47	11162
915.583	11121
915.696	11174
915.809	11231
915.921	11254
916.034	11128
916.146	11094
916.259	11151
916.371	11143
916.483	11094
916.595	11041
916.708	11151
916.82	11010
916.932	11041
917.044	11029
917.156	10987
917.268	10911
917.38	10953
917.491	10904
917.603	10968
917.715	11029
917.826	11003
917.938	10858
918.049	10850
918.161	10972
918.272	10984
918.384	11045
918.495	10980
918.606	10828
918.717	10679
918.828	10755
918.939	10858
919.05	10733
919.161	10771
919.272	10538
919.383	10683
919.494	10866
919.604	10965
919.715	10793
919.826	10763
919.936	10744
920.047	10831
920.157	10725
920.267	10961
920.378	10767
920.488	10774
920.598	11045
920.708	11128
920.818	10938
920.928	10984
921.038	11189
921.148	11185
921.258	10858
921.368	10774
921.477	10596
921.587	10664
921.697	10569
921.806	10683
921.916	10493
922.025	10348
922.134	10314
922.244	10303
922.353	10371
922.462	10234
922.571	10116
922.68	10059
922.789	9937
922.898	10025
923.007	9998
923.116	10097
923.224	10051
923.333	9975
923.442	10002
923.55	9876
923.659	9934
923.767	9949
923.876	9865
923.984	9880
924.092	9846
924.201	9876
924.309	9876
924.417	9842
924.525	9774
924.633	9740
924.741	10809
924.849	9751
924.956	9812
925.064	9660
925.172	9523
925.279	9633
925.387	9701
925.494	9599
925.602	9736
925.709	9732
925.816	9587
925.924	9660
926.031	9713
926.138	9671
926.245	9717
926.352	9595
926.459	9679
926.566	9755
926.673	9606
926.779	9435
926.886	9507
926.993	9416
927.099	9256
927.206	9302
927.312	9283
927.419	9397
927.525	9355
927.631	9408
927.737	9272
927.843	9233
927.95	9173
928.056	9188
928.162	9222
928.267	9256
928.373	9785
928.479	9329
928.585	9097
928.69	9203
928.796	9317
928.901	9127
929.007	9009
929.112	9214
929.218	9173
929.323	9089
929.428	9017
929.533	9199
929.638	8975
929.743	9013
929.848	9017
929.953	9062
930.058	8906
930.163	8804
930.267	8792
930.372	8963
930.477	8766
930.581	9020
930.685	8899
930.79	8716
930.894	8735
930.998	8804
931.103	8906
931.207	8564
931.311	8499
931.415	8347
931.519	8263
931.623	8271
