Data from test_V78500241_2240.txt Node
Date: Fri Mar 25 14:49:18 CST 2022
User: usil
Spectrometer: V785-0024
Trigger mode: 0
Integration Time (sec): 4.000000E-1
Scans to average: 1
Nonlinearity correction enabled: false
Boxcar width: 0
Storing dark spectrum: false
XAxis mode: Wavelengths
Number of Pixels in Spectrum: 1024
>>>>>Begin Spectral Data<<<<<
801.071	22139
801.214	22013
801.356	21751
801.499	21709
801.641	21572
801.783	21530
801.926	21534
802.068	21481
802.211	21382
802.353	21279
802.496	21218
802.638	21005
802.78	21051
802.923	20849
803.065	20769
803.208	20853
803.35	20895
803.492	20925
803.635	20971
803.777	20823
803.919	20982
804.061	21252
804.204	20929
804.346	20807
804.488	20735
804.63	20743
804.773	20807
804.915	20765
805.057	20811
805.199	20731
805.341	20804
805.483	20864
805.626	20834
805.768	20735
805.91	20819
806.052	20811
806.194	20750
806.336	20899
806.478	20773
806.62	20842
806.762	20849
806.904	20963
807.046	21173
807.188	21131
807.33	21020
807.472	21119
807.614	20891
807.756	20941
807.898	20845
808.04	20807
808.182	20788
808.324	20842
808.465	20941
808.607	21108
808.749	21157
808.891	21359
809.033	21325
809.174	21283
809.316	21116
809.458	21245
809.6	21142
809.741	21157
809.883	21226
810.025	21435
810.166	21275
810.308	21192
810.45	21180
810.591	21165
810.733	21085
810.875	20994
811.016	20826
811.158	20796
811.299	21039
811.441	21043
811.582	20982
811.724	20872
811.865	20906
812.007	20864
812.148	20921
812.29	21017
812.431	21089
812.573	21237
812.714	21233
812.855	21507
812.997	21682
813.138	21690
813.279	21599
813.421	21332
813.562	21268
813.703	21192
813.845	21096
813.986	20887
814.127	20640
814.268	20526
814.41	20583
814.551	20541
814.692	20507
814.833	20530
814.974	20404
815.115	20492
815.256	20351
815.397	20381
815.539	20309
815.68	20210
815.821	20161
815.962	20164
816.103	20180
816.244	20062
816.385	20054
816.526	19902
816.666	19700
816.807	19521
816.948	19681
817.089	19799
817.23	19712
817.371	19689
817.512	19609
817.653	19643
817.793	19533
817.934	19575
818.075	19495
818.216	19742
818.356	19559
818.497	19434
818.638	19263
818.778	19240
818.919	19396
819.06	19289
819.2	19415
819.341	19480
819.481	19495
819.622	19727
819.762	19791
819.903	19746
820.043	19746
820.184	19655
820.324	19571
820.465	19696
820.605	19601
820.746	19590
820.886	19445
821.026	19499
821.167	19537
821.307	19556
821.447	19415
821.588	19331
821.728	19324
821.868	19133
822.008	18977
822.149	18970
822.289	18962
822.429	18753
822.569	18726
822.709	18798
822.849	18490
822.99	18433
823.13	18532
823.27	18490
823.41	18239
823.55	18205
823.69	18384
823.83	18262
823.97	18224
824.11	17935
824.25	18049
824.389	18072
824.529	18129
824.669	18129
824.809	18201
824.949	18125
825.089	18205
825.228	18019
825.368	17992
825.508	17939
825.648	17752
825.787	17992
825.927	17946
826.067	17752
826.206	17729
826.346	17745
826.485	17824
826.625	17752
826.765	17950
826.904	17840
827.044	17547
827.183	17672
827.323	17501
827.462	17657
827.601	17642
827.741	17509
827.88	17604
828.02	17406
828.159	17581
828.298	17558
828.437	17585
828.577	17493
828.716	17623
828.855	17532
828.994	17284
829.134	17242
829.273	17372
829.412	17292
829.551	17296
829.69	17200
829.829	17239
829.968	17292
830.107	17334
830.246	17315
830.385	17223
830.524	17147
830.663	17155
830.802	17006
830.941	16919
831.08	16900
831.219	16968
831.357	16980
831.496	17094
831.635	16908
831.774	16721
831.913	16630
832.051	16717
832.19	16668
832.329	16542
832.467	16634
832.606	16504
832.744	16622
832.883	16569
833.022	16481
833.16	16656
833.299	16599
833.437	16649
833.576	16641
833.714	16592
833.852	16618
833.991	16641
834.129	16748
834.267	16713
834.406	16550
834.544	16706
834.682	16626
834.821	16550
834.959	16736
835.097	16538
835.235	16706
835.373	16637
835.511	16573
835.65	16550
835.788	16481
835.926	16352
836.064	16424
836.202	16459
836.34	16592
836.478	16523
836.615	16565
836.753	16535
836.891	16626
837.029	16436
837.167	16561
837.305	16466
837.443	16398
837.58	16325
837.718	16371
837.856	16546
837.993	16402
838.131	16352
838.269	16352
838.406	16314
838.544	16185
838.681	16063
838.819	16063
838.956	15884
839.094	15934
839.231	16044
839.369	16090
839.506	16341
839.643	16287
839.781	16036
839.918	15873
840.055	15892
840.193	15991
840.33	15800
840.467	15789
840.604	15949
840.742	16154
840.879	15728
841.016	15838
841.153	15808
841.29	16101
841.427	16051
841.564	15934
841.701	15865
841.838	15930
841.975	15903
842.112	15854
842.249	15701
842.385	15599
842.522	15831
842.659	15774
842.796	15656
842.933	15709
843.069	15641
843.206	15774
843.343	15800
843.479	15747
843.616	15743
843.752	15485
843.889	15439
844.025	15534
844.162	15511
844.298	15549
844.435	15530
844.571	15447
844.708	15511
844.844	15671
844.98	15545
845.117	15679
845.253	15420
845.389	15374
845.525	15344
845.661	15287
845.798	15241
845.934	15397
846.07	15291
846.206	15344
846.342	15416
846.478	15260
846.614	15135
846.75	14971
846.886	15055
847.022	15085
847.158	15108
847.294	15005
847.429	15097
847.565	15062
847.701	15310
847.837	14876
847.972	14693
848.108	14944
848.244	14845
848.379	14762
848.515	14636
848.65	14693
848.786	14712
848.921	14689
849.057	14811
849.192	14781
849.328	14750
849.463	14735
849.598	14640
849.734	14530
849.869	14522
850.004	14423
850.14	14537
850.275	14423
850.41	14412
850.545	14362
850.68	14393
850.815	14415
850.95	14473
851.085	14552
851.22	14537
851.355	14446
851.49	14336
851.625	14431
851.76	14389
851.895	14305
852.03	14351
852.165	14431
852.299	14450
852.434	14556
852.569	14465
852.703	14442
852.838	14530
852.973	14564
853.107	14511
853.242	14431
853.376	14294
853.511	14202
853.645	14290
853.78	14434
853.914	14366
854.048	14240
854.183	14218
854.317	14206
854.451	14579
854.585	14187
854.72	14252
854.854	14324
854.988	14206
855.122	14298
855.256	14164
855.39	14221
855.524	14374
855.658	14313
855.792	14218
855.926	14339
856.06	14400
856.194	14377
856.327	14317
856.461	14317
856.595	14240
856.729	14142
856.862	14450
856.996	14263
857.13	14317
857.263	14400
857.397	14336
857.53	14275
857.664	14320
857.797	14370
857.931	14438
858.064	14313
858.197	14389
858.331	14271
858.464	14252
858.597	14199
858.731	14358
858.864	14305
858.997	14229
859.13	14317
859.263	14313
859.396	14423
859.529	14202
859.662	14240
859.795	14332
859.928	14256
860.061	14404
860.194	14503
860.327	14309
860.46	14263
860.592	14370
860.725	14469
860.858	14412
860.99	14252
861.123	14206
861.256	14229
861.388	14370
861.521	14819
861.653	14077
861.786	14180
861.918	14240
862.05	14286
862.183	14157
862.315	14282
862.447	14286
862.58	14187
862.712	14134
862.844	13974
862.976	14103
863.108	14172
863.24	14385
863.372	14001
863.504	14210
863.636	14096
863.768	14107
863.9	14058
864.032	14058
864.164	14027
864.296	14103
864.428	14119
864.559	14149
864.691	14157
864.823	14138
864.954	14100
865.086	14096
865.217	14123
865.349	14027
865.48	14050
865.612	14043
865.743	14183
865.875	14065
866.006	13978
866.137	14084
866.269	14077
866.4	14001
866.531	14100
866.662	14031
866.793	14024
866.924	14024
867.055	14024
867.186	14058
867.317	13944
867.448	13890
867.579	13906
867.71	13932
867.841	13940
867.972	14119
868.103	14100
868.233	14050
868.364	14020
868.495	14149
868.625	14317
868.756	14389
868.886	14267
869.017	14282
869.147	14450
869.278	14362
869.408	14400
869.539	14263
869.669	14415
869.799	14324
869.929	14358
870.06	14484
870.19	14564
870.32	14545
870.45	14625
870.58	14731
870.71	14868
870.84	14781
870.97	14686
871.1	14651
871.23	14914
871.36	14929
871.489	14792
871.619	14914
871.749	14914
871.879	14872
872.008	14937
872.138	14921
872.267	14883
872.397	14750
872.526	14693
872.656	14781
872.785	14807
872.915	14899
873.044	15028
873.173	14998
873.303	14887
873.432	14941
873.561	15036
873.69	14998
873.819	14918
873.948	14948
874.077	15070
874.206	14849
874.335	14963
874.464	15127
874.593	15275
874.722	15077
874.851	15245
874.979	15207
875.108	15302
875.237	15135
875.365	15207
875.494	15226
875.623	15351
875.751	15173
875.88	15260
876.008	15458
876.136	15408
876.265	15644
876.393	15778
876.521	15778
876.65	15778
876.778	15648
876.906	15675
877.034	15648
877.162	15675
877.29	15534
877.418	15591
877.546	15709
877.674	15633
877.802	15694
877.93	15591
878.058	15587
878.185	15542
878.313	15641
878.441	15633
878.568	15530
878.696	15633
878.824	15724
878.951	15705
879.079	15854
879.206	16090
879.333	15873
879.461	15785
879.588	15823
879.715	15812
879.842	15968
879.97	15671
880.097	15496
880.224	15549
880.351	15511
880.478	15530
880.605	15523
880.732	15466
880.859	15698
880.986	15644
881.112	15530
881.239	15367
881.366	15363
881.493	15230
881.619	15077
881.746	15279
881.872	15188
881.999	15127
882.125	15192
882.252	15176
882.378	15180
882.505	15275
882.631	15093
882.757	15074
882.883	14998
883.01	15070
883.136	14914
883.262	14868
883.388	14807
883.514	15005
883.64	15005
883.766	15013
883.892	14724
884.018	14944
884.143	14902
884.269	15169
884.395	14826
884.52	14819
884.646	14686
884.772	14575
884.897	14564
885.023	14587
885.148	14819
885.274	14872
885.399	14845
885.524	14712
885.65	14765
885.775	14792
885.9	14678
886.025	14804
886.15	14815
886.275	14606
886.4	14663
886.525	14587
886.65	14636
886.775	14648
886.9	14765
887.025	14960
887.149	14663
887.274	14476
887.399	14480
887.523	14442
887.648	14434
887.773	14438
887.897	14674
888.021	14590
888.146	14461
888.27	14579
888.395	14686
888.519	14454
888.643	14587
888.767	14617
888.891	14568
889.015	14370
889.139	14389
889.263	14446
889.387	14613
889.511	14640
889.635	14427
889.759	14408
889.883	14343
890.006	14377
890.13	14465
890.254	14309
890.377	14412
890.501	14180
890.624	14149
890.748	14332
890.871	14195
890.995	14020
891.118	14088
891.241	14096
891.364	14088
891.488	14180
891.611	14077
891.734	14138
891.857	14172
891.98	14115
892.103	14225
892.226	14084
892.349	14149
892.471	13917
892.594	14031
892.717	14130
892.839	14039
892.962	14123
893.085	14187
893.207	14096
893.33	13963
893.452	14058
893.575	14107
893.697	14073
893.819	14263
893.941	14275
894.064	14214
894.186	14046
894.308	14111
894.43	14161
894.552	14271
894.674	14305
894.796	14016
894.918	14183
895.04	14161
895.161	14237
895.283	14180
895.405	14050
895.526	14145
895.648	14153
895.769	14225
895.891	14278
896.012	14237
896.134	14237
896.255	14286
896.376	14244
896.498	14244
896.619	14210
896.74	14218
896.861	14385
896.982	14648
897.103	14708
897.224	14522
897.345	14549
897.466	14549
897.587	14526
897.708	14587
897.828	14568
897.949	14450
898.07	14457
898.19	14568
898.311	14682
898.431	14640
898.552	14636
898.672	14648
898.792	14625
898.913	14613
899.033	14507
899.153	14484
899.273	14351
899.393	14495
899.513	14442
899.633	14404
899.753	14431
899.873	14450
899.993	14518
900.113	14385
900.232	14499
900.352	14484
900.472	14473
900.591	14259
900.711	14389
900.83	14244
900.95	14343
901.069	14473
901.189	14282
901.308	14115
901.427	14031
901.546	14020
901.665	14058
901.784	14001
901.904	13947
902.023	13845
902.141	13681
902.26	13586
902.379	13632
902.498	13696
902.617	13556
902.735	13559
902.854	13613
902.973	13548
903.091	13434
903.21	13263
903.328	13285
903.446	13225
903.565	13175
903.683	13259
903.801	13084
903.919	13213
904.038	13194
904.156	12951
904.274	13069
904.392	12958
904.51	12867
904.627	12951
904.745	12909
904.863	13008
904.981	12783
905.098	12662
905.216	12707
905.334	12662
905.451	12692
905.569	12662
905.686	12722
905.803	12631
905.921	12456
906.038	12528
906.155	12528
906.272	12372
906.389	12422
906.506	12262
906.623	12308
906.74	12213
906.857	12129
906.974	12136
907.091	12327
907.208	12323
907.324	12300
907.441	12175
907.557	12015
907.674	12129
907.79	11904
907.907	11969
908.023	12038
908.139	12068
908.256	11851
908.372	11923
908.488	11843
908.604	11840
908.72	11760
908.836	11786
908.952	11703
909.068	11752
909.184	11748
909.3	11741
909.415	11775
909.531	11824
909.647	11528
909.762	11429
909.878	11501
909.993	11524
910.108	11528
910.224	11509
910.339	11509
910.454	11433
910.57	11299
910.685	11269
910.8	11615
910.915	11524
911.03	11463
911.145	11132
911.259	11216
911.374	11250
911.489	11235
911.604	11098
911.718	11079
911.833	11056
911.947	10854
912.062	10816
912.176	11033
912.291	10999
912.405	10930
912.519	11140
912.633	11231
912.748	10919
912.862	10946
912.976	10885
913.09	10653
913.204	10759
913.318	10881
913.431	10946
913.545	10862
913.659	10942
913.772	10889
913.886	10748
914	10683
914.113	10869
914.226	10831
914.34	10782
914.453	10679
914.566	10873
914.68	10725
914.793	10626
914.906	10504
915.019	10367
915.132	10390
915.245	10398
915.358	10436
915.47	10516
915.583	10535
915.696	10512
915.809	10603
915.921	10645
916.034	10428
916.146	10462
916.259	10382
916.371	10516
916.483	10546
916.595	10329
916.708	10405
916.82	10481
916.932	10421
917.044	10447
917.156	10398
917.268	10276
917.38	10371
917.491	10238
917.603	10379
917.715	10470
917.826	10394
917.938	10337
918.049	10272
918.161	10303
918.272	10497
918.384	10542
918.495	10303
918.606	10181
918.717	10196
918.828	10295
918.939	10291
919.05	10109
919.161	10215
919.272	10006
919.383	10101
919.494	10295
919.604	10447
919.715	10204
919.826	10105
919.936	10223
920.047	10314
920.157	10261
920.267	10508
920.378	10295
920.488	10268
920.598	10462
920.708	10569
920.818	10440
920.928	10386
921.038	10672
921.148	10626
921.258	10356
921.368	10196
921.477	10158
921.587	10166
921.697	10021
921.806	10143
921.916	9983
922.025	9819
922.134	9770
922.244	9774
922.353	9808
922.462	9720
922.571	9663
922.68	9530
922.789	9454
922.898	9542
923.007	9492
923.116	9599
923.224	9450
923.333	9458
923.442	9401
923.55	9329
923.659	9397
923.767	9500
923.876	9370
923.984	9439
924.092	9348
924.201	9329
924.309	9329
924.417	9435
924.525	9367
924.633	9363
924.741	10249
924.849	9097
924.956	9321
925.064	9135
925.172	9135
925.279	9127
925.387	9131
925.494	9154
925.602	9325
925.709	9226
925.816	9104
925.924	9108
926.031	9272
926.138	9199
926.245	9203
926.352	9100
926.459	9237
926.566	9256
926.673	9135
926.779	9051
926.886	9051
926.993	8902
927.099	8880
927.206	8826
927.312	8876
927.419	8952
927.525	8956
927.631	8937
927.737	8796
927.843	8750
927.95	8655
928.056	8743
928.162	8758
928.267	8811
928.373	9374
928.479	8838
928.585	8678
928.69	8785
928.796	8807
928.901	8693
929.007	8560
929.112	8708
929.218	8613
929.323	8625
929.428	8571
929.533	8640
929.638	8522
929.743	8621
929.848	8613
929.953	8568
930.058	8568
930.163	8324
930.267	8434
930.372	8571
930.477	8320
930.581	8549
930.685	8393
930.79	8275
930.894	8317
930.998	8317
931.103	8374
931.207	8077
931.311	8058
931.415	7982
931.519	7845
931.623	7780
