Data from test_V78500241_2488.txt Node
Date: Fri Mar 25 14:51:02 CST 2022
User: usil
Spectrometer: V785-0024
Trigger mode: 0
Integration Time (sec): 4.000000E-1
Scans to average: 1
Nonlinearity correction enabled: false
Boxcar width: 0
Storing dark spectrum: false
XAxis mode: Wavelengths
Number of Pixels in Spectrum: 1024
>>>>>Begin Spectral Data<<<<<
801.071	22055
801.214	21934
801.356	21736
801.499	21644
801.641	21466
801.783	21492
801.926	21397
802.068	21469
802.211	21302
802.353	21268
802.496	20975
802.638	20906
802.78	20899
802.923	20895
803.065	20720
803.208	20648
803.35	20857
803.492	20914
803.635	20998
803.777	20826
803.919	20826
804.061	21157
804.204	20899
804.346	20716
804.488	20750
804.63	20800
804.773	20697
804.915	20648
805.057	20838
805.199	20769
805.341	20819
805.483	20921
805.626	20758
805.768	20640
805.91	20834
806.052	20697
806.194	20579
806.336	20853
806.478	20644
806.62	20670
806.762	20830
806.904	20743
807.046	21123
807.188	21058
807.33	21024
807.472	21131
807.614	20925
807.756	20887
807.898	20918
808.04	20788
808.182	20735
808.324	20792
808.465	20765
808.607	21005
808.749	20933
808.891	21169
809.033	21226
809.174	21180
809.316	20914
809.458	20872
809.6	21127
809.741	21074
809.883	21157
810.025	21188
810.166	21180
810.308	21264
810.45	21260
810.591	21024
810.733	20918
810.875	20937
811.016	20792
811.158	20720
811.299	20868
811.441	20990
811.582	21013
811.724	20838
811.865	20769
812.007	20906
812.148	20743
812.29	20880
812.431	20895
812.573	21207
812.714	21252
812.855	21165
812.997	21370
813.138	21523
813.279	21382
813.421	21298
813.562	21310
813.703	21058
813.845	21051
813.986	20613
814.127	20541
814.268	20377
814.41	20480
814.551	20461
814.692	20343
814.833	20320
814.974	20454
815.115	20358
815.256	20351
815.397	20263
815.539	20248
815.68	20122
815.821	20031
815.962	20157
816.103	20088
816.244	19928
816.385	19841
816.526	19666
816.666	19670
816.807	19514
816.948	19552
817.089	19658
817.23	19438
817.371	19441
817.512	19487
817.653	19559
817.793	19441
817.934	19434
818.075	19601
818.216	19388
818.356	19400
818.497	19343
818.638	19148
818.778	19156
818.919	19225
819.06	19228
819.2	19282
819.341	19426
819.481	19434
819.622	19586
819.762	19655
819.903	19639
820.043	19575
820.184	19392
820.324	19556
820.465	19533
820.605	19487
820.746	19544
820.886	19354
821.026	19453
821.167	19468
821.307	19529
821.447	19438
821.588	19206
821.728	19266
821.868	19023
822.008	18993
822.149	18935
822.289	18867
822.429	18601
822.569	18559
822.709	18559
822.849	18475
822.99	18372
823.13	18365
823.27	18296
823.41	18144
823.55	18243
823.69	18194
823.83	18197
823.97	18072
824.11	17992
824.25	18045
824.389	17984
824.529	18045
824.669	17923
824.809	18155
824.949	17973
825.089	18003
825.228	17984
825.368	17855
825.508	17733
825.648	17691
825.787	17756
825.927	17718
826.067	17630
826.206	17745
826.346	17672
826.485	17627
826.625	17764
826.765	17832
826.904	17786
827.044	17558
827.183	17551
827.323	17497
827.462	17589
827.601	17360
827.741	17398
827.88	17463
828.02	17345
828.159	17440
828.298	17444
828.437	17421
828.577	17303
828.716	17558
828.855	17288
828.994	17258
829.134	17265
829.273	17239
829.412	17178
829.551	17265
829.69	17121
829.829	17208
829.968	17220
830.107	17246
830.246	17155
830.385	17223
830.524	16995
830.663	17033
830.802	16957
830.941	16793
831.08	16752
831.219	16805
831.357	16828
831.496	17079
831.635	16774
831.774	16809
831.913	16660
832.051	16603
832.19	16675
832.329	16611
832.467	16500
832.606	16436
832.744	16455
832.883	16504
833.022	16447
833.16	16500
833.299	16508
833.437	16500
833.576	16512
833.714	16470
833.852	16531
833.991	16603
834.129	16550
834.267	16634
834.406	16523
834.544	16596
834.682	16569
834.821	16481
834.959	16721
835.097	16413
835.235	16641
835.373	16580
835.511	16512
835.65	16512
835.788	16432
835.926	16322
836.064	16257
836.202	16253
836.34	16500
836.478	16577
836.615	16447
836.753	16405
836.891	16508
837.029	16592
837.167	16409
837.305	16462
837.443	16402
837.58	16291
837.718	16417
837.856	16356
837.993	16280
838.131	16402
838.269	16211
838.406	16261
838.544	16249
838.681	16071
838.819	15998
838.956	15831
839.094	15823
839.231	15956
839.369	15987
839.506	16268
839.643	16082
839.781	15842
839.918	15835
840.055	15945
840.193	15751
840.33	15892
840.467	15869
840.604	15869
840.742	16109
840.879	15728
841.016	15808
841.153	15709
841.29	15945
841.427	15846
841.564	15907
841.701	15895
841.838	15808
841.975	15694
842.112	15778
842.249	15519
842.385	15538
842.522	15808
842.659	15572
842.796	15629
842.933	15561
843.069	15705
843.206	15660
843.343	15789
843.479	15717
843.616	15675
843.752	15603
843.889	15443
844.025	15648
844.162	15351
844.298	15485
844.435	15481
844.571	15412
844.708	15534
844.844	15656
844.98	15549
845.117	15378
845.253	15488
845.389	15260
845.525	15325
845.661	15332
845.798	15310
845.934	15291
846.07	15169
846.206	15321
846.342	15348
846.478	15252
846.614	15047
846.75	15028
846.886	15017
847.022	15123
847.158	15005
847.294	15036
847.429	15074
847.565	14990
847.701	15283
847.837	14720
847.972	14735
848.108	14773
848.244	14804
848.379	14697
848.515	14610
848.65	14549
848.786	14507
848.921	14701
849.057	14712
849.192	14739
849.328	14731
849.463	14659
849.598	14526
849.734	14457
849.869	14465
850.004	14370
850.14	14400
850.275	14408
850.41	14240
850.545	14256
850.68	14396
850.815	14431
850.95	14339
851.085	14522
851.22	14393
851.355	14404
851.49	14419
851.625	14248
851.76	14366
851.895	14263
852.03	14206
852.165	14320
852.299	14381
852.434	14423
852.569	14396
852.703	14366
852.838	14366
852.973	14556
853.107	14454
853.242	14366
853.376	14244
853.511	14111
853.645	14183
853.78	14351
853.914	14320
854.048	14195
854.183	14138
854.317	14298
854.451	14309
854.585	14298
854.72	14267
854.854	14317
854.988	14180
855.122	14282
855.256	14081
855.39	14282
855.524	14282
855.658	14286
855.792	14271
855.926	14324
856.06	14275
856.194	14370
856.327	14282
856.461	14237
856.595	14176
856.729	14195
856.862	14339
856.996	14294
857.13	14389
857.263	14415
857.397	14328
857.53	14278
857.664	14282
857.797	14366
857.931	14343
858.064	14233
858.197	14347
858.331	14214
858.464	14153
858.597	14115
858.731	14240
858.864	14210
858.997	14187
859.13	14218
859.263	14328
859.396	14393
859.529	14275
859.662	14282
859.795	14225
859.928	14210
860.061	14381
860.194	14488
860.327	14301
860.46	14324
860.592	14324
860.725	14351
860.858	14336
860.99	14210
861.123	14199
861.256	14183
861.388	14290
861.521	14811
861.653	14145
861.786	14126
861.918	14069
862.05	14168
862.183	14195
862.315	14107
862.447	14218
862.58	14100
862.712	14058
862.844	14016
862.976	14084
863.108	14062
863.24	14423
863.372	13963
863.504	14031
863.636	14123
863.768	14153
863.9	14012
864.032	13967
864.164	14035
864.296	14088
864.428	14119
864.559	14142
864.691	14149
864.823	14081
864.954	14111
865.086	14103
865.217	13963
865.349	13944
865.48	13993
865.612	13944
865.743	14161
865.875	14020
866.006	13925
866.137	14008
866.269	13978
866.4	14043
866.531	13955
866.662	13909
866.793	13940
866.924	13951
867.055	14062
867.186	13974
867.317	13947
867.448	14005
867.579	14024
867.71	14001
867.841	13875
867.972	14001
868.103	14005
868.233	14043
868.364	14069
868.495	14103
868.625	14301
868.756	14267
868.886	14233
869.017	14221
869.147	14408
869.278	14381
869.408	14332
869.539	14290
869.669	14332
869.799	14271
869.929	14408
870.06	14343
870.19	14568
870.32	14583
870.45	14568
870.58	14636
870.71	14682
870.84	14712
870.97	14697
871.1	14735
871.23	14716
871.36	14811
871.489	14857
871.619	14853
871.749	14838
871.879	14971
872.008	14902
872.138	14937
872.267	14750
872.397	14667
872.526	14648
872.656	14693
872.785	14674
872.915	14861
873.044	14925
873.173	15013
873.303	14868
873.432	14948
873.561	15009
873.69	14929
873.819	14933
873.948	14967
874.077	14899
874.206	14929
874.335	14887
874.464	15047
874.593	15245
874.722	15180
874.851	15283
874.979	15291
875.108	15146
875.237	15173
875.365	15188
875.494	15116
875.623	15272
875.751	15173
875.88	15416
876.008	15408
876.136	15439
876.265	15606
876.393	15766
876.521	15808
876.65	15755
876.778	15629
876.906	15606
877.034	15603
877.162	15614
877.29	15561
877.418	15686
877.546	15606
877.674	15618
877.802	15629
877.93	15652
878.058	15572
878.185	15530
878.313	15625
878.441	15603
878.568	15519
878.696	15652
878.824	15553
878.951	15732
879.079	15846
879.206	15934
879.333	15823
879.461	15652
879.588	15705
879.715	15903
879.842	15873
879.97	15739
880.097	15526
880.224	15454
880.351	15603
880.478	15576
880.605	15408
880.732	15492
880.859	15759
880.986	15477
881.112	15469
881.239	15405
881.366	15264
881.493	15184
881.619	15074
881.746	15222
881.872	15142
881.999	15108
882.125	15157
882.252	15180
882.378	15226
882.505	15222
882.631	15047
882.757	14963
882.883	14956
883.01	15039
883.136	14887
883.262	14857
883.388	14853
883.514	14956
883.64	14990
883.766	14910
883.892	14788
884.018	14823
884.143	14971
884.269	15093
884.395	14785
884.52	14667
884.646	14663
884.772	14594
884.897	14659
885.023	14663
885.148	14773
885.274	14815
885.399	14773
885.524	14686
885.65	14693
885.775	14785
885.9	14667
886.025	14853
886.15	14823
886.275	14552
886.4	14579
886.525	14625
886.65	14613
886.775	14621
886.9	14708
887.025	14914
887.149	14629
887.274	14446
887.399	14431
887.523	14568
887.648	14385
887.773	14320
887.897	14625
888.021	14590
888.146	14450
888.27	14613
888.395	14663
888.519	14560
888.643	14556
888.767	14522
888.891	14347
889.015	14374
889.139	14328
889.263	14294
889.387	14526
889.511	14583
889.635	14495
889.759	14290
889.883	14355
890.006	14256
890.13	14480
890.254	14309
890.377	14278
890.501	14081
890.624	14172
890.748	14183
890.871	14069
890.995	13921
891.118	13944
891.241	13970
891.364	14039
891.488	14119
891.611	14012
891.734	13978
891.857	14126
891.98	14119
892.103	14035
892.226	14073
892.349	14024
892.471	13879
892.594	13974
892.717	14134
892.839	13989
892.962	14100
893.085	14073
893.207	14130
893.33	13940
893.452	14043
893.575	14062
893.697	14142
893.819	14263
893.941	14259
894.064	14305
894.186	14046
894.308	14024
894.43	14130
894.552	14244
894.674	14252
894.796	14111
894.918	14005
895.04	14088
895.161	14142
895.283	14237
895.405	14149
895.526	14149
895.648	14142
895.769	14187
895.891	14221
896.012	14320
896.134	14271
896.255	14294
896.376	14153
896.498	14305
896.619	14263
896.74	14343
896.861	14309
896.982	14651
897.103	14716
897.224	14514
897.345	14507
897.466	14415
897.587	14480
897.708	14659
897.828	14495
897.949	14488
898.07	14404
898.19	14495
898.311	14644
898.431	14431
898.552	14693
898.672	14648
898.792	14811
898.913	14541
899.033	14568
899.153	14389
899.273	14396
899.393	14415
899.513	14454
899.633	14431
899.753	14476
899.873	14393
899.993	14469
900.113	14446
900.232	14610
900.352	14324
900.472	14343
900.591	14221
900.711	14366
900.83	14244
900.95	14438
901.069	14438
901.189	14240
901.308	14065
901.427	13947
901.546	13974
901.665	13951
901.784	13936
901.904	13917
902.023	13742
902.141	13655
902.26	13563
902.379	13601
902.498	13571
902.617	13495
902.735	13544
902.854	13540
902.973	13453
903.091	13381
903.21	13206
903.328	13289
903.446	13228
903.565	13175
903.683	13259
903.801	13107
903.919	13107
904.038	13126
904.156	12863
904.274	12924
904.392	12913
904.51	12916
904.627	12856
904.745	13019
904.863	12996
904.981	12696
905.098	12719
905.216	12589
905.334	12631
905.451	12654
905.569	12627
905.686	12650
905.803	12642
905.921	12475
906.038	12570
906.155	12448
906.272	12388
906.389	12384
906.506	12292
906.623	12186
906.74	12182
906.857	12026
906.974	12152
907.091	12330
907.208	12422
907.324	12296
907.441	12205
907.557	11889
907.674	12049
907.79	11889
907.907	11946
908.023	12022
908.139	11912
908.256	11882
908.372	11908
908.488	11783
908.604	11802
908.72	11710
908.836	11722
908.952	11710
909.068	11790
909.184	11863
909.3	11726
909.415	11718
909.531	11764
909.647	11512
909.762	11551
909.878	11452
909.993	11436
910.108	11566
910.224	11486
910.339	11486
910.454	11406
910.57	11292
910.685	11337
910.8	11585
910.915	11512
911.03	11383
911.145	11181
911.259	11170
911.374	11273
911.489	11170
911.604	11102
911.718	10953
911.833	11067
911.947	10843
912.062	10790
912.176	10930
912.291	10938
912.405	10942
912.519	11178
912.633	11162
912.748	11014
912.862	10839
912.976	10862
913.09	10717
913.204	10869
913.318	10911
913.431	10908
913.545	10900
913.659	11025
913.772	10869
913.886	10729
914	10672
914.113	10778
914.226	10824
914.34	10782
914.453	10622
914.566	10717
914.68	10580
914.793	10622
914.906	10550
915.019	10417
915.132	10394
915.245	10436
915.358	10417
915.47	10459
915.583	10516
915.696	10531
915.809	10573
915.921	10634
916.034	10428
916.146	10436
916.259	10356
916.371	10443
916.483	10561
916.595	10367
916.708	10424
916.82	10390
916.932	10447
917.044	10382
917.156	10371
917.268	10299
917.38	10268
917.491	10219
917.603	10268
917.715	10344
917.826	10512
917.938	10367
918.049	10185
918.161	10268
918.272	10432
918.384	10360
918.495	10333
918.606	10265
918.717	10135
918.828	10207
918.939	10173
919.05	10124
919.161	10169
919.272	9983
919.383	10055
919.494	10223
919.604	10398
919.715	10227
919.826	10109
919.936	10093
920.047	10314
920.157	10177
920.267	10402
920.378	10181
920.488	10177
920.598	10428
920.708	10546
920.818	10405
920.928	10424
921.038	10641
921.148	10489
921.258	10238
921.368	10116
921.477	10040
921.587	10097
921.697	9941
921.806	10059
921.916	9968
922.025	9831
922.134	9781
922.244	9713
922.353	9823
922.462	9584
922.571	9622
922.68	9458
922.789	9405
922.898	9450
923.007	9443
923.116	9485
923.224	9469
923.333	9412
923.442	9378
923.55	9313
923.659	9351
923.767	9359
923.876	9283
923.984	9431
924.092	9253
924.201	9344
924.309	9275
924.417	9329
924.525	9268
924.633	9298
924.741	9945
924.849	9119
924.956	9317
925.064	9051
925.172	9055
925.279	9112
925.387	9142
925.494	9081
925.602	9241
925.709	9123
925.816	9074
925.924	9089
926.031	9165
926.138	9089
926.245	9173
926.352	9051
926.459	9127
926.566	9214
926.673	9024
926.779	8998
926.886	8975
926.993	8857
927.099	8811
927.206	8746
927.312	8758
927.419	8845
927.525	8804
927.631	8887
927.737	8743
927.843	8739
927.95	8636
928.056	8667
928.162	8769
928.267	8758
928.373	9447
928.479	8724
928.585	8606
928.69	8686
928.796	8731
928.901	8617
929.007	8465
929.112	8659
929.218	8636
929.323	8507
929.428	8514
929.533	8693
929.638	8495
929.743	8518
929.848	8541
929.953	8473
930.058	8503
930.163	8290
930.267	8256
930.372	8480
930.477	8294
930.581	8575
930.685	8385
930.79	8218
930.894	8286
930.998	8195
931.103	8351
931.207	8115
931.311	8001
931.415	7932
931.519	7803
931.623	7807
