Data from test_V78500241_3073.txt Node
Date: Fri Mar 25 14:55:06 CST 2022
User: usil
Spectrometer: V785-0024
Trigger mode: 0
Integration Time (sec): 4.000000E-1
Scans to average: 1
Nonlinearity correction enabled: false
Boxcar width: 0
Storing dark spectrum: false
XAxis mode: Wavelengths
Number of Pixels in Spectrum: 1024
>>>>>Begin Spectral Data<<<<<
801.071	22021
801.214	21975
801.356	21743
801.499	21778
801.641	21374
801.783	21420
801.926	21435
802.068	21439
802.211	21272
802.353	21241
802.496	20941
802.638	20861
802.78	20830
802.923	20883
803.065	20697
803.208	20758
803.35	20845
803.492	20849
803.635	20933
803.777	20807
803.919	20864
804.061	21104
804.204	20880
804.346	20663
804.488	20750
804.63	20788
804.773	20716
804.915	20708
805.057	20758
805.199	20674
805.341	20785
805.483	20781
805.626	20758
805.768	20705
805.91	20689
806.052	20716
806.194	20583
806.336	20838
806.478	20735
806.62	20682
806.762	20765
806.904	20929
807.046	21233
807.188	21009
807.33	20998
807.472	21055
807.614	20925
807.756	20952
807.898	20773
808.04	20686
808.182	20682
808.324	20861
808.465	20819
808.607	20933
808.749	21096
808.891	21131
809.033	21214
809.174	21093
809.316	21108
809.458	21157
809.6	21001
809.741	21127
809.883	21039
810.025	21272
810.166	21260
810.308	21249
810.45	21123
810.591	21058
810.733	20921
810.875	20918
811.016	20697
811.158	20724
811.299	20963
811.441	20956
811.582	20925
811.724	20864
811.865	20925
812.007	20746
812.148	20731
812.29	20899
812.431	20971
812.573	21165
812.714	21199
812.855	21428
812.997	21568
813.138	21542
813.279	21523
813.421	21370
813.562	21260
813.703	21157
813.845	21005
813.986	20720
814.127	20587
814.268	20339
814.41	20450
814.551	20370
814.692	20465
814.833	20225
814.974	20347
815.115	20237
815.256	20172
815.397	20278
815.539	20214
815.68	20142
815.821	20149
815.962	20202
816.103	20111
816.244	20031
816.385	19803
816.526	19856
816.666	19814
816.807	19597
816.948	19643
817.089	19578
817.23	19521
817.371	19502
817.512	19518
817.653	19601
817.793	19495
817.934	19434
818.075	19540
818.216	19559
818.356	19453
818.497	19358
818.638	19053
818.778	19099
818.919	19221
819.06	19217
819.2	19369
819.341	19339
819.481	19396
819.622	19559
819.762	19643
819.903	19537
820.043	19525
820.184	19457
820.324	19453
820.465	19495
820.605	19594
820.746	19521
820.886	19263
821.026	19400
821.167	19388
821.307	19445
821.447	19510
821.588	19388
821.728	19141
821.868	19095
822.008	18840
822.149	18863
822.289	18867
822.429	18593
822.569	18661
822.709	18551
822.849	18410
822.99	18422
823.13	18528
823.27	18311
823.41	18216
823.55	18076
823.69	18194
823.83	18224
823.97	18159
824.11	18034
824.25	18015
824.389	18030
824.529	18003
824.669	17912
824.809	18041
824.949	18045
825.089	18102
825.228	18049
825.368	17859
825.508	17729
825.648	17767
825.787	17764
825.927	17783
826.067	17699
826.206	17528
826.346	17794
826.485	17779
826.625	17779
826.765	17904
826.904	17764
827.044	17505
827.183	17497
827.323	17440
827.462	17512
827.601	17474
827.741	17505
827.88	17490
828.02	17277
828.159	17261
828.298	17478
828.437	17474
828.577	17387
828.716	17627
828.855	17448
828.994	17174
829.134	17197
829.273	17299
829.412	17143
829.551	17166
829.69	17159
829.829	17231
829.968	17334
830.107	17204
830.246	17197
830.385	17079
830.524	17113
830.663	17037
830.802	16934
830.941	16736
831.08	16763
831.219	16980
831.357	16850
831.496	17029
831.635	16740
831.774	16771
831.913	16694
832.051	16538
832.19	16523
832.329	16523
832.467	16531
832.606	16535
832.744	16421
832.883	16402
833.022	16481
833.16	16481
833.299	16512
833.437	16527
833.576	16542
833.714	16626
833.852	16519
833.991	16512
834.129	16622
834.267	16592
834.406	16550
834.544	16554
834.682	16592
834.821	16554
834.959	16778
835.097	16447
835.235	16630
835.373	16634
835.511	16519
835.65	16455
835.788	16409
835.926	16291
836.064	16276
836.202	16207
836.34	16360
836.478	16493
836.615	16325
836.753	16440
836.891	16519
837.029	16466
837.167	16318
837.305	16303
837.443	16329
837.58	16253
837.718	16375
837.856	16352
837.993	16242
838.131	16424
838.269	16272
838.406	16200
838.544	16226
838.681	16055
838.819	15987
838.956	15888
839.094	15880
839.231	15873
839.369	15983
839.506	16242
839.643	16044
839.781	15907
839.918	15823
840.055	15888
840.193	15785
840.33	15884
840.467	15800
840.604	15911
840.742	16158
840.879	15652
841.016	15812
841.153	15663
841.29	15934
841.427	15876
841.564	15888
841.701	15785
841.838	15747
841.975	15713
842.112	15751
842.249	15701
842.385	15675
842.522	15793
842.659	15595
842.796	15549
842.933	15633
843.069	15644
843.206	15572
843.343	15618
843.479	15641
843.616	15595
843.752	15401
843.889	15363
844.025	15496
844.162	15306
844.298	15443
844.435	15329
844.571	15386
844.708	15435
844.844	15416
844.98	15462
845.117	15561
845.253	15351
845.389	15321
845.525	15359
845.661	15340
845.798	15252
845.934	15157
846.07	15138
846.206	15180
846.342	15302
846.478	15222
846.614	14963
846.75	14948
846.886	14975
847.022	15089
847.158	14914
847.294	15047
847.429	14994
847.565	14956
847.701	15176
847.837	14724
847.972	14651
848.108	14861
848.244	14819
848.379	14648
848.515	14594
848.65	14511
848.786	14613
848.921	14560
849.057	14746
849.192	14629
849.328	14552
849.463	14625
849.598	14575
849.734	14461
849.869	14393
850.004	14233
850.14	14374
850.275	14374
850.41	14195
850.545	14214
850.68	14317
850.815	14351
850.95	14301
851.085	14454
851.22	14366
851.355	14336
851.49	14347
851.625	14370
851.76	14263
851.895	14248
852.03	14237
852.165	14358
852.299	14362
852.434	14389
852.569	14336
852.703	14309
852.838	14381
852.973	14396
853.107	14465
853.242	14176
853.376	14183
853.511	14043
853.645	14176
853.78	14332
853.914	14271
854.048	14100
854.183	14282
854.317	14187
854.451	14408
854.585	14286
854.72	14202
854.854	14294
854.988	14119
855.122	14259
855.256	14027
855.39	14084
855.524	14313
855.658	14290
855.792	14187
855.926	14210
856.06	14248
856.194	14298
856.327	14256
856.461	14149
856.595	14100
856.729	14142
856.862	14248
856.996	14233
857.13	14309
857.263	14313
857.397	14351
857.53	14130
857.664	14202
857.797	14259
857.931	14336
858.064	14286
858.197	14282
858.331	14233
858.464	14187
858.597	14145
858.731	14233
858.864	14153
858.997	14157
859.13	14248
859.263	14240
859.396	14233
859.529	14195
859.662	14161
859.795	14153
859.928	14256
860.061	14476
860.194	14454
860.327	14206
860.46	14210
860.592	14256
860.725	14305
860.858	14320
860.99	14271
861.123	14115
861.256	14161
861.388	14168
861.521	14842
861.653	14016
861.786	14005
861.918	14020
862.05	14199
862.183	14115
862.315	14183
862.447	14252
862.58	14130
862.712	13997
862.844	13917
862.976	13963
863.108	14035
863.24	14294
863.372	13947
863.504	13894
863.636	14062
863.768	13936
863.9	13993
864.032	13921
864.164	13932
864.296	13978
864.428	14111
864.559	14123
864.691	14130
864.823	14050
864.954	14157
865.086	14016
865.217	13936
865.349	13856
865.48	14016
865.612	13986
865.743	14058
865.875	13951
866.006	13925
866.137	13909
866.269	14001
866.4	13936
866.531	13807
866.662	13955
866.793	13951
866.924	13978
867.055	14005
867.186	13936
867.317	13932
867.448	13833
867.579	13883
867.71	13947
867.841	13833
867.972	13906
868.103	13974
868.233	13989
868.364	13951
868.495	14088
868.625	14134
868.756	14370
868.886	14081
869.017	14164
869.147	14324
869.278	14263
869.408	14221
869.539	14221
869.669	14240
869.799	14252
869.929	14393
870.06	14393
870.19	14450
870.32	14549
870.45	14533
870.58	14598
870.71	14678
870.84	14750
870.97	14670
871.1	14632
871.23	14769
871.36	14788
871.489	14720
871.619	14762
871.749	14765
871.879	14925
872.008	15001
872.138	14830
872.267	14861
872.397	14636
872.526	14655
872.656	14594
872.785	14674
872.915	14910
873.044	14986
873.173	14815
873.303	14891
873.432	14929
873.561	14979
873.69	14880
873.819	14849
873.948	14933
874.077	14853
874.206	14914
874.335	14906
874.464	15047
874.593	15127
874.722	15097
874.851	15150
874.979	15173
875.108	15237
875.237	15203
875.365	15157
875.494	15207
875.623	15256
875.751	15222
875.88	15207
876.008	15329
876.136	15378
876.265	15553
876.393	15823
876.521	15625
876.65	15679
876.778	15492
876.906	15530
877.034	15572
877.162	15553
877.29	15553
877.418	15572
877.546	15633
877.674	15542
877.802	15557
877.93	15542
878.058	15530
878.185	15443
878.313	15568
878.441	15595
878.568	15443
878.696	15519
878.824	15538
878.951	15629
879.079	15800
879.206	15823
879.333	15797
879.461	15717
879.588	15648
879.715	15804
879.842	15899
879.97	15656
880.097	15504
880.224	15443
880.351	15435
880.478	15386
880.605	15378
880.732	15382
880.859	15694
880.986	15526
881.112	15481
881.239	15412
881.366	15264
881.493	15165
881.619	15024
881.746	15154
881.872	15085
881.999	14990
882.125	15070
882.252	15195
882.378	15112
882.505	15241
882.631	15047
882.757	14861
882.883	15032
883.01	15070
883.136	14876
883.262	14815
883.388	14788
883.514	14849
883.64	14914
883.766	14899
883.892	14735
884.018	14792
884.143	14929
884.269	15013
884.395	14610
884.52	14549
884.646	14575
884.772	14549
884.897	14495
885.023	14610
885.148	14724
885.274	14762
885.399	14739
885.524	14598
885.65	14617
885.775	14571
885.9	14720
886.025	14788
886.15	14701
886.275	14640
886.4	14499
886.525	14579
886.65	14484
886.775	14564
886.9	14697
887.025	14868
887.149	14640
887.274	14560
887.399	14404
887.523	14408
887.648	14381
887.773	14366
887.897	14552
888.021	14514
888.146	14355
888.27	14537
888.395	14579
888.519	14590
888.643	14522
888.767	14507
888.891	14461
889.015	14218
889.139	14328
889.263	14317
889.387	14396
889.511	14602
889.635	14442
889.759	14317
889.883	14324
890.006	14320
890.13	14457
890.254	14168
890.377	14332
890.501	14096
890.624	14130
890.748	14172
890.871	14084
890.995	14039
891.118	13974
891.241	13978
891.364	13959
891.488	14164
891.611	14012
891.734	14062
891.857	14077
891.98	14024
892.103	14103
892.226	13989
892.349	14062
892.471	13856
892.594	14012
892.717	13982
892.839	14024
892.962	14096
893.085	14081
893.207	13986
893.33	14039
893.452	13906
893.575	14115
893.697	14077
893.819	14218
893.941	14267
894.064	14107
894.186	13997
894.308	13989
894.43	14191
894.552	14149
894.674	14088
894.796	13986
894.918	14073
895.04	14081
895.161	14191
895.283	14172
895.405	14149
895.526	14206
895.648	14134
895.769	14240
895.891	14218
896.012	14404
896.134	14290
896.255	14256
896.376	14123
896.498	14161
896.619	14278
896.74	14161
896.861	14286
896.982	14495
897.103	14705
897.224	14518
897.345	14454
897.466	14294
897.587	14408
897.708	14492
897.828	14526
897.949	14396
898.07	14381
898.19	14438
898.311	14590
898.431	14507
898.552	14492
898.672	14579
898.792	14632
898.913	14541
899.033	14514
899.153	14370
899.273	14271
899.393	14347
899.513	14450
899.633	14446
899.753	14336
899.873	14404
899.993	14412
900.113	14488
900.232	14374
900.352	14320
900.472	14263
900.591	14210
900.711	14309
900.83	14278
900.95	14427
901.069	14252
901.189	14149
901.308	13967
901.427	13883
901.546	13959
901.665	14024
901.784	14008
901.904	13871
902.023	13708
902.141	13533
902.26	13548
902.379	13594
902.498	13502
902.617	13533
902.735	13548
902.854	13495
902.973	13449
903.091	13236
903.21	13259
903.328	13320
903.446	13247
903.565	13149
903.683	13152
903.801	13034
903.919	13053
904.038	13103
904.156	12867
904.274	13012
904.392	12882
904.51	12989
904.627	12772
904.745	12894
904.863	13012
904.981	12654
905.098	12631
905.216	12604
905.334	12642
905.451	12639
905.569	12589
905.686	12597
905.803	12559
905.921	12494
906.038	12559
906.155	12414
906.272	12342
906.389	12330
906.506	12266
906.623	12197
906.74	12194
906.857	12098
906.974	12148
907.091	12296
907.208	12258
907.324	12136
907.441	12045
907.557	11946
907.674	11901
907.79	11889
907.907	11847
908.023	11961
908.139	11935
908.256	11863
908.372	11790
908.488	11817
908.604	11672
908.72	11585
908.836	11802
908.952	11707
909.068	11699
909.184	11813
909.3	11722
909.415	11745
909.531	11718
909.647	11433
909.762	11402
909.878	11444
909.993	11512
910.108	11474
910.224	11429
910.339	11478
910.454	11395
910.57	11315
910.685	11231
910.8	11452
910.915	11436
911.03	11444
911.145	11220
911.259	11083
911.374	11117
911.489	11037
911.604	11098
911.718	10938
911.833	10972
911.947	10809
912.062	10691
912.176	11003
912.291	10930
912.405	10968
912.519	11090
912.633	11067
912.748	10957
912.862	10927
912.976	10736
913.09	10683
913.204	10748
913.318	10767
913.431	10896
913.545	10869
913.659	10854
913.772	10725
913.886	10584
914	10675
914.113	10778
914.226	10881
914.34	10763
914.453	10660
914.566	10763
914.68	10554
914.793	10729
914.906	10451
915.019	10390
915.132	10268
915.245	10443
915.358	10390
915.47	10470
915.583	10504
915.696	10481
915.809	10523
915.921	10577
916.034	10375
916.146	10443
916.259	10337
916.371	10470
916.483	10481
916.595	10348
916.708	10386
916.82	10348
916.932	10303
917.044	10382
917.156	10299
917.268	10261
917.38	10249
917.491	10185
917.603	10284
917.715	10382
917.826	10268
917.938	10177
918.049	10074
918.161	10291
918.272	10322
918.384	10398
918.495	10249
918.606	10116
918.717	10040
918.828	10090
918.939	10200
919.05	10067
919.161	10120
919.272	9903
919.383	9994
919.494	10188
919.604	10443
919.715	10124
919.826	10078
919.936	10067
920.047	10181
920.157	10196
920.267	10398
920.378	10223
920.488	10139
920.598	10375
920.708	10421
920.818	10386
920.928	10371
921.038	10580
921.148	10459
921.258	10188
921.368	10234
921.477	10139
921.587	9975
921.697	9964
921.806	10040
921.916	9865
922.025	9743
922.134	9766
922.244	9625
922.353	9819
922.462	9614
922.571	9549
922.68	9412
922.789	9340
922.898	9420
923.007	9393
923.116	9435
923.224	9382
923.333	9370
923.442	9241
923.55	9249
923.659	9291
923.767	9310
923.876	9283
923.984	9393
924.092	9222
924.201	9302
924.309	9268
924.417	9310
924.525	9237
924.633	9222
924.741	10135
924.849	9116
924.956	9169
925.064	9036
925.172	9116
925.279	9077
925.387	9127
925.494	9085
925.602	9157
925.709	9135
925.816	9032
925.924	9077
926.031	9142
926.138	9093
926.245	9142
926.352	8990
926.459	9123
926.566	9173
926.673	9074
926.779	9017
926.886	8861
926.993	8853
927.099	8781
927.206	8807
927.312	8758
927.419	8857
927.525	8845
927.631	8834
927.737	8777
927.843	8667
927.95	8560
928.056	8686
928.162	8651
928.267	8670
928.373	9218
928.479	8716
928.585	8476
928.69	8708
928.796	8750
928.901	8537
929.007	8423
929.112	8693
929.218	8541
929.323	8541
929.428	8480
929.533	8636
929.638	8434
929.743	8495
929.848	8533
929.953	8457
930.058	8396
930.163	8290
930.267	8279
930.372	8408
930.477	8218
930.581	8507
930.685	8298
930.79	8237
930.894	8252
930.998	8221
931.103	8362
931.207	7986
931.311	7986
931.415	7906
931.519	7689
931.623	7776
