Data from test_V78500241_2612.txt Node
Date: Fri Mar 25 14:51:54 CST 2022
User: usil
Spectrometer: V785-0024
Trigger mode: 0
Integration Time (sec): 4.000000E-1
Scans to average: 1
Nonlinearity correction enabled: false
Boxcar width: 0
Storing dark spectrum: false
XAxis mode: Wavelengths
Number of Pixels in Spectrum: 1024
>>>>>Begin Spectral Data<<<<<
801.071	21926
801.214	21865
801.356	21603
801.499	21485
801.641	21450
801.783	21401
801.926	21564
802.068	21336
802.211	21188
802.353	21047
802.496	20891
802.638	20872
802.78	20826
802.923	20819
803.065	20682
803.208	20648
803.35	20693
803.492	20861
803.635	20781
803.777	20724
803.919	20769
804.061	20937
804.204	20682
804.346	20659
804.488	20613
804.63	20564
804.773	20434
804.915	20686
805.057	20727
805.199	20621
805.341	20739
805.483	20743
805.626	20674
805.768	20571
805.91	20632
806.052	20678
806.194	20530
806.336	20632
806.478	20423
806.62	20625
806.762	20632
806.904	20769
807.046	21066
807.188	20975
807.33	20967
807.472	21013
807.614	20868
807.756	20845
807.898	20788
808.04	20712
808.182	20670
808.324	20686
808.465	20697
808.607	20925
808.749	20990
808.891	21138
809.033	21138
809.174	21055
809.316	21005
809.458	20952
809.6	20857
809.741	20990
809.883	21100
810.025	21001
810.166	21123
810.308	21108
810.45	21093
810.591	20994
810.733	20769
810.875	20720
811.016	20667
811.158	20613
811.299	20811
811.441	20834
811.582	20804
811.724	20720
811.865	20655
812.007	20651
812.148	20674
812.29	20640
812.431	20887
812.573	21066
812.714	21108
812.855	21176
812.997	21287
813.138	21367
813.279	21378
813.421	21230
813.562	21165
813.703	21005
813.845	20925
813.986	20594
814.127	20366
814.268	20339
814.41	20298
814.551	20324
814.692	20419
814.833	20233
814.974	20282
815.115	20210
815.256	20077
815.397	20130
815.539	20259
815.68	20065
815.821	19982
815.962	20031
816.103	20073
816.244	19898
816.385	19788
816.526	19685
816.666	19575
816.807	19411
816.948	19563
817.089	19540
817.23	19476
817.371	19400
817.512	19381
817.653	19438
817.793	19430
817.934	19377
818.075	19388
818.216	19400
818.356	19320
818.497	19202
818.638	19008
818.778	19095
818.919	19107
819.06	19232
819.2	19232
819.341	19381
819.481	19255
819.622	19468
819.762	19647
819.903	19514
820.043	19453
820.184	19362
820.324	19449
820.465	19415
820.605	19392
820.746	19400
820.886	19293
821.026	19358
821.167	19324
821.307	19346
821.447	19236
821.588	19285
821.728	19076
821.868	18840
822.008	18852
822.149	18863
822.289	18825
822.429	18498
822.569	18483
822.709	18494
822.849	18304
822.99	18315
823.13	18266
823.27	18285
823.41	18102
823.55	18064
823.69	18060
823.83	18095
823.97	18022
824.11	17863
824.25	17874
824.389	17961
824.529	17897
824.669	17961
824.809	17973
824.949	17950
825.089	17965
825.228	17901
825.368	17741
825.508	17714
825.648	17737
825.787	17726
825.927	17642
826.067	17577
826.206	17638
826.346	17672
826.485	17752
826.625	17566
826.765	17619
826.904	17581
827.044	17528
827.183	17436
827.323	17303
827.462	17455
827.601	17368
827.741	17360
827.88	17410
828.02	17269
828.159	17372
828.298	17379
828.437	17436
828.577	17440
828.716	17410
828.855	17311
828.994	17231
829.134	17159
829.273	17086
829.412	17033
829.551	17083
829.69	17166
829.829	17200
829.968	17242
830.107	17239
830.246	17147
830.385	17033
830.524	16991
830.663	17079
830.802	16919
830.941	16748
831.08	16694
831.219	16755
831.357	16767
831.496	16953
831.635	16687
831.774	16626
831.913	16725
832.051	16500
832.19	16554
832.329	16573
832.467	16440
832.606	16390
832.744	16344
832.883	16440
833.022	16379
833.16	16500
833.299	16443
833.437	16535
833.576	16481
833.714	16481
833.852	16474
833.991	16443
834.129	16580
834.267	16546
834.406	16405
834.544	16478
834.682	16603
834.821	16470
834.959	16683
835.097	16363
835.235	16535
835.373	16531
835.511	16573
835.65	16375
835.788	16367
835.926	16303
836.064	16234
836.202	16253
836.34	16348
836.478	16462
836.615	16379
836.753	16462
836.891	16504
837.029	16478
837.167	16409
837.305	16371
837.443	16280
837.58	16299
837.718	16306
837.856	16253
837.993	16226
838.131	16276
838.269	16272
838.406	16177
838.544	16124
838.681	16006
838.819	15991
838.956	15762
839.094	15797
839.231	15895
839.369	15941
839.506	16230
839.643	16101
839.781	15873
839.918	15850
840.055	15884
840.193	15876
840.33	15766
840.467	15819
840.604	15835
840.742	16074
840.879	15644
841.016	15641
841.153	15766
841.29	15964
841.427	15819
841.564	15831
841.701	15873
841.838	15759
841.975	15774
842.112	15808
842.249	15625
842.385	15545
842.522	15797
842.659	15606
842.796	15519
842.933	15656
843.069	15553
843.206	15462
843.343	15671
843.479	15648
843.616	15618
843.752	15428
843.889	15367
844.025	15622
844.162	15420
844.298	15428
844.435	15454
844.571	15397
844.708	15473
844.844	15591
844.98	15568
845.117	15538
845.253	15283
845.389	15302
845.525	15351
845.661	15226
845.798	15287
845.934	15275
846.07	15252
846.206	15199
846.342	15382
846.478	15260
846.614	15017
846.75	14933
846.886	14887
847.022	15112
847.158	15005
847.294	14883
847.429	14982
847.565	14971
847.701	15165
847.837	14762
847.972	14739
848.108	14765
848.244	14792
848.379	14560
848.515	14556
848.65	14507
848.786	14575
848.921	14575
849.057	14689
849.192	14670
849.328	14640
849.463	14488
849.598	14507
849.734	14476
849.869	14556
850.004	14259
850.14	14351
850.275	14355
850.41	14271
850.545	14290
850.68	14301
850.815	14290
850.95	14336
851.085	14442
851.22	14503
851.355	14355
851.49	14282
851.625	14301
851.76	14214
851.895	14168
852.03	14225
852.165	14317
852.299	14282
852.434	14484
852.569	14396
852.703	14271
852.838	14427
852.973	14549
853.107	14522
853.242	14324
853.376	14286
853.511	14142
853.645	14138
853.78	14332
853.914	14191
854.048	14187
854.183	14199
854.317	14206
854.451	14298
854.585	14172
854.72	14221
854.854	14248
854.988	14046
855.122	14237
855.256	14027
855.39	14248
855.524	14366
855.658	14183
855.792	14233
855.926	14153
856.06	14145
856.194	14396
856.327	14275
856.461	14229
856.595	14142
856.729	14180
856.862	14347
856.996	14145
857.13	14218
857.263	14343
857.397	14332
857.53	14202
857.664	14267
857.797	14408
857.931	14389
858.064	14275
858.197	14267
858.331	14210
858.464	14134
858.597	14096
858.731	14172
858.864	14153
858.997	14149
859.13	14324
859.263	14157
859.396	14248
859.529	14107
859.662	14225
859.795	14126
859.928	14183
860.061	14317
860.194	14442
860.327	14191
860.46	14145
860.592	14366
860.725	14339
860.858	14404
860.99	14221
861.123	14149
861.256	14142
861.388	14191
861.521	14876
861.653	14126
861.786	13963
861.918	14031
862.05	14123
862.183	14195
862.315	14195
862.447	14199
862.58	14111
862.712	13947
862.844	13982
862.976	14035
863.108	13944
863.24	14465
863.372	14012
863.504	14027
863.636	14001
863.768	14134
863.9	14092
864.032	13974
864.164	14016
864.296	14039
864.428	14134
864.559	14050
864.691	14111
864.823	14058
864.954	13963
865.086	13989
865.217	13932
865.349	13951
865.48	13917
865.612	14001
865.743	14096
865.875	14001
866.006	13883
866.137	14027
866.269	14001
866.4	13963
866.531	13986
866.662	13936
866.793	13936
866.924	13970
867.055	14008
867.186	13959
867.317	13917
867.448	13894
867.579	13947
867.71	13913
867.841	13841
867.972	14043
868.103	13963
868.233	14024
868.364	13989
868.495	14077
868.625	14218
868.756	14332
868.886	14248
869.017	14180
869.147	14305
869.278	14336
869.408	14164
869.539	14206
869.669	14252
869.799	14324
869.929	14336
870.06	14324
870.19	14533
870.32	14533
870.45	14621
870.58	14625
870.71	14644
870.84	14785
870.97	14708
871.1	14636
871.23	14765
871.36	14785
871.489	14754
871.619	14834
871.749	14914
871.879	14883
872.008	14902
872.138	14899
872.267	14777
872.397	14693
872.526	14663
872.656	14655
872.785	14731
872.915	14914
873.044	15062
873.173	14864
873.303	14842
873.432	14857
873.561	14979
873.69	14941
873.819	14861
873.948	14982
874.077	14845
874.206	14857
874.335	14994
874.464	14990
874.593	15222
874.722	15184
874.851	15256
874.979	15176
875.108	15329
875.237	15169
875.365	15074
875.494	15100
875.623	15237
875.751	15211
875.88	15279
876.008	15298
876.136	15329
876.265	15606
876.393	15861
876.521	15660
876.65	15705
876.778	15701
876.906	15663
877.034	15469
877.162	15675
877.29	15686
877.418	15686
877.546	15591
877.674	15660
877.802	15576
877.93	15652
878.058	15572
878.185	15542
878.313	15618
878.441	15694
878.568	15393
878.696	15641
878.824	15610
878.951	15686
879.079	15766
879.206	15861
879.333	15759
879.461	15656
879.588	15701
879.715	15846
879.842	15903
879.97	15713
880.097	15477
880.224	15549
880.351	15386
880.478	15454
880.605	15519
880.732	15542
880.859	15747
880.986	15507
881.112	15523
881.239	15473
881.366	15325
881.493	15161
881.619	15100
881.746	15085
881.872	15119
881.999	15116
882.125	15074
882.252	15169
882.378	15146
882.505	15233
882.631	14998
882.757	14941
882.883	15043
883.01	14872
883.136	14864
883.262	14750
883.388	14773
883.514	14971
883.64	14937
883.766	14895
883.892	14781
884.018	14823
884.143	14918
884.269	14975
884.395	14708
884.52	14556
884.646	14648
884.772	14621
884.897	14461
885.023	14773
885.148	14697
885.274	14804
885.399	14891
885.524	14606
885.65	14625
885.775	14705
885.9	14792
886.025	14781
886.15	14769
886.275	14625
886.4	14480
886.525	14682
886.65	14594
886.775	14549
886.9	14746
887.025	14853
887.149	14659
887.274	14457
887.399	14412
887.523	14503
887.648	14381
887.773	14370
887.897	14590
888.021	14625
888.146	14427
888.27	14499
888.395	14579
888.519	14476
888.643	14484
888.767	14575
888.891	14450
889.015	14351
889.139	14393
889.263	14298
889.387	14518
889.511	14590
889.635	14434
889.759	14377
889.883	14438
890.006	14415
890.13	14484
890.254	14267
890.377	14332
890.501	14199
890.624	14225
890.748	14202
890.871	14081
890.995	13894
891.118	13978
891.241	13997
891.364	14054
891.488	14172
891.611	14035
891.734	14073
891.857	14134
891.98	14050
892.103	14115
892.226	14161
892.349	14088
892.471	13967
892.594	14020
892.717	14142
892.839	14069
892.962	14043
893.085	14123
893.207	14016
893.33	13871
893.452	14016
893.575	14142
893.697	14054
893.819	14259
893.941	14317
894.064	14130
894.186	13997
894.308	13925
894.43	14214
894.552	14313
894.674	14195
894.796	14058
894.918	14115
895.04	14039
895.161	14282
895.283	14115
895.405	14126
895.526	14092
895.648	14138
895.769	14244
895.891	14202
896.012	14294
896.134	14275
896.255	14275
896.376	14252
896.498	14267
896.619	14275
896.74	14248
896.861	14290
896.982	14530
897.103	14693
897.224	14526
897.345	14469
897.466	14431
897.587	14461
897.708	14587
897.828	14568
897.949	14450
898.07	14355
898.19	14541
898.311	14598
898.431	14541
898.552	14541
898.672	14659
898.792	14712
898.913	14526
899.033	14450
899.153	14446
899.273	14328
899.393	14271
899.513	14389
899.633	14461
899.753	14469
899.873	14313
899.993	14492
900.113	14412
900.232	14412
900.352	14374
900.472	14336
900.591	14286
900.711	14355
900.83	14195
900.95	14320
901.069	14389
901.189	14183
901.308	14012
901.427	13951
901.546	13967
901.665	14016
901.784	13936
901.904	13807
902.023	13746
902.141	13651
902.26	13559
902.379	13655
902.498	13476
902.617	13411
902.735	13552
902.854	13434
902.973	13552
903.091	13327
903.21	13320
903.328	13232
903.446	13183
903.565	13122
903.683	13129
903.801	13069
903.919	13152
904.038	13057
904.156	12985
904.274	12989
904.392	12913
904.51	12954
904.627	12897
904.745	12928
904.863	12890
904.981	12681
905.098	12593
905.216	12654
905.334	12684
905.451	12540
905.569	12559
905.686	12627
905.803	12677
905.921	12502
906.038	12506
906.155	12464
906.272	12365
906.389	12308
906.506	12209
906.623	12209
906.74	12213
906.857	12026
906.974	12155
907.091	12213
907.208	12239
907.324	12270
907.441	12163
907.557	12003
907.674	11946
907.79	11920
907.907	11927
908.023	11999
908.139	11984
908.256	11863
908.372	11935
908.488	11878
908.604	11722
908.72	11608
908.836	11737
908.952	11623
909.068	11764
909.184	11855
909.3	11779
909.415	11745
909.531	11748
909.647	11539
909.762	11505
909.878	11448
909.993	11471
910.108	11414
910.224	11421
910.339	11490
910.454	11471
910.57	11334
910.685	11303
910.8	11482
910.915	11532
911.03	11421
911.145	11189
911.259	11151
911.374	11174
911.489	11056
911.604	11025
911.718	10889
911.833	11037
911.947	10820
912.062	10710
912.176	10949
912.291	10949
912.405	10896
912.519	11136
912.633	11170
912.748	10999
912.862	11037
912.976	10828
913.09	10759
913.204	10736
913.318	10850
913.431	10915
913.545	10858
913.659	10938
913.772	10854
913.886	10744
914	10717
914.113	10740
914.226	10847
914.34	10702
914.453	10569
914.566	10782
914.68	10641
914.793	10645
914.906	10504
915.019	10398
915.132	10348
915.245	10390
915.358	10500
915.47	10443
915.583	10481
915.696	10531
915.809	10527
915.921	10611
916.034	10413
916.146	10428
916.259	10344
916.371	10489
916.483	10527
916.595	10344
916.708	10341
916.82	10394
916.932	10382
917.044	10363
917.156	10375
917.268	10265
917.38	10242
917.491	10246
917.603	10325
917.715	10352
917.826	10333
917.938	10192
918.049	10147
918.161	10230
918.272	10375
918.384	10405
918.495	10333
918.606	10185
918.717	10040
918.828	10242
918.939	10207
919.05	10086
919.161	10109
919.272	9926
919.383	10002
919.494	10185
919.604	10303
919.715	10162
919.826	10059
919.936	10051
920.047	10223
920.157	10158
920.267	10474
920.378	10242
920.488	10173
920.598	10409
920.708	10508
920.818	10390
920.928	10402
921.038	10561
921.148	10519
921.258	10253
921.368	10101
921.477	9994
921.587	10040
921.697	9873
921.806	10048
921.916	9968
922.025	9804
922.134	9789
922.244	9705
922.353	9793
922.462	9622
922.571	9500
922.68	9367
922.789	9359
922.898	9420
923.007	9431
923.116	9420
923.224	9443
923.333	9408
923.442	9351
923.55	9302
923.659	9355
923.767	9378
923.876	9310
923.984	9359
924.092	9272
924.201	9283
924.309	9321
924.417	9382
924.525	9272
924.633	9306
924.741	10010
924.849	9123
924.956	9233
925.064	9070
925.172	8994
925.279	8979
925.387	9074
925.494	9051
925.602	9313
925.709	9157
925.816	9001
925.924	9039
926.031	9211
926.138	9081
926.245	9051
926.352	9009
926.459	9176
926.566	9192
926.673	9043
926.779	8918
926.886	8876
926.993	8876
927.099	8861
927.206	8735
927.312	8769
927.419	8864
927.525	8864
927.631	8864
927.737	8754
927.843	8644
927.95	8583
928.056	8617
928.162	8754
928.267	8743
928.373	9363
928.479	8785
928.585	8613
928.69	8678
928.796	8739
928.901	8670
929.007	8469
929.112	8602
929.218	8564
929.323	8556
929.428	8465
929.533	8682
929.638	8507
929.743	8583
929.848	8526
929.953	8461
930.058	8415
930.163	8263
930.267	8298
930.372	8389
930.477	8290
930.581	8556
930.685	8377
930.79	8343
930.894	8301
930.998	8229
931.103	8400
931.207	8096
931.311	8062
931.415	7947
931.519	7750
931.623	7742
