Data from test_V78500241_1237.txt Node
Date: Fri Mar 25 14:42:19 CST 2022
User: usil
Spectrometer: V785-0024
Trigger mode: 0
Integration Time (sec): 4.000000E-1
Scans to average: 1
Nonlinearity correction enabled: false
Boxcar width: 0
Storing dark spectrum: false
XAxis mode: Wavelengths
Number of Pixels in Spectrum: 1024
>>>>>Begin Spectral Data<<<<<
801.071	22474
801.214	22344
801.356	21937
801.499	22017
801.641	21816
801.783	21850
801.926	21755
802.068	21793
802.211	21641
802.353	21458
802.496	21291
802.638	21195
802.78	21207
802.923	21230
803.065	21108
803.208	21116
803.35	21138
803.492	21252
803.635	21313
803.777	21055
803.919	21195
804.061	21363
804.204	21241
804.346	21211
804.488	20998
804.63	20960
804.773	20941
804.915	21116
805.057	21074
805.199	20990
805.341	21161
805.483	21062
805.626	21127
805.768	20967
805.91	21074
806.052	21028
806.194	20887
806.336	21135
806.478	21047
806.62	20925
806.762	21112
806.904	21287
807.046	21507
807.188	21310
807.33	21428
807.472	21420
807.614	21302
807.756	21344
807.898	21252
808.04	21108
808.182	21165
808.324	21112
808.465	21184
808.607	21416
808.749	21492
808.891	21587
809.033	21633
809.174	21622
809.316	21443
809.458	21523
809.6	21370
809.741	21515
809.883	21473
810.025	21648
810.166	21606
810.308	21553
810.45	21538
810.591	21310
810.733	21340
810.875	21310
811.016	21188
811.158	21028
811.299	21294
811.441	21310
811.582	21355
811.724	21252
811.865	21020
812.007	21169
812.148	21211
812.29	21256
812.431	21428
812.573	21496
812.714	21660
812.855	21591
812.997	21694
813.138	21835
813.279	21842
813.421	21694
813.562	21458
813.703	21439
813.845	21256
813.986	21001
814.127	20845
814.268	20788
814.41	20819
814.551	20644
814.692	20868
814.833	20640
814.974	20678
815.115	20712
815.256	20541
815.397	20602
815.539	20617
815.68	20415
815.821	20374
815.962	20514
816.103	20465
816.244	20427
816.385	20286
816.526	20225
816.666	20031
816.807	19860
816.948	19978
817.089	19989
817.23	19871
817.371	19776
817.512	19871
817.653	19849
817.793	19830
817.934	19864
818.075	19849
818.216	19993
818.356	19868
818.497	19693
818.638	19571
818.778	19685
818.919	19529
819.06	19567
819.2	19746
819.341	19723
819.481	19826
819.622	19906
819.762	20164
819.903	20020
820.043	19868
820.184	19902
820.324	19818
820.465	19898
820.605	19928
820.746	19822
820.886	19628
821.026	19906
821.167	19883
821.307	19936
821.447	19856
821.588	19738
821.728	19575
821.868	19373
822.008	19244
822.149	19259
822.289	19301
822.429	19053
822.569	19046
822.709	19034
822.849	18787
822.99	18753
823.13	18715
823.27	18787
823.41	18544
823.55	18494
823.69	18559
823.83	18631
823.97	18604
824.11	18426
824.25	18407
824.389	18464
824.529	18384
824.669	18395
824.809	18479
824.949	18536
825.089	18418
825.228	18433
825.368	18167
825.508	18083
825.648	18224
825.787	18129
825.927	18197
826.067	18224
826.206	18186
826.346	18152
826.485	18262
826.625	18129
826.765	18369
826.904	18213
827.044	17950
827.183	17954
827.323	17805
827.462	17912
827.601	17764
827.741	17779
827.88	17893
828.02	17745
828.159	17847
828.298	17836
828.437	17931
828.577	17805
828.716	17958
828.855	17790
828.994	17703
829.134	17695
829.273	17592
829.412	17596
829.551	17668
829.69	17608
829.829	17676
829.968	17741
830.107	17794
830.246	17596
830.385	17642
830.524	17596
830.663	17452
830.802	17360
830.941	17220
831.08	17220
831.219	17235
831.357	17372
831.496	17471
831.635	17250
831.774	17193
831.913	17189
832.051	17109
832.19	17056
832.329	17151
832.467	17006
832.606	16900
832.744	16869
832.883	17064
833.022	16877
833.16	17014
833.299	16980
833.437	17064
833.576	17056
833.714	16961
833.852	17052
833.991	17075
834.129	17098
834.267	17094
834.406	17052
834.544	17022
834.682	17083
834.821	17064
834.959	17140
835.097	16991
835.235	16976
835.373	17105
835.511	16991
835.65	16919
835.788	16915
835.926	16828
836.064	16717
836.202	16881
836.34	17022
836.478	16968
836.615	16953
836.753	16904
836.891	16961
837.029	16972
837.167	16820
837.305	16877
837.443	16790
837.58	16740
837.718	16896
837.856	16812
837.993	16812
838.131	16805
838.269	16736
838.406	16744
838.544	16607
838.681	16485
838.819	16508
838.956	16363
839.094	16371
839.231	16402
839.369	16497
839.506	16721
839.643	16489
839.781	16371
839.918	16310
840.055	16306
840.193	16314
840.33	16356
840.467	16268
840.604	16314
840.742	16516
840.879	16200
841.016	16261
841.153	16284
841.29	16459
841.427	16360
841.564	16436
841.701	16382
841.838	16303
841.975	16234
842.112	16284
842.249	16044
842.385	16002
842.522	16253
842.659	16116
842.796	16082
842.933	16139
843.069	16055
843.206	16116
843.343	16135
843.479	16093
843.616	16215
843.752	15880
843.889	15949
844.025	15987
844.162	15831
844.298	16036
844.435	15873
844.571	15892
844.708	15964
844.844	16036
844.98	16006
845.117	16017
845.253	15861
845.389	15816
845.525	15899
845.661	15789
845.798	15774
845.934	15774
846.07	15857
846.206	15861
846.342	15873
846.478	15755
846.614	15538
846.75	15496
846.886	15458
847.022	15557
847.158	15515
847.294	15492
847.429	15595
847.565	15549
847.701	15637
847.837	15237
847.972	15291
848.108	15218
848.244	15287
848.379	15207
848.515	15097
848.65	15074
848.786	15131
848.921	15070
849.057	15203
849.192	15085
849.328	15089
849.463	15184
849.598	15104
849.734	15020
849.869	14906
850.004	14872
850.14	14804
850.275	14807
850.41	14785
850.545	14762
850.68	14762
850.815	14944
850.95	14868
851.085	15028
851.22	14868
851.355	14853
851.49	14823
851.625	14788
851.76	14739
851.895	14674
852.03	14739
852.165	14765
852.299	14769
852.434	15043
852.569	14830
852.703	14921
852.838	14902
852.973	15009
853.107	14967
853.242	14807
853.376	14606
853.511	14571
853.645	14644
853.78	14830
853.914	14773
854.048	14693
854.183	14659
854.317	14735
854.451	14845
854.585	14667
854.72	14598
854.854	14720
854.988	14636
855.122	14750
855.256	14541
855.39	14678
855.524	14693
855.658	14777
855.792	14830
855.926	14739
856.06	14674
856.194	14826
856.327	14750
856.461	14716
856.595	14606
856.729	14590
856.862	14838
856.996	14720
857.13	14743
857.263	14800
857.397	14857
857.53	14670
857.664	14792
857.797	14849
857.931	14785
858.064	14826
858.197	14743
858.331	14716
858.464	14689
858.597	14598
858.731	14655
858.864	14727
858.997	14629
859.13	14708
859.263	14667
859.396	14670
859.529	14731
859.662	14613
859.795	14708
859.928	14731
860.061	14876
860.194	14849
860.327	14701
860.46	14644
860.592	14800
860.725	14781
860.858	14773
860.99	14651
861.123	14571
861.256	14636
861.388	14708
861.521	15313
861.653	14533
861.786	14503
861.918	14492
862.05	14469
862.183	14590
862.315	14651
862.447	14651
862.58	14602
862.712	14457
862.844	14476
862.976	14594
863.108	14518
863.24	14921
863.372	14423
863.504	14537
863.636	14473
863.768	14552
863.9	14518
864.032	14343
864.164	14442
864.296	14495
864.428	14629
864.559	14495
864.691	14484
864.823	14484
864.954	14469
865.086	14476
865.217	14488
865.349	14434
865.48	14431
865.612	14446
865.743	14579
865.875	14514
866.006	14431
866.137	14507
866.269	14419
866.4	14412
866.531	14480
866.662	14404
866.793	14358
866.924	14389
867.055	14400
867.186	14404
867.317	14290
867.448	14355
867.579	14404
867.71	14374
867.841	14328
867.972	14438
868.103	14415
868.233	14423
868.364	14507
868.495	14511
868.625	14678
868.756	14788
868.886	14560
869.017	14727
869.147	14773
869.278	14792
869.408	14731
869.539	14689
869.669	14739
869.799	14716
869.929	14754
870.06	14834
870.19	15123
870.32	15013
870.45	14990
870.58	15127
870.71	15199
870.84	15154
870.97	15146
871.1	15020
871.23	15264
871.36	15310
871.489	15127
871.619	15340
871.749	15237
871.879	15313
872.008	15348
872.138	15237
872.267	15310
872.397	15093
872.526	15070
872.656	15055
872.785	15093
872.915	15351
873.044	15408
873.173	15340
873.303	15363
873.432	15401
873.561	15317
873.69	15287
873.819	15340
873.948	15389
874.077	15389
874.206	15359
874.335	15374
874.464	15488
874.593	15690
874.722	15584
874.851	15599
874.979	15644
875.108	15770
875.237	15485
875.365	15625
875.494	15580
875.623	15701
875.751	15679
875.88	15686
876.008	15641
876.136	15873
876.265	16059
876.393	16166
876.521	16063
876.65	16139
876.778	16010
876.906	16013
877.034	15926
877.162	16109
877.29	16025
877.418	15945
877.546	16025
877.674	15998
877.802	16109
877.93	16032
878.058	15937
878.185	15964
878.313	16074
878.441	16021
878.568	15941
878.696	16071
878.824	16074
878.951	16124
879.079	16246
879.206	16474
879.333	16322
879.461	16086
879.588	16226
879.715	16322
879.842	16493
879.97	16192
880.097	15869
880.224	15979
880.351	15941
880.478	15911
880.605	15797
880.732	15915
880.859	16150
880.986	15941
881.112	15903
881.239	15831
881.366	15701
881.493	15675
881.619	15576
881.746	15450
881.872	15542
881.999	15667
882.125	15454
882.252	15595
882.378	15515
882.505	15732
882.631	15622
882.757	15408
882.883	15492
883.01	15435
883.136	15359
883.262	15203
883.388	15252
883.514	15443
883.64	15458
883.766	15237
883.892	15180
884.018	15138
884.143	15428
884.269	15526
884.395	15032
884.52	15028
884.646	15100
884.772	15081
884.897	14967
885.023	15081
885.148	15108
885.274	15237
885.399	15180
885.524	15077
885.65	15135
885.775	15131
885.9	15100
886.025	15176
886.15	15310
886.275	14979
886.4	14998
886.525	15013
886.65	14982
886.775	15036
886.9	15165
887.025	15332
887.149	14986
887.274	14899
887.399	14906
887.523	14906
887.648	14815
887.773	14796
887.897	14944
888.021	14918
888.146	14910
888.27	14963
888.395	14998
888.519	14956
888.643	14963
888.767	14899
888.891	14788
889.015	14659
889.139	14834
889.263	14667
889.387	14895
889.511	14963
889.635	14842
889.759	14727
889.883	14659
890.006	14800
890.13	14872
890.254	14716
890.377	14712
890.501	14568
890.624	14419
890.748	14621
890.871	14488
890.995	14317
891.118	14309
891.241	14396
891.364	14450
891.488	14629
891.611	14415
891.734	14374
891.857	14480
891.98	14522
892.103	14522
892.226	14473
892.349	14488
892.471	14233
892.594	14442
892.717	14473
892.839	14473
892.962	14465
893.085	14503
893.207	14415
893.33	14339
893.452	14336
893.575	14514
893.697	14362
893.819	14629
893.941	14606
894.064	14549
894.186	14495
894.308	14396
894.43	14602
894.552	14693
894.674	14514
894.796	14393
894.918	14488
895.04	14400
895.161	14511
895.283	14636
895.405	14507
895.526	14522
895.648	14484
895.769	14450
895.891	14602
896.012	14587
896.134	14617
896.255	14598
896.376	14454
896.498	14549
896.619	14678
896.74	14606
896.861	14686
896.982	14921
897.103	14998
897.224	14960
897.345	14849
897.466	14826
897.587	14906
897.708	14979
897.828	14899
897.949	14678
898.07	14716
898.19	14823
898.311	14883
898.431	14842
898.552	14883
898.672	15001
898.792	15055
898.913	14990
899.033	14861
899.153	14872
899.273	14705
899.393	14762
899.513	14792
899.633	14891
899.753	14788
899.873	14735
899.993	14826
900.113	14788
900.232	14830
900.352	14788
900.472	14590
900.591	14579
900.711	14655
900.83	14552
900.95	14678
901.069	14708
901.189	14571
901.308	14374
901.427	14263
901.546	14282
901.665	14332
901.784	14339
901.904	14145
902.023	14043
902.141	13883
902.26	13875
902.379	13928
902.498	13875
902.617	13776
902.735	13860
902.854	13898
902.973	13791
903.091	13620
903.21	13590
903.328	13609
903.446	13434
903.565	13324
903.683	13419
903.801	13320
903.919	13327
904.038	13403
904.156	13209
904.274	13301
904.392	13221
904.51	13263
904.627	13209
904.745	13415
904.863	13312
904.981	12989
905.098	12920
905.216	13004
905.334	12977
905.451	12985
905.569	12924
905.686	13034
905.803	12913
905.921	12810
906.038	12776
906.155	12783
906.272	12608
906.389	12677
906.506	12555
906.623	12544
906.74	12502
906.857	12384
906.974	12361
907.091	12642
907.208	12669
907.324	12589
907.441	12460
907.557	12285
907.674	12243
907.79	12254
907.907	12216
908.023	12342
908.139	12334
908.256	12277
908.372	12155
908.488	12171
908.604	12045
908.72	12053
908.836	11927
908.952	12007
909.068	12057
909.184	12121
909.3	12034
909.415	12121
909.531	12049
909.647	11847
909.762	11775
909.878	11737
909.993	11859
910.108	11779
910.224	11821
910.339	11882
910.454	11661
910.57	11611
910.685	11604
910.8	11893
910.915	11824
911.03	11714
911.145	11520
911.259	11486
911.374	11524
911.489	11551
911.604	11436
911.718	11292
911.833	11277
911.947	11037
912.062	11071
912.176	11159
912.291	11239
912.405	11178
912.519	11478
912.633	11429
912.748	11307
912.862	11159
912.976	11094
913.09	10946
913.204	11029
913.318	11117
913.431	11235
913.545	11197
913.659	11337
913.772	11181
913.886	10980
914	10938
914.113	11090
914.226	11117
914.34	11102
914.453	10942
914.566	11098
914.68	10946
914.793	10942
914.906	10771
915.019	10729
915.132	10664
915.245	10717
915.358	10733
915.47	10774
915.583	10790
915.696	10763
915.809	10877
915.921	10900
916.034	10714
916.146	10592
916.259	10637
916.371	10786
916.483	10744
916.595	10721
916.708	10611
916.82	10664
916.932	10603
917.044	10660
917.156	10675
917.268	10542
917.38	10592
917.491	10546
917.603	10596
917.715	10637
917.826	10649
917.938	10481
918.049	10443
918.161	10550
918.272	10714
918.384	10683
918.495	10516
918.606	10405
918.717	10295
918.828	10344
918.939	10497
919.05	10424
919.161	10382
919.272	10242
919.383	10268
919.494	10504
919.604	10630
919.715	10508
919.826	10352
919.936	10341
920.047	10558
920.157	10436
920.267	10656
920.378	10417
920.488	10489
920.598	10733
920.708	10786
920.818	10649
920.928	10664
921.038	10733
921.148	10733
921.258	10527
921.368	10428
921.477	10295
921.587	10253
921.697	10131
921.806	10310
921.916	10177
922.025	10101
922.134	10048
922.244	9937
922.353	10032
922.462	9880
922.571	9816
922.68	9641
922.789	9618
922.898	9755
923.007	9633
923.116	9709
923.224	9686
923.333	9629
923.442	9610
923.55	9526
923.659	9595
923.767	9599
923.876	9568
923.984	9599
924.092	9466
924.201	9603
924.309	9526
924.417	9568
924.525	9473
924.633	9534
924.741	10173
924.849	9351
924.956	9530
925.064	9287
925.172	9256
925.279	9306
925.387	9340
925.494	9275
925.602	9511
925.709	9401
925.816	9249
925.924	9272
926.031	9416
926.138	9321
926.245	9386
926.352	9218
926.459	9393
926.566	9393
926.673	9332
926.779	9157
926.886	9100
926.993	9058
927.099	9028
927.206	9017
927.312	8952
927.419	9032
927.525	9058
927.631	9081
927.737	8937
927.843	8906
927.95	8754
928.056	8918
928.162	8941
928.267	9024
928.373	9564
928.479	8979
928.585	8731
928.69	8921
928.796	8925
928.901	8876
929.007	8735
929.112	8895
929.218	8689
929.323	8724
929.428	8746
929.533	8948
929.638	8682
929.743	8746
929.848	8792
929.953	8705
930.058	8587
930.163	8537
930.267	8480
930.372	8610
930.477	8499
930.581	8651
930.685	8560
930.79	8461
930.894	8476
930.998	8423
931.103	8499
931.207	8229
931.311	8180
931.415	8142
931.519	7898
931.623	7978
