Data from test_V78500241_2502.txt Node
Date: Fri Mar 25 14:51:08 CST 2022
User: usil
Spectrometer: V785-0024
Trigger mode: 0
Integration Time (sec): 4.000000E-1
Scans to average: 1
Nonlinearity correction enabled: false
Boxcar width: 0
Storing dark spectrum: false
XAxis mode: Wavelengths
Number of Pixels in Spectrum: 1024
>>>>>Begin Spectral Data<<<<<
801.071	22143
801.214	22017
801.356	21739
801.499	21732
801.641	21542
801.783	21416
801.926	21583
802.068	21458
802.211	21317
802.353	21252
802.496	20952
802.638	20868
802.78	20891
802.923	20895
803.065	20739
803.208	20663
803.35	20682
803.492	20838
803.635	21051
803.777	20785
803.919	20800
804.061	21142
804.204	20861
804.346	20750
804.488	20632
804.63	20731
804.773	20598
804.915	20629
805.057	20689
805.199	20594
805.341	20762
805.483	20705
805.626	20781
805.768	20655
805.91	20655
806.052	20724
806.194	20495
806.336	20853
806.478	20511
806.62	20579
806.762	20674
806.904	20754
807.046	21009
807.188	20952
807.33	21062
807.472	21036
807.614	20944
807.756	20849
807.898	20838
808.04	20842
808.182	20720
808.324	20655
808.465	20880
808.607	20979
808.749	20967
808.891	21081
809.033	21332
809.174	21112
809.316	20975
809.458	21127
809.6	21043
809.741	21104
809.883	21173
810.025	21249
810.166	21245
810.308	21218
810.45	21157
810.591	21089
810.733	20956
810.875	20796
811.016	20731
811.158	20735
811.299	20887
811.441	20986
811.582	20887
811.724	20864
811.865	20842
812.007	20792
812.148	20800
812.29	20811
812.431	20929
812.573	21066
812.714	21214
812.855	21370
812.997	21359
813.138	21435
813.279	21386
813.421	21393
813.562	21188
813.703	21081
813.845	20986
813.986	20629
814.127	20457
814.268	20473
814.41	20362
814.551	20324
814.692	20404
814.833	20256
814.974	20301
815.115	20393
815.256	20317
815.397	20256
815.539	20180
815.68	20199
815.821	20016
815.962	20092
816.103	20096
816.244	19917
816.385	19894
816.526	19833
816.666	19674
816.807	19430
816.948	19662
817.089	19738
817.23	19540
817.371	19453
817.512	19483
817.653	19480
817.793	19449
817.934	19457
818.075	19400
818.216	19449
818.356	19468
818.497	19396
818.638	19202
818.778	19103
818.919	19228
819.06	19320
819.2	19320
819.341	19350
819.481	19365
819.622	19487
819.762	19685
819.903	19597
820.043	19559
820.184	19415
820.324	19480
820.465	19567
820.605	19495
820.746	19514
820.886	19346
821.026	19514
821.167	19365
821.307	19499
821.447	19430
821.588	19278
821.728	19088
821.868	19145
822.008	18840
822.149	18947
822.289	18848
822.429	18665
822.569	18650
822.709	18555
822.849	18418
822.99	18266
823.13	18483
823.27	18296
823.41	18296
823.55	18155
823.69	18155
823.83	18197
823.97	18110
824.11	18030
824.25	17901
824.389	17923
824.529	18041
824.669	17935
824.809	18068
824.949	18110
825.089	17946
825.228	18003
825.368	17798
825.508	17805
825.648	17691
825.787	17764
825.927	17836
826.067	17729
826.206	17665
826.346	17710
826.485	17703
826.625	17657
826.765	17745
826.904	17756
827.044	17497
827.183	17410
827.323	17448
827.462	17474
827.601	17509
827.741	17440
827.88	17379
828.02	17242
828.159	17471
828.298	17410
828.437	17459
828.577	17398
828.716	17596
828.855	17326
828.994	17140
829.134	17178
829.273	17220
829.412	17189
829.551	17086
829.69	17212
829.829	17181
829.968	17341
830.107	17231
830.246	17162
830.385	17155
830.524	16961
830.663	16995
830.802	16862
830.941	16786
831.08	16793
831.219	16866
831.357	16854
831.496	16987
831.635	16641
831.774	16786
831.913	16744
832.051	16588
832.19	16554
832.329	16607
832.467	16542
832.606	16531
832.744	16428
832.883	16394
833.022	16474
833.16	16481
833.299	16588
833.437	16527
833.576	16542
833.714	16519
833.852	16531
833.991	16577
834.129	16569
834.267	16649
834.406	16500
834.544	16558
834.682	16603
834.821	16504
834.959	16660
835.097	16443
835.235	16615
835.373	16580
835.511	16531
835.65	16508
835.788	16371
835.926	16356
836.064	16284
836.202	16226
836.34	16390
836.478	16478
836.615	16432
836.753	16573
836.891	16531
837.029	16489
837.167	16398
837.305	16268
837.443	16402
837.58	16318
837.718	16371
837.856	16413
837.993	16257
838.131	16371
838.269	16169
838.406	16234
838.544	16234
838.681	16055
838.819	15979
838.956	15979
839.094	15861
839.231	15949
839.369	16021
839.506	16284
839.643	16002
839.781	15861
839.918	15899
840.055	16013
840.193	15850
840.33	15762
840.467	15895
840.604	15842
840.742	16040
840.879	15804
841.016	15747
841.153	15724
841.29	15953
841.427	15861
841.564	15960
841.701	15953
841.838	15804
841.975	15789
842.112	15766
842.249	15724
842.385	15526
842.522	15823
842.659	15686
842.796	15511
842.933	15534
843.069	15629
843.206	15561
843.343	15667
843.479	15747
843.616	15641
843.752	15416
843.889	15363
844.025	15561
844.162	15587
844.298	15599
844.435	15386
844.571	15428
844.708	15389
844.844	15690
844.98	15633
845.117	15610
845.253	15393
845.389	15454
845.525	15378
845.661	15389
845.798	15218
845.934	15214
846.07	15237
846.206	15233
846.342	15348
846.478	15230
846.614	14990
846.75	14929
846.886	14864
847.022	15112
847.158	14963
847.294	14994
847.429	15047
847.565	14933
847.701	15245
847.837	14765
847.972	14712
848.108	14781
848.244	14769
848.379	14663
848.515	14640
848.65	14590
848.786	14579
848.921	14610
849.057	14727
849.192	14678
849.328	14651
849.463	14617
849.598	14503
849.734	14507
849.869	14507
850.004	14317
850.14	14374
850.275	14431
850.41	14206
850.545	14408
850.68	14301
850.815	14351
850.95	14400
851.085	14613
851.22	14389
851.355	14347
851.49	14263
851.625	14385
851.76	14370
851.895	14278
852.03	14168
852.165	14282
852.299	14362
852.434	14560
852.569	14351
852.703	14385
852.838	14507
852.973	14579
853.107	14518
853.242	14328
853.376	14275
853.511	14130
853.645	14168
853.78	14454
853.914	14256
854.048	14248
854.183	14206
854.317	14275
854.451	14351
854.585	14286
854.72	14123
854.854	14259
854.988	14115
855.122	14221
855.256	14149
855.39	14164
855.524	14343
855.658	14149
855.792	14309
855.926	14263
856.06	14355
856.194	14263
856.327	14199
856.461	14278
856.595	14123
856.729	14221
856.862	14275
856.996	14256
857.13	14320
857.263	14324
857.397	14339
857.53	14313
857.664	14309
857.797	14317
857.931	14419
858.064	14320
858.197	14332
858.331	14244
858.464	14172
858.597	14161
858.731	14225
858.864	14206
858.997	14256
859.13	14199
859.263	14271
859.396	14305
859.529	14343
859.662	14256
859.795	14256
859.928	14328
860.061	14362
860.194	14393
860.327	14278
860.46	14115
860.592	14339
860.725	14442
860.858	14358
860.99	14225
861.123	14115
861.256	14233
861.388	14298
861.521	14781
861.653	14130
861.786	14092
861.918	14065
862.05	14183
862.183	14206
862.315	14206
862.447	14240
862.58	14142
862.712	14005
862.844	13982
862.976	14065
863.108	14031
863.24	14317
863.372	13902
863.504	14008
863.636	14092
863.768	14138
863.9	13989
864.032	13906
864.164	13871
864.296	14092
864.428	14100
864.559	14240
864.691	14043
864.823	14054
864.954	14043
865.086	14077
865.217	13989
865.349	13993
865.48	13925
865.612	14024
865.743	14145
865.875	13997
866.006	14065
866.137	14024
866.269	13951
866.4	14031
866.531	13951
866.662	13913
866.793	14024
866.924	13928
867.055	14062
867.186	13959
867.317	13898
867.448	13967
867.579	13921
867.71	13917
867.841	13967
867.972	13993
868.103	14054
868.233	13947
868.364	14016
868.495	14069
868.625	14313
868.756	14389
868.886	14088
869.017	14161
869.147	14355
869.278	14381
869.408	14317
869.539	14145
869.669	14343
869.799	14267
869.929	14389
870.06	14415
870.19	14606
870.32	14640
870.45	14621
870.58	14648
870.71	14773
870.84	14674
870.97	14621
871.1	14621
871.23	14823
871.36	14834
871.489	14739
871.619	14800
871.749	14906
871.879	14891
872.008	15001
872.138	14834
872.267	14838
872.397	14670
872.526	14648
872.656	14754
872.785	14724
872.915	14792
873.044	14975
873.173	14891
873.303	15028
873.432	14948
873.561	15028
873.69	14925
873.819	14975
873.948	15009
874.077	14861
874.206	14887
874.335	14910
874.464	15032
874.593	15157
874.722	15207
874.851	15287
874.979	15245
875.108	15306
875.237	15085
875.365	15211
875.494	15154
875.623	15283
875.751	15127
875.88	15283
876.008	15447
876.136	15488
876.265	15637
876.393	15854
876.521	15625
876.65	15793
876.778	15682
876.906	15686
877.034	15629
877.162	15667
877.29	15568
877.418	15671
877.546	15610
877.674	15599
877.802	15667
877.93	15542
878.058	15591
878.185	15599
878.313	15682
878.441	15500
878.568	15553
878.696	15507
878.824	15492
878.951	15728
879.079	15888
879.206	15945
879.333	15827
879.461	15747
879.588	15812
879.715	15873
879.842	15865
879.97	15675
880.097	15454
880.224	15416
880.351	15530
880.478	15549
880.605	15397
880.732	15462
880.859	15724
880.986	15515
881.112	15545
881.239	15279
881.366	15325
881.493	15161
881.619	15203
881.746	15165
881.872	15165
881.999	15195
882.125	15131
882.252	15176
882.378	15226
882.505	15325
882.631	15081
882.757	14941
882.883	15097
883.01	15028
883.136	14971
883.262	14765
883.388	14880
883.514	14906
883.64	14994
883.766	14902
883.892	14769
884.018	14785
884.143	14941
884.269	14952
884.395	14689
884.52	14613
884.646	14602
884.772	14590
884.897	14590
885.023	14644
885.148	14807
885.274	14842
885.399	14857
885.524	14651
885.65	14693
885.775	14701
885.9	14781
886.025	14857
886.15	14773
886.275	14682
886.4	14522
886.525	14602
886.65	14568
886.775	14583
886.9	14906
887.025	14861
887.149	14644
887.274	14610
887.399	14499
887.523	14450
887.648	14427
887.773	14457
887.897	14602
888.021	14549
888.146	14518
888.27	14590
888.395	14632
888.519	14476
888.643	14545
888.767	14514
888.891	14408
889.015	14313
889.139	14393
889.263	14339
889.387	14556
889.511	14427
889.635	14423
889.759	14389
889.883	14377
890.006	14381
890.13	14450
890.254	14298
890.377	14309
890.501	14092
890.624	14149
890.748	14191
890.871	14054
890.995	13970
891.118	13944
891.241	14016
891.364	14100
891.488	14145
891.611	14081
891.734	14065
891.857	14126
891.98	14035
892.103	14145
892.226	14126
892.349	14027
892.471	13883
892.594	14020
892.717	14069
892.839	13925
892.962	14088
893.085	14123
893.207	14016
893.33	13940
893.452	14046
893.575	14084
893.697	13986
893.819	14176
893.941	14202
894.064	14138
894.186	14054
894.308	14054
894.43	14214
894.552	14252
894.674	14240
894.796	14092
894.918	14134
895.04	14024
895.161	14301
895.283	14164
895.405	14107
895.526	14183
895.648	14161
895.769	14195
895.891	14176
896.012	14233
896.134	14259
896.255	14172
896.376	14130
896.498	14225
896.619	14320
896.74	14248
896.861	14332
896.982	14560
897.103	14716
897.224	14621
897.345	14431
897.466	14393
897.587	14511
897.708	14636
897.828	14507
897.949	14522
898.07	14427
898.19	14431
898.311	14590
898.431	14545
898.552	14533
898.672	14655
898.792	14682
898.913	14621
899.033	14541
899.153	14412
899.273	14377
899.393	14469
899.513	14488
899.633	14294
899.753	14442
899.873	14450
899.993	14495
900.113	14408
900.232	14434
900.352	14423
900.472	14412
900.591	14214
900.711	14389
900.83	14221
900.95	14351
901.069	14358
901.189	14240
901.308	14012
901.427	13913
901.546	14005
901.665	13978
901.784	13940
901.904	13742
902.023	13833
902.141	13632
902.26	13540
902.379	13609
902.498	13552
902.617	13480
902.735	13540
902.854	13502
902.973	13544
903.091	13263
903.21	13289
903.328	13217
903.446	13247
903.565	13137
903.683	13095
903.801	12966
903.919	13217
904.038	13129
904.156	12958
904.274	13027
904.392	13004
904.51	12943
904.627	12882
904.745	13015
904.863	12909
904.981	12806
905.098	12669
905.216	12730
905.334	12608
905.451	12669
905.569	12642
905.686	12574
905.803	12616
905.921	12391
906.038	12506
906.155	12448
906.272	12338
906.389	12414
906.506	12228
906.623	12258
906.74	12186
906.857	12125
906.974	12079
907.091	12228
907.208	12395
907.324	12289
907.441	12045
907.557	12041
907.674	11973
907.79	11893
907.907	11958
908.023	11999
908.139	12060
908.256	11904
908.372	11870
908.488	11870
908.604	11775
908.72	11722
908.836	11680
908.952	11729
909.068	11748
909.184	11878
909.3	11649
909.415	11771
909.531	11699
909.647	11471
909.762	11524
909.878	11509
909.993	11532
910.108	11551
910.224	11448
910.339	11512
910.454	11414
910.57	11299
910.685	11242
910.8	11570
910.915	11433
911.03	11414
911.145	11250
911.259	11242
911.374	11159
911.489	11132
911.604	11113
911.718	10961
911.833	10949
911.947	10919
912.062	10824
912.176	10839
912.291	10949
912.405	10915
912.519	11102
912.633	11147
912.748	11033
912.862	11014
912.976	10869
913.09	10740
913.204	10774
913.318	10828
913.431	10980
913.545	11018
913.659	11022
913.772	10809
913.886	10721
914	10778
914.113	10839
914.226	10805
914.34	10752
914.453	10637
914.566	10752
914.68	10706
914.793	10675
914.906	10516
915.019	10436
915.132	10382
915.245	10413
915.358	10519
915.47	10478
915.583	10584
915.696	10535
915.809	10649
915.921	10710
916.034	10512
916.146	10462
916.259	10352
916.371	10554
916.483	10561
916.595	10386
916.708	10500
916.82	10436
916.932	10398
917.044	10428
917.156	10443
917.268	10360
917.38	10390
917.491	10375
917.603	10398
917.715	10310
917.826	10379
917.938	10257
918.049	10162
918.161	10341
918.272	10538
918.384	10538
918.495	10295
918.606	10200
918.717	10261
918.828	10181
918.939	10211
919.05	10131
919.161	10192
919.272	10063
919.383	10139
919.494	10291
919.604	10432
919.715	10242
919.826	10166
919.936	10139
920.047	10337
920.157	10230
920.267	10443
920.378	10325
920.488	10268
920.598	10371
920.708	10546
920.818	10417
920.928	10462
921.038	10611
921.148	10584
921.258	10284
921.368	10188
921.477	10093
921.587	10025
921.697	9922
921.806	10097
921.916	9987
922.025	9800
922.134	9823
922.244	9808
922.353	9789
922.462	9644
922.571	9637
922.68	9534
922.789	9424
922.898	9477
923.007	9420
923.116	9416
923.224	9416
923.333	9454
923.442	9412
923.55	9378
923.659	9454
923.767	9416
923.876	9294
923.984	9389
924.092	9291
924.201	9393
924.309	9332
924.417	9378
924.525	9336
924.633	9351
924.741	10200
924.849	9116
924.956	9325
925.064	9176
925.172	9013
925.279	9047
925.387	9173
925.494	9127
925.602	9207
925.709	9203
925.816	9116
925.924	9192
926.031	9253
926.138	9127
926.245	9245
926.352	9013
926.459	9230
926.566	9256
926.673	9108
926.779	9005
926.886	8971
926.993	8929
927.099	8819
927.206	8800
927.312	8826
927.419	8975
927.525	8899
927.631	8899
927.737	8792
927.843	8705
927.95	8629
928.056	8686
928.162	8743
928.267	8781
928.373	9408
928.479	8864
928.585	8590
928.69	8712
928.796	8766
928.901	8625
929.007	8526
929.112	8651
929.218	8617
929.323	8530
929.428	8583
929.533	8667
929.638	8465
929.743	8571
929.848	8549
929.953	8560
930.058	8537
930.163	8267
930.267	8366
930.372	8454
930.477	8294
930.581	8522
930.685	8404
930.79	8263
930.894	8347
930.998	8275
931.103	8442
931.207	8081
931.311	8054
931.415	8050
931.519	7852
931.623	7852
