Data from test_V78500241_2773.txt Node
Date: Fri Mar 25 14:53:01 CST 2022
User: usil
Spectrometer: V785-0024
Trigger mode: 0
Integration Time (sec): 4.000000E-1
Scans to average: 1
Nonlinearity correction enabled: false
Boxcar width: 0
Storing dark spectrum: false
XAxis mode: Wavelengths
Number of Pixels in Spectrum: 1024
>>>>>Begin Spectral Data<<<<<
801.071	22006
801.214	21975
801.356	21622
801.499	21633
801.641	21420
801.783	21336
801.926	21382
802.068	21416
802.211	21389
802.353	21062
802.496	20967
802.638	20845
802.78	20815
802.923	20788
803.065	20792
803.208	20765
803.35	20785
803.492	20826
803.635	20781
803.777	20804
803.919	20788
804.061	21085
804.204	20857
804.346	20724
804.488	20602
804.63	20746
804.773	20613
804.915	20701
805.057	20739
805.199	20541
805.341	20842
805.483	20743
805.626	20758
805.768	20636
805.91	20640
806.052	20632
806.194	20598
806.336	20788
806.478	20568
806.62	20514
806.762	20655
806.904	20826
807.046	20994
807.188	20967
807.33	20933
807.472	20979
807.614	21020
807.756	20823
807.898	20765
808.04	20731
808.182	20670
808.324	20712
808.465	20689
808.607	20990
808.749	21150
808.891	21123
809.033	21169
809.174	21074
809.316	21005
809.458	20902
809.6	21131
809.741	21108
809.883	21024
810.025	21195
810.166	21070
810.308	21142
810.45	21077
810.591	21070
810.733	20929
810.875	20792
811.016	20693
811.158	20693
811.299	20891
811.441	20918
811.582	20925
811.724	20769
811.865	20788
812.007	20689
812.148	20712
812.29	20758
812.431	21013
812.573	21085
812.714	21207
812.855	21199
812.997	21477
813.138	21492
813.279	21306
813.421	21233
813.562	21180
813.703	21001
813.845	20998
813.986	20617
814.127	20465
814.268	20434
814.41	20351
814.551	20240
814.692	20484
814.833	20248
814.974	20328
815.115	20278
815.256	20111
815.397	20176
815.539	20252
815.68	20062
815.821	20062
815.962	20046
816.103	19967
816.244	19932
816.385	19769
816.526	19753
816.666	19655
816.807	19502
816.948	19548
817.089	19681
817.23	19563
817.371	19514
817.512	19426
817.653	19510
817.793	19510
817.934	19449
818.075	19430
818.216	19373
818.356	19308
818.497	19285
818.638	19072
818.778	19145
818.919	19152
819.06	19206
819.2	19148
819.341	19285
819.481	19312
819.622	19502
819.762	19594
819.903	19514
820.043	19533
820.184	19430
820.324	19381
820.465	19533
820.605	19426
820.746	19441
820.886	19225
821.026	19396
821.167	19339
821.307	19388
821.447	19308
821.588	19274
821.728	19263
821.868	18882
822.008	18852
822.149	18837
822.289	18741
822.429	18627
822.569	18597
822.709	18574
822.849	18273
822.99	18304
823.13	18323
823.27	18273
823.41	18015
823.55	18098
823.69	18167
823.83	18095
823.97	18106
824.11	17847
824.25	17897
824.389	17897
824.529	17889
824.669	17980
824.809	17977
824.949	18026
825.089	17923
825.228	17783
825.368	17760
825.508	17691
825.648	17714
825.787	17672
825.927	17665
826.067	17630
826.206	17619
826.346	17786
826.485	17707
826.625	17646
826.765	17821
826.904	17794
827.044	17425
827.183	17459
827.323	17364
827.462	17387
827.601	17372
827.741	17356
827.88	17387
828.02	17231
828.159	17353
828.298	17315
828.437	17410
828.577	17303
828.716	17471
828.855	17356
828.994	17132
829.134	17212
829.273	17231
829.412	17037
829.551	17014
829.69	17208
829.829	17159
829.968	17239
830.107	17216
830.246	17212
830.385	17010
830.524	17014
830.663	16904
830.802	16835
830.941	16771
831.08	16759
831.219	16801
831.357	16774
831.496	16953
831.635	16733
831.774	16679
831.913	16641
832.051	16554
832.19	16580
832.329	16615
832.467	16500
832.606	16402
832.744	16485
832.883	16554
833.022	16417
833.16	16493
833.299	16478
833.437	16462
833.576	16523
833.714	16447
833.852	16508
833.991	16516
834.129	16615
834.267	16424
834.406	16436
834.544	16569
834.682	16626
834.821	16432
834.959	16748
835.097	16447
835.235	16550
835.373	16592
835.511	16470
835.65	16314
835.788	16451
835.926	16280
836.064	16257
836.202	16268
836.34	16436
836.478	16424
836.615	16470
836.753	16523
836.891	16504
837.029	16398
837.167	16363
837.305	16413
837.443	16276
837.58	16253
837.718	16371
837.856	16310
837.993	16242
838.131	16333
838.269	16185
838.406	16207
838.544	16169
838.681	15934
838.819	15869
838.956	15778
839.094	15675
839.231	15895
839.369	15922
839.506	16192
839.643	16040
839.781	15869
839.918	15774
840.055	15876
840.193	15850
840.33	15804
840.467	15823
840.604	15915
840.742	16173
840.879	15762
841.016	15766
841.153	15713
841.29	15937
841.427	15816
841.564	15789
841.701	15819
841.838	15755
841.975	15709
842.112	15698
842.249	15755
842.385	15603
842.522	15831
842.659	15652
842.796	15641
842.933	15663
843.069	15701
843.206	15622
843.343	15682
843.479	15606
843.616	15610
843.752	15367
843.889	15401
844.025	15599
844.162	15424
844.298	15511
844.435	15424
844.571	15420
844.708	15454
844.844	15610
844.98	15553
845.117	15435
845.253	15355
845.389	15252
845.525	15408
845.661	15374
845.798	15180
845.934	15199
846.07	15165
846.206	15363
846.342	15241
846.478	15226
846.614	14998
846.75	14956
846.886	14975
847.022	15173
847.158	15013
847.294	14933
847.429	15097
847.565	14918
847.701	15180
847.837	14705
847.972	14712
848.108	14781
848.244	14872
848.379	14533
848.515	14587
848.65	14499
848.786	14579
848.921	14613
849.057	14640
849.192	14731
849.328	14625
849.463	14602
849.598	14587
849.734	14545
849.869	14351
850.004	14370
850.14	14385
850.275	14438
850.41	14252
850.545	14339
850.68	14351
850.815	14294
850.95	14377
851.085	14476
851.22	14355
851.355	14385
851.49	14324
851.625	14267
851.76	14370
851.895	14271
852.03	14237
852.165	14343
852.299	14358
852.434	14457
852.569	14412
852.703	14320
852.838	14495
852.973	14438
853.107	14446
853.242	14282
853.376	14218
853.511	14031
853.645	14187
853.78	14404
853.914	14240
854.048	14176
854.183	14183
854.317	14191
854.451	14438
854.585	14256
854.72	14172
854.854	14286
854.988	14123
855.122	14244
855.256	14084
855.39	14183
855.524	14324
855.658	14244
855.792	14218
855.926	14176
856.06	14240
856.194	14328
856.327	14176
856.461	14191
856.595	14119
856.729	14172
856.862	14370
856.996	14237
857.13	14195
857.263	14313
857.397	14271
857.53	14221
857.664	14240
857.797	14389
857.931	14396
858.064	14164
858.197	14294
858.331	14271
858.464	14187
858.597	14126
858.731	14252
858.864	14221
858.997	14199
859.13	14298
859.263	14237
859.396	14286
859.529	14138
859.662	14096
859.795	14164
859.928	14218
860.061	14298
860.194	14385
860.327	14206
860.46	14214
860.592	14320
860.725	14336
860.858	14343
860.99	14149
861.123	14180
861.256	14187
861.388	14145
861.521	14868
861.653	14161
861.786	13993
861.918	14005
862.05	14126
862.183	14050
862.315	14195
862.447	14183
862.58	14107
862.712	13970
862.844	13883
862.976	14039
863.108	13940
863.24	14522
863.372	14058
863.504	13947
863.636	14008
863.768	14069
863.9	14138
864.032	13989
864.164	13986
864.296	13978
864.428	14126
864.559	14043
864.691	13982
864.823	14046
864.954	14096
865.086	14050
865.217	13970
865.349	13932
865.48	14050
865.612	14001
865.743	14027
865.875	14024
866.006	13909
866.137	14035
866.269	13967
866.4	13932
866.531	13894
866.662	13913
866.793	13909
866.924	13951
867.055	14077
867.186	13879
867.317	13921
867.448	13959
867.579	13928
867.71	13852
867.841	13849
867.972	14043
868.103	14024
868.233	13921
868.364	14008
868.495	14069
868.625	14282
868.756	14317
868.886	14142
869.017	14161
869.147	14351
869.278	14381
869.408	14229
869.539	14252
869.669	14263
869.799	14358
869.929	14332
870.06	14301
870.19	14518
870.32	14484
870.45	14522
870.58	14686
870.71	14708
870.84	14720
870.97	14644
871.1	14602
871.23	14804
871.36	14811
871.489	14861
871.619	14758
871.749	14807
871.879	14838
872.008	14937
872.138	14887
872.267	14838
872.397	14689
872.526	14655
872.656	14716
872.785	14686
872.915	14861
873.044	14929
873.173	14746
873.303	14990
873.432	14933
873.561	14868
873.69	14952
873.819	14758
873.948	14994
874.077	14845
874.206	14796
874.335	14876
874.464	14998
874.593	15218
874.722	15169
874.851	15268
874.979	15203
875.108	15188
875.237	15161
875.365	15116
875.494	15161
875.623	15154
875.751	15146
875.88	15192
876.008	15408
876.136	15405
876.265	15595
876.393	15705
876.521	15667
876.65	15698
876.778	15641
876.906	15492
877.034	15519
877.162	15580
877.29	15595
877.418	15622
877.546	15576
877.674	15610
877.802	15641
877.93	15542
878.058	15572
878.185	15408
878.313	15561
878.441	15572
878.568	15397
878.696	15538
878.824	15549
878.951	15652
879.079	15774
879.206	15873
879.333	15812
879.461	15728
879.588	15713
879.715	15789
879.842	15888
879.97	15686
880.097	15496
880.224	15378
880.351	15454
880.478	15485
880.605	15454
880.732	15431
880.859	15736
880.986	15557
881.112	15439
881.239	15313
881.366	15214
881.493	15256
881.619	15203
881.746	15066
881.872	15100
881.999	15104
882.125	15108
882.252	15157
882.378	15020
882.505	15214
882.631	15009
882.757	14887
882.883	14971
883.01	15032
883.136	14804
883.262	14834
883.388	14697
883.514	14944
883.64	14975
883.766	14887
883.892	14746
884.018	14796
884.143	14861
884.269	14918
884.395	14716
884.52	14587
884.646	14613
884.772	14579
884.897	14476
885.023	14682
885.148	14735
885.274	14807
885.399	14743
885.524	14590
885.65	14617
885.775	14613
885.9	14606
886.025	14758
886.15	14655
886.275	14617
886.4	14473
886.525	14674
886.65	14545
886.775	14598
886.9	14678
887.025	14899
887.149	14636
887.274	14396
887.399	14503
887.523	14446
887.648	14454
887.773	14473
887.897	14476
888.021	14632
888.146	14438
888.27	14514
888.395	14621
888.519	14545
888.643	14545
888.767	14629
888.891	14473
889.015	14320
889.139	14252
889.263	14282
889.387	14400
889.511	14636
889.635	14454
889.759	14259
889.883	14396
890.006	14377
890.13	14465
890.254	14298
890.377	14362
890.501	14138
890.624	14069
890.748	14138
890.871	14172
890.995	14058
891.118	13967
891.241	14046
891.364	14027
891.488	14096
891.611	14035
891.734	14065
891.857	14111
891.98	14073
892.103	14180
892.226	14088
892.349	14050
892.471	13852
892.594	14012
892.717	14092
892.839	13989
892.962	14058
893.085	14077
893.207	14062
893.33	14016
893.452	13955
893.575	13993
893.697	13944
893.819	14176
893.941	14248
894.064	14229
894.186	13955
894.308	13959
894.43	14126
894.552	14191
894.674	14145
894.796	14058
894.918	14005
895.04	14111
895.161	14199
895.283	14134
895.405	14103
895.526	14221
895.648	14183
895.769	14199
895.891	14161
896.012	14229
896.134	14343
896.255	14191
896.376	14244
896.498	14145
896.619	14210
896.74	14229
896.861	14248
896.982	14511
897.103	14689
897.224	14530
897.345	14480
897.466	14362
897.587	14434
897.708	14613
897.828	14556
897.949	14408
898.07	14374
898.19	14400
898.311	14674
898.431	14575
898.552	14537
898.672	14629
898.792	14602
898.913	14587
899.033	14465
899.153	14336
899.273	14282
899.393	14309
899.513	14454
899.633	14492
899.753	14457
899.873	14393
899.993	14427
900.113	14381
900.232	14530
900.352	14480
900.472	14305
900.591	14332
900.711	14267
900.83	14248
900.95	14400
901.069	14400
901.189	14187
901.308	13986
901.427	13951
901.546	13925
901.665	14016
901.784	13970
901.904	13856
902.023	13715
902.141	13620
902.26	13552
902.379	13586
902.498	13544
902.617	13441
902.735	13544
902.854	13499
902.973	13518
903.091	13251
903.21	13274
903.328	13228
903.446	13168
903.565	13141
903.683	13145
903.801	12966
903.919	13095
904.038	13027
904.156	12943
904.274	12966
904.392	12863
904.51	12981
904.627	12913
904.745	12954
904.863	12981
904.981	12753
905.098	12681
905.216	12673
905.334	12627
905.451	12646
905.569	12532
905.686	12639
905.803	12585
905.921	12418
906.038	12486
906.155	12486
906.272	12285
906.389	12410
906.506	12266
906.623	12239
906.74	12186
906.857	12064
906.974	12106
907.091	12186
907.208	12357
907.324	12155
907.441	12053
907.557	11973
907.674	11935
907.79	11836
907.907	11942
908.023	12049
908.139	11961
908.256	11813
908.372	11935
908.488	11859
908.604	11718
908.72	11642
908.836	11699
908.952	11691
909.068	11729
909.184	11843
909.3	11794
909.415	11775
909.531	11767
909.647	11459
909.762	11535
909.878	11391
909.993	11497
910.108	11444
910.224	11505
910.339	11455
910.454	11440
910.57	11326
910.685	11273
910.8	11558
910.915	11471
911.03	11433
911.145	11155
911.259	11128
911.374	11117
911.489	11128
911.604	11025
911.718	10923
911.833	10938
911.947	10759
912.062	10755
912.176	10953
912.291	10919
912.405	10915
912.519	11143
912.633	11143
912.748	10923
912.862	10938
912.976	10809
913.09	10694
913.204	10706
913.318	10774
913.431	10889
913.545	10957
913.659	10976
913.772	10850
913.886	10733
914	10736
914.113	10854
914.226	10900
914.34	10805
914.453	10668
914.566	10778
914.68	10683
914.793	10603
914.906	10440
915.019	10344
915.132	10322
915.245	10375
915.358	10489
915.47	10462
915.583	10485
915.696	10580
915.809	10561
915.921	10599
916.034	10432
916.146	10436
916.259	10432
916.371	10421
916.483	10447
916.595	10363
916.708	10367
916.82	10386
916.932	10356
917.044	10367
917.156	10322
917.268	10230
917.38	10276
917.491	10169
917.603	10238
917.715	10291
917.826	10344
917.938	10299
918.049	10162
918.161	10249
918.272	10455
918.384	10466
918.495	10265
918.606	10093
918.717	10154
918.828	10120
918.939	10154
919.05	10082
919.161	10188
919.272	9930
919.383	10021
919.494	10196
919.604	10325
919.715	10215
919.826	10166
919.936	10154
920.047	10234
920.157	10173
920.267	10497
920.378	10249
920.488	10166
920.598	10413
920.708	10535
920.818	10398
920.928	10382
921.038	10512
921.148	10440
921.258	10192
921.368	10105
921.477	10071
921.587	9998
921.697	9838
921.806	9991
921.916	9918
922.025	9785
922.134	9804
922.244	9724
922.353	9762
922.462	9717
922.571	9584
922.68	9526
922.789	9454
922.898	9504
923.007	9416
923.116	9526
923.224	9416
923.333	9477
923.442	9348
923.55	9321
923.659	9382
923.767	9405
923.876	9283
923.984	9447
924.092	9287
924.201	9367
924.309	9321
924.417	9336
924.525	9272
924.633	9298
924.741	9994
924.849	9123
924.956	9291
925.064	9184
925.172	9051
925.279	9077
925.387	9184
925.494	9180
925.602	9291
925.709	9161
925.816	9047
925.924	9039
926.031	9203
926.138	9074
926.245	9192
926.352	9085
926.459	9230
926.566	9230
926.673	9058
926.779	8975
926.886	8994
926.993	8868
927.099	8872
927.206	8853
927.312	8853
927.419	8845
927.525	8887
927.631	8834
927.737	8785
927.843	8766
927.95	8678
928.056	8739
928.162	8777
928.267	8777
928.373	9332
928.479	8800
928.585	8590
928.69	8769
928.796	8769
928.901	8560
929.007	8495
929.112	8625
929.218	8583
929.323	8613
929.428	8579
929.533	8682
929.638	8549
929.743	8522
929.848	8556
929.953	8560
930.058	8507
930.163	8320
930.267	8301
930.372	8450
930.477	8362
930.581	8579
930.685	8389
930.79	8191
930.894	8328
930.998	8210
931.103	8476
931.207	8092
931.311	8020
931.415	7909
931.519	7795
931.623	7765
