Data from test_V78500241_3563.txt Node
Date: Fri Mar 25 14:58:31 CST 2022
User: usil
Spectrometer: V785-0024
Trigger mode: 0
Integration Time (sec): 4.000000E-1
Scans to average: 1
Nonlinearity correction enabled: false
Boxcar width: 0
Storing dark spectrum: false
XAxis mode: Wavelengths
Number of Pixels in Spectrum: 1024
>>>>>Begin Spectral Data<<<<<
801.071	21945
801.214	21812
801.356	21599
801.499	21504
801.641	21180
801.783	21192
801.926	21294
802.068	21260
802.211	21302
802.353	21009
802.496	20834
802.638	20811
802.78	20648
802.923	20640
803.065	20659
803.208	20613
803.35	20712
803.492	20777
803.635	20785
803.777	20598
803.919	20697
804.061	20944
804.204	20701
804.346	20571
804.488	20522
804.63	20621
804.773	20480
804.915	20495
805.057	20552
805.199	20533
805.341	20556
805.483	20556
805.626	20552
805.768	20427
805.91	20503
806.052	20522
806.194	20385
806.336	20686
806.478	20533
806.62	20362
806.762	20530
806.904	20693
807.046	20952
807.188	20845
807.33	20804
807.472	20960
807.614	20716
807.756	20724
807.898	20701
808.04	20598
808.182	20526
808.324	20537
808.465	20663
808.607	20724
808.749	20826
808.891	20956
809.033	21009
809.174	21055
809.316	20811
809.458	20910
809.6	20834
809.741	20861
809.883	20891
810.025	20952
810.166	20971
810.308	20998
810.45	20941
810.591	20781
810.733	20815
810.875	20648
811.016	20571
811.158	20511
811.299	20705
811.441	20834
811.582	20815
811.724	20651
811.865	20727
812.007	20549
812.148	20594
812.29	20697
812.431	20830
812.573	20895
812.714	21028
812.855	21131
812.997	21207
813.138	21359
813.279	21237
813.421	21154
813.562	20956
813.703	20872
813.845	20800
813.986	20480
814.127	20317
814.268	20134
814.41	20278
814.551	20180
814.692	20214
814.833	20020
814.974	20092
815.115	20145
815.256	20084
815.397	20100
815.539	19997
815.68	20031
815.821	19849
815.962	19883
816.103	19830
816.244	19738
816.385	19616
816.526	19529
816.666	19400
816.807	19343
816.948	19396
817.089	19419
817.23	19381
817.371	19335
817.512	19362
817.653	19285
817.793	19232
817.934	19331
818.075	19339
818.216	19339
818.356	19346
818.497	19091
818.638	18958
818.778	18935
818.919	18954
819.06	19053
819.2	19114
819.341	19183
819.481	19160
819.622	19434
819.762	19293
819.903	19483
820.043	19400
820.184	19301
820.324	19304
820.465	19426
820.605	19339
820.746	19217
820.886	19061
821.026	19320
821.167	19221
821.307	19384
821.447	19346
821.588	19133
821.728	19000
821.868	18783
822.008	18760
822.149	18734
822.289	18639
822.429	18380
822.569	18471
822.709	18448
822.849	18197
822.99	18197
823.13	18152
823.27	18152
823.41	17882
823.55	17950
823.69	17980
823.83	18003
823.97	17889
824.11	17680
824.25	17748
824.389	17687
824.529	17707
824.669	17760
824.809	17904
824.949	17897
825.089	17798
825.228	17866
825.368	17471
825.508	17623
825.648	17516
825.787	17524
825.927	17627
826.067	17509
826.206	17501
826.346	17520
826.485	17581
826.625	17539
826.765	17596
826.904	17627
827.044	17261
827.183	17372
827.323	17345
827.462	17239
827.601	17220
827.741	17189
827.88	17254
828.02	17109
828.159	17227
828.298	17284
828.437	17387
828.577	17140
828.716	17360
828.855	17174
828.994	17048
829.134	16942
829.273	17048
829.412	16987
829.551	16995
829.69	16946
829.829	17003
829.968	17140
830.107	17025
830.246	17033
830.385	16873
830.524	16839
830.663	16771
830.802	16801
830.941	16531
831.08	16607
831.219	16599
831.357	16641
831.496	16725
831.635	16580
831.774	16485
831.913	16531
832.051	16405
832.19	16440
832.329	16398
832.467	16344
832.606	16329
832.744	16261
832.883	16291
833.022	16325
833.16	16367
833.299	16409
833.437	16284
833.576	16272
833.714	16436
833.852	16440
833.991	16443
834.129	16424
834.267	16432
834.406	16379
834.544	16417
834.682	16402
834.821	16402
834.959	16577
835.097	16333
835.235	16512
835.373	16443
835.511	16322
835.65	16284
835.788	16379
835.926	16219
836.064	16067
836.202	16109
836.34	16314
836.478	16310
836.615	16253
836.753	16341
836.891	16424
837.029	16299
837.167	16360
837.305	16215
837.443	16188
837.58	16215
837.718	16348
837.856	16143
837.993	16109
838.131	16101
838.269	16120
838.406	16105
838.544	16105
838.681	15911
838.819	15857
838.956	15770
839.094	15861
839.231	15766
839.369	15892
839.506	16120
839.643	15918
839.781	15861
839.918	15789
840.055	15743
840.193	15785
840.33	15705
840.467	15641
840.604	15797
840.742	15979
840.879	15576
841.016	15682
841.153	15660
841.29	15930
841.427	15686
841.564	15759
841.701	15694
841.838	15705
841.975	15580
842.112	15720
842.249	15523
842.385	15447
842.522	15686
842.659	15580
842.796	15553
842.933	15561
843.069	15488
843.206	15378
843.343	15675
843.479	15584
843.616	15538
843.752	15370
843.889	15336
844.025	15485
844.162	15325
844.298	15405
844.435	15283
844.571	15237
844.708	15378
844.844	15412
844.98	15469
845.117	15405
845.253	15272
845.389	15097
845.525	15233
845.661	15161
845.798	15127
845.934	15116
846.07	15032
846.206	15093
846.342	15306
846.478	15135
846.614	14880
846.75	14906
846.886	14902
847.022	14910
847.158	14944
847.294	14849
847.429	14880
847.565	14842
847.701	15085
847.837	14712
847.972	14629
848.108	14606
848.244	14670
848.379	14632
848.515	14541
848.65	14442
848.786	14522
848.921	14396
849.057	14606
849.192	14556
849.328	14590
849.463	14488
849.598	14404
849.734	14355
849.869	14355
850.004	14267
850.14	14233
850.275	14282
850.41	14202
850.545	14202
850.68	14229
850.815	14214
850.95	14244
851.085	14457
851.22	14351
851.355	14290
851.49	14286
851.625	14157
851.76	14233
851.895	14134
852.03	14111
852.165	14191
852.299	14328
852.434	14290
852.569	14275
852.703	14347
852.838	14244
852.973	14301
853.107	14317
853.242	14202
853.376	14096
853.511	13917
853.645	14050
853.78	14199
853.914	14069
854.048	14161
854.183	14024
854.317	14058
854.451	14275
854.585	14187
854.72	14176
854.854	14240
854.988	14115
855.122	14084
855.256	13913
855.39	14164
855.524	14294
855.658	14168
855.792	14050
855.926	14138
856.06	14142
856.194	14214
856.327	14153
856.461	13978
856.595	14065
856.729	14103
856.862	14161
856.996	14233
857.13	14180
857.263	14157
857.397	14187
857.53	14088
857.664	14176
857.797	14199
857.931	14240
858.064	14237
858.197	14164
858.331	14096
858.464	14058
858.597	14054
858.731	14096
858.864	14054
858.997	14065
859.13	14161
859.263	14168
859.396	14176
859.529	14138
859.662	14183
859.795	14119
859.928	14138
860.061	14282
860.194	14278
860.327	14168
860.46	14172
860.592	14157
860.725	14199
860.858	14252
860.99	14096
861.123	14111
861.256	14027
861.388	13982
861.521	14910
861.653	13978
861.786	14020
861.918	14050
862.05	14020
862.183	14050
862.315	14157
862.447	14176
862.58	14054
862.712	13906
862.844	13864
862.976	13997
863.108	13967
863.24	14324
863.372	13799
863.504	13826
863.636	13841
863.768	14001
863.9	13837
864.032	13845
864.164	13894
864.296	14084
864.428	14005
864.559	13997
864.691	13967
864.823	14020
864.954	13898
865.086	13936
865.217	13875
865.349	13841
865.48	13951
865.612	13807
865.743	13970
865.875	13955
866.006	13883
866.137	13932
866.269	13906
866.4	13879
866.531	13860
866.662	13837
866.793	13807
866.924	13849
867.055	13913
867.186	13940
867.317	13860
867.448	13780
867.579	13879
867.71	13814
867.841	13841
867.972	13932
868.103	13890
868.233	13967
868.364	13928
868.495	13940
868.625	14077
868.756	14206
868.886	14024
869.017	14145
869.147	14206
869.278	14305
869.408	14172
869.539	14202
869.669	14221
869.799	14225
869.929	14332
870.06	14259
870.19	14514
870.32	14374
870.45	14457
870.58	14530
870.71	14644
870.84	14598
870.97	14450
871.1	14606
871.23	14727
871.36	14716
871.489	14762
871.619	14777
871.749	14708
871.879	14773
872.008	14876
872.138	14800
872.267	14701
872.397	14571
872.526	14636
872.656	14549
872.785	14579
872.915	14781
873.044	14834
873.173	14724
873.303	14876
873.432	14785
873.561	14891
873.69	14872
873.819	14834
873.948	14804
874.077	14815
874.206	14773
874.335	14819
874.464	14971
874.593	15169
874.722	15001
874.851	15169
874.979	15077
875.108	15077
875.237	15062
875.365	14941
875.494	15055
875.623	15184
875.751	14971
875.88	15089
876.008	15249
876.136	15344
876.265	15488
876.393	15698
876.521	15633
876.65	15709
876.778	15568
876.906	15447
877.034	15420
877.162	15511
877.29	15428
877.418	15549
877.546	15603
877.674	15595
877.802	15450
877.93	15542
878.058	15462
878.185	15485
878.313	15564
878.441	15561
878.568	15397
878.696	15507
878.824	15500
878.951	15614
879.079	15690
879.206	15835
879.333	15766
879.461	15576
879.588	15671
879.715	15682
879.842	15785
879.97	15728
880.097	15397
880.224	15329
880.351	15428
880.478	15382
880.605	15287
880.732	15382
880.859	15523
880.986	15412
881.112	15321
881.239	15291
881.366	15116
881.493	15119
881.619	15039
881.746	15058
881.872	15089
881.999	15138
882.125	15100
882.252	15112
882.378	15077
882.505	15180
882.631	14933
882.757	14948
882.883	15028
883.01	14899
883.136	14899
883.262	14689
883.388	14674
883.514	14853
883.64	14971
883.766	14765
883.892	14727
884.018	14735
884.143	14807
884.269	14944
884.395	14636
884.52	14503
884.646	14606
884.772	14480
884.897	14465
885.023	14560
885.148	14697
885.274	14800
885.399	14689
885.524	14583
885.65	14598
885.775	14579
885.9	14606
886.025	14693
886.15	14606
886.275	14549
886.4	14442
886.525	14469
886.65	14518
886.775	14423
886.9	14712
887.025	14842
887.149	14598
887.274	14427
887.399	14427
887.523	14332
887.648	14336
887.773	14332
887.897	14484
888.021	14438
888.146	14377
888.27	14393
888.395	14499
888.519	14457
888.643	14469
888.767	14522
888.891	14389
889.015	14199
889.139	14343
889.263	14301
889.387	14240
889.511	14495
889.635	14309
889.759	14305
889.883	14263
890.006	14286
890.13	14427
890.254	14130
890.377	14267
890.501	14149
890.624	14024
890.748	14130
890.871	13944
890.995	13944
891.118	13772
891.241	13955
891.364	14092
891.488	14088
891.611	13986
891.734	13932
891.857	14020
891.98	13997
892.103	14069
892.226	14039
892.349	13925
892.471	13803
892.594	13936
892.717	14001
892.839	13936
892.962	14043
893.085	13970
893.207	13989
893.33	13826
893.452	13932
893.575	14123
893.697	13982
893.819	14123
893.941	14248
894.064	14130
894.186	13959
894.308	13917
894.43	14065
894.552	14248
894.674	14157
894.796	13970
894.918	13947
895.04	13928
895.161	14161
895.283	14084
895.405	14081
895.526	14096
895.648	14001
895.769	14092
895.891	14077
896.012	14164
896.134	14172
896.255	14199
896.376	14107
896.498	14111
896.619	14214
896.74	14153
896.861	14214
896.982	14385
897.103	14629
897.224	14450
897.345	14408
897.466	14317
897.587	14438
897.708	14507
897.828	14469
897.949	14381
898.07	14294
898.19	14461
898.311	14564
898.431	14434
898.552	14454
898.672	14617
898.792	14655
898.913	14495
899.033	14442
899.153	14404
899.273	14343
899.393	14328
899.513	14324
899.633	14301
899.753	14275
899.873	14267
899.993	14317
900.113	14377
900.232	14396
900.352	14267
900.472	14199
900.591	14199
900.711	14237
900.83	14062
900.95	14286
901.069	14298
901.189	14176
901.308	13959
901.427	13871
901.546	13811
901.665	13871
901.784	13849
901.904	13727
902.023	13628
902.141	13609
902.26	13422
902.379	13559
902.498	13362
902.617	13441
902.735	13480
902.854	13365
902.973	13373
903.091	13217
903.21	13187
903.328	13236
903.446	13012
903.565	13069
903.683	13046
903.801	12916
903.919	12981
904.038	12985
904.156	12848
904.274	12916
904.392	12863
904.51	12722
904.627	12863
904.745	12935
904.863	12890
904.981	12719
905.098	12460
905.216	12582
905.334	12677
905.451	12460
905.569	12555
905.686	12483
905.803	12532
905.921	12353
906.038	12464
906.155	12376
906.272	12285
906.389	12308
906.506	12171
906.623	12136
906.74	12136
906.857	12079
906.974	12068
907.091	12178
907.208	12220
907.324	12178
907.441	12041
907.557	11901
907.674	11882
907.79	11851
907.907	11855
908.023	11897
908.139	11855
908.256	11855
908.372	11775
908.488	11775
908.604	11726
908.72	11558
908.836	11634
908.952	11646
909.068	11646
909.184	11748
909.3	11630
909.415	11752
909.531	11699
909.647	11444
909.762	11402
909.878	11337
909.993	11463
910.108	11383
910.224	11379
910.339	11379
910.454	11299
910.57	11231
910.685	11201
910.8	11471
910.915	11395
911.03	11280
911.145	11136
911.259	11166
911.374	11109
911.489	11048
911.604	11006
911.718	10892
911.833	10850
911.947	10816
912.062	10687
912.176	10904
912.291	10885
912.405	10881
912.519	11075
912.633	11060
912.748	11033
912.862	10877
912.976	10782
913.09	10584
913.204	10706
913.318	10790
913.431	10839
913.545	10885
913.659	10850
913.772	10714
913.886	10656
914	10599
914.113	10698
914.226	10744
914.34	10698
914.453	10577
914.566	10675
914.68	10611
914.793	10519
914.906	10409
915.019	10314
915.132	10303
915.245	10360
915.358	10413
915.47	10386
915.583	10409
915.696	10451
915.809	10565
915.921	10573
916.034	10451
916.146	10432
916.259	10314
916.371	10443
916.483	10413
916.595	10234
916.708	10295
916.82	10299
916.932	10276
917.044	10284
917.156	10249
917.268	10223
917.38	10257
917.491	10211
917.603	10185
917.715	10322
917.826	10303
917.938	10192
918.049	10093
918.161	10310
918.272	10310
918.384	10367
918.495	10314
918.606	10120
918.717	10055
918.828	10051
918.939	10120
919.05	10029
919.161	10078
919.272	9865
919.383	10040
919.494	10166
919.604	10402
919.715	10116
919.826	10093
919.936	10120
920.047	10253
920.157	10105
920.267	10341
920.378	10135
920.488	10135
920.598	10360
920.708	10394
920.818	10322
920.928	10325
921.038	10558
921.148	10436
921.258	10200
921.368	10143
921.477	10025
921.587	9964
921.697	9922
921.806	10051
921.916	9827
922.025	9705
922.134	9701
922.244	9648
922.353	9740
922.462	9595
922.571	9519
922.68	9374
922.789	9317
922.898	9454
923.007	9306
923.116	9420
923.224	9317
923.333	9386
923.442	9294
923.55	9237
923.659	9340
923.767	9348
923.876	9211
923.984	9291
924.092	9150
924.201	9253
924.309	9283
924.417	9268
924.525	9195
924.633	9249
924.741	9975
924.849	9013
924.956	9184
925.064	9043
925.172	8979
925.279	9028
925.387	9085
925.494	8986
925.602	9180
925.709	9165
925.816	8948
925.924	9070
926.031	9074
926.138	8994
926.245	9077
926.352	8929
926.459	9142
926.566	9161
926.673	9017
926.779	8773
926.886	8899
926.993	8762
927.099	8796
927.206	8743
927.312	8644
927.419	8834
927.525	8796
927.631	8845
927.737	8659
927.843	8655
927.95	8659
928.056	8613
928.162	8632
928.267	8716
928.373	9317
928.479	8659
928.585	8560
928.69	8674
928.796	8621
928.901	8667
929.007	8438
929.112	8587
929.218	8507
929.323	8514
929.428	8457
929.533	8632
929.638	8461
929.743	8469
929.848	8537
929.953	8408
930.058	8404
930.163	8225
930.267	8202
930.372	8393
930.477	8320
930.581	8484
930.685	8355
930.79	8191
930.894	8221
930.998	8164
931.103	8381
931.207	7913
931.311	7932
931.415	7928
931.519	7734
931.623	7727
