Data from test_V78500241_3546.txt Node
Date: Fri Mar 25 14:58:24 CST 2022
User: usil
Spectrometer: V785-0024
Trigger mode: 0
Integration Time (sec): 4.000000E-1
Scans to average: 1
Nonlinearity correction enabled: false
Boxcar width: 0
Storing dark spectrum: false
XAxis mode: Wavelengths
Number of Pixels in Spectrum: 1024
>>>>>Begin Spectral Data<<<<<
801.071	21987
801.214	21903
801.356	21519
801.499	21462
801.641	21378
801.783	21317
801.926	21389
802.068	21226
802.211	21294
802.353	21127
802.496	20838
802.638	20899
802.78	20834
802.923	20670
803.065	20541
803.208	20571
803.35	20564
803.492	20762
803.635	20739
803.777	20648
803.919	20705
804.061	20967
804.204	20724
804.346	20621
804.488	20415
804.63	20720
804.773	20473
804.915	20518
805.057	20590
805.199	20476
805.341	20537
805.483	20590
805.626	20434
805.768	20423
805.91	20522
806.052	20423
806.194	20484
806.336	20590
806.478	20412
806.62	20431
806.762	20495
806.904	20560
807.046	20918
807.188	20807
807.33	20967
807.472	20857
807.614	20735
807.756	20883
807.898	20663
808.04	20568
808.182	20583
808.324	20708
808.465	20602
808.607	20705
808.749	20834
808.891	21112
809.033	21020
809.174	20918
809.316	20906
809.458	20921
809.6	20876
809.741	20887
809.883	20891
810.025	21055
810.166	21142
810.308	21020
810.45	20925
810.591	20811
810.733	20807
810.875	20602
811.016	20530
811.158	20530
811.299	20590
811.441	20743
811.582	20815
811.724	20659
811.865	20579
812.007	20507
812.148	20579
812.29	20587
812.431	20781
812.573	20800
812.714	21017
812.855	21146
812.997	21249
813.138	21340
813.279	21211
813.421	21188
813.562	21036
813.703	20796
813.845	20746
813.986	20469
814.127	20366
814.268	20210
814.41	20195
814.551	20153
814.692	20324
814.833	20122
814.974	20256
815.115	20161
815.256	20039
815.397	19963
815.539	19978
815.68	19982
815.821	19898
815.962	19940
816.103	19864
816.244	19700
816.385	19761
816.526	19696
816.666	19476
816.807	19377
816.948	19354
817.089	19331
817.23	19392
817.371	19350
817.512	19270
817.653	19312
817.793	19278
817.934	19304
818.075	19259
818.216	19354
818.356	19255
818.497	19034
818.638	18909
818.778	19019
818.919	18966
819.06	18985
819.2	19069
819.341	19244
819.481	19228
819.622	19369
819.762	19601
819.903	19460
820.043	19335
820.184	19209
820.324	19259
820.465	19270
820.605	19244
820.746	19206
820.886	19053
821.026	19133
821.167	19240
821.307	19259
821.447	19285
821.588	19107
821.728	18954
821.868	18745
822.008	18692
822.149	18772
822.289	18646
822.429	18475
822.569	18384
822.709	18376
822.849	18232
822.99	18167
823.13	18114
823.27	18239
823.41	18003
823.55	17863
823.69	18072
823.83	18019
823.97	17901
824.11	17752
824.25	17733
824.389	17646
824.529	17752
824.669	17737
824.809	17809
824.949	17897
825.089	17863
825.228	17752
825.368	17539
825.508	17490
825.648	17516
825.787	17687
825.927	17604
826.067	17497
826.206	17448
826.346	17532
826.485	17589
826.625	17505
826.765	17562
826.904	17630
827.044	17273
827.183	17303
827.323	17147
827.462	17406
827.601	17265
827.741	17212
827.88	17265
828.02	17197
828.159	17299
828.298	17227
828.437	17303
828.577	17193
828.716	17258
828.855	17250
828.994	17010
829.134	16904
829.273	17132
829.412	16972
829.551	16915
829.69	17037
829.829	17010
829.968	17155
830.107	17124
830.246	17006
830.385	16858
830.524	16949
830.663	16862
830.802	16790
830.941	16691
831.08	16523
831.219	16603
831.357	16710
831.496	16759
831.635	16630
831.774	16504
831.913	16573
832.051	16508
832.19	16436
832.329	16531
832.467	16337
832.606	16238
832.744	16337
832.883	16219
833.022	16226
833.16	16322
833.299	16344
833.437	16375
833.576	16394
833.714	16379
833.852	16447
833.991	16303
834.129	16432
834.267	16436
834.406	16360
834.544	16371
834.682	16363
834.821	16367
834.959	16558
835.097	16394
835.235	16409
835.373	16382
835.511	16379
835.65	16329
835.788	16261
835.926	16090
836.064	16112
836.202	16040
836.34	16291
836.478	16497
836.615	16246
836.753	16322
836.891	16379
837.029	16405
837.167	16261
837.305	16299
837.443	16185
837.58	16169
837.718	16230
837.856	16177
837.993	15975
838.131	16223
838.269	16044
838.406	16139
838.544	16135
838.681	15937
838.819	15918
838.956	15732
839.094	15793
839.231	15736
839.369	15918
839.506	16101
839.643	16006
839.781	15793
839.918	15663
840.055	15686
840.193	15724
840.33	15755
840.467	15736
840.604	15728
840.742	15892
840.879	15606
841.016	15576
841.153	15591
841.29	15838
841.427	15770
841.564	15774
841.701	15781
841.838	15549
841.975	15587
842.112	15755
842.249	15572
842.385	15519
842.522	15644
842.659	15572
842.796	15462
842.933	15435
843.069	15420
843.206	15439
843.343	15667
843.479	15595
843.616	15534
843.752	15249
843.889	15298
844.025	15359
844.162	15302
844.298	15329
844.435	15252
844.571	15264
844.708	15412
844.844	15336
844.98	15458
845.117	15477
845.253	15264
845.389	15127
845.525	15116
845.661	15207
845.798	15081
845.934	15074
846.07	15097
846.206	15123
846.342	15173
846.478	15154
846.614	14990
846.75	14868
846.886	14826
847.022	14998
847.158	14921
847.294	14857
847.429	14948
847.565	14887
847.701	15089
847.837	14552
847.972	14556
848.108	14667
848.244	14583
848.379	14514
848.515	14545
848.65	14469
848.786	14568
848.921	14396
849.057	14610
849.192	14606
849.328	14590
849.463	14450
849.598	14415
849.734	14442
849.869	14324
850.004	14301
850.14	14199
850.275	14294
850.41	14065
850.545	14172
850.68	14244
850.815	14221
850.95	14374
851.085	14355
851.22	14301
851.355	14267
851.49	14187
851.625	14161
851.76	14138
851.895	14126
852.03	14069
852.165	14248
852.299	14294
852.434	14237
852.569	14320
852.703	14259
852.838	14351
852.973	14343
853.107	14442
853.242	14263
853.376	14176
853.511	13963
853.645	14008
853.78	14275
853.914	14149
854.048	14077
854.183	14119
854.317	14191
854.451	14275
854.585	14043
854.72	14031
854.854	14195
854.988	14020
855.122	14126
855.256	13913
855.39	14119
855.524	14282
855.658	14149
855.792	14214
855.926	14100
856.06	14244
856.194	14221
856.327	14153
856.461	14054
856.595	14027
856.729	14005
856.862	14164
856.996	14073
857.13	14168
857.263	14183
857.397	14275
857.53	14126
857.664	14195
857.797	14328
857.931	14180
858.064	14202
858.197	14286
858.331	14069
858.464	14134
858.597	13982
858.731	14084
858.864	14126
858.997	14065
859.13	14244
859.263	14229
859.396	14210
859.529	14176
859.662	14103
859.795	14043
859.928	14168
860.061	14199
860.194	14271
860.327	14153
860.46	14183
860.592	14237
860.725	14206
860.858	14126
860.99	14123
861.123	14039
861.256	13947
861.388	14187
861.521	14902
861.653	14081
861.786	13955
861.918	14039
862.05	14016
862.183	14062
862.315	14020
862.447	14157
862.58	14149
862.712	13887
862.844	13936
862.976	14069
863.108	13917
863.24	14187
863.372	13871
863.504	13936
863.636	13913
863.768	13982
863.9	13978
864.032	13791
864.164	13814
864.296	13928
864.428	14005
864.559	14054
864.691	13947
864.823	13932
864.954	13967
865.086	13978
865.217	13963
865.349	13769
865.48	13898
865.612	13993
865.743	14031
865.875	14012
866.006	13871
866.137	13860
866.269	13833
866.4	13917
866.531	13871
866.662	13890
866.793	13799
866.924	13928
867.055	13860
867.186	13894
867.317	13788
867.448	13708
867.579	13772
867.71	13860
867.841	13807
867.972	13868
868.103	13845
868.233	13906
868.364	13940
868.495	13989
868.625	14153
868.756	14278
868.886	14043
869.017	14119
869.147	14199
869.278	14298
869.408	14058
869.539	14172
869.669	14183
869.799	14225
869.929	14248
870.06	14237
870.19	14514
870.32	14434
870.45	14526
870.58	14552
870.71	14689
870.84	14724
870.97	14610
871.1	14530
871.23	14712
871.36	14731
871.489	14708
871.619	14708
871.749	14762
871.879	14750
872.008	14826
872.138	14762
872.267	14697
872.397	14644
872.526	14522
872.656	14560
872.785	14598
872.915	14796
873.044	14743
873.173	14735
873.303	14880
873.432	14689
873.561	14830
873.69	14724
873.819	14765
873.948	14967
874.077	14929
874.206	14785
874.335	14807
874.464	14944
874.593	15112
874.722	14990
874.851	15112
874.979	15142
875.108	15116
875.237	15146
875.365	14967
875.494	15043
875.623	15230
875.751	15211
875.88	15127
876.008	15279
876.136	15348
876.265	15553
876.393	15618
876.521	15587
876.65	15599
876.778	15572
876.906	15599
877.034	15454
877.162	15469
877.29	15424
877.418	15412
877.546	15496
877.674	15561
877.802	15660
877.93	15534
878.058	15500
878.185	15359
878.313	15496
878.441	15496
878.568	15447
878.696	15485
878.824	15523
878.951	15572
879.079	15690
879.206	15861
879.333	15728
879.461	15572
879.588	15568
879.715	15709
879.842	15873
879.97	15591
880.097	15389
880.224	15363
880.351	15367
880.478	15321
880.605	15302
880.732	15340
880.859	15564
880.986	15408
881.112	15374
881.239	15207
881.366	15116
881.493	15074
881.619	15104
881.746	15017
881.872	15150
881.999	15116
882.125	15036
882.252	15047
882.378	15028
882.505	15192
882.631	15013
882.757	14857
882.883	14975
883.01	14781
883.136	14823
883.262	14689
883.388	14663
883.514	14876
883.64	14845
883.766	14811
883.892	14674
884.018	14697
884.143	14811
884.269	14845
884.395	14537
884.52	14434
884.646	14610
884.772	14537
884.897	14552
885.023	14594
885.148	14659
885.274	14807
885.399	14602
885.524	14537
885.65	14568
885.775	14575
885.9	14511
886.025	14590
886.15	14640
886.275	14431
886.4	14549
886.525	14503
886.65	14454
886.775	14484
886.9	14678
887.025	14807
887.149	14564
887.274	14461
887.399	14389
887.523	14480
887.648	14290
887.773	14256
887.897	14389
888.021	14457
888.146	14278
888.27	14484
888.395	14457
888.519	14370
888.643	14404
888.767	14522
888.891	14275
889.015	14317
889.139	14294
889.263	14294
889.387	14362
889.511	14446
889.635	14419
889.759	14248
889.883	14183
890.006	14271
890.13	14404
890.254	14107
890.377	14210
890.501	14164
890.624	13986
890.748	14092
890.871	14008
890.995	13982
891.118	13875
891.241	13993
891.364	14096
891.488	13993
891.611	13959
891.734	13974
891.857	13978
891.98	13993
892.103	14043
892.226	13970
892.349	13947
892.471	13814
892.594	13890
892.717	13921
892.839	13944
892.962	14020
893.085	14065
893.207	13955
893.33	13849
893.452	13894
893.575	14050
893.697	13947
893.819	14183
893.941	14145
894.064	14134
894.186	13978
894.308	13928
894.43	14043
894.552	14290
894.674	14214
894.796	14008
894.918	13982
895.04	14016
895.161	14111
895.283	14077
895.405	13932
895.526	14107
895.648	14100
895.769	14096
895.891	14153
896.012	14218
896.134	14134
896.255	14065
896.376	14062
896.498	14119
896.619	14142
896.74	14180
896.861	14202
896.982	14568
897.103	14568
897.224	14461
897.345	14396
897.466	14290
897.587	14362
897.708	14587
897.828	14507
897.949	14358
898.07	14290
898.19	14305
898.311	14533
898.431	14492
898.552	14408
898.672	14617
898.792	14571
898.913	14575
899.033	14427
899.153	14374
899.273	14271
899.393	14358
899.513	14267
899.633	14396
899.753	14415
899.873	14328
899.993	14393
900.113	14301
900.232	14366
900.352	14278
900.472	14286
900.591	14153
900.711	14218
900.83	14111
900.95	14320
901.069	14389
901.189	14172
901.308	13951
901.427	13849
901.546	13772
901.665	13928
901.784	13879
901.904	13772
902.023	13670
902.141	13514
902.26	13464
902.379	13571
902.498	13411
902.617	13384
902.735	13392
902.854	13464
902.973	13362
903.091	13202
903.21	13149
903.328	13149
903.446	13133
903.565	12981
903.683	13084
903.801	12916
903.919	12996
904.038	13065
904.156	12928
904.274	12871
904.392	12817
904.51	12867
904.627	12825
904.745	12882
904.863	12920
904.981	12677
905.098	12566
905.216	12540
905.334	12547
905.451	12559
905.569	12540
905.686	12608
905.803	12540
905.921	12376
906.038	12456
906.155	12433
906.272	12243
906.389	12308
906.506	12136
906.623	12197
906.74	12110
906.857	12083
906.974	12045
907.091	12159
907.208	12182
907.324	12178
907.441	12114
907.557	11950
907.674	12079
907.79	11973
907.907	11908
908.023	11904
908.139	11961
908.256	11851
908.372	11901
908.488	11817
908.604	11676
908.72	11695
908.836	11699
908.952	11668
909.068	11722
909.184	11779
909.3	11684
909.415	11722
909.531	11623
909.647	11478
909.762	11444
909.878	11395
909.993	11478
910.108	11452
910.224	11410
910.339	11440
910.454	11372
910.57	11280
910.685	11212
910.8	11627
910.915	11463
911.03	11284
911.145	11166
911.259	11136
911.374	11159
911.489	11083
911.604	11075
911.718	10942
911.833	10953
911.947	10869
912.062	10782
912.176	10885
912.291	10919
912.405	10957
912.519	11060
912.633	11132
912.748	11018
912.862	10991
912.976	10938
913.09	10694
913.204	10782
913.318	10793
913.431	10873
913.545	10843
913.659	10957
913.772	10786
913.886	10714
914	10672
914.113	10748
914.226	10801
914.34	10812
914.453	10607
914.566	10672
914.68	10660
914.793	10634
914.906	10405
915.019	10451
915.132	10333
915.245	10352
915.358	10447
915.47	10447
915.583	10432
915.696	10508
915.809	10622
915.921	10554
916.034	10390
916.146	10390
916.259	10337
916.371	10493
916.483	10459
916.595	10394
916.708	10306
916.82	10375
916.932	10310
917.044	10310
917.156	10329
917.268	10242
917.38	10306
917.491	10211
917.603	10242
917.715	10379
917.826	10386
917.938	10272
918.049	10227
918.161	10253
918.272	10519
918.384	10417
918.495	10318
918.606	10169
918.717	10131
918.828	10154
918.939	10196
919.05	10097
919.161	10120
919.272	9880
919.383	9998
919.494	10177
919.604	10432
919.715	10112
919.826	10063
919.936	10188
920.047	10124
920.157	10177
920.267	10284
920.378	10230
920.488	10082
920.598	10375
920.708	10512
920.818	10424
920.928	10360
921.038	10481
921.148	10504
921.258	10234
921.368	10051
921.477	10048
921.587	10032
921.697	9934
921.806	9987
921.916	9880
922.025	9785
922.134	9694
922.244	9614
922.353	9698
922.462	9618
922.571	9576
922.68	9435
922.789	9393
922.898	9416
923.007	9355
923.116	9488
923.224	9435
923.333	9408
923.442	9294
923.55	9340
923.659	9363
923.767	9329
923.876	9245
923.984	9370
924.092	9226
924.201	9401
924.309	9408
924.417	9211
924.525	9150
924.633	9241
924.741	10025
924.849	9020
924.956	9233
925.064	9070
925.172	9070
925.279	8967
925.387	9119
925.494	9055
925.602	9207
925.709	9195
925.816	8982
925.924	9070
926.031	9135
926.138	9066
926.245	9112
926.352	8933
926.459	9104
926.566	9169
926.673	9051
926.779	8963
926.886	8952
926.993	8766
927.099	8762
927.206	8727
927.312	8769
927.419	8857
927.525	8739
927.631	8830
927.737	8697
927.843	8689
927.95	8571
928.056	8629
928.162	8724
928.267	8746
928.373	9317
928.479	8785
928.585	8640
928.69	8735
928.796	8762
928.901	8613
929.007	8457
929.112	8552
929.218	8537
929.323	8541
929.428	8499
929.533	8621
929.638	8446
929.743	8484
929.848	8541
929.953	8480
930.058	8465
930.163	8282
930.267	8298
930.372	8400
930.477	8275
930.581	8492
930.685	8370
930.79	8168
930.894	8214
930.998	8271
931.103	8393
931.207	8027
931.311	8012
931.415	7936
931.519	7693
931.623	7738
