Data from test_V78500241_1318.txt Node
Date: Fri Mar 25 14:42:53 CST 2022
User: usil
Spectrometer: V785-0024
Trigger mode: 0
Integration Time (sec): 4.000000E-1
Scans to average: 1
Nonlinearity correction enabled: false
Boxcar width: 0
Storing dark spectrum: false
XAxis mode: Wavelengths
Number of Pixels in Spectrum: 1024
>>>>>Begin Spectral Data<<<<<
801.071	22333
801.214	22226
801.356	22082
801.499	21991
801.641	21743
801.783	21648
801.926	21770
802.068	21625
802.211	21652
802.353	21542
802.496	21363
802.638	21268
802.78	21233
802.923	21127
803.065	20967
803.208	20998
803.35	20929
803.492	21291
803.635	21264
803.777	21062
803.919	21192
804.061	21462
804.204	21096
804.346	21138
804.488	21032
804.63	20990
804.773	20975
804.915	21020
805.057	21142
805.199	21017
805.341	21028
805.483	21142
805.626	21077
805.768	20941
805.91	21020
806.052	20910
806.194	20921
806.336	21180
806.478	21024
806.62	20998
806.762	20998
806.904	21256
807.046	21317
807.188	21264
807.33	21302
807.472	21450
807.614	21230
807.756	21370
807.898	21203
808.04	21085
808.182	21218
808.324	21252
808.465	21447
808.607	21386
808.749	21538
808.891	21603
809.033	21671
809.174	21545
809.316	21477
809.458	21485
809.6	21450
809.741	21496
809.883	21568
810.025	21466
810.166	21625
810.308	21526
810.45	21507
810.591	21428
810.733	21386
810.875	21325
811.016	21230
811.158	21142
811.299	21279
811.441	21226
811.582	21294
811.724	21226
811.865	21154
812.007	21180
812.148	21161
812.29	21138
812.431	21397
812.573	21481
812.714	21485
812.855	21717
812.997	21808
813.138	21827
813.279	21819
813.421	21629
813.562	21629
813.703	21488
813.845	21355
813.986	20921
814.127	20906
814.268	20811
814.41	20811
814.551	20689
814.692	20735
814.833	20750
814.974	20575
815.115	20625
815.256	20488
815.397	20636
815.539	20549
815.68	20530
815.821	20427
815.962	20492
816.103	20415
816.244	20271
816.385	20248
816.526	20256
816.666	20077
816.807	19887
816.948	20065
817.089	19925
817.23	20035
817.371	19868
817.512	19921
817.653	19731
817.793	19772
817.934	19856
818.075	19982
818.216	19814
818.356	19833
818.497	19715
818.638	19639
818.778	19548
818.919	19514
819.06	19594
819.2	19734
819.341	19613
819.481	19727
819.622	19951
819.762	20100
819.903	19970
820.043	19932
820.184	19936
820.324	19814
820.465	19860
820.605	19909
820.746	19978
820.886	19704
821.026	19898
821.167	19734
821.307	19750
821.447	19723
821.588	19666
821.728	19609
821.868	19293
822.008	19213
822.149	19228
822.289	19225
822.429	18939
822.569	19008
822.709	19099
822.849	18779
822.99	18734
823.13	18703
823.27	18574
823.41	18608
823.55	18502
823.69	18604
823.83	18681
823.97	18532
824.11	18338
824.25	18243
824.389	18292
824.529	18471
824.669	18414
824.809	18437
824.949	18418
825.089	18433
825.228	18369
825.368	18167
825.508	18171
825.648	18216
825.787	18243
825.927	18163
826.067	18117
826.206	18163
826.346	18102
826.485	18129
826.625	18121
826.765	18197
826.904	18125
827.044	17908
827.183	17958
827.323	17885
827.462	17931
827.601	17847
827.741	17954
827.88	17817
828.02	17680
828.159	17859
828.298	17832
828.437	17897
828.577	17718
828.716	17946
828.855	17805
828.994	17672
829.134	17589
829.273	17630
829.412	17539
829.551	17642
829.69	17627
829.829	17615
829.968	17733
830.107	17581
830.246	17649
830.385	17592
830.524	17539
830.663	17436
830.802	17368
830.941	17212
831.08	17181
831.219	17398
831.357	17292
831.496	17490
831.635	17197
831.774	17029
831.913	17140
832.051	17014
832.19	17014
832.329	17094
832.467	16938
832.606	16915
832.744	16828
832.883	16923
833.022	17006
833.16	16957
833.299	16934
833.437	16980
833.576	16999
833.714	16991
833.852	17003
833.991	17079
834.129	17041
834.267	17056
834.406	17025
834.544	17079
834.682	17071
834.821	17067
834.959	17113
835.097	16900
835.235	17018
835.373	16999
835.511	17010
835.65	16828
835.788	16881
835.926	16759
836.064	16736
836.202	16767
836.34	16919
836.478	16972
836.615	16904
836.753	16946
836.891	17006
837.029	16930
837.167	16881
837.305	16797
837.443	16748
837.58	16847
837.718	16801
837.856	16672
837.993	16516
838.131	16752
838.269	16592
838.406	16721
838.544	16630
838.681	16489
838.819	16356
838.956	16261
839.094	16223
839.231	16303
839.369	16443
839.506	16660
839.643	16611
839.781	16314
839.918	16215
840.055	16333
840.193	16204
840.33	16173
840.467	16253
840.604	16238
840.742	16596
840.879	16158
841.016	16287
841.153	16181
841.29	16337
841.427	16322
841.564	16337
841.701	16337
841.838	16318
841.975	16181
842.112	16295
842.249	16093
842.385	16082
842.522	16234
842.659	16207
842.796	16082
842.933	16036
843.069	15991
843.206	15979
843.343	16192
843.479	16051
843.616	16105
843.752	15842
843.889	15857
844.025	16097
844.162	15827
844.298	15960
844.435	15869
844.571	15789
844.708	15907
844.844	16143
844.98	15998
845.117	16006
845.253	15869
845.389	15888
845.525	15972
845.661	15812
845.798	15865
845.934	15979
846.07	15865
846.206	15979
846.342	15979
846.478	15785
846.614	15603
846.75	15496
846.886	15469
847.022	15606
847.158	15431
847.294	15374
847.429	15374
847.565	15359
847.701	15648
847.837	15169
847.972	15146
848.108	15332
848.244	15317
848.379	15066
848.515	15028
848.65	14899
848.786	14979
848.921	14979
849.057	15169
849.192	15131
849.328	15070
849.463	14967
849.598	14937
849.734	14929
849.869	14994
850.004	14781
850.14	14864
850.275	14765
850.41	14743
850.545	14739
850.68	14746
850.815	14727
850.95	14845
851.085	14933
851.22	14925
851.355	14796
851.49	14708
851.625	14712
851.76	14716
851.895	14712
852.03	14655
852.165	14769
852.299	14769
852.434	14914
852.569	14788
852.703	14826
852.838	14883
852.973	14895
853.107	14979
853.242	14788
853.376	14697
853.511	14556
853.645	14610
853.78	14746
853.914	14644
854.048	14663
854.183	14678
854.317	14583
854.451	14792
854.585	14636
854.72	14678
854.854	14743
854.988	14693
855.122	14613
855.256	14526
855.39	14579
855.524	14708
855.658	14720
855.792	14701
855.926	14682
856.06	14735
856.194	14735
856.327	14651
856.461	14526
856.595	14629
856.729	14701
856.862	14796
856.996	14632
857.13	14739
857.263	14735
857.397	14758
857.53	14659
857.664	14724
857.797	14853
857.931	14785
858.064	14773
858.197	14750
858.331	14640
858.464	14583
858.597	14606
858.731	14632
858.864	14564
858.997	14632
859.13	14613
859.263	14735
859.396	14720
859.529	14610
859.662	14594
859.795	14648
859.928	14629
860.061	14758
860.194	14777
860.327	14705
860.46	14590
860.592	14724
860.725	14811
860.858	14781
860.99	14708
861.123	14598
861.256	14587
861.388	14693
861.521	15348
861.653	14575
861.786	14492
861.918	14590
862.05	14617
862.183	14590
862.315	14636
862.447	14697
862.58	14632
862.712	14427
862.844	14385
862.976	14461
863.108	14488
863.24	14925
863.372	14320
863.504	14484
863.636	14480
863.768	14503
863.9	14396
864.032	14339
864.164	14393
864.296	14469
864.428	14617
864.559	14564
864.691	14469
864.823	14514
864.954	14454
865.086	14480
865.217	14415
865.349	14381
865.48	14355
865.612	14374
865.743	14564
865.875	14499
866.006	14454
866.137	14461
866.269	14343
866.4	14370
866.531	14336
866.662	14298
866.793	14233
866.924	14362
867.055	14389
867.186	14389
867.317	14366
867.448	14282
867.579	14393
867.71	14301
867.841	14210
867.972	14393
868.103	14347
868.233	14396
868.364	14343
868.495	14511
868.625	14564
868.756	14663
868.886	14564
869.017	14556
869.147	14716
869.278	14769
869.408	14781
869.539	14636
869.669	14674
869.799	14720
869.929	14823
870.06	14792
870.19	14975
870.32	14986
870.45	15005
870.58	14963
870.71	15279
870.84	15146
870.97	15127
871.1	14994
871.23	15226
871.36	15233
871.489	15188
871.619	15199
871.749	15268
871.879	15291
872.008	15272
872.138	15233
872.267	15211
872.397	15036
872.526	14956
872.656	15047
872.785	14998
872.915	15226
873.044	15344
873.173	15226
873.303	15351
873.432	15348
873.561	15256
873.69	15420
873.819	15245
873.948	15359
874.077	15351
874.206	15237
874.335	15302
874.464	15340
874.593	15644
874.722	15504
874.851	15641
874.979	15568
875.108	15713
875.237	15500
875.365	15564
875.494	15568
875.623	15595
875.751	15504
875.88	15709
876.008	15686
876.136	15884
876.265	15941
876.393	16139
876.521	16109
876.65	16147
876.778	16093
876.906	15941
877.034	15987
877.162	15930
877.29	15960
877.418	16082
877.546	16032
877.674	16036
877.802	16032
877.93	16044
878.058	15949
878.185	15979
878.313	15979
878.441	16040
878.568	15972
878.696	16006
878.824	16105
878.951	16082
879.079	16211
879.206	16367
879.333	16196
879.461	16188
879.588	16147
879.715	16371
879.842	16333
879.97	16204
880.097	15949
880.224	15857
880.351	16006
880.478	15979
880.605	15827
880.732	15911
880.859	16048
880.986	15956
881.112	15903
881.239	15838
881.366	15648
881.493	15584
881.619	15538
881.746	15599
881.872	15526
881.999	15656
882.125	15580
882.252	15477
882.378	15549
882.505	15800
882.631	15428
882.757	15367
882.883	15389
883.01	15405
883.136	15348
883.262	15218
883.388	15192
883.514	15405
883.64	15412
883.766	15363
883.892	15150
884.018	15313
884.143	15351
884.269	15504
884.395	15127
884.52	15032
884.646	15017
884.772	15009
884.897	14891
885.023	15104
885.148	15195
885.274	15214
885.399	15150
885.524	15131
885.65	15077
885.775	15039
885.9	15085
886.025	15222
886.15	15100
886.275	15005
886.4	14960
886.525	14994
886.65	15009
886.775	14967
886.9	15184
887.025	15291
887.149	15036
887.274	14868
887.399	14804
887.523	14819
887.648	14819
887.773	14864
887.897	14910
888.021	14941
888.146	14834
888.27	14891
888.395	14963
888.519	14929
888.643	14944
888.767	15028
888.891	14792
889.015	14705
889.139	14727
889.263	14701
889.387	14785
889.511	14906
889.635	14899
889.759	14697
889.883	14636
890.006	14670
890.13	14807
890.254	14613
890.377	14743
890.501	14476
890.624	14423
890.748	14606
890.871	14549
890.995	14404
891.118	14294
891.241	14419
891.364	14389
891.488	14602
891.611	14415
891.734	14393
891.857	14484
891.98	14431
892.103	14518
892.226	14450
892.349	14351
892.471	14248
892.594	14332
892.717	14442
892.839	14351
892.962	14355
893.085	14469
893.207	14427
893.33	14324
893.452	14347
893.575	14408
893.697	14415
893.819	14564
893.941	14560
894.064	14415
894.186	14370
894.308	14389
894.43	14537
894.552	14625
894.674	14594
894.796	14313
894.918	14469
895.04	14492
895.161	14575
895.283	14473
895.405	14454
895.526	14473
895.648	14442
895.769	14556
895.891	14629
896.012	14590
896.134	14590
896.255	14560
896.376	14522
896.498	14564
896.619	14651
896.74	14602
896.861	14526
896.982	14925
897.103	14967
897.224	14845
897.345	14864
897.466	14807
897.587	14895
897.708	14975
897.828	14910
897.949	14807
898.07	14712
898.19	14792
898.311	15024
898.431	14739
898.552	14921
898.672	15051
898.792	14933
898.913	14891
899.033	14769
899.153	14777
899.273	14739
899.393	14697
899.513	14762
899.633	14682
899.753	14693
899.873	14735
899.993	14804
900.113	14674
900.232	14670
900.352	14731
900.472	14632
900.591	14590
900.711	14640
900.83	14590
900.95	14651
901.069	14629
901.189	14594
901.308	14313
901.427	14298
901.546	14328
901.665	14225
901.784	14404
901.904	14195
902.023	13982
902.141	13913
902.26	13902
902.379	13925
902.498	13868
902.617	13879
902.735	13837
902.854	13875
902.973	13852
903.091	13628
903.21	13567
903.328	13681
903.446	13480
903.565	13400
903.683	13396
903.801	13407
903.919	13346
904.038	13369
904.156	13270
904.274	13221
904.392	13164
904.51	13156
904.627	13168
904.745	13209
904.863	13225
904.981	13084
905.098	12897
905.216	12913
905.334	12954
905.451	12977
905.569	12909
905.686	12920
905.803	12962
905.921	12760
906.038	12825
906.155	12738
906.272	12578
906.389	12696
906.506	12502
906.623	12631
906.74	12521
906.857	12422
906.974	12448
907.091	12570
907.208	12623
907.324	12513
907.441	12448
907.557	12300
907.674	12175
907.79	12152
907.907	12281
908.023	12254
908.139	12315
908.256	12167
908.372	12129
908.488	12133
908.604	12041
908.72	11992
908.836	11935
908.952	11893
909.068	12022
909.184	12148
909.3	12003
909.415	12034
909.531	11946
909.647	11813
909.762	11748
909.878	11741
909.993	11771
910.108	11767
910.224	11733
910.339	11665
910.454	11627
910.57	11642
910.685	11516
910.8	11855
910.915	11691
911.03	11661
911.145	11455
911.259	11478
911.374	11501
911.489	11387
911.604	11417
911.718	11201
911.833	11250
911.947	11124
912.062	11056
912.176	11204
912.291	11235
912.405	11208
912.519	11383
912.633	11318
912.748	11288
912.862	11254
912.976	11079
913.09	11037
913.204	11071
913.318	11094
913.431	11242
913.545	11216
913.659	11239
913.772	11147
913.886	10995
914	10961
914.113	11052
914.226	11170
914.34	11075
914.453	10938
914.566	11052
914.68	10900
914.793	10957
914.906	10702
915.019	10649
915.132	10607
915.245	10683
915.358	10630
915.47	10793
915.583	10717
915.696	10740
915.809	10850
915.921	10885
916.034	10702
916.146	10622
916.259	10653
916.371	10717
916.483	10740
916.595	10603
916.708	10618
916.82	10683
916.932	10675
917.044	10641
917.156	10607
917.268	10481
917.38	10603
917.491	10489
917.603	10481
917.715	10611
917.826	10637
917.938	10531
918.049	10379
918.161	10634
918.272	10645
918.384	10596
918.495	10538
918.606	10409
918.717	10421
918.828	10409
918.939	10432
919.05	10360
919.161	10371
919.272	10249
919.383	10284
919.494	10455
919.604	10653
919.715	10447
919.826	10261
919.936	10440
920.047	10504
920.157	10443
920.267	10580
920.378	10455
920.488	10421
920.598	10615
920.708	10752
920.818	10694
920.928	10577
921.038	10816
921.148	10797
921.258	10424
921.368	10375
921.477	10272
921.587	10192
921.697	10135
921.806	10230
921.916	10124
922.025	10029
922.134	10036
922.244	9941
922.353	9983
922.462	9869
922.571	9827
922.68	9686
922.789	9637
922.898	9629
923.007	9675
923.116	9747
923.224	9625
923.333	9679
923.442	9557
923.55	9557
923.659	9595
923.767	9622
923.876	9477
923.984	9561
924.092	9519
924.201	9500
924.309	9576
924.417	9595
924.525	9420
924.633	9477
924.741	10413
924.849	9287
924.956	9507
925.064	9268
925.172	9199
925.279	9340
925.387	9329
925.494	9306
925.602	9359
925.709	9359
925.816	9207
925.924	9283
926.031	9397
926.138	9332
926.245	9321
926.352	9264
926.459	9363
926.566	9370
926.673	9272
926.779	9169
926.886	9138
926.993	9036
927.099	9001
927.206	9001
927.312	8986
927.419	9108
927.525	9024
927.631	9066
927.737	8944
927.843	8948
927.95	8766
928.056	8895
928.162	8902
928.267	9028
928.373	9591
928.479	8986
928.585	8883
928.69	8880
928.796	9024
928.901	8826
929.007	8739
929.112	8792
929.218	8819
929.323	8701
929.428	8705
929.533	8819
929.638	8644
929.743	8697
929.848	8674
929.953	8697
930.058	8560
930.163	8484
930.267	8450
930.372	8670
930.477	8522
930.581	8701
930.685	8522
930.79	8476
930.894	8507
930.998	8431
931.103	8564
931.207	8279
931.311	8218
931.415	8153
931.519	7928
931.623	7936
