Data from test_V78500241_970.txt Node
Date: Fri Mar 25 14:40:28 CST 2022
User: usil
Spectrometer: V785-0024
Trigger mode: 0
Integration Time (sec): 4.000000E-1
Scans to average: 1
Nonlinearity correction enabled: false
Boxcar width: 0
Storing dark spectrum: false
XAxis mode: Wavelengths
Number of Pixels in Spectrum: 1024
>>>>>Begin Spectral Data<<<<<
801.071	23379
801.214	23250
801.356	23010
801.499	23003
801.641	22641
801.783	22767
801.926	22759
802.068	22645
802.211	22519
802.353	22489
802.496	22303
802.638	22185
802.78	22116
802.923	22265
803.065	22124
803.208	22025
803.35	22120
803.492	22120
803.635	22234
803.777	22070
803.919	22067
804.061	22398
804.204	22082
804.346	22051
804.488	21922
804.63	21911
804.773	21861
804.915	21994
805.057	22158
805.199	21869
805.341	22223
805.483	22257
805.626	22185
805.768	21991
805.91	22093
806.052	22101
806.194	21907
806.336	22257
806.478	22204
806.62	22093
806.762	22253
806.904	22402
807.046	22493
807.188	22531
807.33	22500
807.472	22626
807.614	22694
807.756	22858
807.898	22831
808.04	22649
808.182	22900
808.324	23159
808.465	23455
808.607	23832
808.749	24125
808.891	24289
809.033	24327
809.174	24076
809.316	23786
809.458	23539
809.6	23326
809.741	23166
809.883	23079
810.025	23098
810.166	22858
810.308	22938
810.45	22744
810.591	22767
810.733	22557
810.875	22504
811.016	22432
811.158	22306
811.299	22413
811.441	22538
811.582	22436
811.724	22478
811.865	22333
812.007	22303
812.148	22185
812.29	22325
812.431	22481
812.573	22546
812.714	22809
812.855	22774
812.997	22885
813.138	22968
813.279	22801
813.421	22778
813.562	22771
813.703	22519
813.845	22497
813.986	22112
814.127	22097
814.268	21945
814.41	21945
814.551	21789
814.692	21899
814.833	21785
814.974	21743
815.115	21762
815.256	21644
815.397	21504
815.539	21568
815.68	21534
815.821	21428
815.962	21545
816.103	21599
816.244	21226
816.385	21363
816.526	21237
816.666	21230
816.807	20929
816.948	21020
817.089	21036
817.23	21112
817.371	21032
817.512	20834
817.653	20990
817.793	20845
817.934	20883
818.075	20960
818.216	21047
818.356	20929
818.497	20716
818.638	20598
818.778	20629
818.919	20682
819.06	20552
819.2	20663
819.341	20727
819.481	20701
819.622	20823
819.762	21173
819.903	21047
820.043	21039
820.184	20902
820.324	20842
820.465	20914
820.605	20994
820.746	20834
820.886	20758
821.026	20868
821.167	20842
821.307	20902
821.447	20773
821.588	20678
821.728	20625
821.868	20370
822.008	20317
822.149	20309
822.289	20221
822.429	20024
822.569	19894
822.709	20046
822.849	19837
822.99	19795
823.13	19818
823.27	19670
823.41	19658
823.55	19453
823.69	19548
823.83	19590
823.97	19510
824.11	19327
824.25	19441
824.389	19350
824.529	19438
824.669	19308
824.809	19430
824.949	19472
825.089	19381
825.228	19331
825.368	19095
825.508	19148
825.648	19217
825.787	19126
825.927	19141
826.067	19156
826.206	19103
826.346	19152
826.485	19072
826.625	19091
826.765	19232
826.904	19118
827.044	18890
827.183	18928
827.323	18825
827.462	18985
827.601	18909
827.741	18802
827.88	18795
828.02	18688
828.159	18760
828.298	18757
828.437	18798
828.577	18669
828.716	18943
828.855	18719
828.994	18460
829.134	18578
829.273	18601
829.412	18490
829.551	18490
829.69	18486
829.829	18479
829.968	18604
830.107	18498
830.246	18589
830.385	18414
830.524	18361
830.663	18372
830.802	18281
830.941	18144
831.08	18148
831.219	18098
831.357	18285
831.496	18357
831.635	18136
831.774	17988
831.913	17931
832.051	17920
832.19	17889
832.329	18019
832.467	17843
832.606	17790
832.744	17828
832.883	17855
833.022	17783
833.16	17874
833.299	17802
833.437	17863
833.576	17942
833.714	17973
833.852	17946
833.991	18019
834.129	18049
834.267	17969
834.406	18007
834.544	17923
834.682	17965
834.821	17920
834.959	18072
835.097	17908
835.235	17980
835.373	17882
835.511	17847
835.65	17722
835.788	17828
835.926	17608
836.064	17547
836.202	17615
836.34	17794
836.478	17851
836.615	17813
836.753	17737
836.891	17790
837.029	17832
837.167	17783
837.305	17638
837.443	17665
837.58	17520
837.718	17722
837.856	17619
837.993	17611
838.131	17657
838.269	17516
838.406	17509
838.544	17497
838.681	17299
838.819	17353
838.956	17197
839.094	17094
839.231	17250
839.369	17376
839.506	17516
839.643	17326
839.781	17193
839.918	17117
840.055	17231
840.193	17048
840.33	17105
840.467	17086
840.604	17124
840.742	17299
840.879	17025
841.016	16991
841.153	16877
841.29	17147
841.427	17181
841.564	17216
841.701	16980
841.838	17086
841.975	16949
842.112	17056
842.249	16919
842.385	16885
842.522	17056
842.659	17022
842.796	16786
842.933	16831
843.069	16763
843.206	16934
843.343	16946
843.479	16896
843.616	16862
843.752	16702
843.889	16687
844.025	16847
844.162	16729
844.298	16881
844.435	16717
844.571	16717
844.708	16733
844.844	16930
844.98	16911
845.117	16892
845.253	16835
845.389	17014
845.525	17189
845.661	17596
845.798	17946
845.934	18620
846.07	18563
846.206	18616
846.342	18388
846.478	17608
846.614	16953
846.75	16748
846.886	16538
847.022	16538
847.158	16440
847.294	16417
847.429	16390
847.565	16276
847.701	16462
847.837	15987
847.972	15899
848.108	16105
848.244	16055
848.379	15812
848.515	15785
848.65	15789
848.786	15835
848.921	15808
849.057	15892
849.192	15835
849.328	15812
849.463	15915
849.598	15888
849.734	15614
849.869	15724
850.004	15682
850.14	15496
850.275	15629
850.41	15473
850.545	15504
850.68	15618
850.815	15492
850.95	15545
851.085	15717
851.22	15663
851.355	15507
851.49	15534
851.625	15473
851.76	15519
851.895	15462
852.03	15466
852.165	15458
852.299	15599
852.434	15671
852.569	15663
852.703	15595
852.838	15660
852.973	15778
853.107	15656
853.242	15534
853.376	15386
853.511	15340
853.645	15397
853.78	15561
853.914	15485
854.048	15386
854.183	15378
854.317	15500
854.451	15637
854.585	15279
854.72	15454
854.854	15500
854.988	15351
855.122	15313
855.256	15351
855.39	15340
855.524	15572
855.658	15496
855.792	15405
855.926	15405
856.06	15496
856.194	15469
856.327	15530
856.461	15412
856.595	15370
856.729	15412
856.862	15462
856.996	15447
857.13	15439
857.263	15572
857.397	15576
857.53	15329
857.664	15561
857.797	15549
857.931	15477
858.064	15416
858.197	15488
858.331	15336
858.464	15287
858.597	15348
858.731	15275
858.864	15321
858.997	15344
859.13	15359
859.263	15397
859.396	15526
859.529	15313
859.662	15382
859.795	15348
859.928	15348
860.061	15526
860.194	15564
860.327	15405
860.46	15393
860.592	15557
860.725	15511
860.858	15450
860.99	15370
861.123	15370
861.256	15351
861.388	15374
861.521	16006
861.653	15302
861.786	15287
861.918	15188
862.05	15283
862.183	15294
862.315	15310
862.447	15477
862.58	15287
862.712	15230
862.844	15100
862.976	15207
863.108	15222
863.24	15614
863.372	15097
863.504	15211
863.636	15150
863.768	15146
863.9	15184
864.032	15058
864.164	15150
864.296	15169
864.428	15313
864.559	15348
864.691	15218
864.823	15256
864.954	15150
865.086	15188
865.217	15203
865.349	15066
865.48	15085
865.612	15184
865.743	15272
865.875	15306
866.006	15142
866.137	15157
866.269	15150
866.4	15039
866.531	15074
866.662	14971
866.793	15055
866.924	15146
867.055	15150
867.186	15108
867.317	15119
867.448	15089
867.579	15077
867.71	14895
867.841	15028
867.972	15195
868.103	14967
868.233	15207
868.364	15119
868.495	15135
868.625	15325
868.756	15488
868.886	15252
869.017	15401
869.147	15572
869.278	15477
869.408	15431
869.539	15370
869.669	15340
869.799	15458
869.929	15462
870.06	15526
870.19	15747
870.32	15618
870.45	15652
870.58	15759
870.71	15907
870.84	15854
870.97	15709
871.1	15724
871.23	15892
871.36	15941
871.489	15854
871.619	15888
871.749	15945
871.879	15918
872.008	16131
872.138	15884
872.267	16017
872.397	15766
872.526	15873
872.656	15724
872.785	15835
872.915	16029
873.044	16093
873.173	15987
873.303	16078
873.432	16059
873.561	16166
873.69	16040
873.819	16097
873.948	16173
874.077	15998
874.206	15934
874.335	15975
874.464	16219
874.593	16329
874.722	16162
874.851	16421
874.979	16322
875.108	16421
875.237	16287
875.365	16253
875.494	16295
875.623	16379
875.751	16390
875.88	16348
876.008	16542
876.136	16538
876.265	16774
876.393	16881
876.521	16900
876.65	16790
876.778	16763
876.906	16755
877.034	16755
877.162	16782
877.29	16759
877.418	16820
877.546	16831
877.674	16854
877.802	16820
877.93	16797
878.058	16843
878.185	16809
878.313	16748
878.441	16885
878.568	16820
878.696	16934
878.824	17136
878.951	17193
879.079	17376
879.206	17752
879.333	17756
879.461	17687
879.588	17851
879.715	17999
879.842	17961
879.97	17707
880.097	17322
880.224	17128
880.351	17071
880.478	16984
880.605	16965
880.732	16915
880.859	17117
880.986	16889
881.112	16900
881.239	16831
881.366	16577
881.493	16561
881.619	16535
881.746	16455
881.872	16504
881.999	16535
882.125	16531
882.252	16554
882.378	16599
882.505	16649
882.631	16447
882.757	16421
882.883	16421
883.01	16310
883.136	16371
883.262	16246
883.388	16185
883.514	16314
883.64	16363
883.766	16306
883.892	16067
884.018	16185
884.143	16295
884.269	16386
884.395	16150
884.52	16097
884.646	16029
884.772	16074
884.897	15838
885.023	15983
885.148	16128
885.274	16257
885.399	16200
885.524	16002
885.65	16048
885.775	15994
885.9	15991
886.025	16082
886.15	16109
886.275	15926
886.4	15911
886.525	15873
886.65	15956
886.775	15838
886.9	16063
887.025	16105
887.149	15915
887.274	15713
887.399	15660
887.523	15675
887.648	15682
887.773	15595
887.897	15800
888.021	15736
888.146	15584
888.27	15739
888.395	15800
888.519	15736
888.643	15682
888.767	15686
888.891	15564
889.015	15500
889.139	15534
889.263	15519
889.387	15507
889.511	15679
889.635	15652
889.759	15485
889.883	15424
890.006	15496
890.13	15515
890.254	15389
890.377	15412
890.501	15249
890.624	15256
890.748	15363
890.871	15192
890.995	15135
891.118	15089
891.241	15097
891.364	15116
891.488	15287
891.611	15085
891.734	15131
891.857	15173
891.98	15230
892.103	15214
892.226	15176
892.349	15104
892.471	14982
892.594	15036
892.717	15150
892.839	15051
892.962	15100
893.085	15176
893.207	15032
893.33	15013
893.452	14971
893.575	15226
893.697	15066
893.819	15268
893.941	15370
894.064	15176
894.186	15039
894.308	14971
894.43	15211
894.552	15211
894.674	15260
894.796	15024
894.918	15055
895.04	15138
895.161	15199
895.283	15233
895.405	15020
895.526	15131
895.648	15142
895.769	15188
895.891	15199
896.012	15275
896.134	15188
896.255	15230
896.376	15089
896.498	15249
896.619	15291
896.74	15192
896.861	15325
896.982	15549
897.103	15736
897.224	15526
897.345	15496
897.466	15370
897.587	15428
897.708	15603
897.828	15587
897.949	15504
898.07	15340
898.19	15515
898.311	15564
898.431	15496
898.552	15603
898.672	15610
898.792	15755
898.913	15545
899.033	15492
899.153	15447
899.273	15393
899.393	15568
899.513	15469
899.633	15370
899.753	15397
899.873	15336
899.993	15420
900.113	15408
900.232	15359
900.352	15321
900.472	15294
900.591	15336
900.711	15310
900.83	15252
900.95	15378
901.069	15469
901.189	15317
901.308	14982
901.427	14998
901.546	14998
901.665	14910
901.784	14914
901.904	14792
902.023	14773
902.141	14617
902.26	14533
902.379	14564
902.498	14473
902.617	14511
902.735	14537
902.854	14408
902.973	14336
903.091	14240
903.21	14191
903.328	14088
903.446	14077
903.565	14054
903.683	14092
903.801	14016
903.919	13940
904.038	13932
904.156	13822
904.274	13868
904.392	13811
904.51	13795
904.627	13799
904.745	13852
904.863	13814
904.981	13594
905.098	13476
905.216	13502
905.334	13457
905.451	13483
905.569	13476
905.686	13567
905.803	13563
905.921	13289
906.038	13327
906.155	13339
906.272	13232
906.389	13141
906.506	13141
906.623	13103
906.74	13057
906.857	12916
906.974	13015
907.091	13168
907.208	13164
907.324	13099
907.441	12943
907.557	12817
907.674	12753
907.79	12730
907.907	12692
908.023	12730
908.139	12802
908.256	12703
908.372	12722
908.488	12669
908.604	12563
908.72	12513
908.836	12593
908.952	12525
909.068	12616
909.184	12582
909.3	12570
909.415	12528
909.531	12486
909.647	12296
909.762	12247
909.878	12277
909.993	12254
910.108	12342
910.224	12285
910.339	12266
910.454	12258
910.57	12209
910.685	12110
910.8	12407
910.915	12311
911.03	12136
911.145	11984
911.259	11996
911.374	11950
911.489	11935
911.604	11958
911.718	11843
911.833	11783
911.947	11649
912.062	11547
912.176	11737
912.291	11729
912.405	11680
912.519	11866
912.633	11954
912.748	11764
912.862	11745
912.976	11668
913.09	11353
913.204	11535
913.318	11630
913.431	11619
913.545	11665
913.659	11722
913.772	11672
913.886	11501
914	11429
914.113	11573
914.226	11611
914.34	11577
914.453	11318
914.566	11577
914.68	11383
914.793	11463
914.906	11174
915.019	11143
915.132	11102
915.245	11174
915.358	11124
915.47	11201
915.583	11212
915.696	11193
915.809	11269
915.921	11341
916.034	11185
916.146	11170
916.259	11124
916.371	11220
916.483	11189
916.595	11079
916.708	11109
916.82	11113
916.932	11140
917.044	11147
917.156	11022
917.268	10995
917.38	10976
917.491	10972
917.603	11018
917.715	11094
917.826	11121
917.938	10946
918.049	10778
918.161	11003
918.272	11056
918.384	10991
918.495	10965
918.606	10820
918.717	10801
918.828	10904
918.939	10820
919.05	10694
919.161	10877
919.272	10596
919.383	10763
919.494	10946
919.604	11045
919.715	10896
919.826	10771
919.936	10759
920.047	10972
920.157	10812
920.267	11060
920.378	10923
920.488	10866
920.598	10976
920.708	11159
920.818	11041
920.928	11083
921.038	11223
921.148	11067
921.258	10896
921.368	10873
921.477	10683
921.587	10672
921.697	10554
921.806	10725
921.916	10649
922.025	10379
922.134	10348
922.244	10333
922.353	10367
922.462	10257
922.571	10234
922.68	10139
922.789	9987
922.898	10055
923.007	9945
923.116	10048
923.224	10082
923.333	10029
923.442	9956
923.55	9968
923.659	9972
923.767	10017
923.876	9869
923.984	9983
924.092	9823
924.201	9930
924.309	9884
924.417	9884
924.525	9907
924.633	9899
924.741	10626
924.849	9656
924.956	9842
925.064	9713
925.172	9660
925.279	9648
925.387	9755
925.494	9705
925.602	9831
925.709	9831
925.816	9603
925.924	9701
926.031	9800
926.138	9618
926.245	9728
926.352	9580
926.459	9812
926.566	9804
926.673	9743
926.779	9557
926.886	9492
926.993	9374
927.099	9401
927.206	9306
927.312	9336
927.419	9386
927.525	9424
927.631	9325
927.737	9348
927.843	9230
927.95	9161
928.056	9222
928.162	9268
928.267	9329
928.373	9903
928.479	9420
928.585	9150
928.69	9207
928.796	9294
928.901	9233
929.007	9043
929.112	9222
929.218	9161
929.323	9161
929.428	9074
929.533	9218
929.638	9005
929.743	9077
929.848	9085
929.953	9089
930.058	9020
930.163	8868
930.267	8857
930.372	8967
930.477	8750
930.581	9009
930.685	8941
930.79	8807
930.894	8834
930.998	8754
931.103	8868
931.207	8579
931.311	8492
931.415	8450
931.519	8298
931.623	8263
