Data from test_V78500241_581.txt Node
Date: Fri Mar 25 14:37:45 CST 2022
User: usil
Spectrometer: V785-0024
Trigger mode: 0
Integration Time (sec): 4.000000E-1
Scans to average: 1
Nonlinearity correction enabled: false
Boxcar width: 0
Storing dark spectrum: false
XAxis mode: Wavelengths
Number of Pixels in Spectrum: 1024
>>>>>Begin Spectral Data<<<<<
801.071	27835
801.214	27644
801.356	27553
801.499	27310
801.641	27351
801.783	27245
801.926	27382
802.068	27142
802.211	27165
802.353	26914
802.496	26777
802.638	26781
802.78	26587
802.923	26739
803.065	26552
803.208	26670
803.35	26785
803.492	26861
803.635	26773
803.777	26826
803.919	26796
804.061	27039
804.204	26982
804.346	26746
804.488	26826
804.63	26804
804.773	26773
804.915	26979
805.057	27085
805.199	26982
805.341	27184
805.483	27150
805.626	27211
805.768	27104
805.91	27199
806.052	27408
806.194	27393
806.336	27644
806.478	27675
806.62	27751
806.762	27888
806.904	28337
807.046	28763
807.188	28824
807.33	29083
807.472	29467
807.614	29840
807.756	30467
807.898	30992
808.04	31898
808.182	33173
808.324	34683
808.465	36578
808.607	38568
808.749	40230
808.891	41455
809.033	41600
809.174	40337
809.316	38507
809.458	36448
809.6	34519
809.741	32956
809.883	31723
810.025	30810
810.166	30038
810.308	29680
810.45	29113
810.591	29033
810.733	28630
810.875	28306
811.016	28074
811.158	27945
811.299	28048
811.441	28002
811.582	27743
811.724	27603
811.865	27507
812.007	27511
812.148	27466
812.29	27439
812.431	27447
812.573	27526
812.714	27614
812.855	27698
812.997	27854
813.138	28013
813.279	27732
813.421	27755
813.562	27580
813.703	27488
813.845	27268
813.986	27001
814.127	26663
814.268	26530
814.41	26697
814.551	26602
814.692	26712
814.833	26473
814.974	26450
815.115	26518
815.256	26415
815.397	26355
815.539	26324
815.68	26256
815.821	26043
815.962	26267
816.103	26092
816.244	26096
816.385	25970
816.526	25704
816.666	25597
816.807	25525
816.948	25677
817.089	25605
817.23	25525
817.371	25476
817.512	25365
817.653	25358
817.793	25472
817.934	25350
818.075	25388
818.216	25434
818.356	25388
818.497	25289
818.638	25008
818.778	25194
818.919	25175
819.06	25103
819.2	25244
819.341	25308
819.481	25373
819.622	25419
819.762	25772
819.903	25518
820.043	25457
820.184	25396
820.324	25346
820.465	25449
820.605	25308
820.746	25232
820.886	25225
821.026	25278
821.167	25346
821.307	25438
821.447	25175
821.588	25038
821.728	24920
821.868	24798
822.008	24658
822.149	24627
822.289	24547
822.429	24395
822.569	24350
822.709	24266
822.849	24076
822.99	24125
823.13	24114
823.27	23927
823.41	23786
823.55	23923
823.69	23805
823.83	23748
823.97	23840
824.11	23570
824.25	23562
824.389	23634
824.529	23535
824.669	23600
824.809	23764
824.949	23687
825.089	23653
825.228	23627
825.368	23414
825.508	23455
825.648	23448
825.787	23391
825.927	23482
826.067	23254
826.206	23330
826.346	23429
826.485	23467
826.625	23417
826.765	23474
826.904	23467
827.044	23113
827.183	23079
827.323	22919
827.462	23109
827.601	23041
827.741	23037
827.88	23109
828.02	22828
828.159	22965
828.298	23003
828.437	23124
828.577	22892
828.716	23151
828.855	22915
828.994	22702
829.134	22694
829.273	22622
829.412	22664
829.551	22554
829.69	22668
829.829	22725
829.968	22763
830.107	22618
830.246	22622
830.385	22569
830.524	22527
830.663	22428
830.802	22352
830.941	22211
831.08	22215
831.219	22299
831.357	22497
831.496	22455
831.635	22234
831.774	22162
831.913	22162
832.051	22044
832.19	22097
832.329	22204
832.467	22185
832.606	21899
832.744	22139
832.883	22082
833.022	22109
833.16	22223
833.299	22421
833.437	22299
833.576	22443
833.714	22466
833.852	22497
833.991	22656
834.129	22740
834.267	22854
834.406	22733
834.544	22729
834.682	22538
834.821	22542
834.959	22729
835.097	22318
835.235	22314
835.373	22173
835.511	22101
835.65	21991
835.788	21949
835.926	21835
836.064	21736
836.202	21656
836.34	21774
836.478	21892
836.615	21793
836.753	21766
836.891	21876
837.029	21774
837.167	21641
837.305	21713
837.443	21644
837.58	21682
837.718	21648
837.856	21675
837.993	21477
838.131	21652
838.269	21606
838.406	21424
838.544	21382
838.681	21157
838.819	21135
838.956	20975
839.094	20990
839.231	21024
839.369	21180
839.506	21367
839.643	21222
839.781	21100
839.918	21066
840.055	21062
840.193	20960
840.33	20910
840.467	20986
840.604	20971
840.742	21192
840.879	20811
841.016	20941
841.153	20883
841.29	21013
841.427	20944
841.564	20971
841.701	21020
841.838	21020
841.975	20914
842.112	20921
842.249	20815
842.385	20792
842.522	20914
842.659	20785
842.796	20754
842.933	20693
843.069	20678
843.206	20712
843.343	20868
843.479	20735
843.616	20807
843.752	20621
843.889	20571
844.025	20834
844.162	20708
844.298	20800
844.435	20952
844.571	21013
844.708	21146
844.844	21405
844.98	21759
845.117	22055
845.253	22489
845.389	23497
845.525	25670
845.661	28927
845.798	33104
845.934	36319
846.07	37757
846.206	36981
846.342	34268
846.478	30228
846.614	26453
846.75	24129
846.886	22634
847.022	21827
847.158	21230
847.294	20796
847.429	20541
847.565	20442
847.701	20590
847.837	19978
847.972	19997
848.108	20050
848.244	19978
848.379	19670
848.515	19647
848.65	19548
848.786	19590
848.921	19700
849.057	19719
849.192	19674
849.328	19662
849.463	19620
849.598	19559
849.734	19441
849.869	19339
850.004	19312
850.14	19289
850.275	19304
850.41	19202
850.545	19228
850.68	19194
850.815	19282
850.95	19293
851.085	19415
851.22	19304
851.355	19320
851.49	19270
851.625	19263
851.76	19217
851.895	19213
852.03	19206
852.165	19274
852.299	19304
852.434	19377
852.569	19236
852.703	19301
852.838	19320
852.973	19301
853.107	19434
853.242	19384
853.376	19232
853.511	19148
853.645	19183
853.78	19358
853.914	19331
854.048	19183
854.183	19308
854.317	19316
854.451	19495
854.585	19339
854.72	19419
854.854	19422
854.988	19312
855.122	19171
855.256	19080
855.39	19209
855.524	19285
855.658	19209
855.792	19187
855.926	19156
856.06	19110
856.194	19091
856.327	19046
856.461	19099
856.595	19141
856.729	19187
856.862	19217
856.996	19053
857.13	19141
857.263	19217
857.397	19194
857.53	19065
857.664	19088
857.797	19053
857.931	19148
858.064	19008
858.197	19122
858.331	19023
858.464	19038
858.597	18882
858.731	18943
858.864	18913
858.997	18993
859.13	18901
859.263	19000
859.396	19038
859.529	18924
859.662	19042
859.795	18943
859.928	19034
860.061	19061
860.194	19129
860.327	18993
860.46	18951
860.592	19088
860.725	19206
860.858	19015
860.99	18985
861.123	18878
861.256	18878
861.388	18924
861.521	19510
861.653	18810
861.786	18741
861.918	18821
862.05	18913
862.183	18901
862.315	18886
862.447	18996
862.58	18844
862.712	18711
862.844	18665
862.976	18703
863.108	18661
863.24	19023
863.372	18578
863.504	18673
863.636	18536
863.768	18745
863.9	18623
864.032	18498
864.164	18517
864.296	18719
864.428	18681
864.559	18589
864.691	18684
864.823	18635
864.954	18578
865.086	18589
865.217	18597
865.349	18441
865.48	18509
865.612	18494
865.743	18639
865.875	18646
866.006	18589
866.137	18616
866.269	18509
866.4	18574
866.531	18452
866.662	18433
866.793	18433
866.924	18486
867.055	18479
867.186	18353
867.317	18448
867.448	18456
867.579	18467
867.71	18509
867.841	18353
867.972	18559
868.103	18448
868.233	18616
868.364	18525
868.495	18544
868.625	18741
868.756	18741
868.886	18654
869.017	18692
869.147	18814
869.278	18844
869.408	18810
869.539	18711
869.669	18829
869.799	18875
869.929	18932
870.06	19004
870.19	19148
870.32	19046
870.45	19076
870.58	19133
870.71	19304
870.84	19202
870.97	19190
871.1	19217
871.23	19396
871.36	19403
871.489	19274
871.619	19369
871.749	19396
871.879	19449
872.008	19548
872.138	19476
872.267	19460
872.397	19316
872.526	19266
872.656	19247
872.785	19335
872.915	19403
873.044	19582
873.173	19578
873.303	19540
873.432	19586
873.561	19658
873.69	19616
873.819	19616
873.948	19780
874.077	19693
874.206	19575
874.335	19761
874.464	19841
874.593	19974
874.722	19967
874.851	20027
874.979	20153
875.108	20031
875.237	20001
875.365	19917
875.494	20100
875.623	20244
875.751	20039
875.88	20237
876.008	20259
876.136	20575
876.265	20705
876.393	20765
876.521	20815
876.65	20804
876.778	20788
876.906	20807
877.034	20743
877.162	20819
877.29	20876
877.418	20937
877.546	21119
877.674	21085
877.802	21157
877.93	21245
878.058	21252
878.185	21416
878.313	21549
878.441	21854
878.568	21979
878.696	22253
878.824	22938
878.951	23733
879.079	24563
879.206	25932
879.333	26940
879.461	28029
879.588	28877
879.715	28824
879.842	28291
879.97	27085
880.097	25556
880.224	24585
880.351	24026
880.478	23395
880.605	23018
880.732	22881
880.859	22946
880.986	22706
881.112	22577
881.239	22379
881.366	22268
881.493	21994
881.619	22074
881.746	22105
881.872	22173
881.999	22040
882.125	22128
882.252	22272
882.378	22242
882.505	22310
882.631	22162
882.757	22051
882.883	22177
883.01	22025
883.136	21926
883.262	22002
883.388	21907
883.514	22010
883.64	21937
883.766	21888
883.892	21857
884.018	21797
884.143	21987
884.269	22048
884.395	21751
884.52	21583
884.646	21743
884.772	21667
884.897	21656
885.023	21709
885.148	21713
885.274	21823
885.399	21679
885.524	21587
885.65	21481
885.775	21317
885.9	21363
886.025	21340
886.15	21131
886.275	21119
886.4	20880
886.525	20876
886.65	20644
886.775	20758
886.9	20811
887.025	20788
887.149	20648
887.274	20412
887.399	20259
887.523	20298
887.648	20180
887.773	20077
887.897	20119
888.021	20073
888.146	20031
888.27	20081
888.395	20145
888.519	19921
888.643	19894
888.767	20016
888.891	19693
889.015	19605
889.139	19677
889.263	19491
889.387	19537
889.511	19753
889.635	19753
889.759	19529
889.883	19422
890.006	19415
890.13	19453
890.254	19282
890.377	19346
890.501	19198
890.624	19129
890.748	19152
890.871	18993
890.995	18840
891.118	18856
891.241	18913
891.364	18802
891.488	18981
891.611	18810
891.734	18935
891.857	18848
891.98	18810
892.103	18856
892.226	18734
892.349	18673
892.471	18445
892.594	18616
892.717	18654
892.839	18570
892.962	18635
893.085	18684
893.207	18509
893.33	18350
893.452	18448
893.575	18494
893.697	18414
893.819	18760
893.941	18681
894.064	18627
894.186	18563
894.308	18426
894.43	18547
894.552	18502
894.674	18426
894.796	18327
894.918	18300
895.04	18289
895.161	18422
895.283	18384
895.405	18273
895.526	18232
895.648	18216
895.769	18460
895.891	18361
896.012	18407
896.134	18330
896.255	18258
896.376	18266
896.498	18414
896.619	18464
896.74	18285
896.861	18353
896.982	18677
897.103	18696
897.224	18612
897.345	18658
897.466	18441
897.587	18597
897.708	18650
897.828	18608
897.949	18452
898.07	18346
898.19	18410
898.311	18604
898.431	18532
898.552	18494
898.672	18593
898.792	18555
898.913	18521
899.033	18315
899.153	18369
899.273	18296
899.393	18315
899.513	18281
899.633	18197
899.753	18232
899.873	18224
899.993	18327
900.113	18330
900.232	18228
900.352	18266
900.472	18125
900.591	18015
900.711	18140
900.83	18091
900.95	18205
901.069	18133
901.189	18060
901.308	17741
901.427	17699
901.546	17737
901.665	17608
901.784	17718
901.904	17509
902.023	17368
902.141	17185
902.26	17159
902.379	17223
902.498	17162
902.617	17136
902.735	17136
902.854	17094
902.973	17083
903.091	16824
903.21	16729
903.328	16801
903.446	16740
903.565	16588
903.683	16531
903.801	16405
903.919	16542
904.038	16470
904.156	16299
904.274	16535
904.392	16424
904.51	16363
904.627	16348
904.745	16238
904.863	16474
904.981	16086
905.098	15983
905.216	16025
905.334	16032
905.451	15922
905.569	15994
905.686	16044
905.803	15994
905.921	15762
906.038	15892
906.155	15762
906.272	15713
906.389	15675
906.506	15625
906.623	15519
906.74	15500
906.857	15389
906.974	15538
907.091	15557
907.208	15682
907.324	15530
907.441	15408
907.557	15283
907.674	15142
907.79	15180
907.907	15169
908.023	15207
908.139	15237
908.256	15104
908.372	15039
908.488	15036
908.604	15020
908.72	14929
908.836	14933
908.952	14906
909.068	14902
909.184	14960
909.3	14979
909.415	14967
909.531	14891
909.647	14659
909.762	14621
909.878	14640
909.993	14617
910.108	14503
910.224	14640
910.339	14632
910.454	14583
910.57	14385
910.685	14454
910.8	14674
910.915	14587
911.03	14457
911.145	14263
911.259	14202
911.374	14256
911.489	14214
911.604	14142
911.718	13932
911.833	13967
911.947	13936
912.062	13841
912.176	13932
912.291	13997
912.405	13917
912.519	14233
912.633	14111
912.748	13951
912.862	13951
912.976	13875
913.09	13696
913.204	13765
913.318	13860
913.431	13875
913.545	13917
913.659	13894
913.772	13871
913.886	13708
914	13628
914.113	13734
914.226	13830
914.34	13719
914.453	13605
914.566	13784
914.68	13597
914.793	13544
914.906	13377
915.019	13266
915.132	13206
915.245	13297
915.358	13354
915.47	13377
915.583	13373
915.696	13464
915.809	13362
915.921	13521
916.034	13403
916.146	13270
916.259	13263
916.371	13449
916.483	13350
916.595	13293
916.708	13263
916.82	13259
916.932	13202
917.044	13209
917.156	13217
917.268	13160
917.38	13168
917.491	12985
917.603	13080
917.715	13149
917.826	13152
917.938	13019
918.049	12977
918.161	13015
918.272	13137
918.384	13171
918.495	13122
918.606	12897
918.717	12795
918.828	12882
918.939	12829
919.05	12829
919.161	12875
919.272	12616
919.383	12711
919.494	12833
919.604	12993
919.715	12871
919.826	12662
919.936	12856
920.047	12791
920.157	12806
920.267	12932
920.378	12814
920.488	12772
920.598	12924
920.708	13008
920.818	12962
920.928	12886
921.038	13099
921.148	13072
921.258	12696
921.368	12646
921.477	12513
921.587	12566
921.697	12384
921.806	12566
921.916	12403
922.025	12254
922.134	12300
922.244	12178
922.353	12243
922.462	12125
922.571	12022
922.68	11912
922.789	11843
922.898	11859
923.007	11805
923.116	11988
923.224	11901
923.333	11870
923.442	11783
923.55	11752
923.659	11718
923.767	11737
923.876	11707
923.984	11737
924.092	11653
924.201	11729
924.309	11646
924.417	11589
924.525	11604
924.633	11649
924.741	12323
924.849	11425
924.956	11615
925.064	11387
925.172	11208
925.279	11395
925.387	11398
925.494	11440
925.602	11482
925.709	11520
925.816	11311
925.924	11372
926.031	11505
926.138	11372
926.245	11261
926.352	11181
926.459	11463
926.566	11448
926.673	11303
926.779	11197
926.886	11159
926.993	11033
927.099	11033
927.206	11025
927.312	10889
927.419	11033
927.525	10987
927.631	11018
927.737	10843
927.843	10835
927.95	10797
928.056	10862
928.162	10885
928.267	10949
928.373	11425
928.479	10911
928.585	10725
928.69	10771
928.796	10892
928.901	10831
929.007	10599
929.112	10850
929.218	10664
929.323	10698
929.428	10561
929.533	10763
929.638	10550
929.743	10592
929.848	10653
929.953	10588
930.058	10542
930.163	10310
930.267	10268
930.372	10447
930.477	10310
930.581	10466
930.685	10440
930.79	10276
930.894	10306
930.998	10223
931.103	10295
931.207	9956
931.311	10002
931.415	9789
931.519	9629
931.623	9671
