Data from test_V78500241_3172.txt Node
Date: Fri Mar 25 14:55:48 CST 2022
User: usil
Spectrometer: V785-0024
Trigger mode: 0
Integration Time (sec): 4.000000E-1
Scans to average: 1
Nonlinearity correction enabled: false
Boxcar width: 0
Storing dark spectrum: false
XAxis mode: Wavelengths
Number of Pixels in Spectrum: 1024
>>>>>Begin Spectral Data<<<<<
801.071	22166
801.214	21998
801.356	21766
801.499	21644
801.641	21526
801.783	21443
801.926	21523
802.068	21378
802.211	21294
802.353	21199
802.496	21020
802.638	20998
802.78	21005
802.923	20804
803.065	20667
803.208	20727
803.35	20720
803.492	20910
803.635	20933
803.777	20765
803.919	20769
804.061	21135
804.204	20701
804.346	20773
804.488	20720
804.63	20773
804.773	20670
804.915	20746
805.057	20720
805.199	20636
805.341	20731
805.483	20826
805.626	20796
805.768	20564
805.91	20682
806.052	20682
806.194	20598
806.336	20735
806.478	20594
806.62	20743
806.762	20788
806.904	20963
807.046	21127
807.188	21028
807.33	21108
807.472	21020
807.614	20883
807.756	20887
807.898	20800
808.04	20758
808.182	20670
808.324	20834
808.465	20724
808.607	20800
808.749	21089
808.891	21104
809.033	21279
809.174	21093
809.316	20982
809.458	21066
809.6	21017
809.741	21074
809.883	21142
810.025	21127
810.166	21112
810.308	21135
810.45	21135
810.591	21074
810.733	20868
810.875	20864
811.016	20648
811.158	20743
811.299	20823
811.441	20929
811.582	20845
811.724	20697
811.865	20811
812.007	20701
812.148	20769
812.29	20868
812.431	21020
812.573	21081
812.714	21157
812.855	21359
812.997	21408
813.138	21466
813.279	21344
813.421	21439
813.562	21321
813.703	21089
813.845	20876
813.986	20697
814.127	20568
814.268	20450
814.41	20480
814.551	20434
814.692	20366
814.833	20187
814.974	20400
815.115	20256
815.256	20202
815.397	20199
815.539	20161
815.68	20027
815.821	20088
815.962	20126
816.103	20103
816.244	19849
816.385	19826
816.526	19826
816.666	19628
816.807	19396
816.948	19533
817.089	19613
817.23	19499
817.371	19464
817.512	19521
817.653	19495
817.793	19457
817.934	19480
818.075	19426
818.216	19533
818.356	19339
818.497	19285
818.638	19095
818.778	19183
818.919	19270
819.06	19240
819.2	19312
819.341	19346
819.481	19304
819.622	19449
819.762	19670
819.903	19666
820.043	19540
820.184	19419
820.324	19430
820.465	19472
820.605	19419
820.746	19453
820.886	19304
821.026	19426
821.167	19438
821.307	19468
821.447	19331
821.588	19285
821.728	19084
821.868	19034
822.008	18840
822.149	18913
822.289	18897
822.429	18688
822.569	18448
822.709	18563
822.849	18388
822.99	18403
823.13	18361
823.27	18205
823.41	18136
823.55	18022
823.69	18251
823.83	18178
823.97	18091
824.11	18019
824.25	17863
824.389	17904
824.529	18068
824.669	17916
824.809	17961
824.949	18049
825.089	17923
825.228	17847
825.368	17699
825.508	17707
825.648	17668
825.787	17809
825.927	17699
826.067	17668
826.206	17668
826.346	17764
826.485	17680
826.625	17703
826.765	17767
826.904	17710
827.044	17528
827.183	17558
827.323	17452
827.462	17417
827.601	17345
827.741	17330
827.88	17379
828.02	17269
828.159	17459
828.298	17452
828.437	17410
828.577	17345
828.716	17516
828.855	17364
828.994	17166
829.134	17189
829.273	17189
829.412	17003
829.551	17048
829.69	17086
829.829	17140
829.968	17258
830.107	17037
830.246	17166
830.385	17109
830.524	17071
830.663	16965
830.802	16900
830.941	16812
831.08	16694
831.219	16774
831.357	16828
831.496	16904
831.635	16744
831.774	16675
831.913	16679
832.051	16478
832.19	16531
832.329	16550
832.467	16500
832.606	16436
832.744	16478
832.883	16417
833.022	16424
833.16	16394
833.299	16417
833.437	16478
833.576	16542
833.714	16489
833.852	16443
833.991	16527
834.129	16535
834.267	16565
834.406	16558
834.544	16489
834.682	16497
834.821	16436
834.959	16729
835.097	16497
835.235	16588
835.373	16558
835.511	16573
835.65	16318
835.788	16440
835.926	16287
836.064	16261
836.202	16257
836.34	16440
836.478	16500
836.615	16519
836.753	16421
836.891	16493
837.029	16466
837.167	16303
837.305	16341
837.443	16295
837.58	16253
837.718	16474
837.856	16230
837.993	16219
838.131	16284
838.269	16131
838.406	16135
838.544	16135
838.681	15888
838.819	15789
838.956	15842
839.094	15861
839.231	15880
839.369	16017
839.506	16207
839.643	16067
839.781	15762
839.918	15781
840.055	15873
840.193	15808
840.33	15812
840.467	15766
840.604	15876
840.742	16048
840.879	15641
841.016	15606
841.153	15739
841.29	15899
841.427	15778
841.564	15854
841.701	15823
841.838	15808
841.975	15580
842.112	15705
842.249	15599
842.385	15538
842.522	15842
842.659	15747
842.796	15625
842.933	15660
843.069	15545
843.206	15549
843.343	15526
843.479	15671
843.616	15656
843.752	15397
843.889	15435
844.025	15526
844.162	15241
844.298	15504
844.435	15386
844.571	15370
844.708	15477
844.844	15549
844.98	15519
845.117	15408
845.253	15268
845.389	15218
845.525	15310
845.661	15256
845.798	15138
845.934	15222
846.07	15165
846.206	15169
846.342	15302
846.478	15222
846.614	14921
846.75	14891
846.886	14914
847.022	15055
847.158	14914
847.294	14998
847.429	14982
847.565	14952
847.701	15154
847.837	14659
847.972	14606
848.108	14712
848.244	14773
848.379	14594
848.515	14507
848.65	14511
848.786	14530
848.921	14560
849.057	14659
849.192	14655
849.328	14537
849.463	14598
849.598	14476
849.734	14476
849.869	14328
850.004	14469
850.14	14404
850.275	14305
850.41	14263
850.545	14252
850.68	14313
850.815	14404
850.95	14271
851.085	14530
851.22	14423
851.355	14290
851.49	14385
851.625	14259
851.76	14271
851.895	14157
852.03	14195
852.165	14328
852.299	14309
852.434	14400
852.569	14336
852.703	14358
852.838	14389
852.973	14473
853.107	14446
853.242	14263
853.376	14187
853.511	14092
853.645	14164
853.78	14176
853.914	14191
854.048	14126
854.183	14142
854.317	14244
854.451	14343
854.585	14180
854.72	14161
854.854	14305
854.988	14134
855.122	14126
855.256	14065
855.39	14252
855.524	14271
855.658	14123
855.792	14164
855.926	14199
856.06	14328
856.194	14282
856.327	14153
856.461	14100
856.595	14115
856.729	14142
856.862	14317
856.996	14263
857.13	14237
857.263	14298
857.397	14320
857.53	14138
857.664	14199
857.797	14214
857.931	14282
858.064	14309
858.197	14313
858.331	14267
858.464	14134
858.597	14031
858.731	14096
858.864	14225
858.997	14172
859.13	14256
859.263	14244
859.396	14286
859.529	14252
859.662	14111
859.795	14138
859.928	14244
860.061	14404
860.194	14362
860.327	14149
860.46	14187
860.592	14332
860.725	14271
860.858	14351
860.99	14195
861.123	14130
861.256	14020
861.388	14164
861.521	14796
861.653	13974
861.786	13989
861.918	13955
862.05	14039
862.183	14107
862.315	14183
862.447	14187
862.58	14157
862.712	13940
862.844	13959
862.976	14035
863.108	13986
863.24	14244
863.372	13822
863.504	13860
863.636	13837
863.768	14020
863.9	13906
864.032	13883
864.164	13928
864.296	13978
864.428	14084
864.559	14046
864.691	14069
864.823	13970
864.954	13925
865.086	14043
865.217	13868
865.349	13955
865.48	13932
865.612	14008
865.743	14126
865.875	13936
866.006	13997
866.137	13913
866.269	13913
866.4	13959
866.531	13822
866.662	13883
866.793	13890
866.924	13890
867.055	13875
867.186	13917
867.317	13909
867.448	13841
867.579	13917
867.71	13871
867.841	13856
867.972	13951
868.103	13879
868.233	13982
868.364	13936
868.495	14062
868.625	14153
868.756	14286
868.886	14092
869.017	14202
869.147	14366
869.278	14313
869.408	14244
869.539	14218
869.669	14233
869.799	14206
869.929	14332
870.06	14298
870.19	14454
870.32	14526
870.45	14556
870.58	14632
870.71	14674
870.84	14667
870.97	14423
871.1	14537
871.23	14735
871.36	14788
871.489	14762
871.619	14746
871.749	14735
871.879	14800
872.008	14941
872.138	14823
872.267	14762
872.397	14727
872.526	14610
872.656	14571
872.785	14739
872.915	14758
873.044	14921
873.173	14765
873.303	14845
873.432	14838
873.561	14929
873.69	14849
873.819	14838
873.948	14948
874.077	14887
874.206	14861
874.335	14807
874.464	14998
874.593	15112
874.722	15085
874.851	15188
874.979	15256
875.108	15169
875.237	15169
875.365	15051
875.494	15108
875.623	15252
875.751	15135
875.88	15199
876.008	15378
876.136	15351
876.265	15606
876.393	15637
876.521	15572
876.65	15705
876.778	15553
876.906	15511
877.034	15618
877.162	15519
877.29	15443
877.418	15488
877.546	15576
877.674	15584
877.802	15488
877.93	15549
878.058	15466
878.185	15477
878.313	15481
878.441	15542
878.568	15420
878.696	15370
878.824	15736
878.951	15587
879.079	15778
879.206	15956
879.333	15705
879.461	15584
879.588	15720
879.715	15743
879.842	15857
879.97	15603
880.097	15367
880.224	15492
880.351	15511
880.478	15526
880.605	15367
880.732	15370
880.859	15648
880.986	15500
881.112	15454
881.239	15416
881.366	15249
881.493	15131
881.619	15112
881.746	15089
881.872	15097
881.999	15100
882.125	15020
882.252	15055
882.378	15154
882.505	15325
882.631	15017
882.757	14960
882.883	14921
883.01	14842
883.136	14838
883.262	14716
883.388	14769
883.514	14910
883.64	14967
883.766	14773
883.892	14708
884.018	14769
884.143	14861
884.269	14982
884.395	14621
884.52	14507
884.646	14720
884.772	14518
884.897	14469
885.023	14587
885.148	14712
885.274	14705
885.399	14727
885.524	14587
885.65	14655
885.775	14686
885.9	14689
886.025	14800
886.15	14705
886.275	14621
886.4	14511
886.525	14560
886.65	14545
886.775	14514
886.9	14686
887.025	14811
887.149	14678
887.274	14511
887.399	14530
887.523	14377
887.648	14233
887.773	14393
887.897	14545
888.021	14537
888.146	14393
888.27	14564
888.395	14571
888.519	14480
888.643	14473
888.767	14537
888.891	14366
889.015	14324
889.139	14343
889.263	14294
889.387	14499
889.511	14465
889.635	14400
889.759	14275
889.883	14351
890.006	14381
890.13	14374
890.254	14275
890.377	14294
890.501	14103
890.624	14157
890.748	14031
890.871	14020
890.995	13898
891.118	13913
891.241	14012
891.364	14039
891.488	14119
891.611	14050
891.734	14012
891.857	13993
891.98	14084
892.103	14092
892.226	14134
892.349	13944
892.471	13917
892.594	13909
892.717	14016
892.839	13986
892.962	14008
893.085	14077
893.207	14020
893.33	13894
893.452	13951
893.575	14020
893.697	13982
893.819	14199
893.941	14126
894.064	14195
894.186	13894
894.308	13944
894.43	14123
894.552	14164
894.674	14145
894.796	14050
894.918	14119
895.04	14065
895.161	14119
895.283	14111
895.405	14012
895.526	14168
895.648	14221
895.769	14115
895.891	14195
896.012	14248
896.134	14221
896.255	14210
896.376	14138
896.498	14172
896.619	14263
896.74	14172
896.861	14218
896.982	14590
897.103	14552
897.224	14556
897.345	14400
897.466	14393
897.587	14358
897.708	14499
897.828	14457
897.949	14530
898.07	14294
898.19	14480
898.311	14541
898.431	14362
898.552	14431
898.672	14575
898.792	14594
898.913	14594
899.033	14526
899.153	14408
899.273	14320
899.393	14328
899.513	14332
899.633	14358
899.753	14427
899.873	14351
899.993	14434
900.113	14374
900.232	14389
900.352	14309
900.472	14305
900.591	14206
900.711	14290
900.83	14180
900.95	14381
901.069	14282
901.189	14142
901.308	14050
901.427	13928
901.546	13890
901.665	13906
901.784	14016
901.904	13883
902.023	13757
902.141	13597
902.26	13518
902.379	13651
902.498	13453
902.617	13521
902.735	13563
902.854	13510
902.973	13400
903.091	13194
903.21	13324
903.328	13285
903.446	13156
903.565	13126
903.683	13118
903.801	13034
903.919	13091
904.038	13152
904.156	12977
904.274	12951
904.392	12905
904.51	12856
904.627	12867
904.745	12924
904.863	12932
904.981	12646
905.098	12555
905.216	12551
905.334	12551
905.451	12589
905.569	12563
905.686	12608
905.803	12597
905.921	12391
906.038	12506
906.155	12399
906.272	12232
906.389	12266
906.506	12182
906.623	12201
906.74	12144
906.857	11984
906.974	12095
907.091	12308
907.208	12277
907.324	12102
907.441	12049
907.557	11901
907.674	11824
907.79	11798
907.907	11927
908.023	11996
908.139	11927
908.256	11809
908.372	11843
908.488	11828
908.604	11699
908.72	11695
908.836	11653
908.952	11634
909.068	11726
909.184	11707
909.3	11703
909.415	11760
909.531	11707
909.647	11417
909.762	11528
909.878	11448
909.993	11452
910.108	11490
910.224	11410
910.339	11493
910.454	11341
910.57	11185
910.685	11269
910.8	11570
910.915	11501
911.03	11330
911.145	11170
911.259	11151
911.374	11113
911.489	11132
911.604	11029
911.718	10904
911.833	10957
911.947	10831
912.062	10721
912.176	10850
912.291	10850
912.405	10866
912.519	11075
912.633	11121
912.748	10961
912.862	10987
912.976	10850
913.09	10694
913.204	10782
913.318	10831
913.431	10896
913.545	10858
913.659	10984
913.772	10797
913.886	10656
914	10733
914.113	10801
914.226	10793
914.34	10733
914.453	10546
914.566	10710
914.68	10744
914.793	10565
914.906	10447
915.019	10428
915.132	10333
915.245	10398
915.358	10424
915.47	10405
915.583	10371
915.696	10405
915.809	10656
915.921	10588
916.034	10375
916.146	10413
916.259	10360
916.371	10413
916.483	10405
916.595	10314
916.708	10329
916.82	10306
916.932	10348
917.044	10333
917.156	10310
917.268	10219
917.38	10280
917.491	10230
917.603	10196
917.715	10356
917.826	10398
917.938	10276
918.049	10105
918.161	10276
918.272	10413
918.384	10417
918.495	10211
918.606	10124
918.717	10006
918.828	10185
918.939	10230
919.05	10051
919.161	10109
919.272	9968
919.383	9975
919.494	10169
919.604	10363
919.715	10242
919.826	10120
919.936	10071
920.047	10211
920.157	10135
920.267	10360
920.378	10143
920.488	10181
920.598	10375
920.708	10527
920.818	10287
920.928	10299
921.038	10561
921.148	10443
921.258	10139
921.368	10036
921.477	10036
921.587	10017
921.697	9903
921.806	10032
921.916	9854
922.025	9762
922.134	9759
922.244	9637
922.353	9751
922.462	9652
922.571	9614
922.68	9431
922.789	9378
922.898	9408
923.007	9386
923.116	9428
923.224	9454
923.333	9389
923.442	9245
923.55	9245
923.659	9363
923.767	9317
923.876	9199
923.984	9340
924.092	9256
924.201	9313
924.309	9253
924.417	9260
924.525	9154
924.633	9272
924.741	10234
924.849	9058
924.956	9253
925.064	9058
925.172	8967
925.279	9058
925.387	9085
925.494	9066
925.602	9203
925.709	9146
925.816	9017
925.924	9039
926.031	9089
926.138	9036
926.245	9154
926.352	9051
926.459	9093
926.566	9230
926.673	9043
926.779	8899
926.886	8929
926.993	8815
927.099	8796
927.206	8766
927.312	8788
927.419	8807
927.525	8853
927.631	8819
927.737	8743
927.843	8644
927.95	8583
928.056	8636
928.162	8708
928.267	8769
928.373	9279
928.479	8769
928.585	8549
928.69	8754
928.796	8659
928.901	8552
929.007	8469
929.112	8602
929.218	8545
929.323	8495
929.428	8450
929.533	8606
929.638	8438
929.743	8514
929.848	8564
929.953	8377
930.058	8400
930.163	8229
930.267	8191
930.372	8339
930.477	8252
930.581	8514
930.685	8290
930.79	8195
930.894	8263
930.998	8237
931.103	8377
931.207	7963
931.311	7997
931.415	7902
931.519	7696
931.623	7734
