Data from test_V78500241_459.txt Node
Date: Fri Mar 25 14:36:55 CST 2022
User: usil
Spectrometer: V785-0024
Trigger mode: 0
Integration Time (sec): 4.000000E-1
Scans to average: 1
Nonlinearity correction enabled: false
Boxcar width: 0
Storing dark spectrum: false
XAxis mode: Wavelengths
Number of Pixels in Spectrum: 1024
>>>>>Begin Spectral Data<<<<<
801.071	26579
801.214	26431
801.356	26275
801.499	26081
801.641	25951
801.783	25955
801.926	26054
802.068	25864
802.211	25852
802.353	25795
802.496	25624
802.638	25373
802.78	25639
802.923	25426
803.065	25426
803.208	25384
803.35	25289
803.492	25575
803.635	25620
803.777	25369
803.919	25540
804.061	25860
804.204	25540
804.346	25422
804.488	25289
804.63	25521
804.773	25308
804.915	25449
805.057	25590
805.199	25339
805.341	25495
805.483	25613
805.626	25472
805.768	25476
805.91	25704
806.052	25502
806.194	25487
806.336	25578
806.478	25468
806.62	25350
806.762	25552
806.904	25776
807.046	26016
807.188	25807
807.33	25753
807.472	25963
807.614	25807
807.756	25856
807.898	25635
808.04	25639
808.182	25666
808.324	25628
808.465	25681
808.607	25765
808.749	25887
808.891	26024
809.033	26267
809.174	26039
809.316	25906
809.458	25978
809.6	25936
809.741	26088
809.883	26073
810.025	26218
810.166	26161
810.308	26138
810.45	25974
810.591	26081
810.733	25883
810.875	25780
811.016	25750
811.158	25849
811.299	25894
811.441	26058
811.582	26065
811.724	25731
811.865	25677
812.007	25833
812.148	25837
812.29	25845
812.431	25966
812.573	26062
812.714	26081
812.855	26374
812.997	26339
813.138	26473
813.279	26480
813.421	26195
813.562	26278
813.703	26138
813.845	26073
813.986	25628
814.127	25415
814.268	25403
814.41	25388
814.551	25422
814.692	25381
814.833	25327
814.974	25362
815.115	25354
815.256	25308
815.397	25133
815.539	25061
815.68	25084
815.821	25027
815.962	25027
816.103	25065
816.244	24863
816.385	24867
816.526	24688
816.666	24616
816.807	24448
816.948	24452
817.089	24582
817.23	24498
817.371	24490
817.512	24505
817.653	24494
817.793	24456
817.934	24418
818.075	24441
818.216	24422
818.356	24365
818.497	24338
818.638	24167
818.778	24235
818.919	24205
819.06	24205
819.2	24285
819.341	24437
819.481	24437
819.622	24608
819.762	24783
819.903	24738
820.043	24429
820.184	24426
820.324	24403
820.465	24490
820.605	24452
820.746	24509
820.886	24277
821.026	24441
821.167	24361
821.307	24445
821.447	24441
821.588	24308
821.728	24216
821.868	23999
822.008	23832
822.149	23824
822.289	23783
822.429	23589
822.569	23379
822.709	23379
822.849	23292
822.99	23254
823.13	23273
823.27	23174
823.41	23052
823.55	23052
823.69	23124
823.83	23166
823.97	22915
824.11	22896
824.25	22828
824.389	22717
824.529	22923
824.669	22797
824.809	22980
824.949	22957
825.089	22843
825.228	22930
825.368	22710
825.508	22561
825.648	22588
825.787	22649
825.927	22843
826.067	22569
826.206	22607
826.346	22653
826.485	22653
826.625	22531
826.765	22664
826.904	22778
827.044	22352
827.183	22371
827.323	22371
827.462	22352
827.601	22253
827.741	22253
827.88	22436
828.02	22234
828.159	22265
828.298	22314
828.437	22390
828.577	22181
828.716	22337
828.855	22173
828.994	22021
829.134	21975
829.273	22036
829.412	22074
829.551	21846
829.69	21907
829.829	21994
829.968	22162
830.107	21998
830.246	21960
830.385	21907
830.524	21819
830.663	21739
830.802	21667
830.941	21572
831.08	21488
831.219	21682
831.357	21690
831.496	21774
831.635	21580
831.774	21530
831.913	21370
832.051	21336
832.19	21370
832.329	21359
832.467	21237
832.606	21096
832.744	21226
832.883	21199
833.022	21146
833.16	21157
833.299	21222
833.437	21214
833.576	21321
833.714	21291
833.852	21272
833.991	21195
834.129	21348
834.267	21313
834.406	21237
834.544	21218
834.682	21313
834.821	21165
834.959	21397
835.097	21256
835.235	21355
835.373	21169
835.511	21218
835.65	21066
835.788	21062
835.926	20933
836.064	20975
836.202	20937
836.34	21161
836.478	21272
836.615	21123
836.753	21047
836.891	21085
837.029	21192
837.167	21043
837.305	20982
837.443	20914
837.58	20895
837.718	20979
837.856	20899
837.993	20899
838.131	20921
838.269	20857
838.406	20929
838.544	20773
838.681	20705
838.819	20579
838.956	20431
839.094	20408
839.231	20404
839.369	20602
839.506	20735
839.643	20655
839.781	20374
839.918	20180
840.055	20396
840.193	20278
840.33	20301
840.467	20259
840.604	20290
840.742	20564
840.879	20134
841.016	20183
841.153	20157
841.29	20374
841.427	20267
841.564	20252
841.701	20362
841.838	20305
841.975	20149
842.112	20161
842.249	20081
842.385	19936
842.522	20199
842.659	19993
842.796	20043
842.933	19902
843.069	19944
843.206	19963
843.343	20126
843.479	19932
843.616	20012
843.752	19856
843.889	19761
844.025	19989
844.162	19807
844.298	19856
844.435	19700
844.571	19753
844.708	19883
844.844	19936
844.98	19932
845.117	19693
845.253	19624
845.389	19700
845.525	19674
845.661	19605
845.798	19430
845.934	19586
846.07	19586
846.206	19518
846.342	19715
846.478	19601
846.614	19369
846.75	19175
846.886	19168
847.022	19438
847.158	19316
847.294	19209
847.429	19282
847.565	19244
847.701	19453
847.837	19069
847.972	18985
848.108	18958
848.244	19046
848.379	18791
848.515	18760
848.65	18741
848.786	18844
848.921	18783
849.057	18920
849.192	18871
849.328	18825
849.463	18905
849.598	18692
849.734	18776
849.869	18707
850.004	18563
850.14	18589
850.275	18627
850.41	18448
850.545	18612
850.68	18608
850.815	18597
850.95	18570
851.085	18646
851.22	18578
851.355	18509
851.49	18475
851.625	18460
851.76	18471
851.895	18372
852.03	18380
852.165	18471
852.299	18631
852.434	18646
852.569	18608
852.703	18623
852.838	18536
852.973	18661
853.107	18608
853.242	18506
853.376	18372
853.511	18323
853.645	18391
853.78	18525
853.914	18361
854.048	18384
854.183	18353
854.317	18346
854.451	18475
854.585	18399
854.72	18304
854.854	18437
854.988	18216
855.122	18365
855.256	18194
855.39	18418
855.524	18441
855.658	18357
855.792	18353
855.926	18376
856.06	18361
856.194	18521
856.327	18300
856.461	18224
856.595	18273
856.729	18414
856.862	18494
856.996	18403
857.13	18502
857.263	18494
857.397	18433
857.53	18323
857.664	18380
857.797	18426
857.931	18456
858.064	18365
858.197	18471
858.331	18323
858.464	18330
858.597	18262
858.731	18289
858.864	18289
858.997	18228
859.13	18213
859.263	18338
859.396	18426
859.529	18262
859.662	18281
859.795	18251
859.928	18304
860.061	18540
860.194	18372
860.327	18205
860.46	18304
860.592	18388
860.725	18365
860.858	18327
860.99	18213
861.123	18152
861.256	18213
861.388	18270
861.521	18939
861.653	18270
861.786	18083
861.918	18159
862.05	18376
862.183	18323
862.315	18311
862.447	18391
862.58	18304
862.712	18144
862.844	18068
862.976	18186
863.108	18121
863.24	18372
863.372	17882
863.504	18121
863.636	17999
863.768	18163
863.9	17988
864.032	17870
864.164	17931
864.296	18026
864.428	18106
864.559	18030
864.691	17977
864.823	18003
864.954	18011
865.086	18015
865.217	17927
865.349	18015
865.48	17904
865.612	17946
865.743	18102
865.875	17980
866.006	17840
866.137	17920
866.269	17946
866.4	17977
866.531	17965
866.662	17832
866.793	17904
866.924	18041
867.055	18022
867.186	17999
867.317	17836
867.448	17726
867.579	17893
867.71	17786
867.841	17855
867.972	17939
868.103	17923
868.233	17931
868.364	17908
868.495	18015
868.625	18030
868.756	18148
868.886	18076
869.017	18133
869.147	18247
869.278	18372
869.408	18209
869.539	18251
869.669	18197
869.799	18254
869.929	18213
870.06	18311
870.19	18479
870.32	18471
870.45	18448
870.58	18566
870.71	18722
870.84	18646
870.97	18604
871.1	18525
871.23	18772
871.36	18795
871.489	18547
871.619	18665
871.749	18779
871.879	18802
872.008	18833
872.138	18703
872.267	18772
872.397	18726
872.526	18604
872.656	18681
872.785	18547
872.915	18814
873.044	18795
873.173	18730
873.303	18703
873.432	18814
873.561	18837
873.69	18852
873.819	18791
873.948	18905
874.077	18783
874.206	18734
874.335	18779
874.464	18920
874.593	19114
874.722	19008
874.851	19126
874.979	19156
875.108	19091
875.237	18977
875.365	18935
875.494	19095
875.623	19171
875.751	19057
875.88	19137
876.008	19164
876.136	19312
876.265	19521
876.393	19556
876.521	19453
876.65	19632
876.778	19468
876.906	19419
877.034	19350
877.162	19343
877.29	19308
877.418	19438
877.546	19396
877.674	19441
877.802	19476
877.93	19441
878.058	19445
878.185	19346
878.313	19362
878.441	19502
878.568	19343
878.696	19441
878.824	19540
878.951	19506
879.079	19620
879.206	19772
879.333	19708
879.461	19609
879.588	19586
879.715	19670
879.842	19693
879.97	19575
880.097	19438
880.224	19324
880.351	19282
880.478	19190
880.605	19198
880.732	19190
880.859	19499
880.986	19403
881.112	19301
881.239	19255
881.366	19114
881.493	18924
881.619	19027
881.746	19031
881.872	18806
881.999	18795
882.125	18787
882.252	18913
882.378	19015
882.505	19084
882.631	18859
882.757	18715
882.883	18734
883.01	18833
883.136	18597
883.262	18616
883.388	18517
883.514	18608
883.64	18692
883.766	18639
883.892	18486
884.018	18490
884.143	18722
884.269	18745
884.395	18353
884.52	18399
884.646	18319
884.772	18361
884.897	18254
885.023	18369
885.148	18410
885.274	18513
885.399	18365
885.524	18353
885.65	18418
885.775	18464
885.9	18346
886.025	18418
886.15	18327
886.275	18254
886.4	18163
886.525	18292
886.65	18315
886.775	18155
886.9	18483
887.025	18566
887.149	18327
887.274	18174
887.399	18091
887.523	18057
887.648	18117
887.773	18045
887.897	18079
888.021	18194
888.146	18026
888.27	18171
888.395	18152
888.519	18178
888.643	18133
888.767	18213
888.891	17988
889.015	17980
889.139	17901
889.263	17889
889.387	18045
889.511	18152
889.635	18068
889.759	17931
889.883	17885
890.006	17885
890.13	17958
890.254	17840
890.377	17897
890.501	17718
890.624	17748
890.748	17668
890.871	17657
890.995	17634
891.118	17467
891.241	17589
891.364	17577
891.488	17638
891.611	17596
891.734	17570
891.857	17581
891.98	17512
892.103	17581
892.226	17611
892.349	17471
892.471	17334
892.594	17501
892.717	17436
892.839	17512
892.962	17573
893.085	17547
893.207	17383
893.33	17425
893.452	17341
893.575	17505
893.697	17444
893.819	17623
893.941	17687
894.064	17611
894.186	17444
894.308	17455
894.43	17543
894.552	17657
894.674	17452
894.796	17512
894.918	17486
895.04	17467
895.161	17551
895.283	17665
895.405	17505
895.526	17486
895.648	17577
895.769	17642
895.891	17562
896.012	17554
896.134	17695
896.255	17653
896.376	17505
896.498	17551
896.619	17642
896.74	17646
896.861	17646
896.982	17889
897.103	18060
897.224	17942
897.345	17885
897.466	17824
897.587	17889
897.708	18041
897.828	17794
897.949	17737
898.07	17665
898.19	17638
898.311	17901
898.431	17748
898.552	17897
898.672	17805
898.792	17931
898.913	17779
899.033	17722
899.153	17726
899.273	17535
899.393	17558
899.513	17600
899.633	17566
899.753	17684
899.873	17532
899.993	17619
900.113	17512
900.232	17646
900.352	17653
900.472	17440
900.591	17337
900.711	17478
900.83	17364
900.95	17452
901.069	17539
901.189	17296
901.308	17109
901.427	17018
901.546	17083
901.665	17143
901.784	17117
901.904	16965
902.023	16850
902.141	16683
902.26	16637
902.379	16752
902.498	16565
902.617	16478
902.735	16565
902.854	16611
902.973	16459
903.091	16367
903.21	16295
903.328	16344
903.446	16112
903.565	16150
903.683	16120
903.801	15968
903.919	16055
904.038	15987
904.156	15949
904.274	15918
904.392	15884
904.51	15899
904.627	15857
904.745	15854
904.863	15953
904.981	15660
905.098	15549
905.216	15603
905.334	15561
905.451	15530
905.569	15492
905.686	15572
905.803	15625
905.921	15378
906.038	15481
906.155	15389
906.272	15241
906.389	15294
906.506	15085
906.623	15161
906.74	14982
906.857	14925
906.974	15017
907.091	15180
907.208	15157
907.324	15154
907.441	15028
907.557	14853
907.674	14800
907.79	14773
907.907	14792
908.023	14765
908.139	14785
908.256	14705
908.372	14689
908.488	14682
908.604	14598
908.72	14442
908.836	14457
908.952	14484
909.068	14530
909.184	14431
909.3	14431
909.415	14571
909.531	14537
909.647	14278
909.762	14282
909.878	14221
909.993	14218
910.108	14237
910.224	14199
910.339	14187
910.454	14153
910.57	14024
910.685	14012
910.8	14301
910.915	14142
911.03	14084
911.145	13932
911.259	13917
911.374	13841
911.489	13826
911.604	13742
911.718	13643
911.833	13655
911.947	13510
912.062	13434
912.176	13620
912.291	13616
912.405	13548
912.519	13772
912.633	13708
912.748	13628
912.862	13529
912.976	13464
913.09	13350
913.204	13388
913.318	13460
913.431	13499
913.545	13415
913.659	13529
913.772	13388
913.886	13289
914	13255
914.113	13343
914.226	13343
914.34	13263
914.453	13213
914.566	13335
914.68	13209
914.793	13240
914.906	13008
915.019	12993
915.132	12886
915.245	13012
915.358	12966
915.47	12897
915.583	13042
915.696	13004
915.809	13149
915.921	13057
916.034	12935
916.146	12840
916.259	12814
916.371	12985
916.483	12954
916.595	12806
916.708	12859
916.82	12848
916.932	12772
917.044	12757
917.156	12783
917.268	12639
917.38	12696
917.491	12616
917.603	12635
917.715	12791
917.826	12760
917.938	12639
918.049	12498
918.161	12719
918.272	12730
918.384	12681
918.495	12623
918.606	12650
918.717	12452
918.828	12475
918.939	12486
919.05	12357
919.161	12403
919.272	12273
919.383	12251
919.494	12490
919.604	12612
919.715	12471
919.826	12384
919.936	12517
920.047	12528
920.157	12471
920.267	12662
920.378	12441
920.488	12452
920.598	12719
920.708	12741
920.818	12620
920.928	12536
921.038	12753
921.148	12711
921.258	12384
921.368	12315
921.477	12353
921.587	12239
921.697	12152
921.806	12228
921.916	12076
922.025	11866
922.134	11878
922.244	11843
922.353	11923
922.462	11764
922.571	11745
922.68	11589
922.789	11562
922.898	11551
923.007	11501
923.116	11570
923.224	11459
923.333	11585
923.442	11478
923.55	11387
923.659	11452
923.767	11433
923.876	11349
923.984	11433
924.092	11349
924.201	11353
924.309	11337
924.417	11372
924.525	11303
924.633	11284
924.741	12060
924.849	11124
924.956	11216
925.064	11117
925.172	11003
925.279	11071
925.387	11056
925.494	11064
925.602	11185
925.709	11227
925.816	11048
925.924	11075
926.031	11159
926.138	11022
926.245	11136
926.352	10930
926.459	11117
926.566	11208
926.673	11064
926.779	10793
926.886	10885
926.993	10706
927.099	10702
927.206	10744
927.312	10710
927.419	10816
927.525	10675
927.631	10748
927.737	10607
927.843	10599
927.95	10489
928.056	10611
928.162	10554
928.267	10603
928.373	11128
928.479	10630
928.585	10489
928.69	10485
928.796	10535
928.901	10432
929.007	10402
929.112	10474
929.218	10455
929.323	10344
929.428	10341
929.533	10516
929.638	10261
929.743	10265
929.848	10314
929.953	10280
930.058	10253
930.163	10036
930.267	10040
930.372	10162
930.477	10010
930.581	10261
930.685	10147
930.79	9930
930.894	9937
930.998	9979
931.103	10078
931.207	9667
931.311	9656
931.415	9595
931.519	9325
931.623	9393
