Data from test_V78500241_2434.txt Node
Date: Fri Mar 25 14:50:39 CST 2022
User: usil
Spectrometer: V785-0024
Trigger mode: 0
Integration Time (sec): 4.000000E-1
Scans to average: 1
Nonlinearity correction enabled: false
Boxcar width: 0
Storing dark spectrum: false
XAxis mode: Wavelengths
Number of Pixels in Spectrum: 1024
>>>>>Begin Spectral Data<<<<<
801.071	22032
801.214	22013
801.356	21717
801.499	21576
801.641	21591
801.783	21549
801.926	21447
802.068	21431
802.211	21294
802.353	21211
802.496	21058
802.638	21001
802.78	20876
802.923	20921
803.065	20804
803.208	20807
803.35	20815
803.492	20918
803.635	20800
803.777	20754
803.919	20853
804.061	21203
804.204	20975
804.346	20746
804.488	20682
804.63	20788
804.773	20625
804.915	20701
805.057	20830
805.199	20788
805.341	20693
805.483	20830
805.626	20644
805.768	20670
805.91	20697
806.052	20686
806.194	20651
806.336	20746
806.478	20796
806.62	20731
806.762	20731
806.904	20891
807.046	21123
807.188	21058
807.33	21077
807.472	21024
807.614	20933
807.756	20937
807.898	20823
808.04	20899
808.182	20686
808.324	20902
808.465	20876
808.607	20963
808.749	21123
808.891	21203
809.033	21226
809.174	21154
809.316	20956
809.458	21043
809.6	21074
809.741	21089
809.883	21230
810.025	21226
810.166	21332
810.308	21131
810.45	21127
810.591	21089
810.733	21017
810.875	20811
811.016	20796
811.158	20735
811.299	20910
811.441	20990
811.582	20944
811.724	20834
811.865	20925
812.007	20834
812.148	20842
812.29	20880
812.431	20975
812.573	21199
812.714	21363
812.855	21348
812.997	21439
813.138	21587
813.279	21469
813.421	21443
813.562	21405
813.703	21116
813.845	20986
813.986	20678
814.127	20590
814.268	20511
814.41	20549
814.551	20465
814.692	20495
814.833	20332
814.974	20381
815.115	20377
815.256	20206
815.397	20370
815.539	20320
815.68	20168
815.821	20138
815.962	20176
816.103	20149
816.244	19936
816.385	19890
816.526	19833
816.666	19655
816.807	19472
816.948	19670
817.089	19616
817.23	19605
817.371	19533
817.512	19552
817.653	19453
817.793	19533
817.934	19605
818.075	19605
818.216	19445
818.356	19624
818.497	19354
818.638	19335
818.778	19247
818.919	19206
819.06	19400
819.2	19426
819.341	19411
819.481	19449
819.622	19613
819.762	19811
819.903	19734
820.043	19594
820.184	19472
820.324	19586
820.465	19655
820.605	19563
820.746	19506
820.886	19396
821.026	19491
821.167	19529
821.307	19529
821.447	19480
821.588	19419
821.728	19145
821.868	19103
822.008	18924
822.149	18905
822.289	18776
822.429	18658
822.569	18642
822.709	18604
822.849	18513
822.99	18441
823.13	18380
823.27	18338
823.41	18144
823.55	18213
823.69	18262
823.83	18232
823.97	18133
824.11	18053
824.25	17874
824.389	17969
824.529	18083
824.669	17988
824.809	18125
824.949	18133
825.089	18087
825.228	18038
825.368	17832
825.508	17927
825.648	17809
825.787	17699
825.927	17805
826.067	17699
826.206	17764
826.346	17821
826.485	17775
826.625	17859
826.765	17935
826.904	17798
827.044	17570
827.183	17516
827.323	17360
827.462	17657
827.601	17452
827.741	17512
827.88	17474
828.02	17406
828.159	17482
828.298	17383
828.437	17570
828.577	17433
828.716	17554
828.855	17379
828.994	17174
829.134	17227
829.273	17303
829.412	17117
829.551	17197
829.69	17155
829.829	17223
829.968	17258
830.107	17311
830.246	17197
830.385	17250
830.524	17159
830.663	16976
830.802	16911
830.941	16919
831.08	16752
831.219	16904
831.357	16927
831.496	17041
831.635	16835
831.774	16816
831.913	16694
832.051	16645
832.19	16558
832.329	16653
832.467	16497
832.606	16565
832.744	16538
832.883	16508
833.022	16451
833.16	16516
833.299	16588
833.437	16596
833.576	16558
833.714	16542
833.852	16538
833.991	16558
834.129	16698
834.267	16592
834.406	16561
834.544	16554
834.682	16554
834.821	16516
834.959	16660
835.097	16588
835.235	16645
835.373	16698
835.511	16493
835.65	16436
835.788	16580
835.926	16455
836.064	16230
836.202	16371
836.34	16428
836.478	16531
836.615	16527
836.753	16428
836.891	16573
837.029	16592
837.167	16542
837.305	16474
837.443	16386
837.58	16287
837.718	16398
837.856	16337
837.993	16322
838.131	16261
838.269	16211
838.406	16280
838.544	16192
838.681	16040
838.819	16021
838.956	15850
839.094	15956
839.231	15968
839.369	16055
839.506	16329
839.643	16105
839.781	15930
839.918	15755
840.055	15819
840.193	15857
840.33	15861
840.467	15812
840.604	15903
840.742	16173
840.879	15797
841.016	15762
841.153	15873
841.29	15937
841.427	15968
841.564	15812
841.701	15907
841.838	15861
841.975	15774
842.112	15800
842.249	15717
842.385	15622
842.522	15846
842.659	15641
842.796	15637
842.933	15694
843.069	15553
843.206	15614
843.343	15838
843.479	15606
843.616	15709
843.752	15431
843.889	15507
844.025	15591
844.162	15462
844.298	15644
844.435	15435
844.571	15515
844.708	15572
844.844	15663
844.98	15637
845.117	15511
845.253	15416
845.389	15329
845.525	15367
845.661	15370
845.798	15199
845.934	15279
846.07	15173
846.206	15241
846.342	15363
846.478	15260
846.614	15036
846.75	15020
846.886	14929
847.022	15058
847.158	14963
847.294	15104
847.429	15081
847.565	15089
847.701	15302
847.837	14781
847.972	14739
848.108	14826
848.244	14880
848.379	14678
848.515	14613
848.65	14686
848.786	14606
848.921	14552
849.057	14724
849.192	14727
849.328	14602
849.463	14705
849.598	14590
849.734	14476
849.869	14404
850.004	14389
850.14	14507
850.275	14484
850.41	14320
850.545	14351
850.68	14389
850.815	14389
850.95	14419
851.085	14499
851.22	14514
851.355	14351
851.49	14336
851.625	14415
851.76	14301
851.895	14332
852.03	14229
852.165	14370
852.299	14461
852.434	14469
852.569	14423
852.703	14461
852.838	14488
852.973	14518
853.107	14488
853.242	14358
853.376	14214
853.511	14142
853.645	14157
853.78	14290
853.914	14336
854.048	14237
854.183	14202
854.317	14218
854.451	14431
854.585	14309
854.72	14172
854.854	14161
854.988	14164
855.122	14263
855.256	14069
855.39	14259
855.524	14351
855.658	14267
855.792	14259
855.926	14282
856.06	14278
856.194	14427
856.327	14263
856.461	14233
856.595	14187
856.729	14252
856.862	14320
856.996	14358
857.13	14347
857.263	14431
857.397	14351
857.53	14183
857.664	14362
857.797	14290
857.931	14355
858.064	14355
858.197	14374
858.331	14324
858.464	14244
858.597	14050
858.731	14191
858.864	14256
858.997	14263
859.13	14256
859.263	14336
859.396	14240
859.529	14202
859.662	14164
859.795	14259
859.928	14244
860.061	14434
860.194	14431
860.327	14343
860.46	14237
860.592	14385
860.725	14423
860.858	14343
860.99	14229
861.123	14191
861.256	14244
861.388	14305
861.521	14880
861.653	14187
861.786	14096
861.918	14043
862.05	14210
862.183	14290
862.315	14336
862.447	14225
862.58	14240
862.712	13993
862.844	14031
862.976	14138
863.108	14069
863.24	14408
863.372	13967
863.504	14077
863.636	13993
863.768	14043
863.9	14126
864.032	14069
864.164	13963
864.296	14043
864.428	14092
864.559	14123
864.691	14069
864.823	14073
864.954	14031
865.086	14065
865.217	14084
865.349	14111
865.48	14008
865.612	14020
865.743	14180
865.875	13970
866.006	14062
866.137	13944
866.269	14077
866.4	13982
866.531	14031
866.662	13890
866.793	13875
866.924	13986
867.055	14020
867.186	14016
867.317	14012
867.448	13822
867.579	13856
867.71	13986
867.841	13925
867.972	14134
868.103	13963
868.233	14081
868.364	14092
868.495	14092
868.625	14248
868.756	14385
868.886	14172
869.017	14240
869.147	14351
869.278	14324
869.408	14233
869.539	14240
869.669	14396
869.799	14237
869.929	14415
870.06	14358
870.19	14648
870.32	14560
870.45	14552
870.58	14693
870.71	14773
870.84	14785
870.97	14678
871.1	14674
871.23	14815
871.36	14876
871.489	14773
871.619	14918
871.749	14853
871.879	14883
872.008	14944
872.138	14956
872.267	14788
872.397	14724
872.526	14785
872.656	14629
872.785	14701
872.915	14975
873.044	14956
873.173	14819
873.303	14960
873.432	14937
873.561	15043
873.69	14937
873.819	14963
873.948	15100
874.077	15039
874.206	14910
874.335	14921
874.464	15043
874.593	15275
874.722	15142
874.851	15355
874.979	15298
875.108	15264
875.237	15233
875.365	15009
875.494	15192
875.623	15237
875.751	15230
875.88	15169
876.008	15344
876.136	15416
876.265	15785
876.393	15854
876.521	15644
876.65	15812
876.778	15576
876.906	15679
877.034	15485
877.162	15633
877.29	15568
877.418	15622
877.546	15648
877.674	15675
877.802	15701
877.93	15576
878.058	15698
878.185	15614
878.313	15679
878.441	15660
878.568	15561
878.696	15679
878.824	15686
878.951	15698
879.079	15888
879.206	15895
879.333	15850
879.461	15591
879.588	15713
879.715	15861
879.842	15850
879.97	15785
880.097	15435
880.224	15382
880.351	15477
880.478	15492
880.605	15519
880.732	15481
880.859	15739
880.986	15393
881.112	15458
881.239	15504
881.366	15298
881.493	15264
881.619	15085
881.746	15104
881.872	15180
881.999	15005
882.125	15104
882.252	15298
882.378	15165
882.505	15321
882.631	15112
882.757	15020
882.883	15116
883.01	15024
883.136	14975
883.262	14845
883.388	14823
883.514	14952
883.64	15013
883.766	14937
883.892	14811
884.018	14864
884.143	15036
884.269	15070
884.395	14724
884.52	14632
884.646	14602
884.772	14648
884.897	14495
885.023	14686
885.148	14804
885.274	14853
885.399	14773
885.524	14598
885.65	14659
885.775	14727
885.9	14727
886.025	14849
886.15	14587
886.275	14655
886.4	14659
886.525	14636
886.65	14625
886.775	14621
886.9	14853
887.025	14849
887.149	14674
887.274	14454
887.399	14427
887.523	14476
887.648	14446
887.773	14355
887.897	14575
888.021	14526
888.146	14507
888.27	14526
888.395	14667
888.519	14571
888.643	14537
888.767	14518
888.891	14484
889.015	14408
889.139	14347
889.263	14389
889.387	14461
889.511	14568
889.635	14507
889.759	14347
889.883	14328
890.006	14404
890.13	14522
890.254	14320
890.377	14339
890.501	14252
890.624	14073
890.748	14233
890.871	14073
890.995	14084
891.118	14020
891.241	14077
891.364	14096
891.488	14077
891.611	14031
891.734	14077
891.857	14142
891.98	14183
892.103	14088
892.226	14012
892.349	14096
892.471	13864
892.594	13955
892.717	14096
892.839	14008
892.962	14016
893.085	14183
893.207	14008
893.33	14016
893.452	14054
893.575	14077
893.697	14065
893.819	14138
893.941	14282
894.064	14275
894.186	13967
894.308	14065
894.43	14172
894.552	14271
894.674	14286
894.796	14084
894.918	14111
895.04	14149
895.161	14267
895.283	14180
895.405	14149
895.526	14145
895.648	14138
895.769	14210
895.891	14267
896.012	14233
896.134	14328
896.255	14294
896.376	14320
896.498	14183
896.619	14305
896.74	14263
896.861	14377
896.982	14579
897.103	14845
897.224	14575
897.345	14488
897.466	14438
897.587	14503
897.708	14640
897.828	14473
897.949	14564
898.07	14457
898.19	14469
898.311	14640
898.431	14511
898.552	14625
898.672	14689
898.792	14743
898.913	14629
899.033	14587
899.153	14465
899.273	14290
899.393	14370
899.513	14434
899.633	14412
899.753	14415
899.873	14423
899.993	14655
900.113	14457
900.232	14454
900.352	14385
900.472	14408
900.591	14328
900.711	14317
900.83	14294
900.95	14446
901.069	14434
901.189	14229
901.308	14073
901.427	13989
901.546	14020
901.665	14005
901.784	14027
901.904	13833
902.023	13856
902.141	13658
902.26	13548
902.379	13693
902.498	13575
902.617	13434
902.735	13525
902.854	13613
902.973	13460
903.091	13240
903.21	13213
903.328	13312
903.446	13209
903.565	13088
903.683	13103
903.801	12954
903.919	13187
904.038	13027
904.156	12913
904.274	13019
904.392	12958
904.51	12916
904.627	12985
904.745	13065
904.863	12962
904.981	12741
905.098	12513
905.216	12662
905.334	12646
905.451	12681
905.569	12631
905.686	12715
905.803	12650
905.921	12528
906.038	12563
906.155	12471
906.272	12407
906.389	12338
906.506	12323
906.623	12239
906.74	12251
906.857	12095
906.974	12228
907.091	12308
907.208	12330
907.324	12334
907.441	12144
907.557	12019
907.674	12026
907.79	11923
907.907	11889
908.023	11969
908.139	12015
908.256	11958
908.372	11878
908.488	11923
908.604	11748
908.72	11699
908.836	11672
908.952	11672
909.068	11832
909.184	11885
909.3	11691
909.415	11756
909.531	11668
909.647	11452
909.762	11455
909.878	11573
909.993	11493
910.108	11539
910.224	11425
910.339	11501
910.454	11387
910.57	11334
910.685	11261
910.8	11520
910.915	11482
911.03	11337
911.145	11261
911.259	11178
911.374	11189
911.489	11121
911.604	11121
911.718	10991
911.833	10953
911.947	10866
912.062	10816
912.176	10961
912.291	10919
912.405	10919
912.519	11071
912.633	11117
912.748	11045
912.862	11045
912.976	10866
913.09	10717
913.204	10812
913.318	10919
913.431	10976
913.545	10938
913.659	10953
913.772	10797
913.886	10771
914	10714
914.113	10782
914.226	10839
914.34	10717
914.453	10664
914.566	10877
914.68	10683
914.793	10649
914.906	10493
915.019	10447
915.132	10409
915.245	10489
915.358	10478
915.47	10474
915.583	10504
915.696	10485
915.809	10630
915.921	10618
916.034	10447
916.146	10527
916.259	10379
916.371	10462
916.483	10478
916.595	10402
916.708	10447
916.82	10402
916.932	10402
917.044	10367
917.156	10348
917.268	10257
917.38	10363
917.491	10344
917.603	10272
917.715	10398
917.826	10417
917.938	10230
918.049	10242
918.161	10329
918.272	10470
918.384	10447
918.495	10352
918.606	10276
918.717	10135
918.828	10169
918.939	10158
919.05	10101
919.161	10166
919.272	9987
919.383	10032
919.494	10253
919.604	10405
919.715	10147
919.826	10116
919.936	10120
920.047	10295
920.157	10284
920.267	10348
920.378	10249
920.488	10143
920.598	10424
920.708	10630
920.818	10489
920.928	10398
921.038	10527
921.148	10504
921.258	10310
921.368	10055
921.477	10090
921.587	9949
921.697	9956
921.806	10013
921.916	10048
922.025	9804
922.134	9770
922.244	9728
922.353	9789
922.462	9675
922.571	9580
922.68	9458
922.789	9431
922.898	9443
923.007	9412
923.116	9466
923.224	9439
923.333	9454
923.442	9386
923.55	9279
923.659	9382
923.767	9447
923.876	9321
923.984	9340
924.092	9233
924.201	9291
924.309	9310
924.417	9351
924.525	9268
924.633	9325
924.741	10090
924.849	9100
924.956	9264
925.064	9024
925.172	9017
925.279	9032
925.387	9180
925.494	9119
925.602	9184
925.709	9180
925.816	9051
925.924	9055
926.031	9230
926.138	9093
926.245	9150
926.352	9017
926.459	9157
926.566	9226
926.673	9081
926.779	8979
926.886	8891
926.993	8830
927.099	8769
927.206	8826
927.312	8727
927.419	8842
927.525	8857
927.631	8960
927.737	8743
927.843	8724
927.95	8674
928.056	8746
928.162	8712
928.267	8800
928.373	9405
928.479	8861
928.585	8564
928.69	8720
928.796	8769
928.901	8598
929.007	8522
929.112	8617
929.218	8678
929.323	8594
929.428	8560
929.533	8659
929.638	8438
929.743	8537
929.848	8583
929.953	8480
930.058	8465
930.163	8282
930.267	8286
930.372	8404
930.477	8301
930.581	8507
930.685	8427
930.79	8225
930.894	8282
930.998	8225
931.103	8442
931.207	8039
931.311	7947
931.415	7989
931.519	7734
931.623	7715
