Data from test_V78500241_3318.txt Node
Date: Fri Mar 25 14:56:49 CST 2022
User: usil
Spectrometer: V785-0024
Trigger mode: 0
Integration Time (sec): 4.000000E-1
Scans to average: 1
Nonlinearity correction enabled: false
Boxcar width: 0
Storing dark spectrum: false
XAxis mode: Wavelengths
Number of Pixels in Spectrum: 1024
>>>>>Begin Spectral Data<<<<<
801.071	21972
801.214	21880
801.356	21599
801.499	21660
801.641	21317
801.783	21386
801.926	21386
802.068	21348
802.211	21226
802.353	21150
802.496	20918
802.638	20971
802.78	20708
802.923	20815
803.065	20625
803.208	20629
803.35	20663
803.492	20838
803.635	20800
803.777	20693
803.919	20663
804.061	20956
804.204	20682
804.346	20640
804.488	20564
804.63	20621
804.773	20571
804.915	20602
805.057	20743
805.199	20537
805.341	20712
805.483	20682
805.626	20602
805.768	20526
805.91	20670
806.052	20507
806.194	20469
806.336	20625
806.478	20507
806.62	20526
806.762	20693
806.904	20708
807.046	20979
807.188	20971
807.33	20906
807.472	21028
807.614	20880
807.756	20895
807.898	20815
808.04	20621
808.182	20560
808.324	20560
808.465	20648
808.607	20838
808.749	20941
808.891	21005
809.033	21192
809.174	21070
809.316	20921
809.458	20998
809.6	20933
809.741	20861
809.883	20948
810.025	21112
810.166	21112
810.308	21085
810.45	21013
810.591	20963
810.733	20895
810.875	20777
811.016	20636
811.158	20476
811.299	20678
811.441	20739
811.582	20887
811.724	20686
811.865	20651
812.007	20712
812.148	20625
812.29	20765
812.431	20769
812.573	21085
812.714	21176
812.855	21165
812.997	21207
813.138	21477
813.279	21317
813.421	21169
813.562	21252
813.703	20975
813.845	20887
813.986	20560
814.127	20324
814.268	20275
814.41	20320
814.551	20161
814.692	20259
814.833	20119
814.974	20153
815.115	20187
815.256	20088
815.397	20119
815.539	20126
815.68	19909
815.821	19902
815.962	20054
816.103	19875
816.244	19780
816.385	19780
816.526	19723
816.666	19567
816.807	19400
816.948	19396
817.089	19491
817.23	19426
817.371	19464
817.512	19384
817.653	19392
817.793	19339
817.934	19324
818.075	19396
818.216	19426
818.356	19343
818.497	19202
818.638	18966
818.778	19065
818.919	18951
819.06	19065
819.2	19259
819.341	19126
819.481	19217
819.622	19331
819.762	19597
819.903	19468
820.043	19430
820.184	19339
820.324	19381
820.465	19476
820.605	19392
820.746	19312
820.886	19152
821.026	19320
821.167	19255
821.307	19285
821.447	19213
821.588	19114
821.728	18993
821.868	18932
822.008	18738
822.149	18730
822.289	18658
822.429	18559
822.569	18445
822.709	18380
822.849	18300
822.99	18239
823.13	18106
823.27	18228
823.41	18030
823.55	17958
823.69	18034
823.83	18053
823.97	17988
824.11	17859
824.25	17741
824.389	17794
824.529	17988
824.669	17794
824.809	17908
824.949	17882
825.089	17855
825.228	17840
825.368	17665
825.508	17551
825.648	17668
825.787	17634
825.927	17573
826.067	17600
826.206	17406
826.346	17676
826.485	17611
826.625	17653
826.765	17680
826.904	17551
827.044	17387
827.183	17345
827.323	17315
827.462	17231
827.601	17231
827.741	17288
827.88	17288
828.02	17185
828.159	17334
828.298	17269
828.437	17315
828.577	17254
828.716	17459
828.855	17231
828.994	17018
829.134	16965
829.273	17159
829.412	17098
829.551	16862
829.69	16957
829.829	17075
829.968	17166
830.107	17071
830.246	17060
830.385	17003
830.524	16961
830.663	16828
830.802	16725
830.941	16672
831.08	16630
831.219	16797
831.357	16687
831.496	17022
831.635	16694
831.774	16569
831.913	16645
832.051	16443
832.19	16523
832.329	16493
832.467	16421
832.606	16329
832.744	16402
832.883	16337
833.022	16440
833.16	16428
833.299	16440
833.437	16432
833.576	16436
833.714	16432
833.852	16440
833.991	16428
834.129	16413
834.267	16478
834.406	16497
834.544	16519
834.682	16481
834.821	16519
834.959	16573
835.097	16470
835.235	16546
835.373	16394
835.511	16413
835.65	16337
835.788	16341
835.926	16120
836.064	16044
836.202	16173
836.34	16424
836.478	16535
836.615	16268
836.753	16329
836.891	16440
837.029	16421
837.167	16318
837.305	16325
837.443	16207
837.58	16112
837.718	16253
837.856	16246
837.993	16120
838.131	16268
838.269	16124
838.406	16112
838.544	16090
838.681	16025
838.819	15994
838.956	15812
839.094	15766
839.231	15797
839.369	15956
839.506	16204
839.643	16040
839.781	15759
839.918	15751
840.055	15838
840.193	15698
840.33	15747
840.467	15759
840.604	15918
840.742	16051
840.879	15564
841.016	15667
841.153	15675
841.29	15857
841.427	15774
841.564	15724
841.701	15808
841.838	15736
841.975	15785
842.112	15759
842.249	15671
842.385	15561
842.522	15842
842.659	15538
842.796	15564
842.933	15584
843.069	15564
843.206	15473
843.343	15667
843.479	15534
843.616	15572
843.752	15466
843.889	15370
844.025	15549
844.162	15256
844.298	15405
844.435	15321
844.571	15351
844.708	15370
844.844	15439
844.98	15439
845.117	15435
845.253	15272
845.389	15321
845.525	15268
845.661	15173
845.798	15077
845.934	15138
846.07	15108
846.206	15188
846.342	15211
846.478	15123
846.614	14914
846.75	14887
846.886	14864
847.022	14956
847.158	14895
847.294	14902
847.429	14895
847.565	14838
847.701	15089
847.837	14598
847.972	14602
848.108	14720
848.244	14693
848.379	14579
848.515	14545
848.65	14484
848.786	14518
848.921	14492
849.057	14621
849.192	14518
849.328	14625
849.463	14499
849.598	14537
849.734	14412
849.869	14362
850.004	14248
850.14	14267
850.275	14343
850.41	14267
850.545	14252
850.68	14309
850.815	14328
850.95	14237
851.085	14362
851.22	14339
851.355	14320
851.49	14142
851.625	14298
851.76	14225
851.895	14176
852.03	14172
852.165	14176
852.299	14278
852.434	14442
852.569	14278
852.703	14332
852.838	14400
852.973	14374
853.107	14442
853.242	14294
853.376	14339
853.511	14027
853.645	14145
853.78	14252
853.914	14142
854.048	14149
854.183	14142
854.317	14183
854.451	14282
854.585	14077
854.72	14103
854.854	14168
854.988	14119
855.122	14119
855.256	14031
855.39	14149
855.524	14286
855.658	14252
855.792	14199
855.926	14214
856.06	14164
856.194	14305
856.327	14062
856.461	14054
856.595	14149
856.729	14096
856.862	14267
856.996	14199
857.13	14248
857.263	14286
857.397	14240
857.53	14172
857.664	14248
857.797	14168
857.931	14263
858.064	14248
858.197	14218
858.331	14202
858.464	14107
858.597	14103
858.731	14282
858.864	14092
858.997	14138
859.13	14180
859.263	14183
859.396	14069
859.529	14100
859.662	14088
859.795	14069
859.928	14142
860.061	14317
860.194	14332
860.327	14153
860.46	14221
860.592	14180
860.725	14248
860.858	14195
860.99	14126
861.123	14077
861.256	14107
861.388	14050
861.521	14899
861.653	14103
861.786	13963
861.918	14096
862.05	14024
862.183	14081
862.315	14149
862.447	14142
862.58	14062
862.712	13906
862.844	13944
862.976	13921
863.108	13993
863.24	14267
863.372	13871
863.504	13944
863.636	13913
863.768	14046
863.9	13906
864.032	13871
864.164	13963
864.296	13978
864.428	14035
864.559	14084
864.691	14012
864.823	14031
864.954	14027
865.086	13997
865.217	13803
865.349	13807
865.48	13883
865.612	13967
865.743	14126
865.875	13917
866.006	13947
866.137	13909
866.269	13928
866.4	13947
866.531	13928
866.662	13738
866.793	13849
866.924	13883
867.055	13852
867.186	13955
867.317	13830
867.448	13868
867.579	13902
867.71	13856
867.841	13807
867.972	13936
868.103	13860
868.233	13928
868.364	13928
868.495	13959
868.625	14157
868.756	14320
868.886	14138
869.017	14176
869.147	14214
869.278	14328
869.408	14199
869.539	14142
869.669	14225
869.799	14218
869.929	14275
870.06	14248
870.19	14533
870.32	14457
870.45	14461
870.58	14549
870.71	14655
870.84	14697
870.97	14549
871.1	14579
871.23	14754
871.36	14758
871.489	14724
871.619	14746
871.749	14750
871.879	14762
872.008	14880
872.138	14792
872.267	14735
872.397	14720
872.526	14644
872.656	14526
872.785	14659
872.915	14739
873.044	14895
873.173	14785
873.303	14857
873.432	14838
873.561	14887
873.69	14807
873.819	14826
873.948	14891
874.077	14887
874.206	14872
874.335	14804
874.464	15009
874.593	15123
874.722	15032
874.851	15180
874.979	15218
875.108	15161
875.237	15077
875.365	15058
875.494	15188
875.623	15287
875.751	15188
875.88	15211
876.008	15310
876.136	15344
876.265	15534
876.393	15778
876.521	15660
876.65	15633
876.778	15580
876.906	15469
877.034	15564
877.162	15549
877.29	15492
877.418	15557
877.546	15580
877.674	15538
877.802	15549
877.93	15488
878.058	15462
878.185	15458
878.313	15618
878.441	15557
878.568	15355
878.696	15458
878.824	15568
878.951	15526
879.079	15770
879.206	15804
879.333	15698
879.461	15625
879.588	15667
879.715	15778
879.842	16013
879.97	15629
880.097	15370
880.224	15367
880.351	15351
880.478	15367
880.605	15268
880.732	15272
880.859	15595
880.986	15424
881.112	15462
881.239	15279
881.366	15241
881.493	15104
881.619	15085
881.746	15032
881.872	15020
881.999	15032
882.125	15001
882.252	15062
882.378	15093
882.505	15127
882.631	14986
882.757	14857
882.883	14902
883.01	14899
883.136	14712
883.262	14788
883.388	14762
883.514	14948
883.64	14891
883.766	14773
883.892	14617
884.018	14701
884.143	14864
884.269	14925
884.395	14640
884.52	14526
884.646	14613
884.772	14594
884.897	14492
885.023	14655
885.148	14632
885.274	14807
885.399	14724
885.524	14746
885.65	14602
885.775	14636
885.9	14537
886.025	14750
886.15	14617
886.275	14598
886.4	14488
886.525	14495
886.65	14571
886.775	14415
886.9	14720
887.025	14857
887.149	14552
887.274	14484
887.399	14408
887.523	14385
887.648	14294
887.773	14275
887.897	14526
888.021	14431
888.146	14423
888.27	14514
888.395	14598
888.519	14450
888.643	14381
888.767	14495
888.891	14301
889.015	14248
889.139	14343
889.263	14278
889.387	14347
889.511	14541
889.635	14461
889.759	14252
889.883	14267
890.006	14275
890.13	14320
890.254	14225
890.377	14259
890.501	14119
890.624	14084
890.748	14126
890.871	14008
890.995	13906
891.118	13947
891.241	14016
891.364	13963
891.488	14035
891.611	13959
891.734	14062
891.857	13932
891.98	14035
892.103	14035
892.226	14126
892.349	14008
892.471	13871
892.594	13986
892.717	13940
892.839	13997
892.962	13887
893.085	14001
893.207	13932
893.33	13879
893.452	13951
893.575	14142
893.697	13940
893.819	14199
893.941	14248
894.064	14084
894.186	13997
894.308	14012
894.43	14039
894.552	14195
894.674	14149
894.796	14012
894.918	14153
895.04	13955
895.161	14134
895.283	14183
895.405	14092
895.526	14073
895.648	14130
895.769	14111
895.891	14202
896.012	14229
896.134	14168
896.255	14142
896.376	14123
896.498	14138
896.619	14237
896.74	14142
896.861	14119
896.982	14530
897.103	14602
897.224	14492
897.345	14423
897.466	14362
897.587	14358
897.708	14518
897.828	14484
897.949	14404
898.07	14309
898.19	14438
898.311	14640
898.431	14377
898.552	14590
898.672	14514
898.792	14682
898.913	14541
899.033	14507
899.153	14309
899.273	14244
899.393	14313
899.513	14457
899.633	14355
899.753	14431
899.873	14385
899.993	14423
900.113	14476
900.232	14446
900.352	14362
900.472	14332
900.591	14210
900.711	14237
900.83	14119
900.95	14404
901.069	14370
901.189	14130
901.308	14016
901.427	13909
901.546	13887
901.665	13898
901.784	13849
901.904	13906
902.023	13651
902.141	13552
902.26	13491
902.379	13563
902.498	13457
902.617	13441
902.735	13514
902.854	13476
902.973	13430
903.091	13126
903.21	13198
903.328	13225
903.446	13160
903.565	12935
903.683	13072
903.801	12947
903.919	13069
904.038	13084
904.156	12939
904.274	12947
904.392	12844
904.51	12882
904.627	12901
904.745	12905
904.863	12905
904.981	12639
905.098	12452
905.216	12642
905.334	12616
905.451	12566
905.569	12513
905.686	12658
905.803	12532
905.921	12429
906.038	12445
906.155	12338
906.272	12323
906.389	12315
906.506	12163
906.623	12254
906.74	12136
906.857	12083
906.974	12175
907.091	12228
907.208	12251
907.324	12201
907.441	12087
907.557	11824
907.674	11969
907.79	11859
907.907	11794
908.023	11935
908.139	11988
908.256	11817
908.372	11809
908.488	11840
908.604	11726
908.72	11661
908.836	11707
908.952	11729
909.068	11668
909.184	11783
909.3	11695
909.415	11733
909.531	11703
909.647	11512
909.762	11414
909.878	11414
909.993	11398
910.108	11505
910.224	11398
910.339	11429
910.454	11284
910.57	11273
910.685	11151
910.8	11589
910.915	11425
911.03	11356
911.145	11102
911.259	11090
911.374	11254
911.489	11121
911.604	10984
911.718	10980
911.833	10908
911.947	10835
912.062	10717
912.176	10908
912.291	10896
912.405	10828
912.519	11045
912.633	11094
912.748	10927
912.862	10949
912.976	10717
913.09	10607
913.204	10752
913.318	10717
913.431	10885
913.545	10896
913.659	10949
913.772	10763
913.886	10653
914	10706
914.113	10816
914.226	10774
914.34	10736
914.453	10535
914.566	10641
914.68	10584
914.793	10618
914.906	10440
915.019	10428
915.132	10382
915.245	10432
915.358	10432
915.47	10367
915.583	10382
915.696	10443
915.809	10481
915.921	10710
916.034	10462
916.146	10360
916.259	10318
916.371	10447
916.483	10455
916.595	10344
916.708	10394
916.82	10402
916.932	10306
917.044	10295
917.156	10299
917.268	10246
917.38	10219
917.491	10227
917.603	10329
917.715	10299
917.826	10409
917.938	10200
918.049	10010
918.161	10234
918.272	10398
918.384	10325
918.495	10246
918.606	10090
918.717	10036
918.828	10120
918.939	10124
919.05	9960
919.161	10082
919.272	9911
919.383	10040
919.494	10128
919.604	10318
919.715	10124
919.826	10013
919.936	10101
920.047	10200
920.157	10204
920.267	10367
920.378	10173
920.488	10128
920.598	10371
920.708	10481
920.818	10299
920.928	10306
921.038	10508
921.148	10451
921.258	10196
921.368	10109
921.477	10025
921.587	10017
921.697	9926
921.806	10082
921.916	9953
922.025	9732
922.134	9823
922.244	9682
922.353	9812
922.462	9610
922.571	9564
922.68	9462
922.789	9389
922.898	9412
923.007	9389
923.116	9462
923.224	9386
923.333	9386
923.442	9241
923.55	9214
923.659	9313
923.767	9294
923.876	9287
923.984	9363
924.092	9245
924.201	9298
924.309	9241
924.417	9340
924.525	9207
924.633	9283
924.741	10131
924.849	9077
924.956	9237
925.064	9055
925.172	8998
925.279	9039
925.387	9131
925.494	8979
925.602	9226
925.709	9154
925.816	9001
925.924	9036
926.031	9066
926.138	9036
926.245	9146
926.352	9043
926.459	9100
926.566	9237
926.673	9028
926.779	8895
926.886	8891
926.993	8724
927.099	8804
927.206	8724
927.312	8758
927.419	8853
927.525	8750
927.631	8872
927.737	8640
927.843	8651
927.95	8564
928.056	8648
928.162	8697
928.267	8636
928.373	9317
928.479	8781
928.585	8552
928.69	8678
928.796	8712
928.901	8503
929.007	8415
929.112	8644
929.218	8636
929.323	8488
929.428	8480
929.533	8598
929.638	8438
929.743	8499
929.848	8511
929.953	8499
930.058	8381
930.163	8324
930.267	8256
930.372	8393
930.477	8214
930.581	8473
930.685	8366
930.79	8202
930.894	8320
930.998	8176
931.103	8267
931.207	7989
931.311	7955
931.415	7917
931.519	7719
931.623	7708
