Data from test_V78500241_1766.txt Node
Date: Fri Mar 25 14:46:00 CST 2022
User: usil
Spectrometer: V785-0024
Trigger mode: 0
Integration Time (sec): 4.000000E-1
Scans to average: 1
Nonlinearity correction enabled: false
Boxcar width: 0
Storing dark spectrum: false
XAxis mode: Wavelengths
Number of Pixels in Spectrum: 1024
>>>>>Begin Spectral Data<<<<<
801.071	22268
801.214	22048
801.356	21800
801.499	21823
801.641	21507
801.783	21526
801.926	21561
802.068	21469
802.211	21477
802.353	21283
802.496	21161
802.638	21154
802.78	21085
802.923	21047
803.065	20895
803.208	20807
803.35	20925
803.492	20963
803.635	21176
803.777	21020
803.919	21001
804.061	21275
804.204	21047
804.346	20933
804.488	20735
804.63	20960
804.773	20785
804.915	20845
805.057	20811
805.199	20895
805.341	20857
805.483	20937
805.626	21028
805.768	20746
805.91	20857
806.052	20887
806.194	20788
806.336	20941
806.478	20781
806.62	20868
806.762	20845
806.904	21020
807.046	21287
807.188	21142
807.33	21192
807.472	21157
807.614	21039
807.756	21100
807.898	20963
808.04	20880
808.182	20853
808.324	20895
808.465	20952
808.607	21188
808.749	21058
808.891	21207
809.033	21500
809.174	21302
809.316	21302
809.458	21317
809.6	21264
809.741	21275
809.883	21165
810.025	21397
810.166	21393
810.308	21401
810.45	21367
810.591	21226
810.733	21108
810.875	21039
811.016	20834
811.158	20864
811.299	21043
811.441	21089
811.582	21116
811.724	21013
811.865	21108
812.007	21020
812.148	21001
812.29	20990
812.431	21154
812.573	21386
812.714	21458
812.855	21504
812.997	21553
813.138	21671
813.279	21614
813.421	21568
813.562	21500
813.703	21287
813.845	21214
813.986	20796
814.127	20701
814.268	20682
814.41	20625
814.551	20594
814.692	20720
814.833	20564
814.974	20465
815.115	20693
815.256	20347
815.397	20343
815.539	20328
815.68	20271
815.821	20263
815.962	20313
816.103	20286
816.244	20221
816.385	20107
816.526	19959
816.666	19936
816.807	19731
816.948	19784
817.089	19833
817.23	19746
817.371	19658
817.512	19738
817.653	19647
817.793	19639
817.934	19643
818.075	19635
818.216	19594
818.356	19700
818.497	19480
818.638	19377
818.778	19343
818.919	19324
819.06	19381
819.2	19514
819.341	19514
819.481	19544
819.622	19662
819.762	19849
819.903	19856
820.043	19776
820.184	19696
820.324	19632
820.465	19772
820.605	19719
820.746	19666
820.886	19438
821.026	19666
821.167	19708
821.307	19639
821.447	19628
821.588	19537
821.728	19339
821.868	19202
822.008	19004
822.149	19004
822.289	19133
822.429	18730
822.569	18840
822.709	18738
822.849	18551
822.99	18627
823.13	18509
823.27	18513
823.41	18399
823.55	18319
823.69	18205
823.83	18422
823.97	18171
824.11	18201
824.25	18038
824.389	18251
824.529	18197
824.669	18072
824.809	18129
824.949	18228
825.089	18311
825.228	18163
825.368	17931
825.508	18015
825.648	17878
825.787	17958
825.927	17931
826.067	17843
826.206	17885
826.346	17897
826.485	17878
826.625	17832
826.765	18057
826.904	17870
827.044	17649
827.183	17684
827.323	17551
827.462	17684
827.601	17630
827.741	17634
827.88	17714
828.02	17505
828.159	17520
828.298	17604
828.437	17558
828.577	17642
828.716	17581
828.855	17516
828.994	17341
829.134	17353
829.273	17402
829.412	17299
829.551	17273
829.69	17246
829.829	17334
829.968	17463
830.107	17429
830.246	17395
830.385	17239
830.524	17223
830.663	17200
830.802	17086
830.941	17006
831.08	17010
831.219	17060
831.357	16957
831.496	17170
831.635	16987
831.774	16938
831.913	16824
832.051	16850
832.19	16759
832.329	16740
832.467	16664
832.606	16645
832.744	16679
832.883	16626
833.022	16569
833.16	16691
833.299	16721
833.437	16717
833.576	16691
833.714	16752
833.852	16725
833.991	16752
834.129	16885
834.267	16744
834.406	16710
834.544	16763
834.682	16668
834.821	16717
834.959	16843
835.097	16713
835.235	16740
835.373	16786
835.511	16713
835.65	16622
835.788	16626
835.926	16592
836.064	16405
836.202	16485
836.34	16607
836.478	16733
836.615	16649
836.753	16538
836.891	16706
837.029	16706
837.167	16645
837.305	16622
837.443	16500
837.58	16409
837.718	16519
837.856	16402
837.993	16379
838.131	16599
838.269	16337
838.406	16363
838.544	16379
838.681	16090
838.819	16226
838.956	16055
839.094	16036
839.231	16150
839.369	16238
839.506	16322
839.643	16185
839.781	16029
839.918	16036
840.055	16051
840.193	15991
840.33	16002
840.467	15964
840.604	16013
840.742	16215
840.879	15915
841.016	15918
841.153	15918
841.29	16219
841.427	16059
841.564	16112
841.701	15922
841.838	15987
841.975	15964
842.112	15922
842.249	15774
842.385	15854
842.522	16006
842.659	15819
842.796	15816
842.933	15865
843.069	15743
843.206	15838
843.343	15983
843.479	15827
843.616	15918
843.752	15724
843.889	15557
844.025	15804
844.162	15614
844.298	15804
844.435	15637
844.571	15591
844.708	15614
844.844	15785
844.98	15755
845.117	15637
845.253	15496
845.389	15488
845.525	15473
845.661	15462
845.798	15378
845.934	15462
846.07	15374
846.206	15447
846.342	15564
846.478	15447
846.614	15336
846.75	15089
846.886	15089
847.022	15264
847.158	15100
847.294	15226
847.429	15207
847.565	15207
847.701	15420
847.837	14918
847.972	14887
848.108	15051
848.244	15032
848.379	14823
848.515	14830
848.65	14701
848.786	14891
848.921	14686
849.057	14819
849.192	14800
849.328	14762
849.463	14838
849.598	14773
849.734	14720
849.869	14602
850.004	14530
850.14	14587
850.275	14625
850.41	14385
850.545	14438
850.68	14537
850.815	14469
850.95	14454
851.085	14648
851.22	14518
851.355	14476
851.49	14568
851.625	14465
851.76	14526
851.895	14412
852.03	14385
852.165	14606
852.299	14488
852.434	14590
852.569	14556
852.703	14549
852.838	14606
852.973	14731
853.107	14804
853.242	14446
853.376	14461
853.511	14309
853.645	14286
853.78	14549
853.914	14343
854.048	14309
854.183	14400
854.317	14454
854.451	14431
854.585	14427
854.72	14366
854.854	14442
854.988	14385
855.122	14324
855.256	14305
855.39	14362
855.524	14465
855.658	14503
855.792	14434
855.926	14404
856.06	14530
856.194	14583
856.327	14431
856.461	14351
856.595	14290
856.729	14256
856.862	14511
856.996	14514
857.13	14423
857.263	14549
857.397	14484
857.53	14408
857.664	14518
857.797	14552
857.931	14518
858.064	14469
858.197	14541
858.331	14362
858.464	14286
858.597	14355
858.731	14404
858.864	14408
858.997	14317
859.13	14332
859.263	14347
859.396	14465
859.529	14309
859.662	14336
859.795	14309
859.928	14454
860.061	14564
860.194	14571
860.327	14438
860.46	14389
860.592	14434
860.725	14438
860.858	14503
860.99	14377
861.123	14282
861.256	14339
861.388	14434
861.521	15127
861.653	14419
861.786	14324
861.918	14244
862.05	14305
862.183	14294
862.315	14374
862.447	14396
862.58	14320
862.712	14145
862.844	14126
862.976	14229
863.108	14278
863.24	14427
863.372	14081
863.504	14183
863.636	14119
863.768	14275
863.9	14256
864.032	14046
864.164	14092
864.296	14237
864.428	14259
864.559	14214
864.691	14229
864.823	14248
864.954	14229
865.086	14240
865.217	14191
865.349	14111
865.48	14202
865.612	14115
865.743	14309
865.875	14142
866.006	14157
866.137	14164
866.269	14123
866.4	14153
866.531	14225
866.662	14119
866.793	14202
866.924	14050
867.055	14161
867.186	14199
867.317	14115
867.448	14031
867.579	14039
867.71	14065
867.841	13993
867.972	14107
868.103	14183
868.233	14191
868.364	14157
868.495	14210
868.625	14370
868.756	14427
868.886	14252
869.017	14427
869.147	14499
869.278	14473
869.408	14393
869.539	14377
869.669	14503
869.799	14461
869.929	14507
870.06	14537
870.19	14754
870.32	14762
870.45	14686
870.58	14785
870.71	14948
870.84	14895
870.97	14842
871.1	14838
871.23	14967
871.36	15020
871.489	14921
871.619	14941
871.749	15085
871.879	15058
872.008	15093
872.138	15062
872.267	14948
872.397	14880
872.526	14906
872.656	14887
872.785	14883
872.915	15028
873.044	15112
873.173	15116
873.303	15157
873.432	15058
873.561	15116
873.69	15051
873.819	15192
873.948	15138
874.077	15024
874.206	15100
874.335	15009
874.464	15241
874.593	15245
874.722	15161
874.851	15420
874.979	15336
875.108	15424
875.237	15325
875.365	15252
875.494	15447
875.623	15416
875.751	15370
875.88	15420
876.008	15553
876.136	15603
876.265	15808
876.393	15880
876.521	15838
876.65	15915
876.778	15842
876.906	15679
877.034	15713
877.162	15766
877.29	15618
877.418	15759
877.546	15778
877.674	15789
877.802	15812
877.93	15800
878.058	15675
878.185	15755
878.313	15762
878.441	15709
878.568	15591
878.696	15759
878.824	15842
878.951	15823
879.079	15949
879.206	16002
879.333	15930
879.461	15747
879.588	15945
879.715	15865
879.842	16086
879.97	15766
880.097	15679
880.224	15606
880.351	15770
880.478	15629
880.605	15656
880.732	15641
880.859	15888
880.986	15751
881.112	15580
881.239	15534
881.366	15466
881.493	15279
881.619	15279
881.746	15344
881.872	15291
881.999	15298
882.125	15287
882.252	15367
882.378	15272
882.505	15492
882.631	15237
882.757	15070
882.883	15135
883.01	15070
883.136	14998
883.262	14971
883.388	14921
883.514	15058
883.64	15081
883.766	15089
883.892	14910
884.018	14826
884.143	14891
884.269	15146
884.395	14921
884.52	14823
884.646	14823
884.772	14659
884.897	14674
885.023	14792
885.148	14880
885.274	14883
885.399	14963
885.524	14815
885.65	14891
885.775	14864
885.9	14720
886.025	14941
886.15	14811
886.275	14838
886.4	14663
886.525	14811
886.65	14792
886.775	14781
886.9	14861
887.025	15032
887.149	14804
887.274	14640
887.399	14598
887.523	14644
887.648	14537
887.773	14575
887.897	14689
888.021	14769
888.146	14530
888.27	14811
888.395	14720
888.519	14693
888.643	14678
888.767	14712
888.891	14533
889.015	14476
889.139	14613
889.263	14381
889.387	14636
889.511	14659
889.635	14602
889.759	14503
889.883	14530
890.006	14484
890.13	14689
890.254	14442
890.377	14412
890.501	14317
890.624	14282
890.748	14347
890.871	14278
890.995	14111
891.118	14161
891.241	14218
891.364	14134
891.488	14374
891.611	14187
891.734	14176
891.857	14286
891.98	14191
892.103	14358
892.226	14180
892.349	14214
892.471	14088
892.594	14138
892.717	14157
892.839	14123
892.962	14218
893.085	14240
893.207	14123
893.33	14130
893.452	14130
893.575	14267
893.697	14145
893.819	14370
893.941	14461
894.064	14339
894.186	14130
894.308	14161
894.43	14294
894.552	14434
894.674	14362
894.796	14058
894.918	14259
895.04	14138
895.161	14313
895.283	14240
895.405	14233
895.526	14343
895.648	14309
895.769	14328
895.891	14412
896.012	14374
896.134	14366
896.255	14377
896.376	14343
896.498	14332
896.619	14415
896.74	14343
896.861	14465
896.982	14735
897.103	14826
897.224	14644
897.345	14686
897.466	14564
897.587	14590
897.708	14705
897.828	14663
897.949	14564
898.07	14533
898.19	14469
898.311	14777
898.431	14651
898.552	14644
898.672	14895
898.792	14708
898.913	14686
899.033	14617
899.153	14492
899.273	14374
899.393	14651
899.513	14598
899.633	14594
899.753	14560
899.873	14514
899.993	14594
900.113	14438
900.232	14613
900.352	14541
900.472	14454
900.591	14438
900.711	14419
900.83	14415
900.95	14480
901.069	14526
901.189	14347
901.308	14183
901.427	14092
901.546	14001
901.665	14115
901.784	14130
901.904	13887
902.023	13856
902.141	13693
902.26	13723
902.379	13731
902.498	13700
902.617	13594
902.735	13696
902.854	13731
902.973	13514
903.091	13400
903.21	13464
903.328	13468
903.446	13255
903.565	13236
903.683	13206
903.801	13126
903.919	13259
904.038	13278
904.156	13042
904.274	13088
904.392	13027
904.51	13099
904.627	12996
904.745	13069
904.863	13095
904.981	12882
905.098	12707
905.216	12700
905.334	12776
905.451	12806
905.569	12696
905.686	12719
905.803	12757
905.921	12566
906.038	12673
906.155	12589
906.272	12456
906.389	12422
906.506	12338
906.623	12319
906.74	12251
906.857	12171
906.974	12186
907.091	12334
907.208	12506
907.324	12285
907.441	12308
907.557	12087
907.674	12049
907.79	12076
907.907	12030
908.023	12125
908.139	12159
908.256	11920
908.372	12053
908.488	11950
908.604	11847
908.72	11832
908.836	11775
908.952	11798
909.068	11847
909.184	11908
909.3	11866
909.415	11923
909.531	11859
909.647	11649
909.762	11589
909.878	11589
909.993	11726
910.108	11634
910.224	11535
910.339	11551
910.454	11566
910.57	11520
910.685	11364
910.8	11649
910.915	11665
911.03	11543
911.145	11296
911.259	11284
911.374	11288
911.489	11204
911.604	11178
911.718	11010
911.833	11048
911.947	11037
912.062	10923
912.176	11056
912.291	11090
912.405	11033
912.519	11181
912.633	11212
912.748	11056
912.862	11064
912.976	10923
913.09	10900
913.204	10915
913.318	10915
913.431	11064
913.545	10957
913.659	10987
913.772	10930
913.886	10831
914	10786
914.113	10957
914.226	10938
914.34	10866
914.453	10710
914.566	10919
914.68	10786
914.793	10759
914.906	10607
915.019	10516
915.132	10481
915.245	10580
915.358	10603
915.47	10573
915.583	10634
915.696	10694
915.809	10679
915.921	10786
916.034	10459
916.146	10527
916.259	10497
916.371	10599
916.483	10694
916.595	10470
916.708	10523
916.82	10474
916.932	10489
917.044	10478
917.156	10474
917.268	10379
917.38	10371
917.491	10303
917.603	10367
917.715	10478
917.826	10584
917.938	10337
918.049	10424
918.161	10443
918.272	10615
918.384	10535
918.495	10455
918.606	10306
918.717	10204
918.828	10329
918.939	10257
919.05	10215
919.161	10299
919.272	9991
919.383	10150
919.494	10318
919.604	10478
919.715	10325
919.826	10249
919.936	10242
920.047	10363
920.157	10249
920.267	10462
920.378	10249
920.488	10253
920.598	10516
920.708	10618
920.818	10538
920.928	10447
921.038	10588
921.148	10535
921.258	10329
921.368	10238
921.477	10139
921.587	10063
921.697	10017
921.806	10147
921.916	9968
922.025	9873
922.134	9850
922.244	9751
922.353	9850
922.462	9701
922.571	9713
922.68	9553
922.789	9549
922.898	9553
923.007	9504
923.116	9553
923.224	9542
923.333	9507
923.442	9386
923.55	9359
923.659	9435
923.767	9447
923.876	9382
923.984	9530
924.092	9363
924.201	9374
924.309	9393
924.417	9405
924.525	9367
924.633	9431
924.741	10246
924.849	9157
924.956	9359
925.064	9214
925.172	9112
925.279	9112
925.387	9222
925.494	9138
925.602	9306
925.709	9272
925.816	9104
925.924	9222
926.031	9226
926.138	9226
926.245	9233
926.352	9081
926.459	9222
926.566	9275
926.673	9150
926.779	8967
926.886	9017
926.993	8918
927.099	8842
927.206	8853
927.312	8807
927.419	8956
927.525	8963
927.631	8979
927.737	8807
927.843	8796
927.95	8663
928.056	8811
928.162	8807
928.267	8792
928.373	9389
928.479	8960
928.585	8617
928.69	8788
928.796	8819
928.901	8705
929.007	8686
929.112	8735
929.218	8648
929.323	8598
929.428	8587
929.533	8754
929.638	8552
929.743	8564
929.848	8606
929.953	8644
930.058	8484
930.163	8317
930.267	8374
930.372	8442
930.477	8298
930.581	8579
930.685	8480
930.79	8267
930.894	8286
930.998	8336
931.103	8400
931.207	8096
931.311	8039
931.415	8012
931.519	7868
931.623	7814
