Data from test_V78500241_2811.txt Node
Date: Fri Mar 25 14:53:17 CST 2022
User: usil
Spectrometer: V785-0024
Trigger mode: 0
Integration Time (sec): 4.000000E-1
Scans to average: 1
Nonlinearity correction enabled: false
Boxcar width: 0
Storing dark spectrum: false
XAxis mode: Wavelengths
Number of Pixels in Spectrum: 1024
>>>>>Begin Spectral Data<<<<<
801.071	22036
801.214	21975
801.356	21789
801.499	21667
801.641	21557
801.783	21439
801.926	21348
802.068	21393
802.211	21214
802.353	21260
802.496	20994
802.638	20941
802.78	20868
802.923	20781
803.065	20811
803.208	20640
803.35	20762
803.492	20819
803.635	20864
803.777	20746
803.919	20842
804.061	21039
804.204	20689
804.346	20735
804.488	20663
804.63	20777
804.773	20655
804.915	20583
805.057	20830
805.199	20495
805.341	20636
805.483	20765
805.626	20819
805.768	20636
805.91	20640
806.052	20682
806.194	20594
806.336	20716
806.478	20625
806.62	20670
806.762	20648
806.904	20834
807.046	21070
807.188	21032
807.33	20948
807.472	21077
807.614	20815
807.756	20777
807.898	20765
808.04	20746
808.182	20644
808.324	20758
808.465	20853
808.607	20918
808.749	21028
808.891	21032
809.033	21157
809.174	21070
809.316	20982
809.458	20971
809.6	20956
809.741	21199
809.883	21184
810.025	21173
810.166	21192
810.308	21180
810.45	21199
810.591	20960
810.733	20944
810.875	20792
811.016	20708
811.158	20697
811.299	20815
811.441	20868
811.582	20883
811.724	20872
811.865	20697
812.007	20785
812.148	20613
812.29	20815
812.431	20906
812.573	21135
812.714	21112
812.855	21351
812.997	21382
813.138	21591
813.279	21329
813.421	21173
813.562	21146
813.703	21051
813.845	20899
813.986	20686
814.127	20488
814.268	20473
814.41	20389
814.551	20290
814.692	20427
814.833	20237
814.974	20362
815.115	20256
815.256	20161
815.397	20214
815.539	20271
815.68	20065
815.821	20035
815.962	20134
816.103	19986
816.244	19902
816.385	19841
816.526	19849
816.666	19537
816.807	19472
816.948	19605
817.089	19491
817.23	19582
817.371	19563
817.512	19552
817.653	19396
817.793	19407
817.934	19373
818.075	19533
818.216	19472
818.356	19411
818.497	19213
818.638	19046
818.778	19168
818.919	19209
819.06	19137
819.2	19270
819.341	19320
819.481	19232
819.622	19483
819.762	19677
819.903	19495
820.043	19582
820.184	19594
820.324	19476
820.465	19529
820.605	19403
820.746	19464
820.886	19274
821.026	19533
821.167	19419
821.307	19525
821.447	19506
821.588	19324
821.728	19160
821.868	18924
822.008	18905
822.149	18878
822.289	18821
822.429	18608
822.569	18566
822.709	18486
822.849	18289
822.99	18346
823.13	18323
823.27	18296
823.41	18209
823.55	18114
823.69	18232
823.83	18228
823.97	18087
824.11	17988
824.25	17885
824.389	17897
824.529	17996
824.669	17851
824.809	17923
824.949	17999
825.089	17958
825.228	17889
825.368	17745
825.508	17726
825.648	17703
825.787	17775
825.927	17802
826.067	17646
826.206	17627
826.346	17741
826.485	17657
826.625	17665
826.765	17817
826.904	17779
827.044	17444
827.183	17497
827.323	17372
827.462	17337
827.601	17455
827.741	17406
827.88	17452
828.02	17265
828.159	17322
828.298	17311
828.437	17535
828.577	17353
828.716	17543
828.855	17414
828.994	17162
829.134	17151
829.273	17170
829.412	17090
829.551	17098
829.69	16987
829.829	17128
829.968	17303
830.107	17113
830.246	17193
830.385	16999
830.524	16995
830.663	16987
830.802	16843
830.941	16790
831.08	16774
831.219	16778
831.357	16797
831.496	16965
831.635	16774
831.774	16740
831.913	16660
832.051	16500
832.19	16580
832.329	16592
832.467	16417
832.606	16363
832.744	16352
832.883	16459
833.022	16375
833.16	16504
833.299	16573
833.437	16512
833.576	16569
833.714	16497
833.852	16523
833.991	16516
834.129	16615
834.267	16580
834.406	16485
834.544	16512
834.682	16538
834.821	16546
834.959	16736
835.097	16519
835.235	16618
835.373	16481
835.511	16519
835.65	16462
835.788	16386
835.926	16272
836.064	16185
836.202	16310
836.34	16356
836.478	16394
836.615	16432
836.753	16375
836.891	16546
837.029	16481
837.167	16440
837.305	16291
837.443	16314
837.58	16268
837.718	16375
837.856	16303
837.993	16314
838.131	16246
838.269	16261
838.406	16226
838.544	16135
838.681	15979
838.819	16017
838.956	15819
839.094	15816
839.231	15812
839.369	16002
839.506	16261
839.643	16010
839.781	15861
839.918	15835
840.055	15800
840.193	15892
840.33	15785
840.467	15899
840.604	15701
840.742	16025
840.879	15736
841.016	15781
841.153	15736
841.29	15911
841.427	15819
841.564	15831
841.701	15899
841.838	15800
841.975	15751
842.112	15743
842.249	15549
842.385	15553
842.522	15755
842.659	15671
842.796	15591
842.933	15587
843.069	15420
843.206	15633
843.343	15705
843.479	15606
843.616	15648
843.752	15507
843.889	15416
844.025	15580
844.162	15332
844.298	15515
844.435	15363
844.571	15294
844.708	15462
844.844	15496
844.98	15488
845.117	15447
845.253	15245
845.389	15332
845.525	15264
845.661	15313
845.798	15188
845.934	15302
846.07	15108
846.206	15233
846.342	15226
846.478	15180
846.614	15039
846.75	14937
846.886	15001
847.022	15062
847.158	14975
847.294	15097
847.429	15058
847.565	14899
847.701	15275
847.837	14712
847.972	14686
848.108	14743
848.244	14807
848.379	14667
848.515	14560
848.65	14499
848.786	14590
848.921	14556
849.057	14701
849.192	14686
849.328	14579
849.463	14686
849.598	14473
849.734	14537
849.869	14556
850.004	14374
850.14	14332
850.275	14389
850.41	14343
850.545	14355
850.68	14294
850.815	14377
850.95	14286
851.085	14507
851.22	14484
851.355	14362
851.49	14294
851.625	14427
851.76	14305
851.895	14248
852.03	14202
852.165	14294
852.299	14362
852.434	14385
852.569	14396
852.703	14343
852.838	14461
852.973	14511
853.107	14377
853.242	14404
853.376	14142
853.511	14123
853.645	14138
853.78	14362
853.914	14202
854.048	14202
854.183	14183
854.317	14267
854.451	14275
854.585	14218
854.72	14286
854.854	14336
854.988	14062
855.122	14210
855.256	14172
855.39	14138
855.524	14317
855.658	14286
855.792	14252
855.926	14324
856.06	14244
856.194	14328
856.327	14202
856.461	14123
856.595	14119
856.729	14176
856.862	14339
856.996	14275
857.13	14324
857.263	14324
857.397	14317
857.53	14199
857.664	14240
857.797	14244
857.931	14233
858.064	14256
858.197	14343
858.331	14278
858.464	14157
858.597	14164
858.731	14240
858.864	14153
858.997	14206
859.13	14263
859.263	14221
859.396	14324
859.529	14161
859.662	14096
859.795	14100
859.928	14183
860.061	14419
860.194	14419
860.327	14164
860.46	14214
860.592	14339
860.725	14419
860.858	14282
860.99	14225
861.123	14062
861.256	14065
861.388	14259
861.521	14921
861.653	14077
861.786	14008
861.918	14081
862.05	14096
862.183	14195
862.315	14138
862.447	14244
862.58	14119
862.712	13963
862.844	13997
862.976	14096
863.108	13959
863.24	14400
863.372	13860
863.504	13940
863.636	13989
863.768	14001
863.9	14031
864.032	13913
864.164	13947
864.296	14024
864.428	14073
864.559	14073
864.691	14046
864.823	14119
864.954	13963
865.086	13986
865.217	13955
865.349	13879
865.48	13974
865.612	14024
865.743	14103
865.875	13967
866.006	13932
866.137	13936
866.269	13997
866.4	14012
866.531	13967
866.662	13909
866.793	13974
866.924	13970
867.055	13894
867.186	14031
867.317	13894
867.448	13890
867.579	13890
867.71	13951
867.841	13909
867.972	13913
868.103	13993
868.233	13993
868.364	13970
868.495	14107
868.625	14187
868.756	14370
868.886	14161
869.017	14202
869.147	14240
869.278	14336
869.408	14278
869.539	14320
869.669	14294
869.799	14130
869.929	14252
870.06	14374
870.19	14549
870.32	14533
870.45	14564
870.58	14693
870.71	14845
870.84	14746
870.97	14670
871.1	14667
871.23	14754
871.36	14804
871.489	14811
871.619	14739
871.749	14693
871.879	14872
872.008	14998
872.138	14788
872.267	14758
872.397	14735
872.526	14629
872.656	14693
872.785	14644
872.915	14781
873.044	14941
873.173	14849
873.303	14899
873.432	14880
873.561	14990
873.69	14963
873.819	14918
873.948	14956
874.077	14910
874.206	14796
874.335	14788
874.464	14960
874.593	15123
874.722	15097
874.851	15127
874.979	15249
875.108	15291
875.237	15058
875.365	15062
875.494	15165
875.623	15359
875.751	15207
875.88	15207
876.008	15313
876.136	15412
876.265	15682
876.393	15816
876.521	15816
876.65	15606
876.778	15679
876.906	15599
877.034	15428
877.162	15618
877.29	15500
877.418	15572
877.546	15595
877.674	15580
877.802	15614
877.93	15591
878.058	15591
878.185	15431
878.313	15591
878.441	15644
878.568	15454
878.696	15545
878.824	15564
878.951	15762
879.079	15857
879.206	16006
879.333	15724
879.461	15736
879.588	15728
879.715	15804
879.842	15838
879.97	15724
880.097	15454
880.224	15515
880.351	15416
880.478	15469
880.605	15431
880.732	15595
880.859	15694
880.986	15439
881.112	15462
881.239	15351
881.366	15207
881.493	15161
881.619	15097
881.746	15123
881.872	15138
881.999	15116
882.125	15058
882.252	15154
882.378	15131
882.505	15283
882.631	15184
882.757	14975
882.883	15066
883.01	14941
883.136	14880
883.262	14830
883.388	14868
883.514	15020
883.64	15028
883.766	14933
883.892	14724
884.018	14853
884.143	14994
884.269	15032
884.395	14716
884.52	14686
884.646	14667
884.772	14602
884.897	14629
885.023	14629
885.148	14796
885.274	14861
885.399	14781
885.524	14621
885.65	14602
885.775	14716
885.9	14625
886.025	14739
886.15	14762
886.275	14533
886.4	14507
886.525	14598
886.65	14552
886.775	14610
886.9	14701
887.025	14910
887.149	14571
887.274	14450
887.399	14450
887.523	14484
887.648	14450
887.773	14396
887.897	14480
888.021	14484
888.146	14442
888.27	14503
888.395	14564
888.519	14469
888.643	14556
888.767	14488
888.891	14454
889.015	14301
889.139	14389
889.263	14301
889.387	14484
889.511	14514
889.635	14518
889.759	14355
889.883	14313
890.006	14294
890.13	14480
890.254	14172
890.377	14309
890.501	14244
890.624	14031
890.748	14229
890.871	14176
890.995	13982
891.118	13967
891.241	13997
891.364	14081
891.488	14123
891.611	14024
891.734	14111
891.857	14107
891.98	14008
892.103	14123
892.226	14016
892.349	14096
892.471	13928
892.594	13986
892.717	14046
892.839	14062
892.962	14096
893.085	14157
893.207	14115
893.33	13883
893.452	13906
893.575	14157
893.697	14024
893.819	14240
893.941	14214
894.064	14134
894.186	13970
894.308	13970
894.43	14164
894.552	14252
894.674	14168
894.796	14046
894.918	14058
895.04	14084
895.161	14145
895.283	14130
895.405	14054
895.526	14130
895.648	14123
895.769	14157
895.891	14267
896.012	14244
896.134	14298
896.255	14210
896.376	14103
896.498	14210
896.619	14225
896.74	14237
896.861	14332
896.982	14461
897.103	14731
897.224	14526
897.345	14549
897.466	14450
897.587	14431
897.708	14678
897.828	14507
897.949	14476
898.07	14355
898.19	14423
898.311	14590
898.431	14465
898.552	14590
898.672	14636
898.792	14636
898.913	14655
899.033	14545
899.153	14450
899.273	14355
899.393	14328
899.513	14381
899.633	14469
899.753	14431
899.873	14419
899.993	14412
900.113	14423
900.232	14450
900.352	14484
900.472	14362
900.591	14210
900.711	14355
900.83	14328
900.95	14454
901.069	14336
901.189	14180
901.308	13951
901.427	13917
901.546	13970
901.665	13970
901.784	14012
901.904	13837
902.023	13761
902.141	13609
902.26	13529
902.379	13620
902.498	13457
902.617	13491
902.735	13563
902.854	13476
902.973	13411
903.091	13320
903.21	13202
903.328	13354
903.446	13133
903.565	13110
903.683	13110
903.801	13031
903.919	13126
904.038	13034
904.156	12829
904.274	12989
904.392	12962
904.51	12920
904.627	12993
904.745	12989
904.863	12932
904.981	12719
905.098	12631
905.216	12604
905.334	12665
905.451	12635
905.569	12601
905.686	12589
905.803	12654
905.921	12422
906.038	12582
906.155	12483
906.272	12300
906.389	12403
906.506	12201
906.623	12213
906.74	12178
906.857	12045
906.974	12144
907.091	12304
907.208	12365
907.324	12232
907.441	12144
907.557	11923
907.674	11996
907.79	11931
907.907	11901
908.023	12015
908.139	11961
908.256	11927
908.372	11836
908.488	11897
908.604	11680
908.72	11668
908.836	11726
908.952	11672
909.068	11775
909.184	11760
909.3	11741
909.415	11767
909.531	11748
909.647	11505
909.762	11474
909.878	11512
909.993	11547
910.108	11482
910.224	11414
910.339	11417
910.454	11417
910.57	11334
910.685	11311
910.8	11486
910.915	11463
911.03	11402
911.145	11181
911.259	11201
911.374	11155
911.489	11109
911.604	11117
911.718	10942
911.833	10938
911.947	10858
912.062	10714
912.176	10927
912.291	10885
912.405	10961
912.519	11132
912.633	11189
912.748	11018
912.862	10949
912.976	10824
913.09	10687
913.204	10744
913.318	10771
913.431	10820
913.545	10923
913.659	10908
913.772	10835
913.886	10675
914	10577
914.113	10797
914.226	10793
914.34	10809
914.453	10637
914.566	10828
914.68	10645
914.793	10637
914.906	10512
915.019	10424
915.132	10436
915.245	10474
915.358	10428
915.47	10424
915.583	10554
915.696	10466
915.809	10580
915.921	10565
916.034	10436
916.146	10421
916.259	10382
916.371	10500
916.483	10462
916.595	10398
916.708	10413
916.82	10356
916.932	10314
917.044	10318
917.156	10253
917.268	10173
917.38	10238
917.491	10265
917.603	10314
917.715	10299
917.826	10337
917.938	10295
918.049	10181
918.161	10272
918.272	10386
918.384	10360
918.495	10291
918.606	10234
918.717	10067
918.828	10219
918.939	10253
919.05	10162
919.161	10093
919.272	9983
919.383	10036
919.494	10166
919.604	10276
919.715	10196
919.826	10135
919.936	10135
920.047	10200
920.157	10253
920.267	10314
920.378	10188
920.488	10112
920.598	10253
920.708	10519
920.818	10417
920.928	10337
921.038	10611
921.148	10440
921.258	10223
921.368	10204
921.477	10063
921.587	10025
921.697	9903
921.806	9953
921.916	9960
922.025	9789
922.134	9736
922.244	9709
922.353	9816
922.462	9625
922.571	9587
922.68	9447
922.789	9408
922.898	9439
923.007	9378
923.116	9458
923.224	9500
923.333	9340
923.442	9283
923.55	9268
923.659	9325
923.767	9416
923.876	9310
923.984	9389
924.092	9294
924.201	9340
924.309	9256
924.417	9332
924.525	9233
924.633	9272
924.741	9998
924.849	9058
924.956	9226
925.064	9112
925.172	8971
925.279	9062
925.387	9081
925.494	9077
925.602	9222
925.709	9165
925.816	9081
925.924	9081
926.031	9157
926.138	9089
926.245	9089
926.352	9039
926.459	9157
926.566	9253
926.673	9062
926.779	9032
926.886	8887
926.993	8826
927.099	8758
927.206	8777
927.312	8758
927.419	8842
927.525	8777
927.631	8826
927.737	8674
927.843	8670
927.95	8568
928.056	8720
928.162	8674
928.267	8739
928.373	9294
928.479	8838
928.585	8568
928.69	8670
928.796	8724
928.901	8674
929.007	8476
929.112	8602
929.218	8606
929.323	8499
929.428	8507
929.533	8571
929.638	8530
929.743	8476
929.848	8594
929.953	8526
930.058	8396
930.163	8259
930.267	8237
930.372	8362
930.477	8210
930.581	8518
930.685	8415
930.79	8237
930.894	8233
930.998	8202
931.103	8381
931.207	8031
931.311	7936
931.415	7864
931.519	7685
931.623	7719
