Data from test_V78500241_2451.txt Node
Date: Fri Mar 25 14:50:46 CST 2022
User: usil
Spectrometer: V785-0024
Trigger mode: 0
Integration Time (sec): 4.000000E-1
Scans to average: 1
Nonlinearity correction enabled: false
Boxcar width: 0
Storing dark spectrum: false
XAxis mode: Wavelengths
Number of Pixels in Spectrum: 1024
>>>>>Begin Spectral Data<<<<<
801.071	22013
801.214	22002
801.356	21652
801.499	21618
801.641	21351
801.783	21332
801.926	21405
802.068	21378
802.211	21298
802.353	21249
802.496	21001
802.638	20929
802.78	20891
802.923	20777
803.065	20754
803.208	20785
803.35	20838
803.492	20887
803.635	21009
803.777	20830
803.919	20777
804.061	21199
804.204	20906
804.346	20727
804.488	20587
804.63	20678
804.773	20602
804.915	20785
805.057	20743
805.199	20754
805.341	20830
805.483	20735
805.626	20705
805.768	20686
805.91	20693
806.052	20815
806.194	20625
806.336	20868
806.478	20636
806.62	20670
806.762	20682
806.904	20902
807.046	21169
807.188	20944
807.33	21017
807.472	21127
807.614	20937
807.756	20956
807.898	20872
808.04	20796
808.182	20826
808.324	20746
808.465	20826
808.607	20971
808.749	21150
808.891	21306
809.033	21188
809.174	21123
809.316	21051
809.458	21116
809.6	21047
809.741	21119
809.883	21062
810.025	21211
810.166	21199
810.308	21226
810.45	21131
810.591	21112
810.733	20990
810.875	20796
811.016	20762
811.158	20788
811.299	20830
811.441	21047
811.582	20914
811.724	20804
811.865	20712
812.007	20929
812.148	20960
812.29	20876
812.431	21074
812.573	21150
812.714	21222
812.855	21367
812.997	21439
813.138	21576
813.279	21435
813.421	21374
813.562	21412
813.703	21173
813.845	21032
813.986	20670
814.127	20537
814.268	20385
814.41	20385
814.551	20404
814.692	20442
814.833	20339
814.974	20332
815.115	20370
815.256	20263
815.397	20180
815.539	20240
815.68	20103
815.821	20153
815.962	20187
816.103	20119
816.244	20069
816.385	19944
816.526	19822
816.666	19742
816.807	19529
816.948	19662
817.089	19651
817.23	19552
817.371	19567
817.512	19578
817.653	19537
817.793	19438
817.934	19411
818.075	19548
818.216	19521
818.356	19525
818.497	19384
818.638	19202
818.778	19225
818.919	19312
819.06	19091
819.2	19247
819.341	19449
819.481	19472
819.622	19514
819.762	19780
819.903	19696
820.043	19571
820.184	19624
820.324	19464
820.465	19632
820.605	19518
820.746	19556
820.886	19384
821.026	19388
821.167	19434
821.307	19441
821.447	19346
821.588	19339
821.728	19327
821.868	19133
822.008	18913
822.149	18894
822.289	18897
822.429	18650
822.569	18578
822.709	18612
822.849	18384
822.99	18422
823.13	18388
823.27	18232
823.41	18270
823.55	18159
823.69	18209
823.83	18239
823.97	18174
824.11	17980
824.25	17901
824.389	17950
824.529	18041
824.669	18034
824.809	18064
824.949	18015
825.089	17984
825.228	17923
825.368	17786
825.508	17832
825.648	17893
825.787	17836
825.927	17840
826.067	17619
826.206	17771
826.346	17760
826.485	17916
826.625	17726
826.765	17821
826.904	17783
827.044	17558
827.183	17452
827.323	17459
827.462	17562
827.601	17482
827.741	17402
827.88	17444
828.02	17353
828.159	17482
828.298	17512
828.437	17528
828.577	17459
828.716	17577
828.855	17478
828.994	17178
829.134	17254
829.273	17277
829.412	17124
829.551	17128
829.69	17155
829.829	17124
829.968	17197
830.107	17250
830.246	17174
830.385	17075
830.524	17109
830.663	17045
830.802	16984
830.941	16839
831.08	16767
831.219	16805
831.357	16881
831.496	17022
831.635	16831
831.774	16771
831.913	16691
832.051	16554
832.19	16664
832.329	16630
832.467	16500
832.606	16504
832.744	16500
832.883	16527
833.022	16493
833.16	16508
833.299	16611
833.437	16584
833.576	16512
833.714	16577
833.852	16672
833.991	16554
834.129	16668
834.267	16717
834.406	16577
834.544	16584
834.682	16558
834.821	16485
834.959	16672
835.097	16504
835.235	16630
835.373	16664
835.511	16538
835.65	16489
835.788	16398
835.926	16230
836.064	16306
836.202	16360
836.34	16478
836.478	16603
836.615	16493
836.753	16481
836.891	16478
837.029	16531
837.167	16402
837.305	16344
837.443	16337
837.58	16246
837.718	16375
837.856	16409
837.993	16166
838.131	16261
838.269	16306
838.406	16207
838.544	16181
838.681	16006
838.819	15960
838.956	15991
839.094	15850
839.231	15968
839.369	15960
839.506	16169
839.643	16116
839.781	15922
839.918	15789
840.055	15926
840.193	15873
840.33	15812
840.467	15831
840.604	15953
840.742	16059
840.879	15694
841.016	15804
841.153	15717
841.29	16006
841.427	15934
841.564	15892
841.701	15953
841.838	15838
841.975	15781
842.112	15762
842.249	15679
842.385	15656
842.522	15823
842.659	15648
842.796	15679
842.933	15713
843.069	15542
843.206	15720
843.343	15720
843.479	15591
843.616	15675
843.752	15443
843.889	15534
844.025	15557
844.162	15389
844.298	15622
844.435	15492
844.571	15397
844.708	15507
844.844	15584
844.98	15641
845.117	15564
845.253	15378
845.389	15256
845.525	15340
845.661	15359
845.798	15283
845.934	15302
846.07	15161
846.206	15226
846.342	15344
846.478	15272
846.614	15051
846.75	14906
846.886	14937
847.022	15100
847.158	14998
847.294	14979
847.429	15085
847.565	15062
847.701	15218
847.837	14765
847.972	14754
848.108	14838
848.244	14819
848.379	14678
848.515	14659
848.65	14583
848.786	14625
848.921	14632
849.057	14705
849.192	14697
849.328	14606
849.463	14655
849.598	14644
849.734	14552
849.869	14511
850.004	14370
850.14	14374
850.275	14442
850.41	14377
850.545	14412
850.68	14332
850.815	14317
850.95	14381
851.085	14590
851.22	14473
851.355	14320
851.49	14347
851.625	14320
851.76	14423
851.895	14210
852.03	14240
852.165	14275
852.299	14476
852.434	14427
852.569	14377
852.703	14446
852.838	14438
852.973	14442
853.107	14552
853.242	14427
853.376	14305
853.511	14100
853.645	14244
853.78	14286
853.914	14225
854.048	14233
854.183	14142
854.317	14176
854.451	14434
854.585	14324
854.72	14161
854.854	14339
854.988	14172
855.122	14199
855.256	14115
855.39	14271
855.524	14290
855.658	14202
855.792	14301
855.926	14290
856.06	14351
856.194	14438
856.327	14210
856.461	14164
856.595	14176
856.729	14286
856.862	14282
856.996	14324
857.13	14412
857.263	14389
857.397	14351
857.53	14202
857.664	14267
857.797	14336
857.931	14328
858.064	14244
858.197	14358
858.331	14309
858.464	14195
858.597	14096
858.731	14183
858.864	14237
858.997	14240
859.13	14259
859.263	14347
859.396	14317
859.529	14256
859.662	14252
859.795	14172
859.928	14298
860.061	14351
860.194	14469
860.327	14317
860.46	14305
860.592	14351
860.725	14427
860.858	14347
860.99	14172
861.123	14221
861.256	14180
861.388	14275
861.521	14758
861.653	14077
861.786	14027
861.918	14115
862.05	14214
862.183	14214
862.315	14244
862.447	14294
862.58	14225
862.712	13997
862.844	14046
862.976	14027
863.108	14138
863.24	14400
863.372	13902
863.504	14050
863.636	14054
863.768	14024
863.9	14005
864.032	13967
864.164	13906
864.296	14073
864.428	14172
864.559	14096
864.691	14180
864.823	14157
864.954	14077
865.086	14123
865.217	13928
865.349	13898
865.48	13963
865.612	14039
865.743	14210
865.875	13978
866.006	13940
866.137	13967
866.269	14058
866.4	13921
866.531	13978
866.662	13932
866.793	13944
866.924	13997
867.055	13967
867.186	14050
867.317	13932
867.448	13917
867.579	13951
867.71	13898
867.841	13944
867.972	14062
868.103	14142
868.233	14084
868.364	14084
868.495	14084
868.625	14244
868.756	14282
868.886	14187
869.017	14172
869.147	14343
869.278	14385
869.408	14317
869.539	14313
869.669	14370
869.799	14324
869.929	14419
870.06	14438
870.19	14530
870.32	14659
870.45	14686
870.58	14648
870.71	14769
870.84	14819
870.97	14655
871.1	14602
871.23	14815
871.36	14815
871.489	14746
871.619	14781
871.749	14880
871.879	14853
872.008	15005
872.138	14914
872.267	14948
872.397	14693
872.526	14746
872.656	14674
872.785	14667
872.915	14956
873.044	14982
873.173	14823
873.303	14842
873.432	14990
873.561	14963
873.69	14998
873.819	14921
873.948	14994
874.077	14941
874.206	14918
874.335	14921
874.464	15028
874.593	15252
874.722	15062
874.851	15203
874.979	15294
875.108	15275
875.237	15169
875.365	15214
875.494	15252
875.623	15374
875.751	15272
875.88	15325
876.008	15351
876.136	15367
876.265	15614
876.393	15789
876.521	15766
876.65	15705
876.778	15774
876.906	15633
877.034	15717
877.162	15682
877.29	15701
877.418	15629
877.546	15698
877.674	15526
877.802	15690
877.93	15648
878.058	15561
878.185	15587
878.313	15622
878.441	15675
878.568	15481
878.696	15606
878.824	15686
878.951	15717
879.079	15857
879.206	15941
879.333	15899
879.461	15705
879.588	15720
879.715	15823
879.842	15907
879.97	15720
880.097	15462
880.224	15492
880.351	15462
880.478	15538
880.605	15428
880.732	15545
880.859	15671
880.986	15485
881.112	15591
881.239	15336
881.366	15329
881.493	15074
881.619	15157
881.746	15188
881.872	15184
881.999	15001
882.125	15066
882.252	15317
882.378	15116
882.505	15302
882.631	15051
882.757	15001
882.883	14944
883.01	14925
883.136	14906
883.262	14834
883.388	14876
883.514	15051
883.64	15062
883.766	14914
883.892	14788
884.018	14899
884.143	14967
884.269	15009
884.395	14750
884.52	14754
884.646	14640
884.772	14678
884.897	14575
885.023	14750
885.148	14750
885.274	14796
885.399	14823
885.524	14689
885.65	14731
885.775	14762
885.9	14682
886.025	14735
886.15	14724
886.275	14667
886.4	14568
886.525	14636
886.65	14644
886.775	14663
886.9	14811
887.025	14895
887.149	14746
887.274	14431
887.399	14495
887.523	14457
887.648	14423
887.773	14351
887.897	14697
888.021	14503
888.146	14476
888.27	14644
888.395	14678
888.519	14499
888.643	14564
888.767	14571
888.891	14415
889.015	14301
889.139	14461
889.263	14286
889.387	14461
889.511	14640
889.635	14495
889.759	14282
889.883	14393
890.006	14381
890.13	14503
890.254	14317
890.377	14286
890.501	14138
890.624	14031
890.748	14191
890.871	14073
890.995	13963
891.118	13970
891.241	13963
891.364	14062
891.488	14149
891.611	14024
891.734	14126
891.857	14130
891.98	14157
892.103	14145
892.226	14100
892.349	13982
892.471	13871
892.594	13982
892.717	14058
892.839	14058
892.962	14065
893.085	14103
893.207	14126
893.33	13875
893.452	13986
893.575	14096
893.697	14092
893.819	14244
893.941	14358
894.064	14229
894.186	14062
894.308	14027
894.43	14130
894.552	14317
894.674	14168
894.796	14069
894.918	14176
895.04	14081
895.161	14183
895.283	14134
895.405	14153
895.526	14134
895.648	14183
895.769	14206
895.891	14240
896.012	14271
896.134	14248
896.255	14275
896.376	14145
896.498	14161
896.619	14324
896.74	14298
896.861	14389
896.982	14511
897.103	14731
897.224	14636
897.345	14495
897.466	14366
897.587	14514
897.708	14636
897.828	14533
897.949	14461
898.07	14320
898.19	14469
898.311	14663
898.431	14579
898.552	14587
898.672	14625
898.792	14606
898.913	14575
899.033	14530
899.153	14404
899.273	14400
899.393	14457
899.513	14404
899.633	14469
899.753	14492
899.873	14377
899.993	14594
900.113	14457
900.232	14541
900.352	14454
900.472	14309
900.591	14328
900.711	14347
900.83	14256
900.95	14396
901.069	14431
901.189	14240
901.308	14046
901.427	13963
901.546	13974
901.665	13925
901.784	14092
901.904	13879
902.023	13795
902.141	13548
902.26	13567
902.379	13620
902.498	13594
902.617	13491
902.735	13552
902.854	13518
902.973	13609
903.091	13297
903.21	13278
903.328	13301
903.446	13202
903.565	13046
903.683	13171
903.801	13046
903.919	13168
904.038	13114
904.156	13012
904.274	13008
904.392	12886
904.51	12920
904.627	12954
904.745	12913
904.863	13069
904.981	12738
905.098	12608
905.216	12700
905.334	12673
905.451	12585
905.569	12601
905.686	12719
905.803	12585
905.921	12544
906.038	12631
906.155	12502
906.272	12403
906.389	12414
906.506	12266
906.623	12235
906.74	12213
906.857	12144
906.974	12102
907.091	12308
907.208	12346
907.324	12258
907.441	12076
907.557	11920
907.674	11908
907.79	11942
907.907	11882
908.023	11973
908.139	12022
908.256	11958
908.372	11863
908.488	11843
908.604	11737
908.72	11676
908.836	11695
908.952	11676
909.068	11817
909.184	11802
909.3	11802
909.415	11783
909.531	11767
909.647	11592
909.762	11547
909.878	11433
909.993	11463
910.108	11570
910.224	11524
910.339	11532
910.454	11425
910.57	11334
910.685	11277
910.8	11566
910.915	11535
911.03	11330
911.145	11201
911.259	11254
911.374	11185
911.489	11143
911.604	10938
911.718	10949
911.833	10987
911.947	10892
912.062	10790
912.176	10961
912.291	11014
912.405	10942
912.519	11086
912.633	11166
912.748	11025
912.862	10938
912.976	10847
913.09	10744
913.204	10850
913.318	10862
913.431	10900
913.545	10987
913.659	10946
913.772	10866
913.886	10721
914	10672
914.113	10748
914.226	10877
914.34	10847
914.453	10588
914.566	10797
914.68	10744
914.793	10717
914.906	10432
915.019	10500
915.132	10405
915.245	10413
915.358	10474
915.47	10497
915.583	10459
915.696	10596
915.809	10577
915.921	10679
916.034	10519
916.146	10424
916.259	10363
916.371	10527
916.483	10466
916.595	10405
916.708	10405
916.82	10409
916.932	10371
917.044	10344
917.156	10405
917.268	10287
917.38	10310
917.491	10249
917.603	10344
917.715	10367
917.826	10344
917.938	10341
918.049	10219
918.161	10310
918.272	10428
918.384	10512
918.495	10249
918.606	10227
918.717	10074
918.828	10196
918.939	10234
919.05	10135
919.161	10177
919.272	9964
919.383	10040
919.494	10242
919.604	10413
919.715	10303
919.826	10128
919.936	10150
920.047	10314
920.157	10223
920.267	10451
920.378	10265
920.488	10169
920.598	10459
920.708	10447
920.818	10356
920.928	10382
921.038	10558
921.148	10508
921.258	10284
921.368	10154
921.477	10105
921.587	10021
921.697	9964
921.806	10067
921.916	9975
922.025	9774
922.134	9762
922.244	9698
922.353	9785
922.462	9644
922.571	9542
922.68	9439
922.789	9435
922.898	9469
923.007	9408
923.116	9488
923.224	9492
923.333	9450
923.442	9329
923.55	9340
923.659	9393
923.767	9439
923.876	9287
923.984	9386
924.092	9283
924.201	9367
924.309	9233
924.417	9325
924.525	9294
924.633	9260
924.741	10074
924.849	9138
924.956	9313
925.064	9077
925.172	9024
925.279	9108
925.387	9093
925.494	9104
925.602	9233
925.709	9279
925.816	9085
925.924	9119
926.031	9146
926.138	9150
926.245	9192
926.352	9043
926.459	9123
926.566	9237
926.673	9047
926.779	8967
926.886	8986
926.993	8872
927.099	8872
927.206	8788
927.312	8705
927.419	8880
927.525	8842
927.631	8925
927.737	8823
927.843	8670
927.95	8602
928.056	8697
928.162	8735
928.267	8823
928.373	9363
928.479	8781
928.585	8549
928.69	8689
928.796	8716
928.901	8651
929.007	8545
929.112	8659
929.218	8625
929.323	8522
929.428	8571
929.533	8708
929.638	8484
929.743	8530
929.848	8511
929.953	8545
930.058	8465
930.163	8313
930.267	8279
930.372	8495
930.477	8267
930.581	8514
930.685	8431
930.79	8290
930.894	8279
930.998	8233
931.103	8415
931.207	8054
931.311	8008
931.415	7974
931.519	7757
931.623	7723
