Data from test_V78500241_3275.txt Node
Date: Fri Mar 25 14:56:31 CST 2022
User: usil
Spectrometer: V785-0024
Trigger mode: 0
Integration Time (sec): 4.000000E-1
Scans to average: 1
Nonlinearity correction enabled: false
Boxcar width: 0
Storing dark spectrum: false
XAxis mode: Wavelengths
Number of Pixels in Spectrum: 1024
>>>>>Begin Spectral Data<<<<<
801.071	22109
801.214	21968
801.356	21778
801.499	21625
801.641	21439
801.783	21306
801.926	21382
802.068	21260
802.211	21241
802.353	21173
802.496	20933
802.638	20883
802.78	20834
802.923	20785
803.065	20587
803.208	20545
803.35	20796
803.492	20807
803.635	20838
803.777	20701
803.919	20769
804.061	20963
804.204	20678
804.346	20640
804.488	20530
804.63	20781
804.773	20450
804.915	20579
805.057	20701
805.199	20594
805.341	20552
805.483	20708
805.626	20754
805.768	20571
805.91	20602
806.052	20583
806.194	20507
806.336	20617
806.478	20480
806.62	20522
806.762	20682
806.904	20899
807.046	20990
807.188	20857
807.33	20925
807.472	20994
807.614	20842
807.756	20785
807.898	20689
808.04	20617
808.182	20552
808.324	20663
808.465	20727
808.607	20895
808.749	20925
808.891	21055
809.033	21112
809.174	20967
809.316	20788
809.458	20906
809.6	20861
809.741	21051
809.883	20960
810.025	21116
810.166	21093
810.308	21169
810.45	21039
810.591	20998
810.733	20708
810.875	20750
811.016	20560
811.158	20526
811.299	20891
811.441	20838
811.582	20834
811.724	20811
811.865	20579
812.007	20678
812.148	20609
812.29	20655
812.431	20811
812.573	20971
812.714	21077
812.855	21195
812.997	21264
813.138	21367
813.279	21298
813.421	21214
813.562	21119
813.703	21013
813.845	20853
813.986	20686
814.127	20374
814.268	20290
814.41	20237
814.551	20256
814.692	20275
814.833	20225
814.974	20126
815.115	20271
815.256	20180
815.397	20050
815.539	20202
815.68	19833
815.821	19890
815.962	19917
816.103	19879
816.244	19803
816.385	19750
816.526	19662
816.666	19441
816.807	19384
816.948	19480
817.089	19491
817.23	19411
817.371	19392
817.512	19407
817.653	19381
817.793	19244
817.934	19369
818.075	19354
818.216	19335
818.356	19312
818.497	19244
818.638	19069
818.778	19072
818.919	19053
819.06	19133
819.2	19183
819.341	19259
819.481	19244
819.622	19343
819.762	19552
819.903	19518
820.043	19457
820.184	19206
820.324	19289
820.465	19403
820.605	19388
820.746	19331
820.886	19114
821.026	19388
821.167	19324
821.307	19320
821.447	19251
821.588	19228
821.728	19084
821.868	18875
822.008	18700
822.149	18677
822.289	18734
822.429	18620
822.569	18483
822.709	18445
822.849	18178
822.99	18266
823.13	18273
823.27	18057
823.41	18057
823.55	17946
823.69	18159
823.83	18060
823.97	17916
824.11	17745
824.25	17828
824.389	17752
824.529	17851
824.669	17843
824.809	17908
824.949	17889
825.089	17832
825.228	17828
825.368	17699
825.508	17627
825.648	17638
825.787	17699
825.927	17672
826.067	17634
826.206	17543
826.346	17577
826.485	17687
826.625	17573
826.765	17805
826.904	17524
827.044	17303
827.183	17391
827.323	17326
827.462	17478
827.601	17315
827.741	17360
827.88	17372
828.02	17174
828.159	17326
828.298	17311
828.437	17425
828.577	17181
828.716	17486
828.855	17254
828.994	17033
829.134	17147
829.273	17056
829.412	17105
829.551	17071
829.69	17056
829.829	17143
829.968	17151
830.107	17048
830.246	17067
830.385	17022
830.524	17006
830.663	16927
830.802	16812
830.941	16679
831.08	16622
831.219	16736
831.357	16755
831.496	16828
831.635	16702
831.774	16611
831.913	16626
832.051	16428
832.19	16580
832.329	16497
832.467	16561
832.606	16295
832.744	16287
832.883	16485
833.022	16314
833.16	16424
833.299	16519
833.437	16538
833.576	16466
833.714	16554
833.852	16531
833.991	16561
834.129	16542
834.267	16436
834.406	16432
834.544	16519
834.682	16440
834.821	16451
834.959	16653
835.097	16398
835.235	16459
835.373	16519
835.511	16523
835.65	16424
835.788	16386
835.926	16181
836.064	16223
836.202	16230
836.34	16455
836.478	16478
836.615	16424
836.753	16318
836.891	16432
837.029	16390
837.167	16344
837.305	16246
837.443	16188
837.58	16211
837.718	16341
837.856	16268
837.993	16143
838.131	16226
838.269	16131
838.406	16181
838.544	16090
838.681	15949
838.819	15964
838.956	15842
839.094	15690
839.231	15888
839.369	15846
839.506	16249
839.643	16093
839.781	15884
839.918	15724
840.055	15762
840.193	15720
840.33	15717
840.467	15888
840.604	15759
840.742	16002
840.879	15637
841.016	15705
841.153	15675
841.29	15838
841.427	15812
841.564	15823
841.701	15846
841.838	15751
841.975	15781
842.112	15682
842.249	15625
842.385	15675
842.522	15797
842.659	15568
842.796	15576
842.933	15648
843.069	15500
843.206	15488
843.343	15671
843.479	15549
843.616	15679
843.752	15462
843.889	15344
844.025	15492
844.162	15367
844.298	15481
844.435	15336
844.571	15431
844.708	15443
844.844	15511
844.98	15591
845.117	15530
845.253	15279
845.389	15355
845.525	15264
845.661	15222
845.798	15325
845.934	15222
846.07	15192
846.206	15249
846.342	15325
846.478	15169
846.614	14986
846.75	14861
846.886	15032
847.022	15058
847.158	14895
847.294	14819
847.429	14982
847.565	14868
847.701	15207
847.837	14705
847.972	14655
848.108	14762
848.244	14769
848.379	14530
848.515	14587
848.65	14522
848.786	14545
848.921	14625
849.057	14659
849.192	14598
849.328	14590
849.463	14579
849.598	14514
849.734	14511
849.869	14317
850.004	14309
850.14	14320
850.275	14366
850.41	14210
850.545	14263
850.68	14225
850.815	14370
850.95	14309
851.085	14579
851.22	14469
851.355	14320
851.49	14370
851.625	14202
851.76	14358
851.895	14210
852.03	14191
852.165	14267
852.299	14324
852.434	14431
852.569	14286
852.703	14305
852.838	14366
852.973	14454
853.107	14404
853.242	14263
853.376	14202
853.511	14043
853.645	14138
853.78	14259
853.914	14134
854.048	14199
854.183	14199
854.317	14210
854.451	14343
854.585	14187
854.72	14100
854.854	14164
854.988	14065
855.122	14149
855.256	14058
855.39	14183
855.524	14290
855.658	14214
855.792	14263
855.926	14301
856.06	14259
856.194	14313
856.327	14115
856.461	14168
856.595	14172
856.729	14054
856.862	14256
856.996	14172
857.13	14195
857.263	14229
857.397	14309
857.53	14210
857.664	14256
857.797	14298
857.931	14248
858.064	14149
858.197	14164
858.331	14214
858.464	14081
858.597	14046
858.731	14195
858.864	14286
858.997	14142
859.13	14259
859.263	14244
859.396	14263
859.529	14161
859.662	14157
859.795	14031
859.928	14214
860.061	14355
860.194	14278
860.327	14221
860.46	14161
860.592	14248
860.725	14320
860.858	14229
860.99	14092
861.123	14123
861.256	14035
861.388	14237
861.521	15005
861.653	14046
861.786	13989
861.918	14020
862.05	14058
862.183	14100
862.315	14138
862.447	14119
862.58	14119
862.712	13879
862.844	13883
862.976	13978
863.108	13967
863.24	14320
863.372	13811
863.504	13925
863.636	13898
863.768	14039
863.9	13947
864.032	13982
864.164	13909
864.296	13959
864.428	14084
864.559	14119
864.691	14008
864.823	13997
864.954	14001
865.086	14024
865.217	13940
865.349	13822
865.48	13944
865.612	13955
865.743	14176
865.875	13932
866.006	13887
866.137	13986
866.269	13963
866.4	13921
866.531	13898
866.662	13830
866.793	13887
866.924	13860
867.055	14016
867.186	13951
867.317	13879
867.448	13917
867.579	13814
867.71	13928
867.841	13830
867.972	13944
868.103	13944
868.233	13940
868.364	14027
868.495	14039
868.625	14221
868.756	14252
868.886	14153
869.017	14195
869.147	14324
869.278	14225
869.408	14240
869.539	14256
869.669	14187
869.799	14301
869.929	14301
870.06	14351
870.19	14610
870.32	14636
870.45	14632
870.58	14556
870.71	14606
870.84	14689
870.97	14552
871.1	14575
871.23	14739
871.36	14727
871.489	14758
871.619	14739
871.749	14788
871.879	14758
872.008	14921
872.138	14796
872.267	14663
872.397	14701
872.526	14625
872.656	14590
872.785	14518
872.915	14883
873.044	14963
873.173	14765
873.303	14807
873.432	14925
873.561	14845
873.69	14853
873.819	14842
873.948	14933
874.077	14830
874.206	14804
874.335	14857
874.464	14986
874.593	15161
874.722	15013
874.851	15142
874.979	15222
875.108	15180
875.237	15093
875.365	15039
875.494	15005
875.623	15260
875.751	15161
875.88	15135
876.008	15283
876.136	15386
876.265	15542
876.393	15701
876.521	15705
876.65	15557
876.778	15580
876.906	15507
877.034	15614
877.162	15545
877.29	15504
877.418	15572
877.546	15557
877.674	15637
877.802	15599
877.93	15564
878.058	15561
878.185	15447
878.313	15485
878.441	15523
878.568	15530
878.696	15523
878.824	15614
878.951	15747
879.079	15823
879.206	15835
879.333	15717
879.461	15519
879.588	15755
879.715	15785
879.842	15816
879.97	15595
880.097	15530
880.224	15393
880.351	15458
880.478	15481
880.605	15416
880.732	15443
880.859	15576
880.986	15435
881.112	15534
881.239	15344
881.366	15169
881.493	15085
881.619	14956
881.746	15108
881.872	15150
881.999	15142
882.125	15093
882.252	15138
882.378	15089
882.505	15241
882.631	15058
882.757	14872
882.883	14975
883.01	14880
883.136	14857
883.262	14731
883.388	14792
883.514	14944
883.64	14937
883.766	14849
883.892	14712
884.018	14743
884.143	14773
884.269	14925
884.395	14667
884.52	14587
884.646	14602
884.772	14602
884.897	14511
885.023	14579
885.148	14670
885.274	14804
885.399	14689
885.524	14560
885.65	14579
885.775	14564
885.9	14644
886.025	14800
886.15	14667
886.275	14514
886.4	14454
886.525	14648
886.65	14495
886.775	14590
886.9	14773
887.025	14872
887.149	14594
887.274	14499
887.399	14454
887.523	14358
887.648	14244
887.773	14290
887.897	14461
888.021	14442
888.146	14294
888.27	14632
888.395	14594
888.519	14507
888.643	14522
888.767	14488
888.891	14446
889.015	14396
889.139	14343
889.263	14286
889.387	14415
889.511	14495
889.635	14473
889.759	14309
889.883	14294
890.006	14320
890.13	14362
890.254	14252
890.377	14267
890.501	14115
890.624	14142
890.748	14145
890.871	14164
890.995	13932
891.118	13852
891.241	14039
891.364	14069
891.488	14107
891.611	14069
891.734	13993
891.857	14046
891.98	14031
892.103	14195
892.226	14100
892.349	14001
892.471	13936
892.594	14020
892.717	14001
892.839	13951
892.962	14024
893.085	14001
893.207	14069
893.33	13868
893.452	13925
893.575	14088
893.697	13967
893.819	14138
893.941	14229
894.064	14157
894.186	14008
894.308	13879
894.43	14058
894.552	14191
894.674	14050
894.796	13997
894.918	14005
895.04	14088
895.161	14111
895.283	14134
895.405	14100
895.526	14138
895.648	14119
895.769	14084
895.891	14142
896.012	14248
896.134	14202
896.255	14206
896.376	14100
896.498	14240
896.619	14256
896.74	14218
896.861	14240
896.982	14533
897.103	14564
897.224	14488
897.345	14434
897.466	14286
897.587	14438
897.708	14594
897.828	14454
897.949	14408
898.07	14419
898.19	14400
898.311	14571
898.431	14541
898.552	14552
898.672	14587
898.792	14689
898.913	14564
899.033	14476
899.153	14362
899.273	14278
899.393	14442
899.513	14400
899.633	14374
899.753	14450
899.873	14248
899.993	14438
900.113	14370
900.232	14419
900.352	14412
900.472	14271
900.591	14221
900.711	14351
900.83	14252
900.95	14370
901.069	14427
901.189	14142
901.308	13932
901.427	13864
901.546	13921
901.665	13947
901.784	13982
901.904	13860
902.023	13727
902.141	13533
902.26	13525
902.379	13613
902.498	13453
902.617	13434
902.735	13518
902.854	13521
902.973	13388
903.091	13152
903.21	13244
903.328	13168
903.446	13145
903.565	13061
903.683	13061
903.801	12943
903.919	13141
904.038	13088
904.156	12840
904.274	12924
904.392	12856
904.51	12814
904.627	12837
904.745	12928
904.863	12977
904.981	12677
905.098	12593
905.216	12555
905.334	12631
905.451	12551
905.569	12570
905.686	12642
905.803	12601
905.921	12422
906.038	12513
906.155	12460
906.272	12262
906.389	12361
906.506	12091
906.623	12289
906.74	12106
906.857	11958
906.974	12007
907.091	12129
907.208	12342
907.324	12209
907.441	12087
907.557	11874
907.674	12022
907.79	11870
907.907	11882
908.023	11954
908.139	11946
908.256	11920
908.372	11821
908.488	11897
908.604	11714
908.72	11707
908.836	11691
908.952	11653
909.068	11718
909.184	11752
909.3	11699
909.415	11771
909.531	11688
909.647	11497
909.762	11425
909.878	11383
909.993	11493
910.108	11417
910.224	11417
910.339	11482
910.454	11433
910.57	11368
910.685	11288
910.8	11467
910.915	11474
911.03	11425
911.145	11181
911.259	11067
911.374	11197
911.489	10991
911.604	10961
911.718	10896
911.833	10961
911.947	10828
912.062	10725
912.176	10866
912.291	10904
912.405	10961
912.519	11064
912.633	11090
912.748	10991
912.862	10915
912.976	10839
913.09	10653
913.204	10752
913.318	10767
913.431	10801
913.545	10847
913.659	10949
913.772	10816
913.886	10607
914	10687
914.113	10824
914.226	10771
914.34	10755
914.453	10622
914.566	10755
914.68	10660
914.793	10554
914.906	10398
915.019	10409
915.132	10390
915.245	10443
915.358	10367
915.47	10428
915.583	10382
915.696	10436
915.809	10523
915.921	10618
916.034	10413
916.146	10318
916.259	10303
916.371	10409
916.483	10443
916.595	10276
916.708	10390
916.82	10272
916.932	10356
917.044	10333
917.156	10299
917.268	10242
917.38	10272
917.491	10246
917.603	10284
917.715	10409
917.826	10291
917.938	10276
918.049	10158
918.161	10249
918.272	10379
918.384	10466
918.495	10291
918.606	10128
918.717	10097
918.828	10177
918.939	10173
919.05	10048
919.161	10093
919.272	9998
919.383	9964
919.494	10154
919.604	10234
919.715	10090
919.826	10071
919.936	10082
920.047	10306
920.157	10188
920.267	10386
920.378	10158
920.488	10124
920.598	10371
920.708	10462
920.818	10382
920.928	10325
921.038	10516
921.148	10478
921.258	10200
921.368	10074
921.477	10013
921.587	9930
921.697	9915
921.806	10055
921.916	9778
922.025	9690
922.134	9705
922.244	9603
922.353	9747
922.462	9595
922.571	9568
922.68	9450
922.789	9374
922.898	9450
923.007	9321
923.116	9492
923.224	9378
923.333	9393
923.442	9222
923.55	9302
923.659	9211
923.767	9393
923.876	9264
923.984	9367
924.092	9173
924.201	9275
924.309	9302
924.417	9302
924.525	9218
924.633	9226
924.741	10207
924.849	9051
924.956	9123
925.064	9135
925.172	8963
925.279	8986
925.387	9058
925.494	9077
925.602	9211
925.709	9173
925.816	8963
925.924	9112
926.031	9173
926.138	9013
926.245	9081
926.352	9001
926.459	9135
926.566	9116
926.673	9036
926.779	8823
926.886	8918
926.993	8838
927.099	8754
927.206	8724
927.312	8724
927.419	8849
927.525	8826
927.631	8830
927.737	8758
927.843	8754
927.95	8526
928.056	8632
928.162	8670
928.267	8701
928.373	9188
928.479	8781
928.585	8552
928.69	8663
928.796	8667
928.901	8571
929.007	8461
929.112	8621
929.218	8606
929.323	8499
929.428	8488
929.533	8674
929.638	8450
929.743	8396
929.848	8518
929.953	8480
930.058	8457
930.163	8259
930.267	8221
930.372	8438
930.477	8320
930.581	8374
930.685	8324
930.79	8183
930.894	8267
930.998	8225
931.103	8374
931.207	7997
931.311	7932
931.415	7894
931.519	7830
931.623	7658
