Data from test_V78500241_2598.txt Node
Date: Fri Mar 25 14:51:48 CST 2022
User: usil
Spectrometer: V785-0024
Trigger mode: 0
Integration Time (sec): 4.000000E-1
Scans to average: 1
Nonlinearity correction enabled: false
Boxcar width: 0
Storing dark spectrum: false
XAxis mode: Wavelengths
Number of Pixels in Spectrum: 1024
>>>>>Begin Spectral Data<<<<<
801.071	22162
801.214	21922
801.356	21675
801.499	21553
801.641	21424
801.783	21458
801.926	21389
802.068	21348
802.211	21298
802.353	21275
802.496	20963
802.638	20834
802.78	20781
802.923	20762
803.065	20769
803.208	20659
803.35	20701
803.492	20918
803.635	20800
803.777	20655
803.919	20921
804.061	21020
804.204	20777
804.346	20648
804.488	20560
804.63	20644
804.773	20602
804.915	20682
805.057	20579
805.199	20632
805.341	20587
805.483	20674
805.626	20663
805.768	20632
805.91	20575
806.052	20575
806.194	20381
806.336	20731
806.478	20655
806.62	20499
806.762	20644
806.904	20834
807.046	21024
807.188	21009
807.33	20994
807.472	20994
807.614	20864
807.756	20788
807.898	20720
808.04	20678
808.182	20769
808.324	20720
808.465	20819
808.607	20925
808.749	21062
808.891	21127
809.033	21222
809.174	21081
809.316	21013
809.458	21058
809.6	21051
809.741	21127
809.883	21047
810.025	21108
810.166	21222
810.308	21096
810.45	21001
810.591	20895
810.733	20819
810.875	20785
811.016	20720
811.158	20724
811.299	20941
811.441	21024
811.582	20845
811.724	20678
811.865	20788
812.007	20731
812.148	20693
812.29	20739
812.431	20967
812.573	21039
812.714	21135
812.855	21237
812.997	21340
813.138	21439
813.279	21359
813.421	21173
813.562	21199
813.703	21123
813.845	20929
813.986	20686
814.127	20476
814.268	20454
814.41	20374
814.551	20400
814.692	20438
814.833	20221
814.974	20313
815.115	20332
815.256	20271
815.397	20153
815.539	20172
815.68	20149
815.821	19906
815.962	20062
816.103	20081
816.244	19807
816.385	19753
816.526	19795
816.666	19609
816.807	19472
816.948	19559
817.089	19620
817.23	19544
817.371	19419
817.512	19384
817.653	19495
817.793	19468
817.934	19373
818.075	19415
818.216	19510
818.356	19384
818.497	19354
818.638	19255
818.778	19225
818.919	19160
819.06	19171
819.2	19270
819.341	19297
819.481	19422
819.622	19430
819.762	19700
819.903	19639
820.043	19601
820.184	19343
820.324	19483
820.465	19449
820.605	19324
820.746	19403
820.886	19324
821.026	19369
821.167	19324
821.307	19327
821.447	19331
821.588	19259
821.728	19122
821.868	18943
822.008	18852
822.149	18859
822.289	18894
822.429	18521
822.569	18513
822.709	18498
822.849	18380
822.99	18395
823.13	18190
823.27	18323
823.41	18102
823.55	18114
823.69	18182
823.83	18053
823.97	18022
824.11	17977
824.25	17870
824.389	17961
824.529	17950
824.669	17882
824.809	18079
824.949	18026
825.089	17912
825.228	17961
825.368	17775
825.508	17764
825.648	17798
825.787	17687
825.927	17824
826.067	17524
826.206	17661
826.346	17680
826.485	17752
826.625	17676
826.765	17722
826.904	17726
827.044	17558
827.183	17440
827.323	17356
827.462	17490
827.601	17353
827.741	17372
827.88	17402
828.02	17254
828.159	17433
828.298	17402
828.437	17589
828.577	17364
828.716	17463
828.855	17265
828.994	17155
829.134	17174
829.273	17227
829.412	17170
829.551	17090
829.69	17025
829.829	17227
829.968	17197
830.107	17197
830.246	17147
830.385	17193
830.524	17136
830.663	17060
830.802	16843
830.941	16820
831.08	16774
831.219	16771
831.357	16824
831.496	16881
831.635	16683
831.774	16626
831.913	16744
832.051	16580
832.19	16527
832.329	16691
832.467	16542
832.606	16390
832.744	16474
832.883	16519
833.022	16512
833.16	16436
833.299	16508
833.437	16485
833.576	16470
833.714	16561
833.852	16607
833.991	16451
834.129	16558
834.267	16607
834.406	16493
834.544	16580
834.682	16550
834.821	16512
834.959	16607
835.097	16531
835.235	16607
835.373	16531
835.511	16577
835.65	16386
835.788	16455
835.926	16204
836.064	16188
836.202	16310
836.34	16474
836.478	16523
836.615	16481
836.753	16413
836.891	16459
837.029	16428
837.167	16470
837.305	16337
837.443	16280
837.58	16215
837.718	16466
837.856	16367
837.993	16223
838.131	16344
838.269	16226
838.406	16268
838.544	16215
838.681	15960
838.819	15964
838.956	15884
839.094	15899
839.231	15789
839.369	15915
839.506	16242
839.643	16135
839.781	15884
839.918	15759
840.055	15861
840.193	15873
840.33	15880
840.467	15808
840.604	15964
840.742	16116
840.879	15686
841.016	15774
841.153	15778
841.29	15956
841.427	15854
841.564	15880
841.701	15854
841.838	15793
841.975	15778
842.112	15812
842.249	15618
842.385	15660
842.522	15797
842.659	15667
842.796	15648
842.933	15625
843.069	15610
843.206	15587
843.343	15641
843.479	15644
843.616	15622
843.752	15500
843.889	15298
844.025	15625
844.162	15488
844.298	15606
844.435	15408
844.571	15454
844.708	15431
844.844	15637
844.98	15511
845.117	15549
845.253	15317
845.389	15218
845.525	15275
845.661	15294
845.798	15119
845.934	15386
846.07	15116
846.206	15408
846.342	15363
846.478	15348
846.614	15020
846.75	14842
846.886	14967
847.022	15039
847.158	15013
847.294	15020
847.429	15100
847.565	14986
847.701	15218
847.837	14804
847.972	14629
848.108	14758
848.244	14746
848.379	14629
848.515	14636
848.65	14507
848.786	14545
848.921	14659
849.057	14682
849.192	14735
849.328	14659
849.463	14667
849.598	14568
849.734	14571
849.869	14438
850.004	14317
850.14	14404
850.275	14324
850.41	14305
850.545	14237
850.68	14370
850.815	14408
850.95	14309
851.085	14610
851.22	14465
851.355	14343
851.49	14309
851.625	14362
851.76	14343
851.895	14309
852.03	14305
852.165	14347
852.299	14362
852.434	14476
852.569	14347
852.703	14259
852.838	14438
852.973	14476
853.107	14511
853.242	14294
853.376	14313
853.511	14153
853.645	14187
853.78	14320
853.914	14248
854.048	14123
854.183	14191
854.317	14252
854.451	14396
854.585	14237
854.72	14187
854.854	14252
854.988	14153
855.122	14233
855.256	14096
855.39	14309
855.524	14301
855.658	14313
855.792	14317
855.926	14336
856.06	14332
856.194	14282
856.327	14328
856.461	14164
856.595	14107
856.729	14168
856.862	14385
856.996	14263
857.13	14278
857.263	14400
857.397	14324
857.53	14286
857.664	14431
857.797	14366
857.931	14396
858.064	14256
858.197	14347
858.331	14305
858.464	14225
858.597	14244
858.731	14195
858.864	14248
858.997	14229
859.13	14191
859.263	14252
859.396	14343
859.529	14252
859.662	14153
859.795	14126
859.928	14195
860.061	14438
860.194	14495
860.327	14290
860.46	14271
860.592	14351
860.725	14370
860.858	14324
860.99	14256
861.123	14069
861.256	14134
861.388	14263
861.521	14769
861.653	14138
861.786	14142
861.918	14103
862.05	14172
862.183	14218
862.315	14206
862.447	14278
862.58	14164
862.712	13997
862.844	13955
862.976	14107
863.108	14039
863.24	14415
863.372	13951
863.504	14046
863.636	14024
863.768	14058
863.9	13970
864.032	13970
864.164	13978
864.296	14043
864.428	14111
864.559	14069
864.691	14050
864.823	14119
864.954	14058
865.086	13974
865.217	13974
865.349	13978
865.48	14031
865.612	14050
865.743	14111
865.875	14008
866.006	13978
866.137	14020
866.269	13921
866.4	13993
866.531	13970
866.662	13890
866.793	13951
866.924	13921
867.055	14008
867.186	13932
867.317	13989
867.448	13894
867.579	13849
867.71	13902
867.841	13928
867.972	14062
868.103	13963
868.233	13959
868.364	14001
868.495	14043
868.625	14191
868.756	14351
868.886	14149
869.017	14180
869.147	14355
869.278	14434
869.408	14275
869.539	14199
869.669	14305
869.799	14393
869.929	14328
870.06	14328
870.19	14579
870.32	14522
870.45	14541
870.58	14648
870.71	14701
870.84	14743
870.97	14708
871.1	14579
871.23	14887
871.36	14845
871.489	14807
871.619	14868
871.749	14861
871.879	14880
872.008	14994
872.138	14895
872.267	14792
872.397	14724
872.526	14670
872.656	14632
872.785	14785
872.915	14830
873.044	14952
873.173	14834
873.303	15017
873.432	14960
873.561	14937
873.69	14967
873.819	14895
873.948	14963
874.077	14796
874.206	14830
874.335	14933
874.464	14990
874.593	15169
874.722	15165
874.851	15214
874.979	15275
875.108	15112
875.237	15192
875.365	15157
875.494	15051
875.623	15287
875.751	15214
875.88	15142
876.008	15348
876.136	15424
876.265	15694
876.393	15819
876.521	15660
876.65	15648
876.778	15720
876.906	15591
877.034	15660
877.162	15584
877.29	15572
877.418	15610
877.546	15641
877.674	15610
877.802	15652
877.93	15648
878.058	15641
878.185	15485
878.313	15648
878.441	15557
878.568	15469
878.696	15576
878.824	15656
878.951	15732
879.079	15812
879.206	15903
879.333	15690
879.461	15724
879.588	15698
879.715	15876
879.842	15918
879.97	15675
880.097	15447
880.224	15485
880.351	15454
880.478	15526
880.605	15488
880.732	15389
880.859	15686
880.986	15526
881.112	15473
881.239	15367
881.366	15161
881.493	15256
881.619	15138
881.746	15131
881.872	15062
881.999	15066
882.125	15077
882.252	15108
882.378	15142
882.505	15272
882.631	15081
882.757	14925
882.883	15009
883.01	14952
883.136	14880
883.262	14785
883.388	14891
883.514	14941
883.64	15020
883.766	14910
883.892	14785
884.018	14807
884.143	14929
884.269	14956
884.395	14762
884.52	14678
884.646	14758
884.772	14571
884.897	14621
885.023	14644
885.148	14849
885.274	14849
885.399	14739
885.524	14697
885.65	14746
885.775	14712
885.9	14507
886.025	14762
886.15	14727
886.275	14731
886.4	14556
886.525	14629
886.65	14541
886.775	14541
886.9	14826
887.025	14804
887.149	14674
887.274	14503
887.399	14480
887.523	14438
887.648	14389
887.773	14450
887.897	14560
888.021	14575
888.146	14415
888.27	14590
888.395	14674
888.519	14495
888.643	14625
888.767	14575
888.891	14514
889.015	14385
889.139	14442
889.263	14374
889.387	14412
889.511	14632
889.635	14492
889.759	14286
889.883	14339
890.006	14438
890.13	14469
890.254	14309
890.377	14385
890.501	14168
890.624	14153
890.748	14161
890.871	14092
890.995	13986
891.118	13986
891.241	13944
891.364	13997
891.488	14244
891.611	14027
891.734	13963
891.857	14172
891.98	14081
892.103	14077
892.226	14100
892.349	14065
892.471	13822
892.594	14016
892.717	14039
892.839	14039
892.962	14065
893.085	14081
893.207	14092
893.33	13986
893.452	13967
893.575	14115
893.697	14065
893.819	14229
893.941	14347
894.064	14229
894.186	14103
894.308	13928
894.43	14202
894.552	14275
894.674	14248
894.796	14016
894.918	14138
895.04	14119
895.161	14164
895.283	14271
895.405	14035
895.526	14088
895.648	14244
895.769	14138
895.891	14278
896.012	14252
896.134	14271
896.255	14206
896.376	14225
896.498	14176
896.619	14221
896.74	14199
896.861	14229
896.982	14590
897.103	14678
897.224	14492
897.345	14419
897.466	14484
897.587	14564
897.708	14533
897.828	14575
897.949	14461
898.07	14419
898.19	14404
898.311	14644
898.431	14560
898.552	14522
898.672	14689
898.792	14636
898.913	14689
899.033	14549
899.153	14450
899.273	14404
899.393	14423
899.513	14495
899.633	14431
899.753	14476
899.873	14408
899.993	14389
900.113	14381
900.232	14362
900.352	14400
900.472	14328
900.591	14336
900.711	14320
900.83	14256
900.95	14336
901.069	14381
901.189	14286
901.308	14084
901.427	13837
901.546	13967
901.665	14043
901.784	13947
901.904	13875
902.023	13719
902.141	13563
902.26	13544
902.379	13529
902.498	13449
902.617	13476
902.735	13502
902.854	13502
902.973	13468
903.091	13236
903.21	13247
903.328	13381
903.446	13221
903.565	13091
903.683	13255
903.801	13019
903.919	13114
904.038	13004
904.156	12875
904.274	12973
904.392	12928
904.51	12905
904.627	12943
904.745	12901
904.863	12973
904.981	12677
905.098	12654
905.216	12665
905.334	12738
905.451	12559
905.569	12601
905.686	12662
905.803	12665
905.921	12448
906.038	12593
906.155	12445
906.272	12365
906.389	12361
906.506	12205
906.623	12171
906.74	12167
906.857	12068
906.974	12095
907.091	12270
907.208	12384
907.324	12270
907.441	12125
907.557	12026
907.674	12030
907.79	11893
907.907	11920
908.023	11965
908.139	11977
908.256	11840
908.372	11878
908.488	11901
908.604	11786
908.72	11726
908.836	11695
908.952	11684
909.068	11691
909.184	11851
909.3	11748
909.415	11874
909.531	11775
909.647	11570
909.762	11505
909.878	11440
909.993	11501
910.108	11490
910.224	11467
910.339	11524
910.454	11349
910.57	11265
910.685	11330
910.8	11604
910.915	11417
911.03	11364
911.145	11261
911.259	11143
911.374	11147
911.489	11105
911.604	11064
911.718	10900
911.833	10949
911.947	10873
912.062	10725
912.176	10927
912.291	10881
912.405	10866
912.519	11098
912.633	11140
912.748	11037
912.862	10957
912.976	10801
913.09	10725
913.204	10729
913.318	10801
913.431	10923
913.545	10869
913.659	10949
913.772	10786
913.886	10740
914	10759
914.113	10748
914.226	10824
914.34	10702
914.453	10584
914.566	10793
914.68	10592
914.793	10656
914.906	10504
915.019	10462
915.132	10390
915.245	10413
915.358	10421
915.47	10390
915.583	10462
915.696	10542
915.809	10603
915.921	10641
916.034	10390
916.146	10394
916.259	10306
916.371	10527
916.483	10466
916.595	10341
916.708	10440
916.82	10367
916.932	10386
917.044	10280
917.156	10386
917.268	10291
917.38	10333
917.491	10272
917.603	10337
917.715	10402
917.826	10394
917.938	10276
918.049	10173
918.161	10291
918.272	10421
918.384	10424
918.495	10363
918.606	10158
918.717	10128
918.828	10207
918.939	10188
919.05	10074
919.161	10147
919.272	9964
919.383	9998
919.494	10177
919.604	10466
919.715	10238
919.826	10128
919.936	10109
920.047	10253
920.157	10337
920.267	10409
920.378	10188
920.488	10131
920.598	10363
920.708	10485
920.818	10409
920.928	10409
921.038	10649
921.148	10470
921.258	10093
921.368	10234
921.477	10097
921.587	10044
921.697	9956
921.806	10067
921.916	9949
922.025	9781
922.134	9709
922.244	9808
922.353	9892
922.462	9656
922.571	9644
922.68	9485
922.789	9363
922.898	9526
923.007	9367
923.116	9466
923.224	9382
923.333	9370
923.442	9313
923.55	9340
923.659	9370
923.767	9428
923.876	9306
923.984	9359
924.092	9256
924.201	9344
924.309	9287
924.417	9287
924.525	9241
924.633	9321
924.741	10120
924.849	9043
924.956	9249
925.064	9119
925.172	9062
925.279	9013
925.387	9081
925.494	9089
925.602	9275
925.709	9237
925.816	8986
925.924	9055
926.031	9211
926.138	9116
926.245	9138
926.352	9028
926.459	9119
926.566	9203
926.673	9104
926.779	9009
926.886	8899
926.993	8826
927.099	8861
927.206	8720
927.312	8773
927.419	8906
927.525	8781
927.631	8925
927.737	8746
927.843	8682
927.95	8606
928.056	8667
928.162	8746
928.267	8758
928.373	9382
928.479	8819
928.585	8587
928.69	8651
928.796	8758
928.901	8667
929.007	8499
929.112	8602
929.218	8587
929.323	8625
929.428	8514
929.533	8613
929.638	8518
929.743	8473
929.848	8606
929.953	8571
930.058	8438
930.163	8294
930.267	8309
930.372	8381
930.477	8206
930.581	8434
930.685	8442
930.79	8218
930.894	8305
930.998	8240
931.103	8317
931.207	8020
931.311	7967
931.415	7913
931.519	7776
931.623	7738
