Data from test_V78500241_806.txt Node
Date: Fri Mar 25 14:39:19 CST 2022
User: usil
Spectrometer: V785-0024
Trigger mode: 0
Integration Time (sec): 4.000000E-1
Scans to average: 1
Nonlinearity correction enabled: false
Boxcar width: 0
Storing dark spectrum: false
XAxis mode: Wavelengths
Number of Pixels in Spectrum: 1024
>>>>>Begin Spectral Data<<<<<
801.071	26328
801.214	26271
801.356	26138
801.499	25993
801.641	25856
801.783	25803
801.926	25609
802.068	25613
802.211	25533
802.353	25499
802.496	25274
802.638	25350
802.78	25198
802.923	25095
803.065	25179
803.208	25126
803.35	25206
803.492	25350
803.635	25388
803.777	25217
803.919	25449
804.061	25704
804.204	25472
804.346	25472
804.488	25301
804.63	25449
804.773	25362
804.915	25479
805.057	25738
805.199	25540
805.341	25757
805.483	25696
805.626	25864
805.768	25693
805.91	25963
806.052	26001
806.194	26130
806.336	26393
806.478	26328
806.62	26480
806.762	26697
806.904	27066
807.046	27526
807.188	27751
807.33	28226
807.472	28481
807.614	29044
807.756	29912
807.898	30616
808.04	31708
808.182	33283
808.324	35345
808.465	37559
808.607	40051
808.749	42467
808.891	43852
809.033	44050
809.174	42517
809.316	40306
809.458	37731
809.6	35185
809.741	32906
809.883	31343
810.025	30289
810.166	29474
810.308	28771
810.45	28268
810.591	27812
810.733	27386
810.875	27131
811.016	26629
811.158	26678
811.299	26556
811.441	26522
811.582	26450
811.724	26149
811.865	26115
812.007	26005
812.148	25940
812.29	25963
812.431	26058
812.573	26176
812.714	26206
812.855	26225
812.997	26263
813.138	26434
813.279	26191
813.421	26149
813.562	26001
813.703	25807
813.845	25742
813.986	25354
814.127	25247
814.268	25034
814.41	25061
814.551	25031
814.692	25072
814.833	24837
814.974	24829
815.115	24863
815.256	24692
815.397	24703
815.539	24719
815.68	24673
815.821	24517
815.962	24669
816.103	24513
816.244	24426
816.385	24254
816.526	24182
816.666	24159
816.807	23946
816.948	24011
817.089	23882
817.23	23821
817.371	23927
817.512	23752
817.653	23722
817.793	23695
817.934	23802
818.075	23935
818.216	23771
818.356	23745
818.497	23691
818.638	23429
818.778	23471
818.919	23471
819.06	23467
819.2	23623
819.341	23646
819.481	23687
819.622	23718
819.762	24011
819.903	23942
820.043	23824
820.184	23699
820.324	23824
820.465	23855
820.605	23623
820.746	23623
820.886	23516
821.026	23524
821.167	23577
821.307	23589
821.447	23478
821.588	23330
821.728	23334
821.868	23086
822.008	22942
822.149	22843
822.289	22961
822.429	22592
822.569	22584
822.709	22656
822.849	22363
822.99	22402
823.13	22303
823.27	22394
823.41	22318
823.55	22109
823.69	22143
823.83	22215
823.97	22204
824.11	21949
824.25	21949
824.389	21922
824.529	22044
824.669	22013
824.809	22055
824.949	22169
825.089	22006
825.228	21994
825.368	21660
825.508	21690
825.648	21876
825.787	21663
825.927	21861
826.067	21648
826.206	21660
826.346	21800
826.485	21797
826.625	21656
826.765	21736
826.904	21701
827.044	21481
827.183	21542
827.323	21359
827.462	21435
827.601	21329
827.741	21466
827.88	21435
828.02	21241
828.159	21393
828.298	21473
828.437	21397
828.577	21302
828.716	21389
828.855	21214
828.994	21154
829.134	21066
829.273	21104
829.412	21017
829.551	20895
829.69	21112
829.829	21123
829.968	21161
830.107	21005
830.246	21001
830.385	20975
830.524	21001
830.663	20815
830.802	20823
830.941	20640
831.08	20663
831.219	20720
831.357	20739
831.496	20861
831.635	20587
831.774	20575
831.913	20648
832.051	20492
832.19	20522
832.329	20549
832.467	20454
832.606	20419
832.744	20511
832.883	20514
833.022	20598
833.16	20583
833.299	20777
833.437	20925
833.576	20937
833.714	21032
833.852	21226
833.991	21199
834.129	21359
834.267	21367
834.406	21302
834.544	21192
834.682	21199
834.821	21108
834.959	21184
835.097	20902
835.235	20823
835.373	20659
835.511	20674
835.65	20583
835.788	20507
835.926	20305
836.064	20180
836.202	20183
836.34	20290
836.478	20423
836.615	20298
836.753	20168
836.891	20259
837.029	20206
837.167	20145
837.305	20092
837.443	20016
837.58	20005
837.718	20164
837.856	20084
837.993	19986
838.131	19959
838.269	19913
838.406	19906
838.544	19814
838.681	19590
838.819	19594
838.956	19403
839.094	19460
839.231	19518
839.369	19620
839.506	19894
839.643	19674
839.781	19525
839.918	19407
840.055	19537
840.193	19293
840.33	19308
840.467	19343
840.604	19324
840.742	19731
840.879	19388
841.016	19388
841.153	19419
841.29	19434
841.427	19362
841.564	19457
841.701	19525
841.838	19373
841.975	19369
842.112	19453
842.249	19228
842.385	19164
842.522	19480
842.659	19384
842.796	19232
842.933	19228
843.069	19152
843.206	19255
843.343	19335
843.479	19388
843.616	19369
843.752	19171
843.889	19228
844.025	19430
844.162	19232
844.298	19472
844.435	19620
844.571	19578
844.708	19894
844.844	20282
844.98	20541
845.117	20963
845.253	21774
845.389	23048
845.525	25784
845.661	30136
845.798	35375
845.934	39405
846.07	41067
846.206	40059
846.342	36608
846.478	31358
846.614	26678
846.75	23672
846.886	21987
847.022	20876
847.158	19955
847.294	19624
847.429	19232
847.565	19148
847.701	19316
847.837	18814
847.972	18574
848.108	18669
848.244	18612
848.379	18426
848.515	18292
848.65	18327
848.786	18254
848.921	18289
849.057	18342
849.192	18292
849.328	18224
849.463	18220
849.598	18171
849.734	17973
849.869	18098
850.004	17882
850.14	17980
850.275	17779
850.41	17893
850.545	17828
850.68	17878
850.815	17863
850.95	17885
851.085	18064
851.22	17969
851.355	17828
851.49	17889
851.625	17874
851.76	17942
851.895	17779
852.03	17741
852.165	17904
852.299	17992
852.434	18064
852.569	18057
852.703	17893
852.838	18026
852.973	18064
853.107	18072
853.242	17935
853.376	17870
853.511	17695
853.645	17885
853.78	18178
853.914	18110
854.048	17946
854.183	18022
854.317	18068
854.451	18296
854.585	18057
854.72	18011
854.854	18007
854.988	17882
855.122	17901
855.256	17760
855.39	17847
855.524	17859
855.658	17931
855.792	17824
855.926	17840
856.06	17790
856.194	17927
856.327	17779
856.461	17615
856.595	17687
856.729	17707
856.862	17897
856.996	17802
857.13	17863
857.263	17710
857.397	17870
857.53	17786
857.664	17729
857.797	17703
857.931	17889
858.064	17611
858.197	17786
858.331	17646
858.464	17585
858.597	17551
858.731	17558
858.864	17676
858.997	17562
859.13	17562
859.263	17684
859.396	17714
859.529	17535
859.662	17505
859.795	17474
859.928	17512
860.061	17737
860.194	17809
860.327	17615
860.46	17482
860.592	17566
860.725	17737
860.858	17714
860.99	17592
861.123	17421
861.256	17482
861.388	17592
861.521	18095
861.653	17395
861.786	17417
861.918	17398
862.05	17493
862.183	17474
862.315	17577
862.447	17600
862.58	17463
862.712	17307
862.844	17322
862.976	17406
863.108	17315
863.24	17832
863.372	17178
863.504	17181
863.636	17223
863.768	17265
863.9	17231
864.032	17128
864.164	17200
864.296	17429
864.428	17326
864.559	17417
864.691	17231
864.823	17250
864.954	17311
865.086	17334
865.217	17178
865.349	17204
865.48	17113
865.612	17189
865.743	17162
865.875	17181
866.006	17170
866.137	17254
866.269	17197
866.4	17292
866.531	17246
866.662	17128
866.793	17090
866.924	17083
867.055	17220
867.186	17170
867.317	17174
867.448	17090
867.579	17071
867.71	17105
867.841	17067
867.972	17223
868.103	17083
868.233	17185
868.364	17223
868.495	17254
868.625	17311
868.756	17463
868.886	17398
869.017	17280
869.147	17627
869.278	17604
869.408	17410
869.539	17455
869.669	17615
869.799	17455
869.929	17532
870.06	17539
870.19	17718
870.32	17752
870.45	17809
870.58	17790
870.71	18045
870.84	17855
870.97	17908
871.1	17813
871.23	18102
871.36	18045
871.489	17939
871.619	18098
871.749	18087
871.879	18129
872.008	18224
872.138	18102
872.267	18133
872.397	18041
872.526	17954
872.656	18068
872.785	18079
872.915	18232
873.044	18308
873.173	18323
873.303	18334
873.432	18353
873.561	18361
873.69	18384
873.819	18350
873.948	18490
874.077	18494
874.206	18346
874.335	18384
874.464	18506
874.593	18700
874.722	18646
874.851	18802
874.979	18878
875.108	18867
875.237	18810
875.365	18821
875.494	18817
875.623	18996
875.751	18886
875.88	18981
876.008	19190
876.136	19331
876.265	19537
876.393	19616
876.521	19689
876.65	19727
876.778	19658
876.906	19719
877.034	19635
877.162	19700
877.29	19578
877.418	19902
877.546	20035
877.674	20107
877.802	20092
877.93	20206
878.058	20343
878.185	20442
878.313	20712
878.441	20975
878.568	21142
878.696	21663
878.824	22459
878.951	23311
879.079	24502
879.206	26088
879.333	27583
879.461	29029
879.588	29927
879.715	30038
879.842	29239
879.97	27671
880.097	25932
880.224	24696
880.351	23775
880.478	23064
880.605	22622
880.732	22417
880.859	22333
880.986	22067
881.112	21854
881.239	21800
881.366	21781
881.493	21576
881.619	21526
881.746	21557
881.872	21545
881.999	21553
882.125	21561
882.252	21694
882.378	21698
882.505	21915
882.631	21587
882.757	21538
882.883	21561
883.01	21599
883.136	21424
883.262	21439
883.388	21420
883.514	21477
883.64	21564
883.766	21397
883.892	21218
884.018	21443
884.143	21473
884.269	21595
884.395	21348
884.52	21287
884.646	21226
884.772	21138
884.897	21195
885.023	21226
885.148	21214
885.274	21370
885.399	21165
885.524	20994
885.65	20979
885.775	20982
885.9	20655
886.025	20743
886.15	20518
886.275	20419
886.4	20256
886.525	20122
886.65	19993
886.775	19970
886.9	20081
887.025	20088
887.149	19715
887.274	19487
887.399	19445
887.523	19453
887.648	19320
887.773	19183
887.897	19403
888.021	19217
888.146	19084
888.27	19244
888.395	19175
888.519	19069
888.643	19061
888.767	19031
888.891	18806
889.015	18696
889.139	18825
889.263	18589
889.387	18684
889.511	18791
889.635	18703
889.759	18494
889.883	18502
890.006	18479
890.13	18532
890.254	18346
890.377	18426
890.501	18197
890.624	18190
890.748	18194
890.871	18129
890.995	17927
891.118	17931
891.241	17863
891.364	17874
891.488	17988
891.611	17897
891.734	17748
891.857	17908
891.98	17718
892.103	17771
892.226	17729
892.349	17665
892.471	17627
892.594	17558
892.717	17634
892.839	17505
892.962	17463
893.085	17554
893.207	17520
893.33	17398
893.452	17474
893.575	17493
893.697	17433
893.819	17566
893.941	17611
894.064	17486
894.186	17406
894.308	17189
894.43	17376
894.552	17554
894.674	17345
894.796	17197
894.918	17421
895.04	17303
895.161	17250
895.283	17330
895.405	17265
895.526	17345
895.648	17204
895.769	17261
895.891	17197
896.012	17391
896.134	17288
896.255	17318
896.376	17242
896.498	17185
896.619	17322
896.74	17280
896.861	17246
896.982	17615
897.103	17562
897.224	17406
897.345	17421
897.466	17337
897.587	17433
897.708	17516
897.828	17516
897.949	17330
898.07	17178
898.19	17410
898.311	17448
898.431	17364
898.552	17433
898.672	17532
898.792	17600
898.913	17452
899.033	17242
899.153	17303
899.273	17220
899.393	17223
899.513	17261
899.633	17181
899.753	17299
899.873	17258
899.993	17227
900.113	17193
900.232	17265
900.352	17193
900.472	17071
900.591	17090
900.711	17071
900.83	16896
900.95	17193
901.069	17094
901.189	16938
901.308	16702
901.427	16622
901.546	16527
901.665	16771
901.784	16721
901.904	16478
902.023	16428
902.141	16223
902.26	16173
902.379	16158
902.498	16143
902.617	16078
902.735	16230
902.854	16185
902.973	16029
903.091	15819
903.21	15823
903.328	15778
903.446	15663
903.565	15572
903.683	15572
903.801	15473
903.919	15534
904.038	15462
904.156	15367
904.274	15447
904.392	15283
904.51	15252
904.627	15313
904.745	15348
904.863	15405
904.981	15157
905.098	15005
905.216	15036
905.334	14994
905.451	15066
905.569	14967
905.686	14967
905.803	14975
905.921	14800
906.038	14746
906.155	14796
906.272	14610
906.389	14651
906.506	14556
906.623	14571
906.74	14480
906.857	14431
906.974	14488
907.091	14450
907.208	14640
907.324	14526
907.441	14423
907.557	14225
907.674	14229
907.79	14145
907.907	14240
908.023	14202
908.139	14172
908.256	14252
908.372	14206
908.488	14130
908.604	13879
908.72	13936
908.836	13940
908.952	13894
909.068	13906
909.184	13997
909.3	13963
909.415	13982
909.531	13906
909.647	13578
909.762	13708
909.878	13578
909.993	13750
910.108	13723
910.224	13753
910.339	13616
910.454	13624
910.57	13514
910.685	13407
910.8	13689
910.915	13658
911.03	13540
911.145	13411
911.259	13354
911.374	13396
911.489	13251
911.604	13244
911.718	13156
911.833	13202
911.947	12966
912.062	12954
912.176	13072
912.291	13038
912.405	13050
912.519	13232
912.633	13266
912.748	13122
912.862	13057
912.976	12947
913.09	12856
913.204	12856
913.318	12916
913.431	13000
913.545	13107
913.659	13103
913.772	12924
913.886	12848
914	12829
914.113	12848
914.226	12909
914.34	12920
914.453	12707
914.566	12924
914.68	12681
914.793	12681
914.906	12555
915.019	12418
915.132	12353
915.245	12407
915.358	12513
915.47	12498
915.583	12517
915.696	12544
915.809	12662
915.921	12574
916.034	12448
916.146	12475
916.259	12372
916.371	12475
916.483	12639
916.595	12437
916.708	12471
916.82	12521
916.932	12414
917.044	12433
917.156	12407
917.268	12300
917.38	12361
917.491	12270
917.603	12228
917.715	12338
917.826	12350
917.938	12334
918.049	12030
918.161	12190
918.272	12403
918.384	12342
918.495	12216
918.606	12201
918.717	11965
918.828	12019
918.939	12087
919.05	11996
919.161	11946
919.272	11920
919.383	11832
919.494	12076
919.604	12205
919.715	12034
919.826	11950
919.936	12019
920.047	12049
920.157	12045
920.267	12155
920.378	12136
920.488	12034
920.598	12224
920.708	12338
920.818	12114
920.928	12136
921.038	12372
921.148	12308
921.258	12015
921.368	11931
921.477	11821
921.587	11885
921.697	11752
921.806	11847
921.916	11668
922.025	11448
922.134	11512
922.244	11436
922.353	11509
922.462	11330
922.571	11250
922.68	11132
922.789	11075
922.898	11113
923.007	11143
923.116	11170
923.224	11075
923.333	11174
923.442	10987
923.55	11003
923.659	11052
923.767	10987
923.876	10934
923.984	11060
924.092	10889
924.201	11048
924.309	10995
924.417	10911
924.525	10858
924.633	10946
924.741	11863
924.849	10763
924.956	10881
925.064	10664
925.172	10660
925.279	10622
925.387	10797
925.494	10687
925.602	10797
925.709	10744
925.816	10698
925.924	10702
926.031	10778
926.138	10694
926.245	10668
926.352	10630
926.459	10656
926.566	10790
926.673	10679
926.779	10630
926.886	10466
926.993	10402
927.099	10409
927.206	10303
927.312	10291
927.419	10424
927.525	10417
927.631	10394
927.737	10329
927.843	10284
927.95	10147
928.056	10230
928.162	10223
928.267	10299
928.373	10930
928.479	10249
928.585	10086
928.69	10299
928.796	10230
928.901	10150
929.007	10002
929.112	10158
929.218	10112
929.323	10063
929.428	10021
929.533	10067
929.638	9915
929.743	9987
929.848	10029
929.953	9975
930.058	9960
930.163	9762
930.267	9762
930.372	9823
930.477	9720
930.581	9922
930.685	9823
930.79	9675
930.894	9671
930.998	9622
931.103	9835
931.207	9336
931.311	9416
931.415	9317
931.519	9074
931.623	9081
