Data from test_V78500241_3197.txt Node
Date: Fri Mar 25 14:55:58 CST 2022
User: usil
Spectrometer: V785-0024
Trigger mode: 0
Integration Time (sec): 4.000000E-1
Scans to average: 1
Nonlinearity correction enabled: false
Boxcar width: 0
Storing dark spectrum: false
XAxis mode: Wavelengths
Number of Pixels in Spectrum: 1024
>>>>>Begin Spectral Data<<<<<
801.071	22032
801.214	21934
801.356	21747
801.499	21515
801.641	21428
801.783	21268
801.926	21260
802.068	21241
802.211	21199
802.353	21195
802.496	20937
802.638	20925
802.78	20792
802.923	20754
803.065	20735
803.208	20632
803.35	20743
803.492	20716
803.635	20781
803.777	20602
803.919	20739
804.061	21138
804.204	20712
804.346	20621
804.488	20560
804.63	20716
804.773	20446
804.915	20602
805.057	20697
805.199	20621
805.341	20663
805.483	20746
805.626	20644
805.768	20670
805.91	20571
806.052	20571
806.194	20488
806.336	20602
806.478	20503
806.62	20514
806.762	20693
806.904	20769
807.046	20986
807.188	20944
807.33	20902
807.472	20864
807.614	20910
807.756	20746
807.898	20800
808.04	20568
808.182	20667
808.324	20648
808.465	20731
808.607	20838
808.749	21043
808.891	21058
809.033	21131
809.174	20944
809.316	21043
809.458	20891
809.6	20937
809.741	21009
809.883	21081
810.025	21195
810.166	21100
810.308	21165
810.45	21112
810.591	20941
810.733	20887
810.875	20773
811.016	20613
811.158	20640
811.299	20750
811.441	20929
811.582	20933
811.724	20644
811.865	20621
812.007	20724
812.148	20724
812.29	20769
812.431	20910
812.573	20986
812.714	21070
812.855	21173
812.997	21287
813.138	21454
813.279	21370
813.421	21306
813.562	21077
813.703	21020
813.845	20891
813.986	20568
814.127	20400
814.268	20343
814.41	20320
814.551	20358
814.692	20377
814.833	20081
814.974	20221
815.115	20294
815.256	20119
815.397	20111
815.539	20172
815.68	20046
815.821	19898
815.962	19993
816.103	19978
816.244	19932
816.385	19734
816.526	19712
816.666	19563
816.807	19388
816.948	19575
817.089	19537
817.23	19426
817.371	19392
817.512	19464
817.653	19320
817.793	19388
817.934	19339
818.075	19419
818.216	19369
818.356	19441
818.497	19175
818.638	19164
818.778	19152
818.919	19088
819.06	19061
819.2	19175
819.341	19274
819.481	19171
819.622	19388
819.762	19491
819.903	19540
820.043	19521
820.184	19312
820.324	19304
820.465	19331
820.605	19373
820.746	19476
820.886	19190
821.026	19403
821.167	19403
821.307	19358
821.447	19365
821.588	19160
821.728	19118
821.868	18951
822.008	18730
822.149	18848
822.289	18764
822.429	18627
822.569	18513
822.709	18528
822.849	18281
822.99	18342
823.13	18216
823.27	18262
823.41	18038
823.55	17961
823.69	18125
823.83	18091
823.97	18060
824.11	17874
824.25	17843
824.389	17912
824.529	17889
824.669	17779
824.809	17965
824.949	17901
825.089	17901
825.228	17859
825.368	17680
825.508	17589
825.648	17684
825.787	17699
825.927	17661
826.067	17596
826.206	17524
826.346	17680
826.485	17676
826.625	17623
826.765	17779
826.904	17703
827.044	17467
827.183	17379
827.323	17288
827.462	17471
827.601	17383
827.741	17311
827.88	17387
828.02	17178
828.159	17376
828.298	17372
828.437	17391
828.577	17223
828.716	17417
828.855	17220
828.994	17052
829.134	17067
829.273	16949
829.412	17056
829.551	17064
829.69	17056
829.829	17052
829.968	17121
830.107	17151
830.246	17037
830.385	16984
830.524	17041
830.663	16911
830.802	16767
830.941	16607
831.08	16668
831.219	16755
831.357	16866
831.496	16961
831.635	16717
831.774	16535
831.913	16748
832.051	16497
832.19	16493
832.329	16565
832.467	16409
832.606	16257
832.744	16333
832.883	16348
833.022	16360
833.16	16371
833.299	16497
833.437	16398
833.576	16451
833.714	16375
833.852	16470
833.991	16478
834.129	16508
834.267	16554
834.406	16447
834.544	16481
834.682	16367
834.821	16382
834.959	16622
835.097	16417
835.235	16470
835.373	16371
835.511	16356
835.65	16478
835.788	16344
835.926	16204
836.064	16226
836.202	16185
836.34	16398
836.478	16455
836.615	16230
836.753	16371
836.891	16413
837.029	16344
837.167	16242
837.305	16253
837.443	16234
837.58	16131
837.718	16322
837.856	16238
837.993	16226
838.131	16261
838.269	16147
838.406	16097
838.544	16150
838.681	15876
838.819	15975
838.956	15759
839.094	15739
839.231	15888
839.369	15983
839.506	16188
839.643	16017
839.781	15804
839.918	15755
840.055	15701
840.193	15785
840.33	15778
840.467	15781
840.604	15751
840.742	15960
840.879	15587
841.016	15690
841.153	15488
841.29	15956
841.427	15736
841.564	15755
841.701	15823
841.838	15701
841.975	15637
842.112	15679
842.249	15606
842.385	15553
842.522	15785
842.659	15633
842.796	15519
842.933	15603
843.069	15538
843.206	15564
843.343	15667
843.479	15671
843.616	15644
843.752	15268
843.889	15378
844.025	15416
844.162	15264
844.298	15511
844.435	15329
844.571	15302
844.708	15325
844.844	15572
844.98	15412
845.117	15428
845.253	15230
845.389	15222
845.525	15336
845.661	15195
845.798	15135
845.934	15142
846.07	15180
846.206	15165
846.342	15207
846.478	15173
846.614	15009
846.75	14864
846.886	14872
847.022	14967
847.158	14899
847.294	14910
847.429	14948
847.565	14910
847.701	15036
847.837	14598
847.972	14651
848.108	14811
848.244	14739
848.379	14571
848.515	14511
848.65	14404
848.786	14518
848.921	14503
849.057	14708
849.192	14632
849.328	14564
849.463	14514
849.598	14408
849.734	14499
849.869	14381
850.004	14385
850.14	14355
850.275	14332
850.41	14191
850.545	14271
850.68	14324
850.815	14271
850.95	14324
851.085	14495
851.22	14400
851.355	14252
851.49	14248
851.625	14240
851.76	14240
851.895	14164
852.03	14149
852.165	14180
852.299	14271
852.434	14343
852.569	14336
852.703	14256
852.838	14374
852.973	14499
853.107	14404
853.242	14298
853.376	14176
853.511	14039
853.645	14031
853.78	14278
853.914	14225
854.048	14077
854.183	14126
854.317	14183
854.451	14294
854.585	14058
854.72	14115
854.854	14202
854.988	14073
855.122	14100
855.256	14043
855.39	14084
855.524	14233
855.658	14149
855.792	14069
855.926	14210
856.06	14214
856.194	14248
856.327	14138
856.461	14043
856.595	14092
856.729	14157
856.862	14256
856.996	14145
857.13	14263
857.263	14332
857.397	14248
857.53	14183
857.664	14202
857.797	14221
857.931	14252
858.064	14259
858.197	14130
858.331	14130
858.464	14119
858.597	13982
858.731	14130
858.864	14168
858.997	14123
859.13	14202
859.263	14119
859.396	14199
859.529	14168
859.662	14062
859.795	14180
859.928	14161
860.061	14237
860.194	14248
860.327	14183
860.46	14142
860.592	14202
860.725	14237
860.858	14225
860.99	14271
861.123	14016
861.256	14035
861.388	14115
861.521	14941
861.653	14043
861.786	14012
861.918	13959
862.05	14142
862.183	14077
862.315	14164
862.447	14172
862.58	14046
862.712	13932
862.844	13974
862.976	14077
863.108	13925
863.24	14267
863.372	13883
863.504	13879
863.636	13909
863.768	13974
863.9	13993
864.032	13887
864.164	13921
864.296	13913
864.428	14073
864.559	14062
864.691	13967
864.823	13944
864.954	13944
865.086	13955
865.217	13860
865.349	13902
865.48	13963
865.612	13993
865.743	14054
865.875	13982
866.006	13909
866.137	13967
866.269	13955
866.4	13955
866.531	13917
866.662	13890
866.793	13852
866.924	13913
867.055	13932
867.186	13936
867.317	13856
867.448	13871
867.579	13856
867.71	13807
867.841	13822
867.972	13974
868.103	13925
868.233	13898
868.364	13837
868.495	13970
868.625	14157
868.756	14199
868.886	14191
869.017	14259
869.147	14332
869.278	14305
869.408	14210
869.539	14130
869.669	14229
869.799	14206
869.929	14317
870.06	14290
870.19	14484
870.32	14377
870.45	14575
870.58	14678
870.71	14727
870.84	14632
870.97	14541
871.1	14530
871.23	14682
871.36	14876
871.489	14602
871.619	14796
871.749	14678
871.879	14758
872.008	14944
872.138	14788
872.267	14815
872.397	14716
872.526	14724
872.656	14575
872.785	14640
872.915	14868
873.044	14910
873.173	14739
873.303	14872
873.432	14895
873.561	14937
873.69	14796
873.819	14899
873.948	14921
874.077	14796
874.206	14910
874.335	14845
874.464	14902
874.593	15150
874.722	14990
874.851	15222
874.979	15146
875.108	15214
875.237	15100
875.365	15036
875.494	15100
875.623	15211
875.751	15203
875.88	15150
876.008	15317
876.136	15408
876.265	15526
876.393	15751
876.521	15622
876.65	15663
876.778	15709
876.906	15481
877.034	15431
877.162	15576
877.29	15454
877.418	15644
877.546	15599
877.674	15545
877.802	15549
877.93	15481
878.058	15572
878.185	15359
878.313	15568
878.441	15515
878.568	15420
878.696	15450
878.824	15580
878.951	15644
879.079	15747
879.206	15895
879.333	15717
879.461	15492
879.588	15751
879.715	15709
879.842	15785
879.97	15637
880.097	15382
880.224	15393
880.351	15526
880.478	15504
880.605	15469
880.732	15504
880.859	15713
880.986	15420
881.112	15424
881.239	15306
881.366	15264
881.493	15176
881.619	15104
881.746	15055
881.872	15097
881.999	15047
882.125	14948
882.252	15055
882.378	15036
882.505	15119
882.631	15001
882.757	14876
882.883	14902
883.01	14880
883.136	14899
883.262	14724
883.388	14708
883.514	14857
883.64	14956
883.766	14781
883.892	14678
884.018	14769
884.143	14952
884.269	14925
884.395	14670
884.52	14541
884.646	14541
884.772	14575
884.897	14537
885.023	14606
885.148	14731
885.274	14823
885.399	14727
885.524	14613
885.65	14701
885.775	14621
885.9	14545
886.025	14712
886.15	14674
886.275	14541
886.4	14537
886.525	14587
886.65	14533
886.775	14575
886.9	14720
887.025	14819
887.149	14564
887.274	14423
887.399	14347
887.523	14389
887.648	14309
887.773	14347
887.897	14507
888.021	14518
888.146	14339
888.27	14560
888.395	14564
888.519	14431
888.643	14484
888.767	14457
888.891	14427
889.015	14256
889.139	14298
889.263	14347
889.387	14385
889.511	14423
889.635	14305
889.759	14172
889.883	14282
890.006	14282
890.13	14339
890.254	14199
890.377	14252
890.501	14187
890.624	14008
890.748	14157
890.871	13997
890.995	13925
891.118	13925
891.241	14005
891.364	14111
891.488	14172
891.611	14073
891.734	13997
891.857	13967
891.98	13970
892.103	13997
892.226	14020
892.349	13921
892.471	13944
892.594	13947
892.717	13993
892.839	13963
892.962	13921
893.085	14084
893.207	14005
893.33	13898
893.452	13940
893.575	14039
893.697	13970
893.819	14119
893.941	14221
894.064	14164
894.186	13932
894.308	14081
894.43	14088
894.552	14138
894.674	14145
894.796	13963
894.918	14092
895.04	14058
895.161	14123
895.283	14084
895.405	14050
895.526	14020
895.648	14046
895.769	14161
895.891	14202
896.012	14145
896.134	14237
896.255	14134
896.376	14267
896.498	14126
896.619	14191
896.74	14111
896.861	14305
896.982	14526
897.103	14606
897.224	14465
897.345	14476
897.466	14332
897.587	14389
897.708	14484
897.828	14556
897.949	14442
898.07	14347
898.19	14419
898.311	14530
898.431	14461
898.552	14526
898.672	14598
898.792	14499
898.913	14583
899.033	14480
899.153	14355
899.273	14408
899.393	14355
899.513	14469
899.633	14366
899.753	14423
899.873	14278
899.993	14400
900.113	14336
900.232	14412
900.352	14381
900.472	14343
900.591	14275
900.711	14294
900.83	14267
900.95	14248
901.069	14324
901.189	14161
901.308	14046
901.427	13890
901.546	13993
901.665	13947
901.784	13909
901.904	13814
902.023	13708
902.141	13506
902.26	13476
902.379	13628
902.498	13491
902.617	13415
902.735	13590
902.854	13483
902.973	13499
903.091	13270
903.21	13129
903.328	13187
903.446	13217
903.565	13061
903.683	13046
903.801	12954
903.919	13031
904.038	12962
904.156	12909
904.274	12973
904.392	12863
904.51	12905
904.627	12897
904.745	12894
904.863	12852
904.981	12734
905.098	12570
905.216	12544
905.334	12623
905.451	12563
905.569	12604
905.686	12616
905.803	12623
905.921	12285
906.038	12502
906.155	12357
906.272	12239
906.389	12289
906.506	12186
906.623	12148
906.74	12121
906.857	12007
906.974	12068
907.091	12224
907.208	12258
907.324	12182
907.441	12022
907.557	11874
907.674	11961
907.79	11874
907.907	11863
908.023	11954
908.139	11897
908.256	11874
908.372	11859
908.488	11847
908.604	11699
908.72	11642
908.836	11703
908.952	11600
909.068	11695
909.184	11748
909.3	11619
909.415	11726
909.531	11691
909.647	11463
909.762	11467
909.878	11353
909.993	11516
910.108	11448
910.224	11372
910.339	11471
910.454	11273
910.57	11330
910.685	11208
910.8	11539
910.915	11486
911.03	11368
911.145	11124
911.259	11064
911.374	11094
911.489	11029
911.604	10980
911.718	10812
911.833	10843
911.947	10877
912.062	10740
912.176	10866
912.291	10889
912.405	10915
912.519	11018
912.633	11113
912.748	10999
912.862	10908
912.976	10820
913.09	10672
913.204	10763
913.318	10805
913.431	10854
913.545	10801
913.659	10900
913.772	10835
913.886	10622
914	10588
914.113	10702
914.226	10793
914.34	10812
914.453	10565
914.566	10714
914.68	10706
914.793	10588
914.906	10455
915.019	10356
915.132	10287
915.245	10432
915.358	10421
915.47	10421
915.583	10428
915.696	10519
915.809	10569
915.921	10649
916.034	10409
916.146	10314
916.259	10337
916.371	10447
916.483	10459
916.595	10382
916.708	10394
916.82	10322
916.932	10379
917.044	10322
917.156	10363
917.268	10284
917.38	10344
917.491	10223
917.603	10196
917.715	10424
917.826	10390
917.938	10188
918.049	10230
918.161	10303
918.272	10371
918.384	10322
918.495	10234
918.606	10124
918.717	10059
918.828	10059
918.939	10128
919.05	10093
919.161	10055
919.272	9956
919.383	10013
919.494	10147
919.604	10352
919.715	10040
919.826	10044
919.936	10143
920.047	10238
920.157	10158
920.267	10325
920.378	10143
920.488	10200
920.598	10325
920.708	10489
920.818	10306
920.928	10352
921.038	10500
921.148	10500
921.258	10192
921.368	10181
921.477	10071
921.587	9983
921.697	9816
921.806	10120
921.916	9873
922.025	9789
922.134	9713
922.244	9694
922.353	9762
922.462	9652
922.571	9591
922.68	9393
922.789	9363
922.898	9408
923.007	9348
923.116	9485
923.224	9389
923.333	9317
923.442	9332
923.55	9268
923.659	9294
923.767	9302
923.876	9214
923.984	9382
924.092	9241
924.201	9279
924.309	9313
924.417	9275
924.525	9214
924.633	9165
924.741	10196
924.849	9089
924.956	9233
925.064	9013
925.172	9058
925.279	9039
925.387	9062
925.494	9070
925.602	9233
925.709	9055
925.816	8914
925.924	9051
926.031	9165
926.138	9062
926.245	9074
926.352	9062
926.459	9127
926.566	9142
926.673	8990
926.779	8891
926.886	8948
926.993	8807
927.099	8800
927.206	8819
927.312	8667
927.419	8819
927.525	8689
927.631	8830
927.737	8686
927.843	8659
927.95	8552
928.056	8617
928.162	8701
928.267	8762
928.373	9351
928.479	8746
928.585	8632
928.69	8648
928.796	8731
928.901	8507
929.007	8507
929.112	8552
929.218	8587
929.323	8526
929.428	8492
929.533	8610
929.638	8488
929.743	8442
929.848	8518
929.953	8492
930.058	8404
930.163	8199
930.267	8320
930.372	8438
930.477	8263
930.581	8465
930.685	8317
930.79	8275
930.894	8244
930.998	8229
931.103	8408
931.207	8031
931.311	7917
931.415	7879
931.519	7734
931.623	7674
