Data from test_V78500241_3083.txt Node
Date: Fri Mar 25 14:55:10 CST 2022
User: usil
Spectrometer: V785-0024
Trigger mode: 0
Integration Time (sec): 4.000000E-1
Scans to average: 1
Nonlinearity correction enabled: false
Boxcar width: 0
Storing dark spectrum: false
XAxis mode: Wavelengths
Number of Pixels in Spectrum: 1024
>>>>>Begin Spectral Data<<<<<
801.071	21994
801.214	22063
801.356	21720
801.499	21675
801.641	21481
801.783	21488
801.926	21545
802.068	21462
802.211	21367
802.353	21329
802.496	21005
802.638	21024
802.78	20998
802.923	20883
803.065	20701
803.208	20727
803.35	20819
803.492	20994
803.635	20960
803.777	20815
803.919	20918
804.061	21112
804.204	20842
804.346	20743
804.488	20842
804.63	20686
804.773	20682
804.915	20800
805.057	20731
805.199	20746
805.341	20800
805.483	20842
805.626	20727
805.768	20636
805.91	20659
806.052	20781
806.194	20549
806.336	20910
806.478	20602
806.62	20720
806.762	20758
806.904	21036
807.046	21154
807.188	21104
807.33	21017
807.472	21036
807.614	21036
807.756	20944
807.898	20807
808.04	20716
808.182	20758
808.324	20765
808.465	20842
808.607	21150
808.749	21214
808.891	21096
809.033	21252
809.174	21146
809.316	20960
809.458	21165
809.6	20998
809.741	21116
809.883	21165
810.025	21310
810.166	21264
810.308	21195
810.45	21150
810.591	21127
810.733	21020
810.875	20880
811.016	20849
811.158	20746
811.299	20929
811.441	20971
811.582	20975
811.724	20880
811.865	20788
812.007	20853
812.148	20834
812.29	20960
812.431	21051
812.573	21218
812.714	21207
812.855	21370
812.997	21469
813.138	21523
813.279	21412
813.421	21363
813.562	21386
813.703	21024
813.845	21032
813.986	20720
814.127	20545
814.268	20492
814.41	20454
814.551	20393
814.692	20454
814.833	20355
814.974	20419
815.115	20343
815.256	20267
815.397	20328
815.539	20214
815.68	20164
815.821	20107
815.962	20126
816.103	20069
816.244	19940
816.385	19898
816.526	19936
816.666	19674
816.807	19540
816.948	19563
817.089	19662
817.23	19578
817.371	19533
817.512	19438
817.653	19434
817.793	19559
817.934	19487
818.075	19525
818.216	19468
818.356	19472
818.497	19244
818.638	19221
818.778	19232
818.919	19247
819.06	19236
819.2	19422
819.341	19282
819.481	19373
819.622	19480
819.762	19712
819.903	19704
820.043	19571
820.184	19495
820.324	19392
820.465	19464
820.605	19491
820.746	19415
820.886	19369
821.026	19373
821.167	19407
821.307	19544
821.447	19381
821.588	19335
821.728	19194
821.868	19008
822.008	18829
822.149	19008
822.289	18935
822.429	18738
822.569	18665
822.709	18616
822.849	18452
822.99	18369
823.13	18399
823.27	18285
823.41	18247
823.55	18167
823.69	18205
823.83	18152
823.97	18087
824.11	18068
824.25	17840
824.389	18015
824.529	18125
824.669	17999
824.809	18049
824.949	17969
825.089	17935
825.228	17889
825.368	17748
825.508	17756
825.648	17783
825.787	17802
825.927	17767
826.067	17752
826.206	17729
826.346	17760
826.485	17809
826.625	17722
826.765	17889
826.904	17699
827.044	17505
827.183	17493
827.323	17387
827.462	17558
827.601	17543
827.741	17406
827.88	17554
828.02	17299
828.159	17307
828.298	17463
828.437	17459
828.577	17311
828.716	17509
828.855	17216
828.994	17170
829.134	17200
829.273	17212
829.412	17185
829.551	17151
829.69	17124
829.829	17189
829.968	17242
830.107	17193
830.246	17189
830.385	17220
830.524	17067
830.663	16927
830.802	16816
830.941	16812
831.08	16786
831.219	16752
831.357	16812
831.496	16968
831.635	16675
831.774	16626
831.913	16645
832.051	16622
832.19	16436
832.329	16554
832.467	16432
832.606	16409
832.744	16310
832.883	16367
833.022	16405
833.16	16447
833.299	16436
833.437	16519
833.576	16504
833.714	16390
833.852	16573
833.991	16550
834.129	16691
834.267	16546
834.406	16424
834.544	16489
834.682	16504
834.821	16386
834.959	16622
835.097	16478
835.235	16611
835.373	16462
835.511	16443
835.65	16500
835.788	16360
835.926	16333
836.064	16158
836.202	16177
836.34	16485
836.478	16466
836.615	16428
836.753	16550
836.891	16497
837.029	16421
837.167	16402
837.305	16272
837.443	16329
837.58	16356
837.718	16379
837.856	16173
837.993	16185
838.131	16314
838.269	16147
838.406	16181
838.544	16211
838.681	16002
838.819	15975
838.956	15747
839.094	15808
839.231	15789
839.369	15922
839.506	16219
839.643	16010
839.781	15797
839.918	15819
840.055	15873
840.193	15983
840.33	15739
840.467	15759
840.604	15789
840.742	16048
840.879	15675
841.016	15728
841.153	15633
841.29	15907
841.427	15835
841.564	15778
841.701	15876
841.838	15823
841.975	15622
842.112	15720
842.249	15648
842.385	15580
842.522	15739
842.659	15690
842.796	15625
842.933	15701
843.069	15618
843.206	15603
843.343	15701
843.479	15599
843.616	15633
843.752	15317
843.889	15431
844.025	15545
844.162	15340
844.298	15500
844.435	15454
844.571	15351
844.708	15435
844.844	15538
844.98	15591
845.117	15477
845.253	15260
845.389	15188
845.525	15291
845.661	15351
845.798	15154
845.934	15169
846.07	15123
846.206	15218
846.342	15313
846.478	15218
846.614	14914
846.75	14861
846.886	14899
847.022	15020
847.158	14990
847.294	14941
847.429	14975
847.565	14887
847.701	15188
847.837	14754
847.972	14590
848.108	14750
848.244	14739
848.379	14644
848.515	14530
848.65	14564
848.786	14537
848.921	14598
849.057	14712
849.192	14705
849.328	14621
849.463	14541
849.598	14400
849.734	14473
849.869	14507
850.004	14393
850.14	14267
850.275	14313
850.41	14221
850.545	14252
850.68	14187
850.815	14358
850.95	14282
851.085	14503
851.22	14366
851.355	14309
851.49	14313
851.625	14343
851.76	14324
851.895	14248
852.03	14172
852.165	14225
852.299	14290
852.434	14343
852.569	14347
852.703	14332
852.838	14381
852.973	14404
853.107	14442
853.242	14214
853.376	14199
853.511	14107
853.645	14202
853.78	14294
853.914	14221
854.048	14084
854.183	14142
854.317	14172
854.451	14358
854.585	14187
854.72	14092
854.854	14263
854.988	14096
855.122	14149
855.256	14050
855.39	14088
855.524	14256
855.658	14282
855.792	14309
855.926	14111
856.06	14237
856.194	14244
856.327	14172
856.461	14024
856.595	14107
856.729	14100
856.862	14210
856.996	14172
857.13	14130
857.263	14240
857.397	14271
857.53	14145
857.664	14142
857.797	14294
857.931	14313
858.064	14275
858.197	14248
858.331	14210
858.464	14164
858.597	14100
858.731	14134
858.864	14233
858.997	14168
859.13	14199
859.263	14237
859.396	14225
859.529	14103
859.662	14077
859.795	14149
859.928	14142
860.061	14324
860.194	14374
860.327	14180
860.46	14161
860.592	14328
860.725	14381
860.858	14191
860.99	14210
861.123	14073
861.256	14077
861.388	14081
861.521	14826
861.653	14031
861.786	13982
861.918	14100
862.05	14119
862.183	14100
862.315	14183
862.447	14210
862.58	14119
862.712	13986
862.844	13864
862.976	13989
863.108	13917
863.24	14389
863.372	13936
863.504	13944
863.636	13970
863.768	14027
863.9	13955
864.032	13894
864.164	13955
864.296	13944
864.428	14130
864.559	14024
864.691	14081
864.823	14084
864.954	13925
865.086	13932
865.217	13955
865.349	13898
865.48	13883
865.612	14001
865.743	14027
865.875	14027
866.006	13936
866.137	14005
866.269	13803
866.4	13963
866.531	13868
866.662	13894
866.793	13860
866.924	13875
867.055	13898
867.186	13940
867.317	13890
867.448	13860
867.579	13921
867.71	13887
867.841	13833
867.972	14008
868.103	13947
868.233	13955
868.364	13940
868.495	14031
868.625	14214
868.756	14282
868.886	14065
869.017	14164
869.147	14214
869.278	14374
869.408	14225
869.539	14126
869.669	14206
869.799	14244
869.929	14286
870.06	14252
870.19	14465
870.32	14438
870.45	14556
870.58	14640
870.71	14537
870.84	14743
870.97	14556
871.1	14476
871.23	14781
871.36	14746
871.489	14701
871.619	14762
871.749	14819
871.879	14853
872.008	14861
872.138	14861
872.267	14849
872.397	14636
872.526	14606
872.656	14648
872.785	14568
872.915	14823
873.044	14815
873.173	14765
873.303	14963
873.432	14883
873.561	14830
873.69	14765
873.819	14857
873.948	14956
874.077	14876
874.206	14906
874.335	14948
874.464	15001
874.593	15192
874.722	15100
874.851	15306
874.979	15249
875.108	15097
875.237	15104
875.365	15154
875.494	15024
875.623	15192
875.751	15116
875.88	15104
876.008	15268
876.136	15279
876.265	15606
876.393	15682
876.521	15641
876.65	15614
876.778	15625
876.906	15629
877.034	15534
877.162	15656
877.29	15595
877.418	15568
877.546	15530
877.674	15538
877.802	15633
877.93	15629
878.058	15515
878.185	15603
878.313	15576
878.441	15564
878.568	15420
878.696	15488
878.824	15542
878.951	15717
879.079	15766
879.206	15903
879.333	15739
879.461	15553
879.588	15557
879.715	15778
879.842	15785
879.97	15610
880.097	15344
880.224	15447
880.351	15450
880.478	15408
880.605	15454
880.732	15473
880.859	15648
880.986	15515
881.112	15420
881.239	15378
881.366	15249
881.493	15150
881.619	15028
881.746	15043
881.872	15154
881.999	15047
882.125	15013
882.252	15142
882.378	15138
882.505	15249
882.631	15074
882.757	14937
882.883	14910
883.01	14823
883.136	14823
883.262	14785
883.388	14670
883.514	14826
883.64	14925
883.766	14842
883.892	14651
884.018	14724
884.143	14842
884.269	14971
884.395	14724
884.52	14613
884.646	14712
884.772	14537
884.897	14568
885.023	14644
885.148	14663
885.274	14762
885.399	14762
885.524	14587
885.65	14564
885.775	14579
885.9	14594
886.025	14712
886.15	14655
886.275	14594
886.4	14556
886.525	14659
886.65	14613
886.775	14533
886.9	14785
887.025	14731
887.149	14488
887.274	14450
887.399	14408
887.523	14438
887.648	14355
887.773	14415
887.897	14579
888.021	14450
888.146	14332
888.27	14659
888.395	14571
888.519	14423
888.643	14488
888.767	14655
888.891	14377
889.015	14301
889.139	14332
889.263	14408
889.387	14457
889.511	14450
889.635	14385
889.759	14298
889.883	14336
890.006	14351
890.13	14366
890.254	14206
890.377	14240
890.501	14081
890.624	14084
890.748	14183
890.871	14081
890.995	13986
891.118	13959
891.241	13993
891.364	14046
891.488	14161
891.611	14027
891.734	13959
891.857	14142
891.98	13970
892.103	14058
892.226	14092
892.349	13940
892.471	13906
892.594	13951
892.717	14043
892.839	13928
892.962	13978
893.085	14043
893.207	13944
893.33	13974
893.452	13875
893.575	14107
893.697	13967
893.819	14187
893.941	14187
894.064	14275
894.186	14069
894.308	13997
894.43	14225
894.552	14119
894.674	14126
894.796	13944
894.918	14073
895.04	14012
895.161	14107
895.283	14214
895.405	14031
895.526	14126
895.648	14123
895.769	14180
895.891	14183
896.012	14290
896.134	14149
896.255	14229
896.376	14119
896.498	14187
896.619	14256
896.74	14248
896.861	14305
896.982	14602
897.103	14708
897.224	14393
897.345	14396
897.466	14358
897.587	14446
897.708	14522
897.828	14530
897.949	14492
898.07	14366
898.19	14351
898.311	14648
898.431	14438
898.552	14537
898.672	14606
898.792	14571
898.913	14545
899.033	14423
899.153	14450
899.273	14317
899.393	14438
899.513	14377
899.633	14370
899.753	14431
899.873	14370
899.993	14457
900.113	14305
900.232	14499
900.352	14427
900.472	14324
900.591	14240
900.711	14286
900.83	14233
900.95	14396
901.069	14434
901.189	14199
901.308	13913
901.427	13879
901.546	13947
901.665	13978
901.784	13967
901.904	13780
902.023	13746
902.141	13567
902.26	13525
902.379	13624
902.498	13445
902.617	13491
902.735	13472
902.854	13422
902.973	13396
903.091	13171
903.21	13194
903.328	13251
903.446	13225
903.565	13042
903.683	13198
903.801	13065
903.919	13019
904.038	13061
904.156	12916
904.274	12996
904.392	12837
904.51	12894
904.627	12897
904.745	12905
904.863	13050
904.981	12772
905.098	12570
905.216	12631
905.334	12669
905.451	12582
905.569	12452
905.686	12612
905.803	12662
905.921	12311
906.038	12460
906.155	12433
906.272	12239
906.389	12357
906.506	12125
906.623	12186
906.74	12228
906.857	12038
906.974	12136
907.091	12144
907.208	12266
907.324	12262
907.441	12148
907.557	11904
907.674	11878
907.79	11904
907.907	11901
908.023	11935
908.139	11885
908.256	11847
908.372	11878
908.488	11802
908.604	11748
908.72	11646
908.836	11729
908.952	11726
909.068	11707
909.184	11813
909.3	11646
909.415	11764
909.531	11726
909.647	11482
909.762	11459
909.878	11440
909.993	11539
910.108	11455
910.224	11455
910.339	11318
910.454	11391
910.57	11311
910.685	11162
910.8	11448
910.915	11497
911.03	11318
911.145	11204
911.259	11159
911.374	11143
911.489	11090
911.604	10999
911.718	10820
911.833	10938
911.947	10805
912.062	10736
912.176	10889
912.291	10927
912.405	10984
912.519	11083
912.633	11098
912.748	10908
912.862	10915
912.976	10755
913.09	10706
913.204	10740
913.318	10797
913.431	10843
913.545	10904
913.659	10908
913.772	10839
913.886	10691
914	10649
914.113	10691
914.226	10740
914.34	10816
914.453	10607
914.566	10771
914.68	10660
914.793	10550
914.906	10443
915.019	10356
915.132	10344
915.245	10363
915.358	10474
915.47	10481
915.583	10421
915.696	10451
915.809	10504
915.921	10550
916.034	10405
916.146	10432
916.259	10409
916.371	10451
916.483	10382
916.595	10367
916.708	10409
916.82	10402
916.932	10242
917.044	10371
917.156	10333
917.268	10147
917.38	10230
917.491	10234
917.603	10246
917.715	10402
917.826	10306
917.938	10253
918.049	10112
918.161	10291
918.272	10382
918.384	10322
918.495	10310
918.606	10154
918.717	10124
918.828	10124
918.939	10207
919.05	10097
919.161	10112
919.272	9934
919.383	9968
919.494	10196
919.604	10436
919.715	10147
919.826	10040
919.936	10120
920.047	10284
920.157	10120
920.267	10402
920.378	10287
920.488	10128
920.598	10325
920.708	10596
920.818	10310
920.928	10265
921.038	10546
921.148	10402
921.258	10253
921.368	10082
921.477	9998
921.587	10029
921.697	9888
921.806	9998
921.916	9873
922.025	9785
922.134	9675
922.244	9705
922.353	9656
922.462	9572
922.571	9515
922.68	9416
922.789	9370
922.898	9397
923.007	9355
923.116	9408
923.224	9435
923.333	9386
923.442	9329
923.55	9310
923.659	9298
923.767	9393
923.876	9336
923.984	9313
924.092	9253
924.201	9264
924.309	9233
924.417	9272
924.525	9165
924.633	9260
924.741	10177
924.849	9093
924.956	9188
925.064	9005
925.172	8948
925.279	9005
925.387	9108
925.494	9058
925.602	9157
925.709	9211
925.816	9005
925.924	9081
926.031	9138
926.138	9135
926.245	9097
926.352	8982
926.459	9119
926.566	9138
926.673	8994
926.779	8902
926.886	8982
926.993	8777
927.099	8773
927.206	8766
927.312	8766
927.419	8861
927.525	8785
927.631	8834
927.737	8655
927.843	8682
927.95	8571
928.056	8655
928.162	8682
928.267	8705
928.373	9348
928.479	8785
928.585	8552
928.69	8693
928.796	8735
928.901	8636
929.007	8450
929.112	8594
929.218	8571
929.323	8511
929.428	8507
929.533	8629
929.638	8408
929.743	8511
929.848	8587
929.953	8465
930.058	8412
930.163	8294
930.267	8377
930.372	8389
930.477	8286
930.581	8495
930.685	8374
930.79	8240
930.894	8218
930.998	8214
931.103	8324
931.207	7997
931.311	7925
931.415	7898
931.519	7761
931.623	7753
