Data from test_V78500241_1857.txt Node
Date: Fri Mar 25 14:46:38 CST 2022
User: usil
Spectrometer: V785-0024
Trigger mode: 0
Integration Time (sec): 4.000000E-1
Scans to average: 1
Nonlinearity correction enabled: false
Boxcar width: 0
Storing dark spectrum: false
XAxis mode: Wavelengths
Number of Pixels in Spectrum: 1024
>>>>>Begin Spectral Data<<<<<
801.071	22017
801.214	21922
801.356	21766
801.499	21686
801.641	21511
801.783	21511
801.926	21431
802.068	21500
802.211	21298
802.353	21310
802.496	21062
802.638	21032
802.78	21085
802.923	20849
803.065	20804
803.208	20853
803.35	20804
803.492	20899
803.635	21013
803.777	20804
803.919	20853
804.061	21176
804.204	20891
804.346	20781
804.488	20845
804.63	20720
804.773	20674
804.915	20777
805.057	20883
805.199	20689
805.341	20746
805.483	20952
805.626	20826
805.768	20754
805.91	20598
806.052	20708
806.194	20731
806.336	20773
806.478	20864
806.62	20659
806.762	20785
806.904	20933
807.046	21150
807.188	21032
807.33	21077
807.472	21070
807.614	20899
807.756	21017
807.898	20811
808.04	20758
808.182	20853
808.324	20921
808.465	20895
808.607	21005
808.749	21104
808.891	21245
809.033	21275
809.174	21184
809.316	21001
809.458	21142
809.6	20960
809.741	21146
809.883	21203
810.025	21275
810.166	21397
810.308	21233
810.45	21207
810.591	21233
810.733	21116
810.875	20929
811.016	20785
811.158	20800
811.299	20979
811.441	21013
811.582	21039
811.724	20986
811.865	20857
812.007	20796
812.148	20849
812.29	20971
812.431	21028
812.573	21245
812.714	21287
812.855	21268
812.997	21405
813.138	21679
813.279	21458
813.421	21424
813.562	21329
813.703	21104
813.845	20975
813.986	20636
814.127	20613
814.268	20492
814.41	20533
814.551	20366
814.692	20434
814.833	20393
814.974	20362
815.115	20495
815.256	20313
815.397	20263
815.539	20351
815.68	20138
815.821	20096
815.962	20229
816.103	20168
816.244	20100
816.385	19803
816.526	19841
816.666	19712
816.807	19365
816.948	19719
817.089	19655
817.23	19594
817.371	19613
817.512	19616
817.653	19594
817.793	19468
817.934	19441
818.075	19624
818.216	19537
818.356	19613
818.497	19407
818.638	19320
818.778	19308
818.919	19339
819.06	19274
819.2	19381
819.341	19480
819.481	19354
819.622	19571
819.762	19913
819.903	19734
820.043	19742
820.184	19483
820.324	19552
820.465	19643
820.605	19506
820.746	19468
820.886	19350
821.026	19647
821.167	19586
821.307	19670
821.447	19521
821.588	19381
821.728	19240
821.868	19213
822.008	18905
822.149	19012
822.289	18947
822.429	18760
822.569	18741
822.709	18715
822.849	18448
822.99	18574
823.13	18429
823.27	18403
823.41	18353
823.55	18277
823.69	18292
823.83	18319
823.97	18213
824.11	18057
824.25	17988
824.389	18038
824.529	18140
824.669	18041
824.809	18129
824.949	18045
825.089	18072
825.228	18011
825.368	17885
825.508	17767
825.648	17798
825.787	17996
825.927	17874
826.067	17756
826.206	17843
826.346	17794
826.485	17874
826.625	17832
826.765	17889
826.904	17855
827.044	17596
827.183	17604
827.323	17452
827.462	17619
827.601	17433
827.741	17570
827.88	17440
828.02	17414
828.159	17455
828.298	17539
828.437	17509
828.577	17501
828.716	17638
828.855	17452
828.994	17250
829.134	17337
829.273	17273
829.412	17242
829.551	17326
829.69	17204
829.829	17254
829.968	17383
830.107	17280
830.246	17261
830.385	17197
830.524	17113
830.663	17014
830.802	17083
830.941	16889
831.08	16820
831.219	16968
831.357	16942
831.496	17060
831.635	16877
831.774	16778
831.913	16736
832.051	16710
832.19	16573
832.329	16656
832.467	16535
832.606	16611
832.744	16622
832.883	16542
833.022	16542
833.16	16679
833.299	16679
833.437	16683
833.576	16634
833.714	16641
833.852	16698
833.991	16618
834.129	16626
834.267	16675
834.406	16698
834.544	16668
834.682	16687
834.821	16615
834.959	16843
835.097	16615
835.235	16740
835.373	16694
835.511	16660
835.65	16580
835.788	16637
835.926	16325
836.064	16360
836.202	16451
836.34	16596
836.478	16588
836.615	16504
836.753	16558
836.891	16538
837.029	16603
837.167	16497
837.305	16489
837.443	16462
837.58	16356
837.718	16512
837.856	16489
837.993	16402
838.131	16478
838.269	16337
838.406	16337
838.544	16310
838.681	16162
838.819	16135
838.956	16029
839.094	15922
839.231	16124
839.369	16002
839.506	16470
839.643	16166
839.781	16051
839.918	15930
840.055	16067
840.193	16013
840.33	15953
840.467	15998
840.604	16032
840.742	16226
840.879	15854
841.016	15884
841.153	15819
841.29	16135
841.427	15937
841.564	16036
841.701	15895
841.838	15934
841.975	15789
842.112	15941
842.249	15816
842.385	15682
842.522	15899
842.659	15854
842.796	15694
842.933	15827
843.069	15732
843.206	15747
843.343	15895
843.479	15701
843.616	15842
843.752	15542
843.889	15591
844.025	15671
844.162	15458
844.298	15610
844.435	15580
844.571	15553
844.708	15568
844.844	15644
844.98	15660
845.117	15648
845.253	15416
845.389	15458
845.525	15370
845.661	15367
845.798	15317
845.934	15416
846.07	15363
846.206	15344
846.342	15450
846.478	15382
846.614	15146
846.75	15119
846.886	15112
847.022	15188
847.158	15070
847.294	15028
847.429	15207
847.565	15161
847.701	15313
847.837	14883
847.972	14902
848.108	14880
848.244	14910
848.379	14800
848.515	14701
848.65	14746
848.786	14708
848.921	14648
849.057	14857
849.192	14765
849.328	14765
849.463	14731
849.598	14724
849.734	14716
849.869	14556
850.004	14522
850.14	14552
850.275	14419
850.41	14305
850.545	14450
850.68	14503
850.815	14552
850.95	14484
851.085	14648
851.22	14613
851.355	14587
851.49	14400
851.625	14461
851.76	14408
851.895	14336
852.03	14237
852.165	14442
852.299	14541
852.434	14560
852.569	14575
852.703	14545
852.838	14488
852.973	14602
853.107	14568
853.242	14492
853.376	14358
853.511	14244
853.645	14271
853.78	14450
853.914	14404
854.048	14317
854.183	14351
854.317	14434
854.451	14530
854.585	14431
854.72	14389
854.854	14423
854.988	14240
855.122	14454
855.256	14145
855.39	14317
855.524	14355
855.658	14320
855.792	14374
855.926	14423
856.06	14385
856.194	14358
856.327	14404
856.461	14385
856.595	14263
856.729	14328
856.862	14434
856.996	14336
857.13	14480
857.263	14503
857.397	14526
857.53	14305
857.664	14434
857.797	14511
857.931	14522
858.064	14336
858.197	14442
858.331	14309
858.464	14290
858.597	14305
858.731	14328
858.864	14313
858.997	14259
859.13	14259
859.263	14454
859.396	14423
859.529	14423
859.662	14400
859.795	14309
859.928	14450
860.061	14545
860.194	14602
860.327	14355
860.46	14408
860.592	14549
860.725	14507
860.858	14499
860.99	14419
861.123	14195
861.256	14343
861.388	14317
861.521	15039
861.653	14256
861.786	14240
861.918	14225
862.05	14301
862.183	14309
862.315	14362
862.447	14450
862.58	14309
862.712	14168
862.844	14149
862.976	14142
863.108	14248
863.24	14434
863.372	14119
863.504	14202
863.636	14233
863.768	14142
863.9	14157
864.032	14043
864.164	14069
864.296	14187
864.428	14267
864.559	14313
864.691	14206
864.823	14142
864.954	14195
865.086	14138
865.217	14202
865.349	13959
865.48	14123
865.612	14176
865.743	14324
865.875	14123
866.006	14062
866.137	14119
866.269	14073
866.4	14065
866.531	14046
866.662	14088
866.793	14164
866.924	14142
867.055	14176
867.186	14088
867.317	13993
867.448	14069
867.579	13978
867.71	14100
867.841	14073
867.972	14123
868.103	14130
868.233	14142
868.364	14145
868.495	14088
868.625	14347
868.756	14465
868.886	14286
869.017	14347
869.147	14450
869.278	14431
869.408	14404
869.539	14305
869.669	14480
869.799	14381
869.929	14454
870.06	14381
870.19	14674
870.32	14765
870.45	14659
870.58	14746
870.71	14853
870.84	14929
870.97	14804
871.1	14640
871.23	14823
871.36	14925
871.489	14815
871.619	14986
871.749	14937
871.879	15074
872.008	15097
872.138	14982
872.267	14906
872.397	14765
872.526	14686
872.656	14876
872.785	14948
872.915	14994
873.044	15085
873.173	14956
873.303	15028
873.432	15020
873.561	15195
873.69	15074
873.819	15028
873.948	15013
874.077	14921
874.206	15058
874.335	14933
874.464	15287
874.593	15256
874.722	15176
874.851	15317
874.979	15382
875.108	15321
875.237	15313
875.365	15184
875.494	15268
875.623	15424
875.751	15214
875.88	15397
876.008	15530
876.136	15561
876.265	15774
876.393	15804
876.521	15835
876.65	15865
876.778	15720
876.906	15717
877.034	15724
877.162	15751
877.29	15637
877.418	15709
877.546	15762
877.674	15720
877.802	15789
877.93	15808
878.058	15762
878.185	15584
878.313	15690
878.441	15705
878.568	15599
878.696	15698
878.824	15705
878.951	15865
879.079	15968
879.206	16071
879.333	15941
879.461	15819
879.588	15915
879.715	15972
879.842	16048
879.97	15816
880.097	15557
880.224	15595
880.351	15679
880.478	15584
880.605	15511
880.732	15584
880.859	15884
880.986	15648
881.112	15701
881.239	15507
881.366	15428
881.493	15279
881.619	15317
881.746	15268
881.872	15214
881.999	15195
882.125	15184
882.252	15378
882.378	15348
882.505	15412
882.631	15291
882.757	15100
882.883	15112
883.01	15081
883.136	15036
883.262	14990
883.388	14967
883.514	15055
883.64	15024
883.766	15074
883.892	14849
884.018	14883
884.143	15074
884.269	15237
884.395	14895
884.52	14663
884.646	14762
884.772	14758
884.897	14746
885.023	14842
885.148	14800
885.274	14982
885.399	14952
885.524	14792
885.65	14765
885.775	14815
885.9	14800
886.025	14880
886.15	14876
886.275	14777
886.4	14667
886.525	14762
886.65	14758
886.775	14678
886.9	14960
887.025	14925
887.149	14842
887.274	14708
887.399	14488
887.523	14545
887.648	14560
887.773	14526
887.897	14746
888.021	14629
888.146	14541
888.27	14712
888.395	14785
888.519	14644
888.643	14606
888.767	14632
888.891	14533
889.015	14480
889.139	14473
889.263	14438
889.387	14473
889.511	14625
889.635	14568
889.759	14484
889.883	14514
890.006	14488
890.13	14537
890.254	14454
890.377	14404
890.501	14301
890.624	14206
890.748	14309
890.871	14161
890.995	14092
891.118	14142
891.241	14172
891.364	14252
891.488	14214
891.611	14142
891.734	14225
891.857	14168
891.98	14244
892.103	14237
892.226	14157
892.349	14183
892.471	14046
892.594	14168
892.717	14142
892.839	14161
892.962	14145
893.085	14195
893.207	14225
893.33	14058
893.452	14024
893.575	14298
893.697	14134
893.819	14252
893.941	14396
894.064	14286
894.186	14145
894.308	14164
894.43	14309
894.552	14385
894.674	14221
894.796	14138
894.918	14187
895.04	14180
895.161	14355
895.283	14229
895.405	14271
895.526	14126
895.648	14271
895.769	14347
895.891	14370
896.012	14301
896.134	14442
896.255	14313
896.376	14324
896.498	14324
896.619	14408
896.74	14393
896.861	14355
896.982	14655
897.103	14883
897.224	14632
897.345	14427
897.466	14492
897.587	14583
897.708	14636
897.828	14571
897.949	14492
898.07	14457
898.19	14522
898.311	14804
898.431	14602
898.552	14640
898.672	14659
898.792	14758
898.913	14762
899.033	14560
899.153	14503
899.273	14480
899.393	14415
899.513	14674
899.633	14518
899.753	14602
899.873	14450
899.993	14556
900.113	14507
900.232	14598
900.352	14514
900.472	14476
900.591	14248
900.711	14404
900.83	14355
900.95	14484
901.069	14568
901.189	14267
901.308	14164
901.427	13993
901.546	14039
901.665	14077
901.784	14115
901.904	13894
902.023	13906
902.141	13693
902.26	13662
902.379	13685
902.498	13594
902.617	13552
902.735	13670
902.854	13605
902.973	13571
903.091	13365
903.21	13316
903.328	13312
903.446	13266
903.565	13168
903.683	13194
903.801	13095
903.919	13164
904.038	13133
904.156	13053
904.274	13038
904.392	12916
904.51	12920
904.627	13034
904.745	13046
904.863	13076
904.981	12920
905.098	12673
905.216	12741
905.334	12707
905.451	12802
905.569	12722
905.686	12764
905.803	12817
905.921	12456
906.038	12677
906.155	12528
906.272	12422
906.389	12460
906.506	12319
906.623	12342
906.74	12346
906.857	12163
906.974	12262
907.091	12384
907.208	12536
907.324	12281
907.441	12232
907.557	12030
907.674	12015
907.79	11992
907.907	12038
908.023	12057
908.139	12098
908.256	11950
908.372	11859
908.488	11958
908.604	11882
908.72	11798
908.836	11832
908.952	11779
909.068	11840
909.184	11904
909.3	11912
909.415	11843
909.531	11897
909.647	11577
909.762	11585
909.878	11562
909.993	11566
910.108	11539
910.224	11509
910.339	11604
910.454	11539
910.57	11410
910.685	11337
910.8	11695
910.915	11665
911.03	11425
911.145	11315
911.259	11280
911.374	11273
911.489	11181
911.604	11140
911.718	11075
911.833	10984
911.947	10957
912.062	10892
912.176	10961
912.291	10987
912.405	11083
912.519	11296
912.633	11132
912.748	11056
912.862	11037
912.976	10923
913.09	10847
913.204	10828
913.318	10896
913.431	10987
913.545	10968
913.659	11029
913.772	10911
913.886	10839
914	10767
914.113	10904
914.226	10896
914.34	10850
914.453	10687
914.566	10790
914.68	10721
914.793	10755
914.906	10584
915.019	10481
915.132	10443
915.245	10497
915.358	10561
915.47	10542
915.583	10565
915.696	10599
915.809	10641
915.921	10637
916.034	10500
916.146	10440
916.259	10481
916.371	10603
916.483	10527
916.595	10493
916.708	10436
916.82	10424
916.932	10470
917.044	10451
917.156	10417
917.268	10306
917.38	10382
917.491	10398
917.603	10356
917.715	10443
917.826	10504
917.938	10341
918.049	10348
918.161	10375
918.272	10451
918.384	10554
918.495	10360
918.606	10227
918.717	10177
918.828	10303
918.939	10238
919.05	10287
919.161	10291
919.272	10029
919.383	10131
919.494	10276
919.604	10519
919.715	10363
919.826	10162
919.936	10276
920.047	10314
920.157	10257
920.267	10542
920.378	10390
920.488	10227
920.598	10394
920.708	10592
920.818	10436
920.928	10485
921.038	10645
921.148	10603
921.258	10268
921.368	10291
921.477	10131
921.587	10124
921.697	10044
921.806	10227
921.916	10040
922.025	9865
922.134	9907
922.244	9793
922.353	9831
922.462	9698
922.571	9690
922.68	9534
922.789	9545
922.898	9564
923.007	9519
923.116	9511
923.224	9580
923.333	9580
923.442	9443
923.55	9443
923.659	9408
923.767	9488
923.876	9378
923.984	9469
924.092	9329
924.201	9492
924.309	9412
924.417	9443
924.525	9344
924.633	9408
924.741	10291
924.849	9226
924.956	9283
925.064	9207
925.172	9123
925.279	9165
925.387	9165
925.494	9184
925.602	9340
925.709	9291
925.816	9180
925.924	9157
926.031	9253
926.138	9233
926.245	9241
926.352	9138
926.459	9260
926.566	9294
926.673	9146
926.779	9104
926.886	9097
926.993	8960
927.099	8845
927.206	8838
927.312	8891
927.419	9001
927.525	8823
927.631	8883
927.737	8830
927.843	8853
927.95	8682
928.056	8792
928.162	8811
928.267	8853
928.373	9344
928.479	8986
928.585	8670
928.69	8777
928.796	8845
928.901	8781
929.007	8571
929.112	8743
929.218	8674
929.323	8629
929.428	8610
929.533	8785
929.638	8625
929.743	8564
929.848	8712
929.953	8598
930.058	8545
930.163	8419
930.267	8450
930.372	8495
930.477	8393
930.581	8640
930.685	8480
930.79	8294
930.894	8400
930.998	8374
931.103	8488
931.207	8157
931.311	8123
931.415	8016
931.519	7871
931.623	7852
