Data from test_V78500241_3412.txt Node
Date: Fri Mar 25 14:57:28 CST 2022
User: usil
Spectrometer: V785-0024
Trigger mode: 0
Integration Time (sec): 4.000000E-1
Scans to average: 1
Nonlinearity correction enabled: false
Boxcar width: 0
Storing dark spectrum: false
XAxis mode: Wavelengths
Number of Pixels in Spectrum: 1024
>>>>>Begin Spectral Data<<<<<
801.071	21907
801.214	21747
801.356	21595
801.499	21504
801.641	21401
801.783	21207
801.926	21424
802.068	21317
802.211	21237
802.353	20986
802.496	20842
802.638	20735
802.78	20750
802.923	20750
803.065	20556
803.208	20560
803.35	20667
803.492	20769
803.635	20712
803.777	20583
803.919	20667
804.061	20971
804.204	20750
804.346	20629
804.488	20537
804.63	20659
804.773	20499
804.915	20412
805.057	20590
805.199	20495
805.341	20533
805.483	20568
805.626	20541
805.768	20488
805.91	20617
806.052	20644
806.194	20469
806.336	20625
806.478	20484
806.62	20495
806.762	20442
806.904	20674
807.046	21055
807.188	20853
807.33	20883
807.472	20948
807.614	20842
807.756	20720
807.898	20693
808.04	20503
808.182	20514
808.324	20518
808.465	20648
808.607	20788
808.749	20979
808.891	20929
809.033	20963
809.174	20880
809.316	20861
809.458	20849
809.6	20895
809.741	20944
809.883	20990
810.025	21039
810.166	21005
810.308	21013
810.45	20902
810.591	20941
810.733	20762
810.875	20632
811.016	20602
811.158	20568
811.299	20773
811.441	20686
811.582	20785
811.724	20727
811.865	20590
812.007	20530
812.148	20689
812.29	20712
812.431	20891
812.573	20994
812.714	21123
812.855	21096
812.997	21249
813.138	21401
813.279	21264
813.421	21154
813.562	21058
813.703	20906
813.845	20785
813.986	20568
814.127	20305
814.268	20358
814.41	20313
814.551	20161
814.692	20206
814.833	20149
814.974	20138
815.115	20168
815.256	19940
815.397	20005
815.539	19982
815.68	19883
815.821	19940
815.962	19955
816.103	19925
816.244	19784
816.385	19575
816.526	19586
816.666	19537
816.807	19316
816.948	19400
817.089	19567
817.23	19384
817.371	19358
817.512	19270
817.653	19327
817.793	19099
817.934	19304
818.075	19293
818.216	19259
818.356	19388
818.497	19145
818.638	18989
818.778	19008
818.919	19000
819.06	19069
819.2	19103
819.341	19122
819.481	19183
819.622	19247
819.762	19525
819.903	19472
820.043	19324
820.184	19228
820.324	19411
820.465	19343
820.605	19335
820.746	19251
820.886	19095
821.026	19274
821.167	19217
821.307	19259
821.447	19270
821.588	19088
821.728	19080
821.868	18825
822.008	18741
822.149	18764
822.289	18696
822.429	18483
822.569	18471
822.709	18456
822.849	18209
822.99	18201
823.13	18194
823.27	18205
823.41	18091
823.55	17965
823.69	17973
823.83	17984
823.97	17931
824.11	17775
824.25	17786
824.389	17745
824.529	17771
824.669	17756
824.809	17855
824.949	17828
825.089	17813
825.228	17718
825.368	17657
825.508	17532
825.648	17585
825.787	17581
825.927	17570
826.067	17665
826.206	17505
826.346	17532
826.485	17532
826.625	17570
826.765	17649
826.904	17505
827.044	17250
827.183	17292
827.323	17345
827.462	17299
827.601	17212
827.741	17250
827.88	17250
828.02	17204
828.159	17231
828.298	17239
828.437	17402
828.577	17227
828.716	17292
828.855	17105
828.994	17029
829.134	17003
829.273	17056
829.412	17018
829.551	16938
829.69	17060
829.829	17071
829.968	17048
830.107	17094
830.246	16934
830.385	16949
830.524	16820
830.663	16847
830.802	16664
830.941	16641
831.08	16573
831.219	16691
831.357	16691
831.496	16930
831.635	16618
831.774	16599
831.913	16580
832.051	16371
832.19	16516
832.329	16421
832.467	16329
832.606	16207
832.744	16371
832.883	16291
833.022	16230
833.16	16371
833.299	16341
833.437	16299
833.576	16432
833.714	16402
833.852	16481
833.991	16424
834.129	16462
834.267	16451
834.406	16424
834.544	16409
834.682	16417
834.821	16390
834.959	16603
835.097	16303
835.235	16462
835.373	16371
835.511	16470
835.65	16318
835.788	16375
835.926	16139
836.064	16067
836.202	16067
836.34	16242
836.478	16409
836.615	16295
836.753	16261
836.891	16367
837.029	16333
837.167	16215
837.305	16219
837.443	16226
837.58	16116
837.718	16238
837.856	16276
837.993	16177
838.131	16150
838.269	16219
838.406	15960
838.544	16120
838.681	15949
838.819	15785
838.956	15747
839.094	15698
839.231	15728
839.369	15808
839.506	16131
839.643	16010
839.781	15747
839.918	15648
840.055	15724
840.193	15679
840.33	15709
840.467	15663
840.604	15717
840.742	16036
840.879	15580
841.016	15660
841.153	15603
841.29	15949
841.427	15770
841.564	15823
841.701	15743
841.838	15675
841.975	15629
842.112	15633
842.249	15561
842.385	15485
842.522	15641
842.659	15622
842.796	15526
842.933	15485
843.069	15477
843.206	15454
843.343	15603
843.479	15519
843.616	15564
843.752	15291
843.889	15294
844.025	15397
844.162	15317
844.298	15412
844.435	15260
844.571	15298
844.708	15450
844.844	15393
844.98	15515
845.117	15431
845.253	15306
845.389	15249
845.525	15173
845.661	15108
845.798	15097
845.934	15241
846.07	15195
846.206	15104
846.342	15241
846.478	15142
846.614	14956
846.75	14769
846.886	14819
847.022	14998
847.158	14925
847.294	14796
847.429	14998
847.565	14834
847.701	15066
847.837	14697
847.972	14526
848.108	14716
848.244	14644
848.379	14613
848.515	14473
848.65	14564
848.786	14438
848.921	14495
849.057	14583
849.192	14598
849.328	14526
849.463	14571
849.598	14412
849.734	14431
849.869	14358
850.004	14237
850.14	14301
850.275	14343
850.41	14191
850.545	14195
850.68	14229
850.815	14183
850.95	14259
851.085	14438
851.22	14317
851.355	14202
851.49	14115
851.625	14275
851.76	14252
851.895	14168
852.03	14130
852.165	14275
852.299	14183
852.434	14374
852.569	14240
852.703	14290
852.838	14271
852.973	14381
853.107	14454
853.242	14278
853.376	14062
853.511	13989
853.645	14073
853.78	14290
853.914	14107
854.048	14054
854.183	14035
854.317	14142
854.451	14263
854.585	14092
854.72	14126
854.854	14237
854.988	14024
855.122	14096
855.256	13967
855.39	14214
855.524	14107
855.658	14248
855.792	14168
855.926	14218
856.06	14278
856.194	14317
856.327	14145
856.461	14115
856.595	14142
856.729	14020
856.862	14183
856.996	14187
857.13	14221
857.263	14244
857.397	14244
857.53	14100
857.664	14237
857.797	14252
857.931	14237
858.064	14237
858.197	14233
858.331	14138
858.464	14084
858.597	13982
858.731	14115
858.864	14168
858.997	14065
859.13	14138
859.263	14244
859.396	14225
859.529	14088
859.662	14111
859.795	14050
859.928	14145
860.061	14309
860.194	14172
860.327	14134
860.46	14134
860.592	14343
860.725	14298
860.858	14180
860.99	14256
861.123	14012
861.256	14088
861.388	14115
861.521	14807
861.653	14081
861.786	14077
861.918	14020
862.05	13989
862.183	14081
862.315	14103
862.447	14130
862.58	14134
862.712	13856
862.844	13761
862.976	14020
863.108	14027
863.24	14355
863.372	13799
863.504	13864
863.636	13997
863.768	14035
863.9	13837
864.032	13845
864.164	13860
864.296	14046
864.428	14008
864.559	14005
864.691	14046
864.823	13955
864.954	13898
865.086	13951
865.217	14012
865.349	13879
865.48	13955
865.612	13913
865.743	14077
865.875	13963
866.006	13841
866.137	13970
866.269	14005
866.4	13830
866.531	13826
866.662	13814
866.793	13822
866.924	13822
867.055	13890
867.186	13879
867.317	13879
867.448	13814
867.579	13814
867.71	13871
867.841	13780
867.972	13925
868.103	13890
868.233	13894
868.364	13932
868.495	13967
868.625	14229
868.756	14191
868.886	14107
869.017	14138
869.147	14290
869.278	14218
869.408	14149
869.539	14130
869.669	14259
869.799	14183
869.929	14294
870.06	14252
870.19	14556
870.32	14442
870.45	14530
870.58	14545
870.71	14606
870.84	14602
870.97	14545
871.1	14556
871.23	14674
871.36	14720
871.489	14579
871.619	14712
871.749	14731
871.879	14807
872.008	14823
872.138	14823
872.267	14629
872.397	14663
872.526	14537
872.656	14613
872.785	14587
872.915	14815
873.044	14800
873.173	14743
873.303	14750
873.432	14811
873.561	14800
873.69	14823
873.819	14777
873.948	14880
874.077	14880
874.206	14777
874.335	14762
874.464	14982
874.593	15070
874.722	15138
874.851	15195
874.979	15100
875.108	15089
875.237	15066
875.365	15058
875.494	15085
875.623	15154
875.751	15093
875.88	15161
876.008	15325
876.136	15317
876.265	15492
876.393	15618
876.521	15698
876.65	15580
876.778	15584
876.906	15424
877.034	15496
877.162	15530
877.29	15481
877.418	15587
877.546	15564
877.674	15557
877.802	15519
877.93	15530
878.058	15424
878.185	15473
878.313	15443
878.441	15462
878.568	15412
878.696	15466
878.824	15511
878.951	15542
879.079	15633
879.206	15956
879.333	15785
879.461	15641
879.588	15705
879.715	15709
879.842	15812
879.97	15504
880.097	15386
880.224	15344
880.351	15355
880.478	15393
880.605	15397
880.732	15382
880.859	15614
880.986	15359
881.112	15275
881.239	15241
881.366	15062
881.493	14998
881.619	15024
881.746	15074
881.872	15077
881.999	15043
882.125	14933
882.252	15138
882.378	15138
882.505	15256
882.631	15039
882.757	14891
882.883	14853
883.01	14906
883.136	14891
883.262	14731
883.388	14773
883.514	14792
883.64	14982
883.766	14830
883.892	14708
884.018	14667
884.143	14792
884.269	14956
884.395	14571
884.52	14503
884.646	14651
884.772	14594
884.897	14454
885.023	14556
885.148	14712
885.274	14762
885.399	14568
885.524	14549
885.65	14556
885.775	14556
885.9	14533
886.025	14735
886.15	14686
886.275	14571
886.4	14473
886.525	14465
886.65	14511
886.775	14499
886.9	14777
887.025	14826
887.149	14556
887.274	14366
887.399	14427
887.523	14370
887.648	14415
887.773	14267
887.897	14541
888.021	14480
888.146	14355
888.27	14507
888.395	14541
888.519	14526
888.643	14393
888.767	14473
888.891	14336
889.015	14240
889.139	14374
889.263	14336
889.387	14324
889.511	14446
889.635	14343
889.759	14294
889.883	14168
890.006	14305
890.13	14328
890.254	14206
890.377	14244
890.501	14050
890.624	14065
890.748	14195
890.871	13978
890.995	13913
891.118	13928
891.241	13974
891.364	13947
891.488	14001
891.611	13970
891.734	13875
891.857	14077
891.98	14035
892.103	14035
892.226	13993
892.349	13986
892.471	13868
892.594	13879
892.717	13944
892.839	13959
892.962	14046
893.085	14081
893.207	13925
893.33	13837
893.452	13791
893.575	14073
893.697	13978
893.819	14267
893.941	14218
894.064	14149
894.186	13909
894.308	13845
894.43	14138
894.552	14103
894.674	14153
894.796	13921
894.918	14176
895.04	14073
895.161	14001
895.283	14088
895.405	13986
895.526	14081
895.648	14096
895.769	14092
895.891	14123
896.012	14294
896.134	14134
896.255	14157
896.376	14062
896.498	14111
896.619	14278
896.74	14172
896.861	14172
896.982	14522
897.103	14568
897.224	14385
897.345	14385
897.466	14320
897.587	14442
897.708	14457
897.828	14514
897.949	14396
898.07	14202
898.19	14427
898.311	14480
898.431	14518
898.552	14495
898.672	14579
898.792	14594
898.913	14518
899.033	14419
899.153	14355
899.273	14202
899.393	14396
899.513	14339
899.633	14244
899.753	14370
899.873	14476
899.993	14385
900.113	14362
900.232	14442
900.352	14282
900.472	14324
900.591	14305
900.711	14180
900.83	14180
900.95	14206
901.069	14332
901.189	14149
901.308	13879
901.427	13921
901.546	13902
901.665	13898
901.784	13940
901.904	13719
902.023	13624
902.141	13453
902.26	13426
902.379	13502
902.498	13472
902.617	13304
902.735	13445
902.854	13422
902.973	13491
903.091	13168
903.21	13114
903.328	13179
903.446	13088
903.565	13080
903.683	13053
903.801	13023
903.919	13076
904.038	12966
904.156	12821
904.274	12897
904.392	12863
904.51	12840
904.627	12821
904.745	12837
904.863	12973
904.981	12741
905.098	12555
905.216	12437
905.334	12517
905.451	12547
905.569	12540
905.686	12547
905.803	12597
905.921	12388
906.038	12445
906.155	12414
906.272	12251
906.389	12254
906.506	12129
906.623	12110
906.74	12049
906.857	12121
906.974	12053
907.091	12228
907.208	12311
907.324	12239
907.441	12015
907.557	11851
907.674	11828
907.79	11771
907.907	11802
908.023	11901
908.139	11931
908.256	11893
908.372	11863
908.488	11722
908.604	11745
908.72	11676
908.836	11714
908.952	11672
909.068	11619
909.184	11722
909.3	11642
909.415	11695
909.531	11642
909.647	11467
909.762	11474
909.878	11330
909.993	11398
910.108	11364
910.224	11376
910.339	11353
910.454	11353
910.57	11250
910.685	11239
910.8	11490
910.915	11467
911.03	11299
911.145	11166
911.259	11143
911.374	11079
911.489	11003
911.604	10965
911.718	10843
911.833	10858
911.947	10793
912.062	10706
912.176	10820
912.291	10911
912.405	10885
912.519	11075
912.633	10995
912.748	10927
912.862	10866
912.976	10748
913.09	10714
913.204	10721
913.318	10801
913.431	10847
913.545	10896
913.659	10885
913.772	10850
913.886	10679
914	10649
914.113	10752
914.226	10847
914.34	10733
914.453	10637
914.566	10801
914.68	10653
914.793	10584
914.906	10508
915.019	10360
915.132	10375
915.245	10352
915.358	10405
915.47	10367
915.583	10436
915.696	10497
915.809	10489
915.921	10542
916.034	10322
916.146	10394
916.259	10379
916.371	10398
916.483	10466
916.595	10394
916.708	10318
916.82	10230
916.932	10379
917.044	10344
917.156	10287
917.268	10192
917.38	10249
917.491	10120
917.603	10196
917.715	10341
917.826	10341
917.938	10227
918.049	10120
918.161	10196
918.272	10337
918.384	10306
918.495	10215
918.606	10097
918.717	10078
918.828	10135
918.939	10166
919.05	9979
919.161	10051
919.272	9861
919.383	9907
919.494	10238
919.604	10306
919.715	10173
919.826	10067
919.936	10101
920.047	10128
920.157	10105
920.267	10341
920.378	10227
920.488	10055
920.598	10363
920.708	10455
920.818	10318
920.928	10268
921.038	10546
921.148	10470
921.258	10143
921.368	10093
921.477	9987
921.587	9876
921.697	9892
921.806	10032
921.916	9865
922.025	9603
922.134	9686
922.244	9610
922.353	9755
922.462	9572
922.571	9584
922.68	9416
922.789	9351
922.898	9397
923.007	9291
923.116	9412
923.224	9367
923.333	9317
923.442	9222
923.55	9256
923.659	9291
923.767	9287
923.876	9203
923.984	9310
924.092	9123
924.201	9306
924.309	9298
924.417	9264
924.525	9180
924.633	9169
924.741	10181
924.849	8963
924.956	9169
925.064	9013
925.172	8861
925.279	8880
925.387	8963
925.494	9024
925.602	9180
925.709	9169
925.816	8952
925.924	9028
926.031	9112
926.138	9039
926.245	9218
926.352	8937
926.459	9154
926.566	9116
926.673	9009
926.779	8842
926.886	8895
926.993	8811
927.099	8769
927.206	8727
927.312	8667
927.419	8834
927.525	8788
927.631	8826
927.737	8621
927.843	8651
927.95	8514
928.056	8659
928.162	8663
928.267	8686
928.373	9294
928.479	8796
928.585	8583
928.69	8606
928.796	8720
928.901	8526
929.007	8446
929.112	8610
929.218	8571
929.323	8549
929.428	8434
929.533	8594
929.638	8396
929.743	8446
929.848	8533
929.953	8457
930.058	8343
930.163	8229
930.267	8320
930.372	8362
930.477	8233
930.581	8423
930.685	8343
930.79	8244
930.894	8256
930.998	8214
931.103	8305
931.207	7970
931.311	7947
931.415	7879
931.519	7700
931.623	7651
