Data from test_V78500241_336.txt Node
Date: Fri Mar 25 14:36:03 CST 2022
User: usil
Spectrometer: V785-0024
Trigger mode: 0
Integration Time (sec): 4.000000E-1
Scans to average: 1
Nonlinearity correction enabled: false
Boxcar width: 0
Storing dark spectrum: false
XAxis mode: Wavelengths
Number of Pixels in Spectrum: 1024
>>>>>Begin Spectral Data<<<<<
801.071	26902
801.214	26876
801.356	26495
801.499	26415
801.641	26552
801.783	26442
801.926	26571
802.068	26309
802.211	26305
802.353	26077
802.496	26016
802.638	26100
802.78	26062
802.923	26065
803.065	25742
803.208	25887
803.35	25947
803.492	25860
803.635	26058
803.777	25833
803.919	26058
804.061	26278
804.204	25936
804.346	25837
804.488	25818
804.63	25860
804.773	25753
804.915	25852
805.057	25917
805.199	25852
805.341	25890
805.483	26027
805.626	26043
805.768	25830
805.91	25868
806.052	25928
806.194	25894
806.336	26020
806.478	25947
806.62	25944
806.762	26012
806.904	26065
807.046	26324
807.188	26419
807.33	26320
807.472	26271
807.614	26313
807.756	26263
807.898	26229
808.04	26043
808.182	26115
808.324	26054
808.465	26214
808.607	26377
808.749	26484
808.891	26602
809.033	26663
809.174	26530
809.316	26404
809.458	26404
809.6	26294
809.741	26434
809.883	26438
810.025	26651
810.166	26606
810.308	26587
810.45	26575
810.591	26465
810.733	26412
810.875	26191
811.016	26157
811.158	26225
811.299	26381
811.441	26514
811.582	26324
811.724	26324
811.865	26202
812.007	26286
812.148	26317
812.29	26294
812.431	26545
812.573	26708
812.714	26537
812.855	26739
812.997	26883
813.138	26998
813.279	26830
813.421	26785
813.562	26693
813.703	26644
813.845	26427
813.986	26149
814.127	25902
814.268	25803
814.41	25875
814.551	25875
814.692	25951
814.833	25951
814.974	25757
815.115	25780
815.256	25712
815.397	25635
815.539	25537
815.68	25571
815.821	25514
815.962	25784
816.103	25635
816.244	25392
816.385	25369
816.526	25266
816.666	25084
816.807	25053
816.948	25148
817.089	25183
817.23	25034
817.371	24977
817.512	24890
817.653	24825
817.793	24776
817.934	25072
818.075	25061
818.216	25023
818.356	24981
818.497	24795
818.638	24555
818.778	24642
818.919	24604
819.06	24612
819.2	24787
819.341	24817
819.481	24886
819.622	24947
819.762	25175
819.903	25088
820.043	25053
820.184	24970
820.324	24837
820.465	25008
820.605	24973
820.746	24878
820.886	24688
821.026	24882
821.167	24863
821.307	24905
821.447	24867
821.588	24669
821.728	24582
821.868	24395
822.008	24319
822.149	24213
822.289	24216
822.429	24022
822.569	23992
822.709	23984
822.849	23707
822.99	23805
823.13	23729
823.27	23589
823.41	23330
823.55	23459
823.69	23471
823.83	23570
823.97	23520
824.11	23349
824.25	23250
824.389	23250
824.529	23330
824.669	23398
824.809	23486
824.949	23315
825.089	23360
825.228	23326
825.368	23132
825.508	23128
825.648	23079
825.787	23094
825.927	23212
826.067	23094
826.206	23056
826.346	23113
826.485	23204
826.625	23231
826.765	23132
826.904	23185
827.044	22911
827.183	22812
827.323	22858
827.462	22831
827.601	22774
827.741	22809
827.88	22755
828.02	22733
828.159	22710
828.298	22782
828.437	22778
828.577	22793
828.716	22915
828.855	22744
828.994	22512
829.134	22432
829.273	22485
829.412	22466
829.551	22447
829.69	22577
829.829	22493
829.968	22641
830.107	22470
830.246	22489
830.385	22462
830.524	22314
830.663	22223
830.802	22246
830.941	22063
831.08	22074
831.219	22124
831.357	22158
831.496	22177
831.635	22051
831.774	21903
831.913	22010
832.051	21709
832.19	21937
832.329	21762
832.467	21720
832.606	21679
832.744	21663
832.883	21774
833.022	21652
833.16	21591
833.299	21682
833.437	21762
833.576	21675
833.714	21762
833.852	21698
833.991	21705
834.129	21842
834.267	21781
834.406	21724
834.544	21804
834.682	21564
834.821	21637
834.959	21835
835.097	21751
835.235	21747
835.373	21648
835.511	21652
835.65	21618
835.788	21572
835.926	21504
836.064	21226
836.202	21367
836.34	21606
836.478	21610
836.615	21564
836.753	21389
836.891	21629
837.029	21564
837.167	21542
837.305	21439
837.443	21393
837.58	21462
837.718	21447
837.856	21355
837.993	21272
838.131	21241
838.269	21157
838.406	21363
838.544	21294
838.681	21017
838.819	21013
838.956	20979
839.094	20826
839.231	20819
839.369	21009
839.506	21199
839.643	21077
839.781	20834
839.918	20781
840.055	20758
840.193	20758
840.33	20648
840.467	20845
840.604	20720
840.742	21024
840.879	20648
841.016	20697
841.153	20659
841.29	20845
841.427	20708
841.564	20655
841.701	20792
841.838	20811
841.975	20609
842.112	20583
842.249	20564
842.385	20427
842.522	20712
842.659	20423
842.796	20473
842.933	20511
843.069	20412
843.206	20442
843.343	20511
843.479	20385
843.616	20499
843.752	20282
843.889	20259
844.025	20469
844.162	20122
844.298	20374
844.435	20180
844.571	20225
844.708	20248
844.844	20431
844.98	20366
845.117	20244
845.253	20161
845.389	20157
845.525	20077
845.661	20035
845.798	20050
845.934	20092
846.07	19947
846.206	19959
846.342	20027
846.478	19970
846.614	19731
846.75	19662
846.886	19655
847.022	19788
847.158	19765
847.294	19689
847.429	19708
847.565	19620
847.701	19902
847.837	19339
847.972	19327
848.108	19495
848.244	19343
848.379	19327
848.515	19213
848.65	19236
848.786	19244
848.921	19145
849.057	19289
849.192	19301
849.328	19232
849.463	19240
849.598	19247
849.734	18951
849.869	19175
850.004	19023
850.14	18943
850.275	19004
850.41	18905
850.545	18977
850.68	18973
850.815	18939
850.95	18985
851.085	19110
851.22	19114
851.355	19000
851.49	19019
851.625	18859
851.76	18970
851.895	18772
852.03	18817
852.165	18844
852.299	18920
852.434	18970
852.569	19019
852.703	18989
852.838	19057
852.973	18985
853.107	18981
853.242	18905
853.376	18673
853.511	18627
853.645	18760
853.78	18943
853.914	18905
854.048	18844
854.183	18776
854.317	18715
854.451	18985
854.585	18817
854.72	18882
854.854	18852
854.988	18711
855.122	18825
855.256	18677
855.39	18696
855.524	18814
855.658	18741
855.792	18757
855.926	18875
856.06	18829
856.194	18810
856.327	18821
856.461	18707
856.595	18757
856.729	18677
856.862	18905
856.996	18703
857.13	18806
857.263	18943
857.397	18863
857.53	18722
857.664	18753
857.797	18783
857.931	18954
858.064	18829
858.197	18768
858.331	18753
858.464	18692
858.597	18623
858.731	18684
858.864	18661
858.997	18703
859.13	18745
859.263	18692
859.396	18787
859.529	18665
859.662	18658
859.795	18692
859.928	18730
860.061	18863
860.194	18840
860.327	18692
860.46	18574
860.592	18768
860.725	18783
860.858	18837
860.99	18749
861.123	18612
861.256	18559
861.388	18631
861.521	19373
861.653	18593
861.786	18429
861.918	18608
862.05	18642
862.183	18669
862.315	18795
862.447	18776
862.58	18730
862.712	18452
862.844	18471
862.976	18475
863.108	18429
863.24	18749
863.372	18285
863.504	18426
863.636	18338
863.768	18517
863.9	18399
864.032	18338
864.164	18334
864.296	18391
864.428	18426
864.559	18513
864.691	18456
864.823	18445
864.954	18460
865.086	18376
865.217	18388
865.349	18315
865.48	18372
865.612	18395
865.743	18467
865.875	18220
866.006	18311
866.137	18384
866.269	18323
866.4	18388
866.531	18171
866.662	18285
866.793	18266
866.924	18338
867.055	18273
867.186	18296
867.317	18289
867.448	18281
867.579	18311
867.71	18216
867.841	18125
867.972	18281
868.103	18243
868.233	18407
868.364	18285
868.495	18388
868.625	18521
868.756	18582
868.886	18422
869.017	18448
869.147	18646
869.278	18639
869.408	18525
869.539	18437
869.669	18578
869.799	18441
869.929	18563
870.06	18582
870.19	18798
870.32	18825
870.45	18730
870.58	18871
870.71	19046
870.84	19057
870.97	18909
871.1	18844
871.23	19038
871.36	19095
871.489	18962
871.619	19034
871.749	18993
871.879	19198
872.008	19270
872.138	19061
872.267	19160
872.397	19038
872.526	18920
872.656	18890
872.785	18970
872.915	19061
873.044	19152
873.173	19080
873.303	19160
873.432	19171
873.561	19213
873.69	19232
873.819	19152
873.948	19137
874.077	19084
874.206	19031
874.335	19145
874.464	19301
874.593	19487
874.722	19514
874.851	19392
874.979	19514
875.108	19369
875.237	19434
875.365	19228
875.494	19384
875.623	19422
875.751	19483
875.88	19400
876.008	19578
876.136	19639
876.265	19772
876.393	19936
876.521	19830
876.65	19883
876.778	19830
876.906	19753
877.034	19776
877.162	19837
877.29	19742
877.418	19784
877.546	19734
877.674	19864
877.802	19803
877.93	19791
878.058	19807
878.185	19677
878.313	19719
878.441	19765
878.568	19594
878.696	19757
878.824	19799
878.951	19799
879.079	19928
879.206	20221
879.333	20054
879.461	19818
879.588	19974
879.715	20039
879.842	20107
879.97	19902
880.097	19605
880.224	19609
880.351	19624
880.478	19681
880.605	19567
880.732	19696
880.859	19841
880.986	19616
881.112	19708
881.239	19552
881.366	19400
881.493	19346
881.619	19282
881.746	19316
881.872	19316
881.999	19225
882.125	19088
882.252	19335
882.378	19221
882.505	19358
882.631	19133
882.757	19080
882.883	19004
883.01	19057
883.136	19004
883.262	18871
883.388	18829
883.514	19004
883.64	19080
883.766	18954
883.892	18795
884.018	18863
884.143	19015
884.269	19046
884.395	18787
884.52	18658
884.646	18631
884.772	18593
884.897	18589
885.023	18787
885.148	18802
885.274	18859
885.399	18722
885.524	18642
885.65	18730
885.775	18593
885.9	18726
886.025	18726
886.15	18715
886.275	18597
886.4	18601
886.525	18486
886.65	18646
886.775	18639
886.9	18681
887.025	18859
887.149	18764
887.274	18452
887.399	18502
887.523	18403
887.648	18361
887.773	18311
887.897	18517
888.021	18418
888.146	18346
888.27	18513
888.395	18544
888.519	18433
888.643	18536
888.767	18407
888.891	18464
889.015	18289
889.139	18270
889.263	18216
889.387	18289
889.511	18475
889.635	18418
889.759	18159
889.883	18247
890.006	18205
890.13	18330
890.254	18140
890.377	18144
890.501	17992
890.624	17977
890.748	18045
890.871	17901
890.995	17843
891.118	17809
891.241	17817
891.364	17821
891.488	18007
891.611	17847
891.734	17874
891.857	18053
891.98	17824
892.103	17874
892.226	17859
892.349	17805
892.471	17573
892.594	17798
892.717	17798
892.839	17783
892.962	17813
893.085	17920
893.207	17771
893.33	17710
893.452	17714
893.575	17851
893.697	17802
893.819	18030
893.941	17980
894.064	17874
894.186	17790
894.308	17775
894.43	17817
894.552	17950
894.674	17874
894.796	17615
894.918	17794
895.04	17760
895.161	17771
895.283	17828
895.405	17684
895.526	17824
895.648	17904
895.769	17836
895.891	17843
896.012	17821
896.134	17874
896.255	17840
896.376	17866
896.498	17885
896.619	17954
896.74	17851
896.861	17946
896.982	18216
897.103	18350
897.224	18277
897.345	18064
897.466	18102
897.587	18159
897.708	18201
897.828	18121
897.949	17973
898.07	17950
898.19	18060
898.311	18304
898.431	17992
898.552	18133
898.672	18091
898.792	18224
898.913	18045
899.033	17961
899.153	17912
899.273	17802
899.393	17923
899.513	17824
899.633	17843
899.753	17866
899.873	17798
899.993	17969
900.113	17817
900.232	17946
900.352	17809
900.472	17665
900.591	17691
900.711	17714
900.83	17634
900.95	17741
901.069	17859
901.189	17707
901.308	17459
901.427	17356
901.546	17372
901.665	17360
901.784	17334
901.904	17136
902.023	17045
902.141	16908
902.26	16831
902.379	16889
902.498	16820
902.617	16866
902.735	16820
902.854	16824
902.973	16744
903.091	16588
903.21	16561
903.328	16615
903.446	16360
903.565	16329
903.683	16405
903.801	16284
903.919	16341
904.038	16287
904.156	16158
904.274	16215
904.392	16280
904.51	16173
904.627	16029
904.745	16196
904.863	16097
904.981	15968
905.098	15606
905.216	15918
905.334	15835
905.451	15861
905.569	15705
905.686	15842
905.803	15785
905.921	15576
906.038	15682
906.155	15618
906.272	15523
906.389	15469
906.506	15287
906.623	15405
906.74	15401
906.857	15176
906.974	15199
907.091	15336
907.208	15367
907.324	15363
907.441	15241
907.557	15085
907.674	14990
907.79	14956
907.907	14971
908.023	15161
908.139	14975
908.256	14998
908.372	14990
908.488	14845
908.604	14823
908.72	14765
908.836	14815
908.952	14762
909.068	14773
909.184	14800
909.3	14674
909.415	14727
909.531	14720
909.647	14507
909.762	14434
909.878	14377
909.993	14461
910.108	14438
910.224	14351
910.339	14438
910.454	14332
910.57	14324
910.685	14233
910.8	14564
910.915	14385
911.03	14263
911.145	14031
911.259	14077
911.374	14058
911.489	13986
911.604	13967
911.718	13871
911.833	13868
911.947	13791
912.062	13750
912.176	13734
912.291	13811
912.405	13795
912.519	13944
912.633	14100
912.748	13894
912.862	13879
912.976	13685
913.09	13499
913.204	13636
913.318	13643
913.431	13765
913.545	13700
913.659	13803
913.772	13563
913.886	13552
914	13499
914.113	13559
914.226	13632
914.34	13556
914.453	13430
914.566	13552
914.68	13339
914.793	13491
914.906	13327
915.019	13194
915.132	13129
915.245	13175
915.358	13202
915.47	13202
915.583	13164
915.696	13183
915.809	13285
915.921	13308
916.034	13194
916.146	13103
916.259	13042
916.371	13209
916.483	13095
916.595	12951
916.708	13046
916.82	13050
916.932	12939
917.044	13050
917.156	12947
917.268	12829
917.38	12920
917.491	12886
917.603	12924
917.715	13038
917.826	13008
917.938	12753
918.049	12760
918.161	12905
918.272	12954
918.384	12989
918.495	12924
918.606	12681
918.717	12669
918.828	12707
918.939	12688
919.05	12631
919.161	12642
919.272	12452
919.383	12509
919.494	12654
919.604	12833
919.715	12604
919.826	12570
919.936	12616
920.047	12669
920.157	12684
920.267	12837
920.378	12700
920.488	12692
920.598	12848
920.708	12856
920.818	12768
920.928	12749
921.038	12947
921.148	12878
921.258	12570
921.368	12566
921.477	12498
921.587	12388
921.697	12262
921.806	12486
921.916	12228
922.025	12152
922.134	12087
922.244	12076
922.353	12095
922.462	12003
922.571	11904
922.68	11745
922.789	11714
922.898	11718
923.007	11722
923.116	11745
923.224	11714
923.333	11703
923.442	11619
923.55	11543
923.659	11589
923.767	11707
923.876	11501
923.984	11646
924.092	11535
924.201	11551
924.309	11520
924.417	11516
924.525	11509
924.633	11467
924.741	12144
924.849	11307
924.956	11414
925.064	11307
925.172	11254
925.279	11201
925.387	11307
925.494	11246
925.602	11402
925.709	11383
925.816	11212
925.924	11220
926.031	11353
926.138	11208
926.245	11227
926.352	11159
926.459	11311
926.566	11242
926.673	11128
926.779	11041
926.886	10976
926.993	10900
927.099	10858
927.206	10828
927.312	10809
927.419	10915
927.525	10892
927.631	10930
927.737	10748
927.843	10717
927.95	10641
928.056	10683
928.162	10691
928.267	10771
928.373	11318
928.479	10904
928.585	10573
928.69	10702
928.796	10717
928.901	10618
929.007	10447
929.112	10634
929.218	10527
929.323	10523
929.428	10512
929.533	10656
929.638	10428
929.743	10497
929.848	10489
929.953	10394
930.058	10363
930.163	10265
930.267	10246
930.372	10325
930.477	10150
930.581	10447
930.685	10253
930.79	10036
930.894	10135
930.998	10147
931.103	10219
931.207	9903
931.311	9755
931.415	9751
931.519	9622
931.623	9538
