Data from test_V78500241_881.txt Node
Date: Fri Mar 25 14:39:51 CST 2022
User: usil
Spectrometer: V785-0024
Trigger mode: 0
Integration Time (sec): 4.000000E-1
Scans to average: 1
Nonlinearity correction enabled: false
Boxcar width: 0
Storing dark spectrum: false
XAxis mode: Wavelengths
Number of Pixels in Spectrum: 1024
>>>>>Begin Spectral Data<<<<<
801.071	25449
801.214	25419
801.356	25209
801.499	24989
801.641	24886
801.783	24768
801.926	24844
802.068	24741
802.211	24494
802.353	24627
802.496	24182
802.638	24209
802.78	24197
802.923	24171
803.065	24102
803.208	24171
803.35	24136
803.492	24315
803.635	24266
803.777	24102
803.919	24300
804.061	24521
804.204	24262
804.346	24079
804.488	24140
804.63	24197
804.773	24041
804.915	24289
805.057	24319
805.199	24209
805.341	24357
805.483	24235
805.626	24273
805.768	24270
805.91	24483
806.052	24350
806.194	24395
806.336	24722
806.478	24753
806.62	24631
806.762	24840
806.904	24981
807.046	25415
807.188	25358
807.33	25468
807.472	25674
807.614	25894
807.756	26164
807.898	26396
808.04	26990
808.182	27625
808.324	28478
808.465	29341
808.607	30528
808.749	31251
808.891	31894
809.033	32012
809.174	31411
809.316	30327
809.458	29444
809.6	28344
809.741	27625
809.883	26929
810.025	26552
810.166	26081
810.308	26031
810.45	25731
810.591	25510
810.733	25190
810.875	25175
811.016	24894
811.158	24856
811.299	25004
811.441	24970
811.582	24947
811.724	24677
811.865	24627
812.007	24722
812.148	24684
812.29	24650
812.431	24681
812.573	24859
812.714	25038
812.855	24985
812.997	25114
813.138	25126
813.279	25141
813.421	24817
813.562	24863
813.703	24779
813.845	24734
813.986	24232
814.127	24251
814.268	24045
814.41	24022
814.551	23950
814.692	23935
814.833	23824
814.974	23760
815.115	24026
815.256	23604
815.397	23668
815.539	23691
815.68	23562
815.821	23543
815.962	23680
816.103	23695
816.244	23467
816.385	23303
816.526	23239
816.666	23071
816.807	22968
816.948	23102
817.089	23090
817.23	23041
817.371	23056
817.512	22957
817.653	23029
817.793	22934
817.934	22904
818.075	23060
818.216	22953
818.356	22873
818.497	22835
818.638	22569
818.778	22698
818.919	22729
819.06	22778
819.2	22767
819.341	22824
819.481	22809
819.622	22843
819.762	23105
819.903	23044
820.043	22965
820.184	22854
820.324	22911
820.465	22828
820.605	22968
820.746	22816
820.886	22752
821.026	22869
821.167	22812
821.307	22877
821.447	22755
821.588	22634
821.728	22512
821.868	22367
822.008	22242
822.149	22230
822.289	22112
822.429	21899
822.569	21755
822.709	21842
822.849	21698
822.99	21667
823.13	21587
823.27	21732
823.41	21515
823.55	21374
823.69	21454
823.83	21351
823.97	21332
824.11	21340
824.25	21272
824.389	21214
824.529	21195
824.669	21161
824.809	21279
824.949	21252
825.089	21279
825.228	21226
825.368	21009
825.508	21142
825.648	21032
825.787	20967
825.927	21028
826.067	20952
826.206	20887
826.346	21009
826.485	21020
826.625	20941
826.765	21165
826.904	21009
827.044	20689
827.183	20746
827.323	20590
827.462	20792
827.601	20621
827.741	20682
827.88	20765
828.02	20625
828.159	20606
828.298	20617
828.437	20629
828.577	20594
828.716	20758
828.855	20564
828.994	20366
829.134	20393
829.273	20457
829.412	20298
829.551	20210
829.69	20339
829.829	20450
829.968	20389
830.107	20332
830.246	20336
830.385	20366
830.524	20244
830.663	20138
830.802	20100
830.941	20111
831.08	19989
831.219	20005
831.357	19974
831.496	20088
831.635	19902
831.774	19894
831.913	19799
832.051	19769
832.19	19890
832.329	19780
832.467	19731
832.606	19616
832.744	19605
832.883	19693
833.022	19620
833.16	19788
833.299	19803
833.437	19811
833.576	19849
833.714	19875
833.852	20046
833.991	20001
834.129	20142
834.267	20081
834.406	19986
834.544	20134
834.682	20005
834.821	19974
834.959	20005
835.097	19643
835.235	19921
835.373	19822
835.511	19746
835.65	19632
835.788	19540
835.926	19449
836.064	19327
836.202	19464
836.34	19502
836.478	19704
836.615	19430
836.753	19586
836.891	19563
837.029	19472
837.167	19445
837.305	19434
837.443	19304
837.58	19236
837.718	19407
837.856	19289
837.993	19282
838.131	19194
838.269	19084
838.406	19126
838.544	19023
838.681	18916
838.819	18939
838.956	18703
839.094	18821
839.231	18779
839.369	18958
839.506	19133
839.643	19057
839.781	18814
839.918	18734
840.055	18673
840.193	18665
840.33	18700
840.467	18753
840.604	18734
840.742	19050
840.879	18479
841.016	18696
841.153	18669
841.29	18886
841.427	18798
841.564	18749
841.701	18753
841.838	18616
841.975	18608
842.112	18582
842.249	18582
842.385	18422
842.522	18741
842.659	18479
842.796	18350
842.933	18486
843.069	18388
843.206	18452
843.343	18623
843.479	18532
843.616	18578
843.752	18300
843.889	18399
844.025	18498
844.162	18422
844.298	18513
844.435	18547
844.571	18563
844.708	18696
844.844	18833
844.98	18875
845.117	19179
845.253	19232
845.389	19715
845.525	20708
845.661	22459
845.798	24437
845.934	26153
846.07	27013
846.206	26743
846.342	25540
846.478	23334
846.614	21306
846.75	19890
846.886	19148
847.022	18791
847.158	18441
847.294	18247
847.429	18171
847.565	18068
847.701	18155
847.837	17748
847.972	17490
848.108	17672
848.244	17699
848.379	17524
848.515	17425
848.65	17307
848.786	17395
848.921	17459
849.057	17509
849.192	17433
849.328	17280
849.463	17379
849.598	17330
849.734	17250
849.869	17341
850.004	17109
850.14	17288
850.275	17254
850.41	17052
850.545	17140
850.68	17025
850.815	17067
850.95	17003
851.085	17341
851.22	17208
851.355	17064
851.49	17064
851.625	17045
851.76	17124
851.895	16942
852.03	17067
852.165	17178
852.299	17094
852.434	17208
852.569	17132
852.703	17254
852.838	17181
852.973	17311
853.107	17273
853.242	17022
853.376	16953
853.511	16908
853.645	17018
853.78	17128
853.914	17071
854.048	17056
854.183	17045
854.317	17006
854.451	17193
854.585	17003
854.72	17003
854.854	17136
854.988	16869
855.122	16923
855.256	16843
855.39	16961
855.524	17090
855.658	17048
855.792	17056
855.926	16999
856.06	17041
856.194	17014
856.327	16961
856.461	16847
856.595	16889
856.729	16881
856.862	16987
856.996	16889
857.13	16885
857.263	17014
857.397	16995
857.53	16957
857.664	16995
857.797	16930
857.931	17109
858.064	16934
858.197	16984
858.331	16858
858.464	16877
858.597	16759
858.731	16885
858.864	16763
858.997	16820
859.13	16892
859.263	16869
859.396	16968
859.529	16869
859.662	16759
859.795	16801
859.928	16900
860.061	16927
860.194	16999
860.327	16904
860.46	16824
860.592	16991
860.725	16972
860.858	16919
860.99	16873
861.123	16752
861.256	16744
861.388	16797
861.521	17554
861.653	16656
861.786	16782
861.918	16672
862.05	16767
862.183	16843
862.315	16812
862.447	16778
862.58	16877
862.712	16683
862.844	16500
862.976	16653
863.108	16660
863.24	16987
863.372	16402
863.504	16550
863.636	16584
863.768	16672
863.9	16493
864.032	16546
864.164	16641
864.296	16649
864.428	16592
864.559	16706
864.691	16649
864.823	16668
864.954	16603
865.086	16546
865.217	16558
865.349	16451
865.48	16580
865.612	16523
865.743	16713
865.875	16535
866.006	16489
866.137	16516
866.269	16493
866.4	16542
866.531	16546
866.662	16558
866.793	16512
866.924	16493
867.055	16497
867.186	16440
867.317	16421
867.448	16371
867.579	16478
867.71	16348
867.841	16382
867.972	16436
868.103	16531
868.233	16485
868.364	16485
868.495	16584
868.625	16774
868.756	16786
868.886	16702
869.017	16717
869.147	16904
869.278	16911
869.408	16721
869.539	16691
869.669	16752
869.799	16850
869.929	16809
870.06	16828
870.19	17109
870.32	17056
870.45	17216
870.58	17216
870.71	17193
870.84	17284
870.97	17075
871.1	17220
871.23	17387
871.36	17326
871.489	17273
871.619	17277
871.749	17318
871.879	17356
872.008	17448
872.138	17402
872.267	17387
872.397	17303
872.526	17147
872.656	17250
872.785	17265
872.915	17440
873.044	17433
873.173	17395
873.303	17455
873.432	17467
873.561	17547
873.69	17478
873.819	17490
873.948	17547
874.077	17463
874.206	17455
874.335	17554
874.464	17608
874.593	17843
874.722	17756
874.851	17893
874.979	18003
875.108	17935
875.237	17760
875.365	17779
875.494	17893
875.623	17954
875.751	17965
875.88	18026
876.008	18117
876.136	18163
876.265	18323
876.393	18498
876.521	18437
876.65	18513
876.778	18486
876.906	18403
877.034	18448
877.162	18494
877.29	18376
877.418	18479
877.546	18566
877.674	18479
877.802	18711
877.93	18661
878.058	18654
878.185	18669
878.313	18852
878.441	18996
878.568	19000
878.696	19293
878.824	19567
878.951	20088
879.079	20465
879.206	21203
879.333	21823
879.461	22238
879.588	22713
879.715	22797
879.842	22519
879.97	21743
880.097	20845
880.224	20267
880.351	20062
880.478	19662
880.605	19502
880.732	19388
880.859	19548
880.986	19331
881.112	19335
881.239	19148
881.366	18935
881.493	18958
881.619	18817
881.746	18897
881.872	18943
881.999	18833
882.125	18837
882.252	18989
882.378	18966
882.505	19069
882.631	18859
882.757	18730
882.883	18829
883.01	18791
883.136	18703
883.262	18547
883.388	18627
883.514	18627
883.64	18711
883.766	18650
883.892	18460
884.018	18479
884.143	18646
884.269	18783
884.395	18395
884.52	18342
884.646	18304
884.772	18426
884.897	18327
885.023	18426
885.148	18479
885.274	18604
885.399	18376
885.524	18353
885.65	18353
885.775	18239
885.9	18277
886.025	18247
886.15	18197
886.275	17977
886.4	18011
886.525	18026
886.65	17984
886.775	17859
886.9	18003
887.025	18053
887.149	17885
887.274	17661
887.399	17589
887.523	17543
887.648	17505
887.773	17482
887.897	17615
888.021	17551
888.146	17402
888.27	17547
888.395	17570
888.519	17417
888.643	17509
888.767	17425
888.891	17280
889.015	17200
889.139	17318
889.263	17204
889.387	17315
889.511	17368
889.635	17261
889.759	17117
889.883	17033
890.006	17090
890.13	17197
890.254	17041
890.377	17022
890.501	16877
890.624	16892
890.748	16942
890.871	16713
890.995	16546
891.118	16603
891.241	16637
891.364	16675
891.488	16862
891.611	16618
891.734	16675
891.857	16752
891.98	16675
892.103	16660
892.226	16660
892.349	16565
892.471	16432
892.594	16626
892.717	16599
892.839	16603
892.962	16660
893.085	16729
893.207	16554
893.33	16478
893.452	16451
893.575	16660
893.697	16390
893.819	16675
893.941	16611
894.064	16569
894.186	16413
894.308	16371
894.43	16588
894.552	16683
894.674	16527
894.796	16367
894.918	16554
895.04	16367
895.161	16603
895.283	16508
895.405	16451
895.526	16489
895.648	16478
895.769	16580
895.891	16565
896.012	16569
896.134	16577
896.255	16573
896.376	16550
896.498	16596
896.619	16531
896.74	16508
896.861	16478
896.982	16877
897.103	17037
897.224	16831
897.345	16847
897.466	16759
897.587	16812
897.708	16946
897.828	16797
897.949	16656
898.07	16694
898.19	16729
898.311	16942
898.431	16729
898.552	16763
898.672	16965
898.792	16930
898.913	16915
899.033	16797
899.153	16683
899.273	16531
899.393	16672
899.513	16637
899.633	16618
899.753	16828
899.873	16683
899.993	16752
900.113	16641
900.232	16615
900.352	16637
900.472	16603
900.591	16531
900.711	16573
900.83	16497
900.95	16618
901.069	16649
901.189	16432
901.308	16207
901.427	16181
901.546	16207
901.665	16173
901.784	16169
901.904	16040
902.023	15907
902.141	15793
902.26	15709
902.379	15675
902.498	15713
902.617	15686
902.735	15690
902.854	15618
902.973	15515
903.091	15283
903.21	15332
903.328	15332
903.446	15329
903.565	15138
903.683	15089
903.801	15085
903.919	15097
904.038	15055
904.156	14933
904.274	14937
904.392	14754
904.51	14895
904.627	14925
904.745	14982
904.863	14933
904.981	14739
905.098	14560
905.216	14587
905.334	14541
905.451	14625
905.569	14526
905.686	14606
905.803	14571
905.921	14400
906.038	14518
906.155	14248
906.272	14225
906.389	14313
906.506	14130
906.623	14107
906.74	14077
906.857	13894
906.974	13982
907.091	14153
907.208	14145
907.324	14069
907.441	14001
907.557	13845
907.674	13811
907.79	13784
907.907	13696
908.023	13845
908.139	13788
908.256	13738
908.372	13655
908.488	13723
908.604	13514
908.72	13449
908.836	13472
908.952	13476
909.068	13552
909.184	13636
909.3	13487
909.415	13483
909.531	13480
909.647	13263
909.762	13285
909.878	13362
909.993	13266
910.108	13293
910.224	13160
910.339	13274
910.454	13122
910.57	13069
910.685	13046
910.8	13320
910.915	13228
911.03	13152
911.145	12993
911.259	12966
911.374	12916
911.489	12894
911.604	12829
911.718	12715
911.833	12681
911.947	12547
912.062	12452
912.176	12612
912.291	12620
912.405	12593
912.519	12741
912.633	12863
912.748	12665
912.862	12604
912.976	12494
913.09	12441
913.204	12498
913.318	12589
913.431	12555
913.545	12582
913.659	12601
913.772	12437
913.886	12433
914	12323
914.113	12441
914.226	12525
914.34	12483
914.453	12311
914.566	12471
914.68	12277
914.793	12296
914.906	12117
915.019	12095
915.132	11996
915.245	12057
915.358	12026
915.47	12079
915.583	12148
915.696	12022
915.809	12235
915.921	12327
916.034	12125
916.146	12076
916.259	11965
916.371	12106
916.483	12072
916.595	12003
916.708	12072
916.82	11923
916.932	11965
917.044	11980
917.156	11942
917.268	11824
917.38	11805
917.491	11817
917.603	11882
917.715	11931
917.826	11946
917.938	11775
918.049	11691
918.161	11851
918.272	11961
918.384	11946
918.495	11813
918.606	11649
918.717	11596
918.828	11657
918.939	11691
919.05	11543
919.161	11615
919.272	11493
919.383	11558
919.494	11665
919.604	11931
919.715	11733
919.826	11589
919.936	11619
920.047	11661
920.157	11646
920.267	11802
920.378	11688
920.488	11615
920.598	11863
920.708	11977
920.818	11794
920.928	11760
921.038	12019
921.148	11954
921.258	11661
921.368	11562
921.477	11524
921.587	11421
921.697	11368
921.806	11379
921.916	11349
922.025	11162
922.134	11117
922.244	11041
922.353	11212
922.462	11056
922.571	10980
922.68	10877
922.789	10812
922.898	10790
923.007	10828
923.116	10847
923.224	10801
923.333	10744
923.442	10736
923.55	10706
923.659	10698
923.767	10702
923.876	10710
923.984	10721
924.092	10611
924.201	10744
924.309	10618
924.417	10653
924.525	10527
924.633	10615
924.741	11315
924.849	10481
924.956	10546
925.064	10432
925.172	10238
925.279	10322
925.387	10367
925.494	10360
925.602	10535
925.709	10413
925.816	10242
925.924	10352
926.031	10527
926.138	10375
926.245	10497
926.352	10272
926.459	10337
926.566	10436
926.673	10386
926.779	10261
926.886	10181
926.993	10021
927.099	10082
927.206	9941
927.312	9987
927.419	10112
927.525	10044
927.631	10128
927.737	10002
927.843	9975
927.95	9740
928.056	9865
928.162	9926
928.267	9994
928.373	10558
928.479	10071
928.585	9819
928.69	9835
928.796	9956
928.901	9838
929.007	9781
929.112	9838
929.218	9781
929.323	9759
929.428	9728
929.533	9873
929.638	9644
929.743	9648
929.848	9804
929.953	9724
930.058	9519
930.163	9458
930.267	9504
930.372	9633
930.477	9420
930.581	9682
930.685	9488
930.79	9340
930.894	9447
930.998	9264
931.103	9538
931.207	9135
931.311	9100
931.415	9116
931.519	8899
931.623	8857
