Data from test_V78500241_2704.txt Node
Date: Fri Mar 25 14:52:32 CST 2022
User: usil
Spectrometer: V785-0024
Trigger mode: 0
Integration Time (sec): 4.000000E-1
Scans to average: 1
Nonlinearity correction enabled: false
Boxcar width: 0
Storing dark spectrum: false
XAxis mode: Wavelengths
Number of Pixels in Spectrum: 1024
>>>>>Begin Spectral Data<<<<<
801.071	21907
801.214	21789
801.356	21675
801.499	21507
801.641	21340
801.783	21393
801.926	21431
802.068	21313
802.211	21207
802.353	21123
802.496	21020
802.638	20838
802.78	20746
802.923	20689
803.065	20693
803.208	20659
803.35	20667
803.492	20880
803.635	20743
803.777	20659
803.919	20800
804.061	21081
804.204	20785
804.346	20667
804.488	20651
804.63	20632
804.773	20533
804.915	20587
805.057	20731
805.199	20568
805.341	20659
805.483	20800
805.626	20754
805.768	20560
805.91	20754
806.052	20503
806.194	20473
806.336	20739
806.478	20617
806.62	20617
806.762	20667
806.904	20830
807.046	20960
807.188	20990
807.33	20933
807.472	20994
807.614	20838
807.756	20921
807.898	20697
808.04	20678
808.182	20773
808.324	20648
808.465	20693
808.607	20902
808.749	21047
808.891	21077
809.033	21161
809.174	21093
809.316	20990
809.458	20914
809.6	20998
809.741	21062
809.883	20921
810.025	21017
810.166	21161
810.308	21020
810.45	21055
810.591	20914
810.733	20773
810.875	20815
811.016	20583
811.158	20674
811.299	20773
811.441	20891
811.582	20830
811.724	20693
811.865	20819
812.007	20659
812.148	20686
812.29	20731
812.431	20986
812.573	21028
812.714	21051
812.855	21256
812.997	21306
813.138	21507
813.279	21393
813.421	21279
813.562	21256
813.703	20998
813.845	20982
813.986	20587
814.127	20484
814.268	20355
814.41	20377
814.551	20187
814.692	20305
814.833	20195
814.974	20195
815.115	20271
815.256	20054
815.397	20073
815.539	20119
815.68	20092
815.821	19921
815.962	20024
816.103	19887
816.244	19841
816.385	19791
816.526	19700
816.666	19689
816.807	19453
816.948	19533
817.089	19540
817.23	19445
817.371	19358
817.512	19457
817.653	19472
817.793	19403
817.934	19419
818.075	19548
818.216	19453
818.356	19346
818.497	19282
818.638	19069
818.778	19103
818.919	19042
819.06	19118
819.2	19194
819.341	19331
819.481	19289
819.622	19502
819.762	19559
819.903	19510
820.043	19521
820.184	19464
820.324	19396
820.465	19335
820.605	19445
820.746	19358
820.886	19247
821.026	19312
821.167	19312
821.307	19445
821.447	19343
821.588	19236
821.728	19240
821.868	19004
822.008	18844
822.149	18916
822.289	18825
822.429	18566
822.569	18498
822.709	18585
822.849	18239
822.99	18426
823.13	18289
823.27	18353
823.41	18144
823.55	18125
823.69	18178
823.83	18171
823.97	18057
824.11	17870
824.25	17843
824.389	17916
824.529	17935
824.669	17908
824.809	17984
824.949	17832
825.089	18003
825.228	18007
825.368	17703
825.508	17764
825.648	17615
825.787	17779
825.927	17767
826.067	17687
826.206	17703
826.346	17748
826.485	17714
826.625	17729
826.765	17745
826.904	17691
827.044	17471
827.183	17326
827.323	17341
827.462	17452
827.601	17417
827.741	17402
827.88	17516
828.02	17254
828.159	17379
828.298	17410
828.437	17391
828.577	17284
828.716	17471
828.855	17471
828.994	17220
829.134	17166
829.273	17189
829.412	17033
829.551	17064
829.69	17121
829.829	17147
829.968	17109
830.107	17041
830.246	17189
830.385	17022
830.524	16946
830.663	16995
830.802	16930
830.941	16801
831.08	16839
831.219	16892
831.357	16752
831.496	16976
831.635	16805
831.774	16774
831.913	16656
832.051	16622
832.19	16531
832.329	16584
832.467	16459
832.606	16405
832.744	16481
832.883	16519
833.022	16489
833.16	16550
833.299	16558
833.437	16489
833.576	16573
833.714	16527
833.852	16497
833.991	16550
834.129	16592
834.267	16527
834.406	16504
834.544	16535
834.682	16527
834.821	16493
834.959	16710
835.097	16356
835.235	16630
835.373	16535
835.511	16519
835.65	16474
835.788	16451
835.926	16352
836.064	16329
836.202	16306
836.34	16440
836.478	16558
836.615	16466
836.753	16409
836.891	16417
837.029	16474
837.167	16470
837.305	16413
837.443	16329
837.58	16234
837.718	16337
837.856	16348
837.993	16268
838.131	16329
838.269	16207
838.406	16390
838.544	16295
838.681	16036
838.819	16063
838.956	15876
839.094	15850
839.231	15873
839.369	15972
839.506	16230
839.643	16086
839.781	15899
839.918	15781
840.055	15907
840.193	15960
840.33	15831
840.467	15861
840.604	15922
840.742	16143
840.879	15793
841.016	15778
841.153	15800
841.29	15975
841.427	15960
841.564	15857
841.701	15800
841.838	15884
841.975	15785
842.112	15846
842.249	15652
842.385	15641
842.522	15816
842.659	15739
842.796	15610
842.933	15641
843.069	15724
843.206	15679
843.343	15781
843.479	15572
843.616	15694
843.752	15462
843.889	15603
844.025	15572
844.162	15458
844.298	15511
844.435	15454
844.571	15389
844.708	15405
844.844	15568
844.98	15557
845.117	15564
845.253	15454
845.389	15256
845.525	15431
845.661	15294
845.798	15287
845.934	15230
846.07	15256
846.206	15230
846.342	15393
846.478	15203
846.614	15039
846.75	14990
846.886	14948
847.022	15085
847.158	14998
847.294	15074
847.429	15070
847.565	15043
847.701	15260
847.837	14758
847.972	14727
848.108	14887
848.244	14887
848.379	14750
848.515	14659
848.65	14602
848.786	14511
848.921	14571
849.057	14746
849.192	14716
849.328	14629
849.463	14663
849.598	14587
849.734	14518
849.869	14446
850.004	14355
850.14	14377
850.275	14480
850.41	14305
850.545	14317
850.68	14393
850.815	14351
850.95	14332
851.085	14549
851.22	14541
851.355	14339
851.49	14355
851.625	14400
851.76	14294
851.895	14218
852.03	14332
852.165	14332
852.299	14366
852.434	14545
852.569	14423
852.703	14415
852.838	14476
852.973	14560
853.107	14511
853.242	14393
853.376	14218
853.511	14062
853.645	14282
853.78	14301
853.914	14332
854.048	14275
854.183	14195
854.317	14282
854.451	14370
854.585	14187
854.72	14237
854.854	14313
854.988	14134
855.122	14282
855.256	14149
855.39	14309
855.524	14278
855.658	14282
855.792	14252
855.926	14317
856.06	14305
856.194	14351
856.327	14210
856.461	14225
856.595	14263
856.729	14206
856.862	14358
856.996	14282
857.13	14256
857.263	14309
857.397	14298
857.53	14252
857.664	14263
857.797	14252
857.931	14343
858.064	14225
858.197	14286
858.331	14282
858.464	14218
858.597	14237
858.731	14244
858.864	14263
858.997	14275
859.13	14221
859.263	14267
859.396	14320
859.529	14206
859.662	14278
859.795	14210
859.928	14275
860.061	14381
860.194	14362
860.327	14298
860.46	14233
860.592	14301
860.725	14381
860.858	14381
860.99	14271
861.123	14206
861.256	14199
861.388	14320
861.521	14887
861.653	14115
861.786	14096
861.918	14054
862.05	14153
862.183	14138
862.315	14229
862.447	14332
862.58	14263
862.712	14058
862.844	14046
862.976	14233
863.108	14107
863.24	14541
863.372	13860
863.504	14012
863.636	13993
863.768	14130
863.9	14107
864.032	13932
864.164	14035
864.296	14084
864.428	14130
864.559	14134
864.691	14149
864.823	14119
864.954	14073
865.086	14050
865.217	14054
865.349	13947
865.48	14012
865.612	14069
865.743	14195
865.875	14020
866.006	13932
866.137	14043
866.269	14001
866.4	14027
866.531	13936
866.662	13928
866.793	13932
866.924	14031
867.055	14065
867.186	13986
867.317	13967
867.448	13860
867.579	13974
867.71	13921
867.841	13944
867.972	14081
868.103	13997
868.233	14027
868.364	14107
868.495	14084
868.625	14233
868.756	14351
868.886	14210
869.017	14244
869.147	14358
869.278	14434
869.408	14218
869.539	14339
869.669	14301
869.799	14282
869.929	14431
870.06	14347
870.19	14579
870.32	14583
870.45	14613
870.58	14640
870.71	14731
870.84	14796
870.97	14689
871.1	14590
871.23	14872
871.36	14823
871.489	14777
871.619	14705
871.749	14925
871.879	14910
872.008	14967
872.138	14906
872.267	14819
872.397	14769
872.526	14750
872.656	14632
872.785	14686
872.915	14830
873.044	14895
873.173	14982
873.303	14906
873.432	14998
873.561	14956
873.69	14864
873.819	14914
873.948	14994
874.077	14918
874.206	14864
874.335	14906
874.464	15043
874.593	15176
874.722	15218
874.851	15260
874.979	15268
875.108	15176
875.237	15154
875.365	15211
875.494	15150
875.623	15355
875.751	15184
875.88	15256
876.008	15439
876.136	15382
876.265	15690
876.393	15778
876.521	15675
876.65	15831
876.778	15686
876.906	15557
877.034	15557
877.162	15698
877.29	15633
877.418	15705
877.546	15652
877.674	15633
877.802	15686
877.93	15690
878.058	15618
878.185	15572
878.313	15599
878.441	15568
878.568	15485
878.696	15629
878.824	15648
878.951	15728
879.079	15762
879.206	15994
879.333	15686
879.461	15618
879.588	15717
879.715	15804
879.842	15918
879.97	15675
880.097	15511
880.224	15496
880.351	15469
880.478	15561
880.605	15477
880.732	15496
880.859	15679
880.986	15545
881.112	15587
881.239	15386
881.366	15294
881.493	15214
881.619	15119
881.746	15226
881.872	15047
881.999	15146
882.125	15081
882.252	15154
882.378	15203
882.505	15294
882.631	15173
882.757	15009
882.883	14933
883.01	14937
883.136	14990
883.262	14887
883.388	14899
883.514	14933
883.64	15039
883.766	14906
883.892	14743
884.018	14849
884.143	14994
884.269	15013
884.395	14739
884.52	14644
884.646	14762
884.772	14606
884.897	14537
885.023	14739
885.148	14785
885.274	14735
885.399	14804
885.524	14678
885.65	14670
885.775	14644
885.9	14674
886.025	14792
886.15	14735
886.275	14579
886.4	14526
886.525	14670
886.65	14568
886.775	14636
886.9	14796
887.025	14941
887.149	14712
887.274	14473
887.399	14431
887.523	14419
887.648	14419
887.773	14396
887.897	14674
888.021	14549
888.146	14377
888.27	14686
888.395	14712
888.519	14507
888.643	14674
888.767	14625
888.891	14450
889.015	14339
889.139	14450
889.263	14309
889.387	14503
889.511	14511
889.635	14473
889.759	14305
889.883	14438
890.006	14400
890.13	14473
890.254	14332
890.377	14412
890.501	14187
890.624	14225
890.748	14290
890.871	14111
890.995	14016
891.118	13978
891.241	14043
891.364	14092
891.488	14199
891.611	14164
891.734	14046
891.857	14183
891.98	14096
892.103	14187
892.226	14187
892.349	14005
892.471	13871
892.594	14073
892.717	14138
892.839	14084
892.962	14058
893.085	14157
893.207	14035
893.33	14027
893.452	14012
893.575	14229
893.697	14008
893.819	14225
893.941	14347
894.064	14225
894.186	14027
894.308	14096
894.43	14134
894.552	14332
894.674	14271
894.796	14005
894.918	14115
895.04	14100
895.161	14134
895.283	14176
895.405	14111
895.526	14145
895.648	14195
895.769	14199
895.891	14317
896.012	14278
896.134	14278
896.255	14240
896.376	14069
896.498	14248
896.619	14275
896.74	14214
896.861	14294
896.982	14533
897.103	14769
897.224	14564
897.345	14450
897.466	14347
897.587	14423
897.708	14590
897.828	14537
897.949	14408
898.07	14259
898.19	14461
898.311	14587
898.431	14434
898.552	14484
898.672	14651
898.792	14697
898.913	14617
899.033	14434
899.153	14374
899.273	14351
899.393	14374
899.513	14427
899.633	14393
899.753	14514
899.873	14412
899.993	14415
900.113	14404
900.232	14438
900.352	14362
900.472	14339
900.591	14256
900.711	14347
900.83	14202
900.95	14442
901.069	14396
901.189	14225
901.308	14050
901.427	13982
901.546	14005
901.665	13951
901.784	14001
901.904	13967
902.023	13864
902.141	13658
902.26	13491
902.379	13563
902.498	13559
902.617	13510
902.735	13514
902.854	13575
902.973	13476
903.091	13251
903.21	13168
903.328	13285
903.446	13145
903.565	13164
903.683	13187
903.801	12935
903.919	13046
904.038	13156
904.156	12943
904.274	13069
904.392	12924
904.51	12977
904.627	12909
904.745	12947
904.863	13160
904.981	12806
905.098	12662
905.216	12654
905.334	12585
905.451	12623
905.569	12502
905.686	12707
905.803	12582
905.921	12452
906.038	12623
906.155	12426
906.272	12361
906.389	12330
906.506	12125
906.623	12277
906.74	12209
906.857	12110
906.974	12117
907.091	12270
907.208	12334
907.324	12228
907.441	12167
907.557	11965
907.674	12007
907.79	11950
907.907	11912
908.023	12011
908.139	11984
908.256	11920
908.372	11958
908.488	11847
908.604	11802
908.72	11688
908.836	11611
908.952	11688
909.068	11688
909.184	11863
909.3	11783
909.415	11756
909.531	11745
909.647	11440
909.762	11486
909.878	11474
909.993	11535
910.108	11421
910.224	11452
910.339	11459
910.454	11512
910.57	11303
910.685	11315
910.8	11512
910.915	11539
911.03	11353
911.145	11185
911.259	11155
911.374	11201
911.489	11151
911.604	11174
911.718	10946
911.833	10968
911.947	10923
912.062	10843
912.176	10942
912.291	10991
912.405	10934
912.519	11162
912.633	11201
912.748	10987
912.862	10980
912.976	10866
913.09	10740
913.204	10858
913.318	10816
913.431	10885
913.545	10961
913.659	10976
913.772	10873
913.886	10767
914	10668
914.113	10755
914.226	10824
914.34	10793
914.453	10714
914.566	10828
914.68	10759
914.793	10622
914.906	10527
915.019	10409
915.132	10360
915.245	10451
915.358	10432
915.47	10451
915.583	10516
915.696	10481
915.809	10561
915.921	10542
916.034	10402
916.146	10424
916.259	10478
916.371	10474
916.483	10447
916.595	10325
916.708	10413
916.82	10363
916.932	10417
917.044	10447
917.156	10379
917.268	10276
917.38	10303
917.491	10261
917.603	10390
917.715	10337
917.826	10390
917.938	10253
918.049	10230
918.161	10276
918.272	10421
918.384	10402
918.495	10394
918.606	10257
918.717	10086
918.828	10150
918.939	10219
919.05	10101
919.161	10120
919.272	9998
919.383	10044
919.494	10215
919.604	10405
919.715	10211
919.826	10158
919.936	10147
920.047	10268
920.157	10188
920.267	10405
920.378	10219
920.488	10166
920.598	10360
920.708	10554
920.818	10413
920.928	10432
921.038	10569
921.148	10569
921.258	10272
921.368	10150
921.477	10021
921.587	10071
921.697	9899
921.806	10082
921.916	9983
922.025	9808
922.134	9842
922.244	9720
922.353	9774
922.462	9694
922.571	9530
922.68	9420
922.789	9428
922.898	9481
923.007	9435
923.116	9435
923.224	9473
923.333	9462
923.442	9363
923.55	9268
923.659	9321
923.767	9351
923.876	9298
923.984	9378
924.092	9283
924.201	9313
924.309	9317
924.417	9348
924.525	9180
924.633	9264
924.741	10017
924.849	9097
924.956	9294
925.064	9119
925.172	9005
925.279	9089
925.387	9127
925.494	9081
925.602	9195
925.709	9135
925.816	9112
925.924	9150
926.031	9173
926.138	9123
926.245	9089
926.352	9024
926.459	9131
926.566	9203
926.673	9066
926.779	8899
926.886	8967
926.993	8830
927.099	8811
927.206	8781
927.312	8826
927.419	8845
927.525	8739
927.631	8880
927.737	8785
927.843	8697
927.95	8621
928.056	8724
928.162	8727
928.267	8758
928.373	9401
928.479	8845
928.585	8571
928.69	8670
928.796	8750
928.901	8629
929.007	8442
929.112	8670
929.218	8575
929.323	8606
929.428	8526
929.533	8629
929.638	8499
929.743	8556
929.848	8522
929.953	8492
930.058	8377
930.163	8267
930.267	8313
930.372	8457
930.477	8290
930.581	8526
930.685	8374
930.79	8267
930.894	8343
930.998	8180
931.103	8408
931.207	8084
931.311	7940
931.415	7852
931.519	7780
931.623	7803
