Data from test_V78500241_797.txt Node
Date: Fri Mar 25 14:39:16 CST 2022
User: usil
Spectrometer: V785-0024
Trigger mode: 0
Integration Time (sec): 4.000000E-1
Scans to average: 1
Nonlinearity correction enabled: false
Boxcar width: 0
Storing dark spectrum: false
XAxis mode: Wavelengths
Number of Pixels in Spectrum: 1024
>>>>>Begin Spectral Data<<<<<
801.071	26511
801.214	26355
801.356	26111
801.499	26065
801.641	25894
801.783	25826
801.926	26069
802.068	25734
802.211	25643
802.353	25643
802.496	25457
802.638	25426
802.78	25240
802.923	25324
803.065	25278
803.208	25225
803.35	25240
803.492	25343
803.635	25571
803.777	25441
803.919	25571
804.061	25791
804.204	25567
804.346	25563
804.488	25453
804.63	25635
804.773	25377
804.915	25537
805.057	25772
805.199	25685
805.341	25780
805.483	25940
805.626	25944
805.768	25788
805.91	25928
806.052	26199
806.194	26221
806.336	26606
806.478	26549
806.62	26625
806.762	26948
806.904	27184
807.046	27797
807.188	28078
807.33	28413
807.472	28843
807.614	29273
807.756	30197
807.898	31000
808.04	32081
808.182	33865
808.324	35866
808.465	38495
808.607	41296
808.749	43464
808.891	45104
809.033	45077
809.174	43788
809.316	41512
809.458	38549
809.6	35809
809.741	33618
809.883	31780
810.025	30559
810.166	29733
810.308	28965
810.45	28455
810.591	27838
810.733	27576
810.875	27279
811.016	26998
811.158	26705
811.299	26716
811.441	26720
811.582	26720
811.724	26351
811.865	26145
812.007	26271
812.148	26210
812.29	26073
812.431	26153
812.573	26221
812.714	26176
812.855	26237
812.997	26476
813.138	26598
813.279	26263
813.421	26153
813.562	26122
813.703	25944
813.845	25757
813.986	25495
814.127	25270
814.268	25209
814.41	25247
814.551	25114
814.692	25228
814.833	25031
814.974	24909
815.115	24852
815.256	24798
815.397	24825
815.539	24837
815.68	24631
815.821	24612
815.962	24677
816.103	24490
816.244	24399
816.385	24308
816.526	24201
816.666	24114
816.807	23946
816.948	24038
817.089	24209
817.23	24038
817.371	23840
817.512	23950
817.653	23874
817.793	23805
817.934	23866
818.075	23939
818.216	23958
818.356	23752
818.497	23779
818.638	23570
818.778	23562
818.919	23497
819.06	23539
819.2	23718
819.341	23866
819.481	23794
819.622	23901
819.762	24007
819.903	24152
820.043	23920
820.184	23783
820.324	23802
820.465	23863
820.605	23646
820.746	23798
820.886	23558
821.026	23608
821.167	23722
821.307	23851
821.447	23566
821.588	23429
821.728	23349
821.868	23003
822.008	23075
822.149	23075
822.289	22953
822.429	22755
822.569	22687
822.709	22580
822.849	22489
822.99	22466
823.13	22402
823.27	22440
823.41	22356
823.55	22109
823.69	22226
823.83	22215
823.97	22188
824.11	21876
824.25	21945
824.389	21998
824.529	22101
824.669	21895
824.809	22158
824.949	22082
825.089	22097
825.228	22124
825.368	21968
825.508	21819
825.648	21876
825.787	21816
825.927	21854
826.067	21816
826.206	21705
826.346	21804
826.485	21720
826.625	21728
826.765	21873
826.904	21797
827.044	21496
827.183	21652
827.323	21428
827.462	21477
827.601	21431
827.741	21408
827.88	21462
828.02	21268
828.159	21416
828.298	21431
828.437	21431
828.577	21367
828.716	21511
828.855	21416
828.994	21237
829.134	21127
829.273	21100
829.412	21066
829.551	21055
829.69	21036
829.829	21207
829.968	21226
830.107	21142
830.246	21051
830.385	21123
830.524	20921
830.663	20921
830.802	20857
830.941	20625
831.08	20746
831.219	20781
831.357	20773
831.496	21020
831.635	20689
831.774	20746
831.913	20716
832.051	20556
832.19	20579
832.329	20617
832.467	20507
832.606	20396
832.744	20545
832.883	20613
833.022	20655
833.16	20667
833.299	20925
833.437	20952
833.576	21154
833.714	21154
833.852	21256
833.991	21454
834.129	21542
834.267	21488
834.406	21344
834.544	21264
834.682	21397
834.821	21085
834.959	21119
835.097	20918
835.235	20941
835.373	20781
835.511	20705
835.65	20552
835.788	20370
835.926	20240
836.064	20275
836.202	20305
836.34	20400
836.478	20476
836.615	20206
836.753	20415
836.891	20408
837.029	20324
837.167	20259
837.305	20077
837.443	20130
837.58	19997
837.718	20084
837.856	20126
837.993	20050
838.131	20115
838.269	19944
838.406	19921
838.544	19982
838.681	19563
838.819	19582
838.956	19525
839.094	19533
839.231	19537
839.369	19658
839.506	19826
839.643	19670
839.781	19552
839.918	19460
840.055	19540
840.193	19525
840.33	19518
840.467	19457
840.604	19487
840.742	19841
840.879	19343
841.016	19457
841.153	19350
841.29	19651
841.427	19400
841.564	19518
841.701	19552
841.838	19381
841.975	19430
842.112	19434
842.249	19392
842.385	19285
842.522	19426
842.659	19472
842.796	19251
842.933	19472
843.069	19274
843.206	19251
843.343	19487
843.479	19472
843.616	19316
843.752	19202
843.889	19259
844.025	19468
844.162	19327
844.298	19620
844.435	19696
844.571	19666
844.708	19993
844.844	20404
844.98	20621
845.117	21214
845.253	21846
845.389	23364
845.525	26370
845.661	30894
845.798	36620
845.934	40710
846.07	42521
846.206	41577
846.342	37674
846.478	32221
846.614	27431
846.75	24038
846.886	22150
847.022	21051
847.158	20248
847.294	19837
847.429	19563
847.565	19266
847.701	19327
847.837	18810
847.972	18684
848.108	18719
848.244	18627
848.379	18426
848.515	18357
848.65	18471
848.786	18300
848.921	18216
849.057	18384
849.192	18365
849.328	18251
849.463	18296
849.598	18209
849.734	18194
849.869	18022
850.004	18015
850.14	17999
850.275	17992
850.41	17866
850.545	17893
850.68	17824
850.815	17988
850.95	18015
851.085	18095
851.22	17999
851.355	17965
851.49	17931
851.625	17958
851.76	17904
851.895	17840
852.03	17931
852.165	17961
852.299	17923
852.434	18026
852.569	17958
852.703	17958
852.838	17999
852.973	18117
853.107	18110
853.242	17958
853.376	17996
853.511	17885
853.645	17969
853.78	18003
853.914	18114
854.048	18087
854.183	18068
854.317	18133
854.451	18308
854.585	18102
854.72	18216
854.854	18102
854.988	17897
855.122	17939
855.256	17813
855.39	18011
855.524	17916
855.658	17916
855.792	17863
855.926	17840
856.06	17851
856.194	17859
856.327	17794
856.461	17771
856.595	17695
856.729	17805
856.862	17805
856.996	17756
857.13	17821
857.263	17958
857.397	17889
857.53	17714
857.664	17756
857.797	17790
857.931	17718
858.064	17805
858.197	17699
858.331	17573
858.464	17672
858.597	17535
858.731	17718
858.864	17657
858.997	17600
859.13	17604
859.263	17676
859.396	17741
859.529	17581
859.662	17551
859.795	17577
859.928	17756
860.061	17760
860.194	17786
860.327	17695
860.46	17691
860.592	17600
860.725	17707
860.858	17649
860.99	17570
861.123	17532
861.256	17532
861.388	17665
861.521	18140
861.653	17490
861.786	17471
861.918	17490
862.05	17604
862.183	17532
862.315	17535
862.447	17585
862.58	17562
862.712	17433
862.844	17239
862.976	17364
863.108	17379
863.24	17878
863.372	17178
863.504	17288
863.636	17326
863.768	17235
863.9	17402
864.032	17277
864.164	17372
864.296	17216
864.428	17436
864.559	17417
864.691	17326
864.823	17395
864.954	17326
865.086	17353
865.217	17299
865.349	17155
865.48	17250
865.612	17231
865.743	17383
865.875	17242
866.006	17216
866.137	17258
866.269	17151
866.4	17193
866.531	17117
866.662	17269
866.793	17102
866.924	17102
867.055	17254
867.186	17208
867.317	17223
867.448	17083
867.579	17075
867.71	17098
867.841	17159
867.972	17258
868.103	17178
868.233	17250
868.364	17239
868.495	17269
868.625	17467
868.756	17562
868.886	17436
869.017	17448
869.147	17539
869.278	17581
869.408	17471
869.539	17410
869.669	17646
869.799	17611
869.929	17573
870.06	17520
870.19	17809
870.32	17729
870.45	17794
870.58	17809
870.71	18129
870.84	18136
870.97	17939
871.1	17931
871.23	17980
871.36	17996
871.489	18034
871.619	18083
871.749	18194
871.879	18155
872.008	18319
872.138	18155
872.267	18171
872.397	18163
872.526	18022
872.656	18019
872.785	18209
872.915	18273
873.044	18369
873.173	18350
873.303	18448
873.432	18448
873.561	18460
873.69	18296
873.819	18441
873.948	18456
874.077	18506
874.206	18426
874.335	18616
874.464	18665
874.593	18798
874.722	18760
874.851	18863
874.979	19015
875.108	18882
875.237	18913
875.365	18909
875.494	18947
875.623	19080
875.751	19012
875.88	19122
876.008	19213
876.136	19434
876.265	19624
876.393	19731
876.521	19723
876.65	19769
876.778	19750
876.906	19803
877.034	19856
877.162	19833
877.29	19898
877.418	20100
877.546	20100
877.674	20115
877.802	20271
877.93	20324
878.058	20606
878.185	20640
878.313	20956
878.441	21165
878.568	21412
878.696	21816
878.824	22611
878.951	23581
879.079	25008
879.206	26743
879.333	28230
879.461	29714
879.588	30623
879.715	30486
879.842	29958
879.97	28310
880.097	26453
880.224	25019
880.351	24178
880.478	23444
880.605	23056
880.732	22679
880.859	22630
880.986	22386
881.112	22261
881.239	22002
881.366	21960
881.493	21888
881.619	21705
881.746	21808
881.872	21800
881.999	21797
882.125	21827
882.252	22021
882.378	21994
882.505	22223
882.631	21873
882.757	21785
882.883	21804
883.01	21857
883.136	21728
883.262	21747
883.388	21610
883.514	21766
883.64	21770
883.766	21682
883.892	21568
884.018	21583
884.143	21724
884.269	21934
884.395	21538
884.52	21336
884.646	21583
884.772	21469
884.897	21435
885.023	21507
885.148	21542
885.274	21591
885.399	21378
885.524	21283
885.65	21188
885.775	21146
885.9	20986
886.025	20971
886.15	20842
886.275	20590
886.4	20454
886.525	20339
886.65	20320
886.775	20271
886.9	20191
887.025	20267
887.149	19944
887.274	19769
887.399	19571
887.523	19430
887.648	19449
887.773	19419
887.897	19472
888.021	19251
888.146	19255
888.27	19266
888.395	19259
888.519	19209
888.643	19171
888.767	19107
888.891	18905
889.015	18734
889.139	18859
889.263	18734
889.387	18821
889.511	18939
889.635	18875
889.759	18582
889.883	18578
890.006	18623
890.13	18654
890.254	18380
890.377	18422
890.501	18388
890.624	18224
890.748	18213
890.871	18083
890.995	18125
891.118	17942
891.241	18030
891.364	18003
891.488	17973
891.611	17859
891.734	17878
891.857	17973
891.98	17828
892.103	18022
892.226	17843
892.349	17733
892.471	17623
892.594	17737
892.717	17710
892.839	17611
892.962	17592
893.085	17672
893.207	17596
893.33	17630
893.452	17539
893.575	17657
893.697	17497
893.819	17672
893.941	17642
894.064	17611
894.186	17368
894.308	17387
894.43	17444
894.552	17581
894.674	17509
894.796	17178
894.918	17436
895.04	17277
895.161	17402
895.283	17417
895.405	17395
895.526	17322
895.648	17376
895.769	17265
895.891	17315
896.012	17379
896.134	17227
896.255	17235
896.376	17235
896.498	17284
896.619	17318
896.74	17307
896.861	17223
896.982	17505
897.103	17741
897.224	17509
897.345	17387
897.466	17410
897.587	17425
897.708	17570
897.828	17459
897.949	17349
898.07	17242
898.19	17478
898.311	17649
898.431	17383
898.552	17543
898.672	17558
898.792	17543
898.913	17478
899.033	17322
899.153	17296
899.273	17181
899.393	17185
899.513	17318
899.633	17315
899.753	17242
899.873	17273
899.993	17288
900.113	17254
900.232	17151
900.352	17212
900.472	17090
900.591	17083
900.711	17124
900.83	17006
900.95	17258
901.069	17159
901.189	16889
901.308	16755
901.427	16637
901.546	16653
901.665	16588
901.784	16641
901.904	16523
902.023	16466
902.141	16211
902.26	16284
902.379	16181
902.498	16139
902.617	16124
902.735	16074
902.854	16078
902.973	16055
903.091	15842
903.21	15698
903.328	15873
903.446	15728
903.565	15587
903.683	15610
903.801	15485
903.919	15538
904.038	15568
904.156	15431
904.274	15473
904.392	15363
904.51	15264
904.627	15397
904.745	15485
904.863	15397
904.981	15230
905.098	15066
905.216	15024
905.334	15001
905.451	15024
905.569	14906
905.686	14998
905.803	15081
905.921	14842
906.038	14895
906.155	14777
906.272	14617
906.389	14712
906.506	14556
906.623	14568
906.74	14476
906.857	14434
906.974	14389
907.091	14579
907.208	14613
907.324	14575
907.441	14465
907.557	14313
907.674	14313
907.79	14278
907.907	14225
908.023	14214
908.139	14233
908.256	14180
908.372	14134
908.488	14145
908.604	14062
908.72	13898
908.836	13955
908.952	14008
909.068	14001
909.184	14119
909.3	13993
909.415	13997
909.531	13970
909.647	13784
909.762	13776
909.878	13647
909.993	13731
910.108	13719
910.224	13677
910.339	13700
910.454	13590
910.57	13514
910.685	13453
910.8	13833
910.915	13685
911.03	13575
911.145	13434
911.259	13343
911.374	13350
911.489	13270
911.604	13247
911.718	13118
911.833	13072
911.947	12973
912.062	12954
912.176	13103
912.291	13095
912.405	13137
912.519	13301
912.633	13316
912.748	13228
912.862	13027
912.976	12905
913.09	12859
913.204	12943
913.318	12916
913.431	13038
913.545	13031
913.659	13065
913.772	13008
913.886	12798
914	12802
914.113	12947
914.226	12939
914.34	12848
914.453	12635
914.566	12939
914.68	12707
914.793	12719
914.906	12578
915.019	12486
915.132	12479
915.245	12532
915.358	12528
915.47	12547
915.583	12532
915.696	12589
915.809	12673
915.921	12677
916.034	12547
916.146	12445
916.259	12426
916.371	12570
916.483	12597
916.595	12467
916.708	12555
916.82	12544
916.932	12540
917.044	12483
917.156	12395
917.268	12353
917.38	12289
917.491	12254
917.603	12273
917.715	12380
917.826	12266
917.938	12216
918.049	12106
918.161	12323
918.272	12403
918.384	12262
918.495	12235
918.606	12098
918.717	12121
918.828	12114
918.939	12125
919.05	12041
919.161	12098
919.272	11908
919.383	11828
919.494	12087
919.604	12285
919.715	12076
919.826	11984
919.936	12045
920.047	12117
920.157	12140
920.267	12197
920.378	12083
920.488	12030
920.598	12235
920.708	12315
920.818	12258
920.928	12197
921.038	12410
921.148	12270
921.258	12057
921.368	11950
921.477	11752
921.587	11832
921.697	11748
921.806	11771
921.916	11649
922.025	11543
922.134	11501
922.244	11505
922.353	11589
922.462	11406
922.571	11406
922.68	11227
922.789	11162
922.898	11216
923.007	11090
923.116	11273
923.224	11117
923.333	11147
923.442	11029
923.55	11079
923.659	11056
923.767	11064
923.876	11010
923.984	10980
924.092	10976
924.201	11010
924.309	10965
924.417	11056
924.525	10927
924.633	10976
924.741	11893
924.849	10774
924.956	10961
925.064	10717
925.172	10694
925.279	10675
925.387	10790
925.494	10835
925.602	10831
925.709	10828
925.816	10630
925.924	10752
926.031	10824
926.138	10717
926.245	10767
926.352	10535
926.459	10740
926.566	10774
926.673	10721
926.779	10512
926.886	10489
926.993	10440
927.099	10322
927.206	10344
927.312	10291
927.419	10386
927.525	10306
927.631	10459
927.737	10291
927.843	10272
927.95	10158
928.056	10265
928.162	10227
928.267	10360
928.373	10938
928.479	10398
928.585	10109
928.69	10234
928.796	10204
928.901	10074
929.007	9975
929.112	10093
929.218	10128
929.323	9991
929.428	10067
929.533	10177
929.638	9953
929.743	9930
929.848	10032
929.953	10013
930.058	9915
930.163	9747
930.267	9755
930.372	9934
930.477	9698
930.581	9949
930.685	9865
930.79	9713
930.894	9732
930.998	9637
931.103	9770
931.207	9473
931.311	9329
931.415	9355
931.519	9184
931.623	9142
