Data from test_V78500241_3206.txt Node
Date: Fri Mar 25 14:56:02 CST 2022
User: usil
Spectrometer: V785-0024
Trigger mode: 0
Integration Time (sec): 4.000000E-1
Scans to average: 1
Nonlinearity correction enabled: false
Boxcar width: 0
Storing dark spectrum: false
XAxis mode: Wavelengths
Number of Pixels in Spectrum: 1024
>>>>>Begin Spectral Data<<<<<
801.071	22059
801.214	21945
801.356	21663
801.499	21622
801.641	21367
801.783	21294
801.926	21348
802.068	21329
802.211	21321
802.353	21214
802.496	20994
802.638	20887
802.78	20853
802.923	20777
803.065	20746
803.208	20724
803.35	20739
803.492	20910
803.635	20807
803.777	20724
803.919	20708
804.061	21043
804.204	20727
804.346	20598
804.488	20541
804.63	20746
804.773	20590
804.915	20564
805.057	20629
805.199	20663
805.341	20686
805.483	20765
805.626	20579
805.768	20530
805.91	20716
806.052	20636
806.194	20503
806.336	20758
806.478	20640
806.62	20564
806.762	20731
806.904	20895
807.046	21062
807.188	21024
807.33	20880
807.472	20986
807.614	20979
807.756	20788
807.898	20762
808.04	20644
808.182	20705
808.324	20758
808.465	20651
808.607	20876
808.749	20838
808.891	20994
809.033	21237
809.174	21036
809.316	20941
809.458	20944
809.6	21009
809.741	21047
809.883	21047
810.025	21028
810.166	21081
810.308	21233
810.45	21108
810.591	21081
810.733	20948
810.875	20758
811.016	20720
811.158	20651
811.299	20773
811.441	20853
811.582	20914
811.724	20769
811.865	20712
812.007	20739
812.148	20708
812.29	20781
812.431	20849
812.573	21032
812.714	21195
812.855	21241
812.997	21382
813.138	21374
813.279	21313
813.421	21321
813.562	21081
813.703	21070
813.845	20834
813.986	20621
814.127	20533
814.268	20351
814.41	20377
814.551	20229
814.692	20317
814.833	20252
814.974	20294
815.115	20271
815.256	20149
815.397	20149
815.539	20145
815.68	20039
815.821	20001
815.962	20024
816.103	20043
816.244	19784
816.385	19700
816.526	19795
816.666	19529
816.807	19400
816.948	19525
817.089	19590
817.23	19377
817.371	19476
817.512	19415
817.653	19388
817.793	19331
817.934	19464
818.075	19335
818.216	19449
818.356	19407
818.497	19232
818.638	19206
818.778	18996
818.919	19122
819.06	19164
819.2	19244
819.341	19373
819.481	19301
819.622	19377
819.762	19647
819.903	19521
820.043	19578
820.184	19411
820.324	19293
820.465	19438
820.605	19495
820.746	19377
820.886	19179
821.026	19407
821.167	19266
821.307	19308
821.447	19354
821.588	19301
821.728	19122
821.868	19046
822.008	18779
822.149	18825
822.289	18730
822.429	18616
822.569	18433
822.709	18494
822.849	18365
822.99	18296
823.13	18201
823.27	18232
823.41	18140
823.55	18068
823.69	18152
823.83	18087
823.97	17988
824.11	17923
824.25	17813
824.389	17901
824.529	17893
824.669	17874
824.809	17935
824.949	17904
825.089	17920
825.228	17961
825.368	17748
825.508	17642
825.648	17752
825.787	17672
825.927	17672
826.067	17589
826.206	17672
826.346	17661
826.485	17703
826.625	17646
826.765	17775
826.904	17653
827.044	17497
827.183	17379
827.323	17364
827.462	17440
827.601	17337
827.741	17356
827.88	17299
828.02	17227
828.159	17410
828.298	17277
828.437	17425
828.577	17292
828.716	17372
828.855	17337
828.994	17098
829.134	17067
829.273	17143
829.412	17060
829.551	17022
829.69	17162
829.829	17083
829.968	17166
830.107	17136
830.246	17060
830.385	16949
830.524	16976
830.663	16953
830.802	16839
830.941	16824
831.08	16733
831.219	16786
831.357	16729
831.496	16965
831.635	16675
831.774	16550
831.913	16554
832.051	16565
832.19	16558
832.329	16489
832.467	16447
832.606	16344
832.744	16356
832.883	16398
833.022	16428
833.16	16478
833.299	16443
833.437	16516
833.576	16451
833.714	16554
833.852	16497
833.991	16519
834.129	16584
834.267	16516
834.406	16352
834.544	16382
834.682	16443
834.821	16413
834.959	16561
835.097	16390
835.235	16538
835.373	16512
835.511	16478
835.65	16303
835.788	16257
835.926	16295
836.064	16116
836.202	16219
836.34	16402
836.478	16447
836.615	16409
836.753	16284
836.891	16421
837.029	16348
837.167	16303
837.305	16276
837.443	16291
837.58	16166
837.718	16306
837.856	16386
837.993	16139
838.131	16238
838.269	16185
838.406	16192
838.544	16082
838.681	15949
838.819	15941
838.956	15709
839.094	15778
839.231	15819
839.369	15979
839.506	16177
839.643	15998
839.781	15816
839.918	15770
840.055	15755
840.193	15724
840.33	15686
840.467	15690
840.604	15793
840.742	16063
840.879	15572
841.016	15660
841.153	15686
841.29	15907
841.427	15739
841.564	15838
841.701	15838
841.838	15759
841.975	15682
842.112	15671
842.249	15572
842.385	15530
842.522	15736
842.659	15542
842.796	15622
842.933	15485
843.069	15485
843.206	15500
843.343	15599
843.479	15488
843.616	15580
843.752	15397
843.889	15359
844.025	15534
844.162	15367
844.298	15363
844.435	15378
844.571	15325
844.708	15428
844.844	15507
844.98	15492
845.117	15485
845.253	15329
845.389	15260
845.525	15237
845.661	15195
845.798	15169
845.934	15157
846.07	15131
846.206	15176
846.342	15329
846.478	15199
846.614	15039
846.75	14960
846.886	14998
847.022	14982
847.158	14941
847.294	14975
847.429	14994
847.565	14937
847.701	15184
847.837	14701
847.972	14693
848.108	14807
848.244	14765
848.379	14659
848.515	14545
848.65	14556
848.786	14511
848.921	14648
849.057	14606
849.192	14629
849.328	14594
849.463	14526
849.598	14530
849.734	14461
849.869	14465
850.004	14377
850.14	14446
850.275	14465
850.41	14210
850.545	14263
850.68	14313
850.815	14225
850.95	14286
851.085	14492
851.22	14389
851.355	14324
851.49	14248
851.625	14358
851.76	14282
851.895	14164
852.03	14164
852.165	14286
852.299	14339
852.434	14396
852.569	14301
852.703	14370
852.838	14434
852.973	14549
853.107	14492
853.242	14355
853.376	14180
853.511	14153
853.645	14126
853.78	14320
853.914	14263
854.048	14210
854.183	14092
854.317	14225
854.451	14408
854.585	14233
854.72	14111
854.854	14301
854.988	14138
855.122	14195
855.256	14149
855.39	14195
855.524	14290
855.658	14278
855.792	14233
855.926	14168
856.06	14237
856.194	14305
856.327	14199
856.461	14126
856.595	14081
856.729	14142
856.862	14256
856.996	14183
857.13	14286
857.263	14263
857.397	14404
857.53	14145
857.664	14187
857.797	14339
857.931	14233
858.064	14252
858.197	14180
858.331	14172
858.464	14229
858.597	14103
858.731	14103
858.864	14142
858.997	14218
859.13	14263
859.263	14267
859.396	14294
859.529	14187
859.662	14199
859.795	14126
859.928	14145
860.061	14351
860.194	14362
860.327	14263
860.46	14134
860.592	14286
860.725	14339
860.858	14339
860.99	14210
861.123	14119
861.256	14161
861.388	14252
861.521	15051
861.653	14039
861.786	14005
861.918	13970
862.05	14092
862.183	14153
862.315	14138
862.447	14252
862.58	14100
862.712	13902
862.844	13868
862.976	14008
863.108	14027
863.24	14434
863.372	13856
863.504	13936
863.636	13993
863.768	14100
863.9	14005
864.032	13959
864.164	13894
864.296	14065
864.428	14069
864.559	14024
864.691	14092
864.823	14084
864.954	13913
865.086	14020
865.217	13913
865.349	13852
865.48	14100
865.612	13967
865.743	13993
865.875	14031
866.006	14054
866.137	13970
866.269	13970
866.4	13955
866.531	13970
866.662	13856
866.793	13955
866.924	13849
867.055	13909
867.186	13917
867.317	13906
867.448	13799
867.579	13967
867.71	13875
867.841	13936
867.972	14020
868.103	14005
868.233	13959
868.364	14012
868.495	14001
868.625	14164
868.756	14233
868.886	14058
869.017	14267
869.147	14362
869.278	14396
869.408	14256
869.539	14183
869.669	14358
869.799	14240
869.929	14393
870.06	14328
870.19	14564
870.32	14522
870.45	14537
870.58	14640
870.71	14686
870.84	14648
870.97	14541
871.1	14545
871.23	14697
871.36	14788
871.489	14781
871.619	14708
871.749	14762
871.879	14914
872.008	14868
872.138	14872
872.267	14758
872.397	14659
872.526	14613
872.656	14575
872.785	14697
872.915	14842
873.044	14872
873.173	14872
873.303	14777
873.432	14914
873.561	15043
873.69	14872
873.819	14937
873.948	15001
874.077	14902
874.206	14807
874.335	14952
874.464	14975
874.593	15119
874.722	15157
874.851	15176
874.979	15169
875.108	15279
875.237	15032
875.365	15089
875.494	15039
875.623	15207
875.751	15119
875.88	15230
876.008	15348
876.136	15329
876.265	15542
876.393	15694
876.521	15667
876.65	15587
876.778	15633
876.906	15591
877.034	15599
877.162	15591
877.29	15614
877.418	15629
877.546	15568
877.674	15713
877.802	15530
877.93	15553
878.058	15599
878.185	15447
878.313	15637
878.441	15656
878.568	15435
878.696	15454
878.824	15584
878.951	15644
879.079	15819
879.206	15869
879.333	15778
879.461	15633
879.588	15663
879.715	15671
879.842	15979
879.97	15622
880.097	15481
880.224	15393
880.351	15523
880.478	15412
880.605	15370
880.732	15454
880.859	15694
880.986	15477
881.112	15477
881.239	15252
881.366	15195
881.493	15028
881.619	15070
881.746	15039
881.872	15157
881.999	15070
882.125	15047
882.252	15112
882.378	15135
882.505	15332
882.631	15028
882.757	15009
882.883	14963
883.01	14857
883.136	14773
883.262	14804
883.388	14743
883.514	14990
883.64	15032
883.766	14845
883.892	14686
884.018	14701
884.143	14849
884.269	15043
884.395	14632
884.52	14507
884.646	14625
884.772	14484
884.897	14484
885.023	14598
885.148	14712
885.274	14762
885.399	14724
885.524	14617
885.65	14621
885.775	14712
885.9	14545
886.025	14731
886.15	14594
886.275	14651
886.4	14438
886.525	14640
886.65	14579
886.775	14571
886.9	14769
887.025	14823
887.149	14640
887.274	14427
887.399	14389
887.523	14412
887.648	14358
887.773	14313
887.897	14552
888.021	14552
888.146	14381
888.27	14495
888.395	14526
888.519	14427
888.643	14590
888.767	14533
888.891	14366
889.015	14347
889.139	14374
889.263	14267
889.387	14347
889.511	14564
889.635	14415
889.759	14313
889.883	14240
890.006	14343
890.13	14492
890.254	14237
890.377	14286
890.501	14206
890.624	14176
890.748	14103
890.871	14096
890.995	13875
891.118	13944
891.241	14050
891.364	14039
891.488	14221
891.611	14062
891.734	14058
891.857	14069
891.98	14016
892.103	14161
892.226	14031
892.349	14027
892.471	13868
892.594	13921
892.717	13993
892.839	14119
892.962	14035
893.085	14054
893.207	13940
893.33	13849
893.452	13925
893.575	14130
893.697	14035
893.819	14145
893.941	14134
894.064	14164
894.186	13993
894.308	13955
894.43	14111
894.552	14233
894.674	14153
894.796	14001
894.918	14103
895.04	14039
895.161	14126
895.283	14077
895.405	13978
895.526	14180
895.648	14115
895.769	14183
895.891	14176
896.012	14157
896.134	14225
896.255	14210
896.376	14119
896.498	14145
896.619	14176
896.74	14214
896.861	14248
896.982	14545
897.103	14670
897.224	14476
897.345	14503
897.466	14332
897.587	14480
897.708	14594
897.828	14499
897.949	14473
898.07	14317
898.19	14400
898.311	14651
898.431	14476
898.552	14499
898.672	14594
898.792	14659
898.913	14613
899.033	14552
899.153	14393
899.273	14305
899.393	14355
899.513	14476
899.633	14381
899.753	14469
899.873	14438
899.993	14454
900.113	14366
900.232	14450
900.352	14400
900.472	14301
900.591	14259
900.711	14278
900.83	14256
900.95	14362
901.069	14393
901.189	14206
901.308	14046
901.427	13921
901.546	13967
901.665	13997
901.784	13982
901.904	13833
902.023	13753
902.141	13601
902.26	13518
902.379	13529
902.498	13544
902.617	13419
902.735	13544
902.854	13480
902.973	13464
903.091	13308
903.21	13228
903.328	13206
903.446	13160
903.565	13164
903.683	13110
903.801	13000
903.919	13031
904.038	12981
904.156	12913
904.274	12966
904.392	12882
904.51	12852
904.627	12848
904.745	12966
904.863	12894
904.981	12768
905.098	12551
905.216	12620
905.334	12601
905.451	12544
905.569	12585
905.686	12585
905.803	12658
905.921	12414
906.038	12464
906.155	12456
906.272	12251
906.389	12327
906.506	12277
906.623	12140
906.74	12228
906.857	12060
906.974	12064
907.091	12213
907.208	12292
907.324	12152
907.441	12178
907.557	11969
907.674	12003
907.79	11870
907.907	11904
908.023	11996
908.139	11984
908.256	11897
908.372	11771
908.488	11836
908.604	11684
908.72	11604
908.836	11684
908.952	11646
909.068	11722
909.184	11798
909.3	11710
909.415	11813
909.531	11642
909.647	11532
909.762	11414
909.878	11516
909.993	11444
910.108	11414
910.224	11372
910.339	11387
910.454	11421
910.57	11337
910.685	11201
910.8	11490
910.915	11398
911.03	11296
911.145	11261
911.259	11075
911.374	11117
911.489	11075
911.604	11052
911.718	10987
911.833	10908
911.947	10725
912.062	10679
912.176	10934
912.291	10900
912.405	10953
912.519	11128
912.633	11067
912.748	11006
912.862	10953
912.976	10771
913.09	10679
913.204	10778
913.318	10858
913.431	10831
913.545	10843
913.659	10892
913.772	10797
913.886	10687
914	10733
914.113	10767
914.226	10816
914.34	10805
914.453	10611
914.566	10717
914.68	10645
914.793	10626
914.906	10417
915.019	10459
915.132	10386
915.245	10394
915.358	10402
915.47	10402
915.583	10519
915.696	10508
915.809	10653
915.921	10603
916.034	10504
916.146	10360
916.259	10348
916.371	10512
916.483	10481
916.595	10322
916.708	10436
916.82	10333
916.932	10329
917.044	10337
917.156	10390
917.268	10234
917.38	10333
917.491	10314
917.603	10299
917.715	10386
917.826	10409
917.938	10192
918.049	10166
918.161	10341
918.272	10382
918.384	10470
918.495	10314
918.606	10162
918.717	10120
918.828	10131
918.939	10211
919.05	10067
919.161	10158
919.272	9911
919.383	9987
919.494	10280
919.604	10386
919.715	10135
919.826	10086
919.936	10166
920.047	10303
920.157	10215
920.267	10443
920.378	10333
920.488	10196
920.598	10371
920.708	10546
920.818	10352
920.928	10455
921.038	10497
921.148	10523
921.258	10272
921.368	10124
921.477	10059
921.587	10051
921.697	9873
921.806	10040
921.916	10032
922.025	9770
922.134	9720
922.244	9667
922.353	9774
922.462	9625
922.571	9644
922.68	9431
922.789	9454
922.898	9530
923.007	9408
923.116	9481
923.224	9454
923.333	9454
923.442	9374
923.55	9325
923.659	9340
923.767	9374
923.876	9321
923.984	9348
924.092	9218
924.201	9279
924.309	9355
924.417	9336
924.525	9237
924.633	9275
924.741	10169
924.849	9100
924.956	9211
925.064	9058
925.172	8990
925.279	9043
925.387	9131
925.494	9192
925.602	9199
925.709	9192
925.816	9001
925.924	9127
926.031	9233
926.138	9093
926.245	9203
926.352	8990
926.459	9138
926.566	9199
926.673	9036
926.779	8963
926.886	8956
926.993	8872
927.099	8777
927.206	8777
927.312	8746
927.419	8845
927.525	8762
927.631	8902
927.737	8682
927.843	8705
927.95	8606
928.056	8610
928.162	8769
928.267	8758
928.373	9268
928.479	8830
928.585	8606
928.69	8731
928.796	8788
928.901	8670
929.007	8552
929.112	8640
929.218	8587
929.323	8499
929.428	8469
929.533	8689
929.638	8545
929.743	8552
929.848	8590
929.953	8583
930.058	8503
930.163	8271
930.267	8309
930.372	8438
930.477	8305
930.581	8492
930.685	8427
930.79	8233
930.894	8256
930.998	8168
931.103	8400
931.207	7963
931.311	7955
931.415	7909
931.519	7780
931.623	7708
