Data from test_V78500241_706.txt Node
Date: Fri Mar 25 14:38:38 CST 2022
User: usil
Spectrometer: V785-0024
Trigger mode: 0
Integration Time (sec): 4.000000E-1
Scans to average: 1
Nonlinearity correction enabled: false
Boxcar width: 0
Storing dark spectrum: false
XAxis mode: Wavelengths
Number of Pixels in Spectrum: 1024
>>>>>Begin Spectral Data<<<<<
801.071	27625
801.214	27641
801.356	27450
801.499	27424
801.641	27116
801.783	27096
801.926	27020
802.068	27043
802.211	26986
802.353	26887
802.496	26708
802.638	26655
802.78	26533
802.923	26613
803.065	26438
803.208	26629
803.35	26602
803.492	26705
803.635	26883
803.777	26762
803.919	26735
804.061	26994
804.204	26823
804.346	26918
804.488	26834
804.63	26910
804.773	26864
804.915	27013
805.057	27146
805.199	27070
805.341	27283
805.483	27382
805.626	27401
805.768	27363
805.91	27454
806.052	27542
806.194	27671
806.336	28120
806.478	28169
806.62	28192
806.762	28592
806.904	29090
807.046	29440
807.188	29756
807.33	30254
807.472	30932
807.614	31346
807.756	32476
807.898	33572
808.04	35159
808.182	37137
808.324	39758
808.465	42753
808.607	46063
808.749	49042
808.891	50651
809.033	50948
809.174	49293
809.316	46470
809.458	42970
809.6	39420
809.741	36707
809.883	34306
810.025	32960
810.166	31940
810.308	31061
810.45	30391
810.591	29897
810.733	29337
810.875	28850
811.016	28557
811.158	28344
811.299	28356
811.441	28177
811.582	28070
811.724	27854
811.865	27625
812.007	27709
812.148	27557
812.29	27561
812.431	27496
812.573	27857
812.714	27686
812.855	27641
812.997	27713
813.138	27876
813.279	27774
813.421	27682
813.562	27534
813.703	27321
813.845	27096
813.986	26830
814.127	26735
814.268	26419
814.41	26400
814.551	26408
814.692	26442
814.833	26301
814.974	26294
815.115	26263
815.256	26237
815.397	25974
815.539	26039
815.68	26096
815.821	25887
815.962	25837
816.103	25875
816.244	25769
816.385	25772
816.526	25559
816.666	25392
816.807	25202
816.948	25304
817.089	25362
817.23	25228
817.371	25091
817.512	25099
817.653	25034
817.793	24989
817.934	25107
818.075	25187
818.216	25133
818.356	25171
818.497	24951
818.638	24787
818.778	24852
818.919	24817
819.06	24890
819.2	24856
819.341	25019
819.481	25076
819.622	25274
819.762	25240
819.903	25213
820.043	25202
820.184	25088
820.324	25053
820.465	25175
820.605	25050
820.746	25004
820.886	24806
821.026	24913
821.167	24814
821.307	24954
821.447	24859
821.588	24631
821.728	24563
821.868	24410
822.008	24243
822.149	24194
822.289	24152
822.429	23954
822.569	23950
822.709	23889
822.849	23634
822.99	23653
823.13	23634
823.27	23611
823.41	23444
823.55	23353
823.69	23433
823.83	23501
823.97	23368
824.11	23204
824.25	23223
824.389	23269
824.529	23353
824.669	23242
824.809	23410
824.949	23322
825.089	23223
825.228	23250
825.368	23105
825.508	23022
825.648	23025
825.787	23056
825.927	23075
826.067	22850
826.206	23010
826.346	23010
826.485	23140
826.625	23018
826.765	23162
826.904	22991
827.044	22786
827.183	22828
827.323	22599
827.462	22630
827.601	22645
827.741	22660
827.88	22778
828.02	22615
828.159	22683
828.298	22599
828.437	22721
828.577	22569
828.716	22736
828.855	22603
828.994	22413
829.134	22367
829.273	22462
829.412	22367
829.551	22249
829.69	22375
829.829	22428
829.968	22417
830.107	22348
830.246	22390
830.385	22219
830.524	22295
830.663	22070
830.802	22078
830.941	21975
831.08	22021
831.219	22192
831.357	21972
831.496	22097
831.635	22063
831.774	21983
831.913	21816
832.051	21865
832.19	21922
832.329	21831
832.467	21865
832.606	21675
832.744	21728
832.883	21930
833.022	21941
833.16	22006
833.299	22181
833.437	22341
833.576	22382
833.714	22531
833.852	22725
833.991	22755
834.129	22968
834.267	22984
834.406	22934
834.544	22744
834.682	22755
834.821	22462
834.959	22580
835.097	22242
835.235	22268
835.373	22147
835.511	21926
835.65	21884
835.788	21739
835.926	21561
836.064	21477
836.202	21408
836.34	21485
836.478	21618
836.615	21473
836.753	21488
836.891	21530
837.029	21504
837.167	21496
837.305	21420
837.443	21370
837.58	21211
837.718	21420
837.856	21218
837.993	21237
838.131	21256
838.269	21039
838.406	21192
838.544	21119
838.681	20849
838.819	20807
838.956	20826
839.094	20739
839.231	20727
839.369	20716
839.506	20986
839.643	20906
839.781	20667
839.918	20674
840.055	20636
840.193	20708
840.33	20727
840.467	20613
840.604	20659
840.742	20861
840.879	20526
841.016	20571
841.153	20526
841.29	20689
841.427	20549
841.564	20697
841.701	20530
841.838	20568
841.975	20606
842.112	20602
842.249	20450
842.385	20442
842.522	20648
842.659	20495
842.796	20469
842.933	20530
843.069	20412
843.206	20438
843.343	20499
843.479	20598
843.616	20579
843.752	20412
843.889	20484
844.025	20613
844.162	20571
844.298	20765
844.435	21009
844.571	21131
844.708	21321
844.844	21846
844.98	22238
845.117	22965
845.253	23874
845.389	25765
845.525	29364
845.661	35326
845.798	42338
845.934	47288
846.07	49301
846.206	47851
846.342	42989
846.478	36133
846.614	30148
846.75	26214
846.886	24049
847.022	22573
847.158	21618
847.294	21165
847.429	20800
847.565	20499
847.701	20625
847.837	20035
847.972	20001
848.108	19963
848.244	19822
848.379	19639
848.515	19510
848.65	19460
848.786	19487
848.921	19510
849.057	19540
849.192	19499
849.328	19434
849.463	19434
849.598	19392
849.734	19183
849.869	19221
850.004	19034
850.14	19061
850.275	19156
850.41	18977
850.545	19004
850.68	18993
850.815	19133
850.95	18935
851.085	19202
851.22	19209
851.355	18996
851.49	18894
851.625	19084
851.76	18966
851.895	18928
852.03	19027
852.165	19034
852.299	19107
852.434	19114
852.569	19244
852.703	19168
852.838	19247
852.973	19388
853.107	19289
853.242	19137
853.376	19076
853.511	19034
853.645	19038
853.78	19221
853.914	19266
854.048	19244
854.183	19244
854.317	19285
854.451	19502
854.585	19301
854.72	19259
854.854	19285
854.988	19133
855.122	19137
855.256	18970
855.39	19187
855.524	19129
855.658	19072
855.792	19019
855.926	19088
856.06	19015
856.194	18985
856.327	18894
856.461	18848
856.595	18825
856.729	18901
856.862	18939
856.996	18989
857.13	19027
857.263	18882
857.397	18962
857.53	18825
857.664	18993
857.797	18924
857.931	18958
858.064	18875
858.197	18837
858.331	18684
858.464	18749
858.597	18570
858.731	18757
858.864	18719
858.997	18726
859.13	18821
859.263	18745
859.396	18875
859.529	18673
859.662	18738
859.795	18730
859.928	18631
860.061	18719
860.194	18821
860.327	18700
860.46	18642
860.592	18764
860.725	18768
860.858	18821
860.99	18787
861.123	18715
861.256	18582
861.388	18730
861.521	19339
861.653	18528
861.786	18448
861.918	18403
862.05	18589
862.183	18604
862.315	18684
862.447	18696
862.58	18696
862.712	18509
862.844	18456
862.976	18391
863.108	18460
863.24	18612
863.372	18334
863.504	18319
863.636	18407
863.768	18494
863.9	18304
864.032	18346
864.164	18323
864.296	18380
864.428	18445
864.559	18346
864.691	18380
864.823	18426
864.954	18262
865.086	18289
865.217	18410
865.349	18228
865.48	18292
865.612	18300
865.743	18399
865.875	18277
866.006	18365
866.137	18292
866.269	18194
866.4	18311
866.531	18239
866.662	18155
866.793	18384
866.924	18201
867.055	18209
867.186	18197
867.317	18174
867.448	18091
867.579	18194
867.71	18148
867.841	18194
867.972	18235
868.103	18174
868.233	18247
868.364	18266
868.495	18285
868.625	18426
868.756	18536
868.886	18498
869.017	18452
869.147	18623
869.278	18532
869.408	18551
869.539	18650
869.669	18673
869.799	18509
869.929	18582
870.06	18555
870.19	18878
870.32	18772
870.45	18848
870.58	18882
870.71	19000
870.84	18981
870.97	18939
871.1	18966
871.23	19206
871.36	19266
871.489	19057
871.619	19008
871.749	19133
871.879	19263
872.008	19308
872.138	19179
872.267	19339
872.397	19137
872.526	19145
872.656	19099
872.785	19080
872.915	19441
873.044	19483
873.173	19396
873.303	19430
873.432	19453
873.561	19495
873.69	19556
873.819	19483
873.948	19605
874.077	19552
874.206	19476
874.335	19662
874.464	19723
874.593	19795
874.722	19860
874.851	19982
874.979	20050
875.108	20206
875.237	20005
875.365	20024
875.494	20111
875.623	20229
875.751	20161
875.88	20237
876.008	20457
876.136	20583
876.265	20769
876.393	20830
876.521	20990
876.65	21009
876.778	21131
876.906	20990
877.034	21081
877.162	21207
877.29	21249
877.418	21249
877.546	21469
877.674	21511
877.802	21553
877.93	21804
878.058	21903
878.185	22082
878.313	22318
878.441	22881
878.568	23022
878.696	23573
878.824	24502
878.951	25658
879.079	27207
879.206	29288
879.333	31320
879.461	33252
879.588	34219
879.715	34303
879.842	33367
879.97	31499
880.097	29212
880.224	27500
880.351	26396
880.478	25575
880.605	24802
880.732	24597
880.859	24547
880.986	24060
881.112	23965
881.239	23866
881.366	23729
881.493	23722
881.619	23634
881.746	23642
881.872	23642
881.999	23779
882.125	23707
882.252	23870
882.378	23775
882.505	23980
882.631	23703
882.757	23745
882.883	23737
883.01	23638
883.136	23619
883.262	23505
883.388	23535
883.514	23589
883.64	23570
883.766	23501
883.892	23322
884.018	23402
884.143	23642
884.269	23665
884.395	23277
884.52	23391
884.646	23368
884.772	23239
884.897	23292
885.023	23261
885.148	23372
885.274	23402
885.399	23261
885.524	23029
885.65	23025
885.775	22831
885.9	22618
886.025	22569
886.15	22531
886.275	22246
886.4	22021
886.525	21953
886.65	21892
886.775	21724
886.9	21774
887.025	21861
887.149	21420
887.274	21123
887.399	21058
887.523	20990
887.648	20815
887.773	20773
887.897	20834
888.021	20716
888.146	20495
888.27	20659
888.395	20625
888.519	20526
888.643	20396
888.767	20427
888.891	20282
889.015	20016
889.139	20081
889.263	19978
889.387	20035
889.511	20077
889.635	20054
889.759	19898
889.883	19822
890.006	19799
890.13	19795
890.254	19696
890.377	19708
890.501	19491
890.624	19381
890.748	19407
890.871	19259
890.995	19103
891.118	18993
891.241	19137
891.364	19099
891.488	19270
891.611	18989
891.734	19053
891.857	19019
891.98	18996
892.103	18973
892.226	18867
892.349	18692
892.471	18684
892.594	18795
892.717	18768
892.839	18582
892.962	18715
893.085	18779
893.207	18578
893.33	18536
893.452	18559
893.575	18559
893.697	18380
893.819	18631
893.941	18658
894.064	18661
894.186	18410
894.308	18300
894.43	18604
894.552	18464
894.674	18464
894.796	18239
894.918	18410
895.04	18251
895.161	18467
895.283	18304
895.405	18201
895.526	18152
895.648	18186
895.769	18327
895.891	18243
896.012	18277
896.134	18190
896.255	18285
896.376	18125
896.498	18178
896.619	18277
896.74	18148
896.861	18281
896.982	18479
897.103	18620
897.224	18369
897.345	18327
897.466	18330
897.587	18418
897.708	18399
897.828	18319
897.949	18327
898.07	18190
898.19	18277
898.311	18464
898.431	18174
898.552	18315
898.672	18361
898.792	18388
898.913	18300
899.033	18232
899.153	18182
899.273	18083
899.393	18015
899.513	18114
899.633	18064
899.753	18011
899.873	18041
899.993	18095
900.113	17916
900.232	18038
900.352	18087
900.472	17897
900.591	18003
900.711	18015
900.83	17859
900.95	17920
901.069	17939
901.189	17882
901.308	17623
901.427	17528
901.546	17444
901.665	17543
901.784	17478
901.904	17345
902.023	17307
902.141	17067
902.26	17056
902.379	16946
902.498	16896
902.617	16892
902.735	16995
902.854	16904
902.973	16858
903.091	16645
903.21	16683
903.328	16611
903.446	16466
903.565	16348
903.683	16356
903.801	16341
903.919	16367
904.038	16333
904.156	16120
904.274	16162
904.392	16116
904.51	16078
904.627	16071
904.745	16147
904.863	16044
904.981	15857
905.098	15842
905.216	15690
905.334	15682
905.451	15728
905.569	15614
905.686	15755
905.803	15797
905.921	15405
906.038	15633
906.155	15534
906.272	15367
906.389	15477
906.506	15279
906.623	15321
906.74	15367
906.857	15119
906.974	15127
907.091	15252
907.208	15249
907.324	15306
907.441	15108
907.557	15032
907.674	14975
907.79	14918
907.907	14914
908.023	15009
908.139	14937
908.256	14838
908.372	14842
908.488	14857
908.604	14750
908.72	14651
908.836	14743
908.952	14663
909.068	14705
909.184	14765
909.3	14720
909.415	14682
909.531	14693
909.647	14396
909.762	14454
909.878	14377
909.993	14362
910.108	14343
910.224	14343
910.339	14381
910.454	14237
910.57	14309
910.685	14180
910.8	14370
910.915	14400
911.03	14229
911.145	14062
911.259	14073
911.374	14077
911.489	13868
911.604	13890
911.718	13803
911.833	13864
911.947	13605
912.062	13548
912.176	13727
912.291	13715
912.405	13693
912.519	13936
912.633	13959
912.748	13795
912.862	13719
912.976	13651
913.09	13529
913.204	13510
913.318	13571
913.431	13655
913.545	13639
913.659	13715
913.772	13571
913.886	13468
914	13441
914.113	13590
914.226	13609
914.34	13590
914.453	13392
914.566	13559
914.68	13301
914.793	13403
914.906	13251
915.019	13156
915.132	13008
915.245	13152
915.358	13175
915.47	13247
915.583	13171
915.696	13080
915.809	13301
915.921	13346
916.034	13145
916.146	13038
916.259	13156
916.371	13122
916.483	13088
916.595	13031
916.708	13069
916.82	13137
916.932	13065
917.044	13038
917.156	13091
917.268	12935
917.38	12951
917.491	12966
917.603	12913
917.715	13031
917.826	13038
917.938	12837
918.049	12757
918.161	12951
918.272	13042
918.384	12943
918.495	12886
918.606	12684
918.717	12616
918.828	12669
918.939	12753
919.05	12494
919.161	12506
919.272	12391
919.383	12494
919.494	12604
919.604	12852
919.715	12673
919.826	12642
919.936	12688
920.047	12753
920.157	12635
920.267	12859
920.378	12608
920.488	12654
920.598	12840
920.708	13012
920.818	12791
920.928	12821
921.038	12981
921.148	12859
921.258	12662
921.368	12506
921.477	12391
921.587	12441
921.697	12315
921.806	12353
921.916	12289
922.025	12068
922.134	12076
922.244	12007
922.353	12030
922.462	11965
922.571	11866
922.68	11752
922.789	11703
922.898	11771
923.007	11695
923.116	11714
923.224	11672
923.333	11657
923.442	11600
923.55	11589
923.659	11516
923.767	11558
923.876	11501
923.984	11642
924.092	11448
924.201	11539
924.309	11608
924.417	11421
924.525	11421
924.633	11486
924.741	12277
924.849	11212
924.956	11414
925.064	11273
925.172	11136
925.279	11162
925.387	11307
925.494	11239
925.602	11315
925.709	11284
925.816	11098
925.924	11284
926.031	11273
926.138	11105
926.245	11147
926.352	11155
926.459	11212
926.566	11193
926.673	11022
926.779	10999
926.886	11025
926.993	10805
927.099	10866
927.206	10877
927.312	10809
927.419	10938
927.525	10934
927.631	10839
927.737	10729
927.843	10755
927.95	10592
928.056	10717
928.162	10698
928.267	10717
928.373	11250
928.479	10892
928.585	10485
928.69	10653
928.796	10641
928.901	10687
929.007	10474
929.112	10599
929.218	10538
929.323	10508
929.428	10470
929.533	10599
929.638	10451
929.743	10432
929.848	10500
929.953	10405
930.058	10265
930.163	10109
930.267	10230
930.372	10352
930.477	10071
930.581	10360
930.685	10215
930.79	10078
930.894	10116
930.998	10101
931.103	10257
931.207	9918
931.311	9854
931.415	9740
931.519	9564
931.623	9542
