Data from test_V78500241_2104.txt Node
Date: Fri Mar 25 14:48:21 CST 2022
User: usil
Spectrometer: V785-0024
Trigger mode: 0
Integration Time (sec): 4.000000E-1
Scans to average: 1
Nonlinearity correction enabled: false
Boxcar width: 0
Storing dark spectrum: false
XAxis mode: Wavelengths
Number of Pixels in Spectrum: 1024
>>>>>Begin Spectral Data<<<<<
801.071	22154
801.214	22006
801.356	21781
801.499	21633
801.641	21466
801.783	21469
801.926	21572
802.068	21504
802.211	21363
802.353	21222
802.496	21051
802.638	20861
802.78	20906
802.923	20872
803.065	20826
803.208	20804
803.35	20921
803.492	20937
803.635	20910
803.777	20861
803.919	20971
804.061	21085
804.204	20895
804.346	20689
804.488	20765
804.63	20883
804.773	20549
804.915	20697
805.057	20864
805.199	20746
805.341	20823
805.483	20819
805.626	20941
805.768	20689
805.91	20781
806.052	20712
806.194	20602
806.336	20762
806.478	20804
806.62	20667
806.762	20857
806.904	20906
807.046	21188
807.188	21116
807.33	21100
807.472	21142
807.614	21108
807.756	20941
807.898	20906
808.04	20701
808.182	20868
808.324	20826
808.465	20937
808.607	21131
808.749	21081
808.891	21184
809.033	21317
809.174	21173
809.316	21074
809.458	21199
809.6	21108
809.741	21176
809.883	21154
810.025	21336
810.166	21272
810.308	21351
810.45	21112
810.591	21089
810.733	20937
810.875	20834
811.016	20716
811.158	20826
811.299	20998
811.441	21089
811.582	21047
811.724	20773
811.865	20815
812.007	20792
812.148	20918
812.29	20838
812.431	21013
812.573	21108
812.714	21245
812.855	21412
812.997	21397
813.138	21622
813.279	21591
813.421	21298
813.562	21188
813.703	21150
813.845	21138
813.986	20785
814.127	20511
814.268	20564
814.41	20454
814.551	20450
814.692	20598
814.833	20301
814.974	20313
815.115	20396
815.256	20282
815.397	20381
815.539	20237
815.68	20153
815.821	20172
815.962	20221
816.103	20119
816.244	19902
816.385	19936
816.526	19822
816.666	19719
816.807	19632
816.948	19742
817.089	19643
817.23	19548
817.371	19506
817.512	19643
817.653	19578
817.793	19422
817.934	19426
818.075	19552
818.216	19521
818.356	19495
818.497	19426
818.638	19168
818.778	19171
818.919	19259
819.06	19217
819.2	19468
819.341	19491
819.481	19548
819.622	19552
819.762	19776
819.903	19753
820.043	19540
820.184	19518
820.324	19651
820.465	19594
820.605	19567
820.746	19453
820.886	19434
821.026	19529
821.167	19533
821.307	19514
821.447	19434
821.588	19388
821.728	19232
821.868	19152
822.008	18837
822.149	18905
822.289	18943
822.429	18616
822.569	18711
822.709	18696
822.849	18433
822.99	18479
823.13	18399
823.27	18445
823.41	18403
823.55	18300
823.69	18254
823.83	18323
823.97	18262
824.11	18087
824.25	17977
824.389	18057
824.529	18125
824.669	18053
824.809	18190
824.949	18083
825.089	18174
825.228	17977
825.368	17893
825.508	17752
825.648	17817
825.787	17851
825.927	17912
826.067	17741
826.206	17733
826.346	17901
826.485	17832
826.625	17828
826.765	17931
826.904	17878
827.044	17528
827.183	17623
827.323	17417
827.462	17516
827.601	17543
827.741	17524
827.88	17585
828.02	17364
828.159	17478
828.298	17581
828.437	17509
828.577	17452
828.716	17653
828.855	17452
828.994	17265
829.134	17223
829.273	17284
829.412	17246
829.551	17185
829.69	17250
829.829	17189
829.968	17341
830.107	17197
830.246	17273
830.385	17056
830.524	17178
830.663	17075
830.802	17014
830.941	16877
831.08	16824
831.219	16987
831.357	16976
831.496	16980
831.635	16847
831.774	16786
831.913	16850
832.051	16710
832.19	16664
832.329	16774
832.467	16394
832.606	16466
832.744	16550
832.883	16573
833.022	16424
833.16	16584
833.299	16664
833.437	16733
833.576	16672
833.714	16565
833.852	16626
833.991	16577
834.129	16736
834.267	16656
834.406	16611
834.544	16733
834.682	16634
834.821	16626
834.959	16717
835.097	16622
835.235	16615
835.373	16713
835.511	16641
835.65	16527
835.788	16592
835.926	16379
836.064	16276
836.202	16348
836.34	16554
836.478	16626
836.615	16508
836.753	16546
836.891	16580
837.029	16531
837.167	16512
837.305	16478
837.443	16382
837.58	16379
837.718	16474
837.856	16405
837.993	16341
838.131	16379
838.269	16371
838.406	16325
838.544	16257
838.681	16120
838.819	16032
838.956	15907
839.094	15922
839.231	15953
839.369	15941
839.506	16329
839.643	16169
839.781	15953
839.918	15953
840.055	15994
840.193	16013
840.33	15934
840.467	15861
840.604	15979
840.742	16086
840.879	15922
841.016	15774
841.153	15800
841.29	16017
841.427	15937
841.564	16044
841.701	15873
841.838	15899
841.975	15808
842.112	15854
842.249	15739
842.385	15762
842.522	15930
842.659	15701
842.796	15648
842.933	15785
843.069	15648
843.206	15648
843.343	15785
843.479	15797
843.616	15755
843.752	15557
843.889	15515
844.025	15701
844.162	15496
844.298	15625
844.435	15473
844.571	15504
844.708	15511
844.844	15800
844.98	15660
845.117	15705
845.253	15485
845.389	15397
845.525	15382
845.661	15401
845.798	15298
845.934	15393
846.07	15313
846.206	15389
846.342	15351
846.478	15264
846.614	14986
846.75	15077
846.886	15146
847.022	15226
847.158	15108
847.294	15093
847.429	15192
847.565	15032
847.701	15340
847.837	14834
847.972	14746
848.108	14925
848.244	14956
848.379	14785
848.515	14701
848.65	14648
848.786	14773
848.921	14689
849.057	14819
849.192	14834
849.328	14689
849.463	14670
849.598	14724
849.734	14579
849.869	14514
850.004	14434
850.14	14503
850.275	14412
850.41	14362
850.545	14400
850.68	14366
850.815	14507
850.95	14339
851.085	14705
851.22	14480
851.355	14347
851.49	14393
851.625	14465
851.76	14454
851.895	14320
852.03	14320
852.165	14454
852.299	14431
852.434	14454
852.569	14423
852.703	14507
852.838	14476
852.973	14541
853.107	14613
853.242	14488
853.376	14332
853.511	14229
853.645	14206
853.78	14396
853.914	14309
854.048	14214
854.183	14259
854.317	14286
854.451	14473
854.585	14206
854.72	14324
854.854	14358
854.988	14229
855.122	14294
855.256	14210
855.39	14237
855.524	14385
855.658	14332
855.792	14275
855.926	14362
856.06	14396
856.194	14480
856.327	14347
856.461	14180
856.595	14332
856.729	14271
856.862	14476
856.996	14290
857.13	14385
857.263	14385
857.397	14461
857.53	14237
857.664	14336
857.797	14389
857.931	14366
858.064	14275
858.197	14438
858.331	14347
858.464	14218
858.597	14206
858.731	14271
858.864	14336
858.997	14161
859.13	14362
859.263	14427
859.396	14374
859.529	14294
859.662	14317
859.795	14332
859.928	14317
860.061	14507
860.194	14533
860.327	14393
860.46	14347
860.592	14476
860.725	14351
860.858	14366
860.99	14290
861.123	14282
861.256	14225
861.388	14309
861.521	14861
861.653	14176
861.786	14134
861.918	14164
862.05	14233
862.183	14290
862.315	14248
862.447	14396
862.58	14164
862.712	14126
862.844	14054
862.976	14111
863.108	14180
863.24	14366
863.372	14065
863.504	14046
863.636	14100
863.768	14138
863.9	14126
864.032	13955
864.164	14149
864.296	14046
864.428	14176
864.559	14183
864.691	14142
864.823	14123
864.954	14126
865.086	14054
865.217	14092
865.349	14069
865.48	13989
865.612	14111
865.743	14214
865.875	14039
866.006	14096
866.137	14043
866.269	14084
866.4	14119
866.531	14024
866.662	14012
866.793	14035
866.924	14035
867.055	14100
867.186	14024
867.317	14001
867.448	14027
867.579	14039
867.71	13928
867.841	14008
867.972	14119
868.103	14065
868.233	14092
868.364	14123
868.495	14103
868.625	14385
868.756	14377
868.886	14301
869.017	14263
869.147	14358
869.278	14404
869.408	14313
869.539	14282
869.669	14450
869.799	14415
869.929	14457
870.06	14461
870.19	14606
870.32	14571
870.45	14613
870.58	14777
870.71	14811
870.84	14868
870.97	14697
871.1	14674
871.23	14975
871.36	15032
871.489	14826
871.619	14933
871.749	14921
871.879	14994
872.008	15066
872.138	14872
872.267	14937
872.397	14701
872.526	14811
872.656	14834
872.785	14800
872.915	14960
873.044	14956
873.173	14902
873.303	14982
873.432	14998
873.561	15058
873.69	14948
873.819	14982
873.948	15032
874.077	15028
874.206	14883
874.335	15001
874.464	15097
874.593	15256
874.722	15173
874.851	15291
874.979	15401
875.108	15367
875.237	15173
875.365	15173
875.494	15256
875.623	15348
875.751	15237
875.88	15294
876.008	15370
876.136	15629
876.265	15720
876.393	15724
876.521	15732
876.65	15823
876.778	15652
876.906	15648
877.034	15732
877.162	15648
877.29	15622
877.418	15603
877.546	15713
877.674	15644
877.802	15694
877.93	15698
878.058	15667
878.185	15504
878.313	15584
878.441	15774
878.568	15439
878.696	15644
878.824	15747
878.951	15895
879.079	15865
879.206	16071
879.333	15880
879.461	15785
879.588	15983
879.715	15857
879.842	16048
879.97	15808
880.097	15481
880.224	15523
880.351	15538
880.478	15553
880.605	15561
880.732	15530
880.859	15759
880.986	15515
881.112	15576
881.239	15397
881.366	15249
881.493	15279
881.619	15173
881.746	15260
881.872	15176
881.999	15233
882.125	15176
882.252	15348
882.378	15218
882.505	15389
882.631	15165
882.757	14948
882.883	15062
883.01	15013
883.136	14937
883.262	14880
883.388	14902
883.514	15188
883.64	14979
883.766	14982
883.892	14872
884.018	14857
884.143	15081
884.269	15074
884.395	14716
884.52	14754
884.646	14743
884.772	14697
884.897	14602
885.023	14708
885.148	14845
885.274	14952
885.399	14800
885.524	14678
885.65	14720
885.775	14765
885.9	14739
886.025	14777
886.15	14731
886.275	14667
886.4	14575
886.525	14674
886.65	14636
886.775	14655
886.9	14804
887.025	14933
887.149	14792
887.274	14575
887.399	14492
887.523	14484
887.648	14522
887.773	14484
887.897	14575
888.021	14606
888.146	14480
888.27	14708
888.395	14659
888.519	14651
888.643	14629
888.767	14655
888.891	14507
889.015	14427
889.139	14473
889.263	14320
889.387	14533
889.511	14701
889.635	14522
889.759	14374
889.883	14423
890.006	14461
890.13	14408
890.254	14317
890.377	14385
890.501	14252
890.624	14267
890.748	14294
890.871	14168
890.995	14123
891.118	14016
891.241	14180
891.364	14092
891.488	14206
891.611	14145
891.734	14081
891.857	14210
891.98	14119
892.103	14176
892.226	14088
892.349	14081
892.471	13967
892.594	14103
892.717	14172
892.839	14100
892.962	14077
893.085	14210
893.207	14084
893.33	14039
893.452	13974
893.575	14096
893.697	14134
893.819	14259
893.941	14362
894.064	14199
894.186	14035
894.308	14130
894.43	14248
894.552	14259
894.674	14294
894.796	14119
894.918	14161
895.04	14244
895.161	14187
895.283	14290
895.405	14180
895.526	14282
895.648	14324
895.769	14248
895.891	14294
896.012	14358
896.134	14377
896.255	14286
896.376	14183
896.498	14271
896.619	14290
896.74	14294
896.861	14313
896.982	14625
897.103	14735
897.224	14522
897.345	14533
897.466	14480
897.587	14503
897.708	14678
897.828	14568
897.949	14431
898.07	14526
898.19	14476
898.311	14640
898.431	14720
898.552	14644
898.672	14731
898.792	14720
898.913	14686
899.033	14511
899.153	14476
899.273	14381
899.393	14461
899.513	14507
899.633	14476
899.753	14499
899.873	14473
899.993	14412
900.113	14526
900.232	14564
900.352	14438
900.472	14423
900.591	14355
900.711	14290
900.83	14294
900.95	14454
901.069	14461
901.189	14202
901.308	14035
901.427	14035
901.546	14092
901.665	13974
901.784	14039
901.904	13894
902.023	13944
902.141	13674
902.26	13685
902.379	13742
902.498	13578
902.617	13491
902.735	13651
902.854	13552
902.973	13616
903.091	13388
903.21	13411
903.328	13369
903.446	13278
903.565	13217
903.683	13168
903.801	13088
903.919	13145
904.038	13179
904.156	13012
904.274	13076
904.392	12996
904.51	13023
904.627	12951
904.745	12996
904.863	13031
904.981	12772
905.098	12688
905.216	12715
905.334	12787
905.451	12764
905.569	12711
905.686	12779
905.803	12722
905.921	12475
906.038	12703
906.155	12532
906.272	12452
906.389	12429
906.506	12254
906.623	12232
906.74	12281
906.857	12243
906.974	12205
907.091	12262
907.208	12422
907.324	12311
907.441	12110
907.557	12057
907.674	12022
907.79	11958
907.907	11999
908.023	12007
908.139	12038
908.256	12041
908.372	11950
908.488	11893
908.604	11809
908.72	11718
908.836	11832
908.952	11718
909.068	11790
909.184	11836
909.3	11843
909.415	11916
909.531	11809
909.647	11577
909.762	11566
909.878	11539
909.993	11535
910.108	11395
910.224	11585
910.339	11592
910.454	11524
910.57	11436
910.685	11345
910.8	11608
910.915	11581
911.03	11417
911.145	11311
911.259	11227
911.374	11174
911.489	11223
911.604	11083
911.718	10991
911.833	10961
911.947	10790
912.062	10835
912.176	11018
912.291	10968
912.405	11003
912.519	11170
912.633	11174
912.748	11067
912.862	10984
912.976	10911
913.09	10812
913.204	10889
913.318	10908
913.431	10953
913.545	11025
913.659	11067
913.772	10911
913.886	10774
914	10694
914.113	10805
914.226	10904
914.34	10847
914.453	10603
914.566	10816
914.68	10687
914.793	10755
914.906	10599
915.019	10432
915.132	10390
915.245	10462
915.358	10470
915.47	10535
915.583	10512
915.696	10607
915.809	10615
915.921	10664
916.034	10440
916.146	10489
916.259	10436
916.371	10573
916.483	10462
916.595	10367
916.708	10398
916.82	10440
916.932	10409
917.044	10379
917.156	10379
917.268	10291
917.38	10417
917.491	10299
917.603	10341
917.715	10428
917.826	10413
917.938	10268
918.049	10181
918.161	10390
918.272	10497
918.384	10493
918.495	10405
918.606	10246
918.717	10150
918.828	10253
918.939	10249
919.05	10200
919.161	10238
919.272	10032
919.383	10082
919.494	10299
919.604	10352
919.715	10337
919.826	10162
919.936	10139
920.047	10303
920.157	10177
920.267	10413
920.378	10249
920.488	10238
920.598	10478
920.708	10592
920.818	10489
920.928	10455
921.038	10588
921.148	10523
921.258	10337
921.368	10147
921.477	10173
921.587	10078
921.697	9975
921.806	10097
921.916	9983
922.025	9922
922.134	9808
922.244	9831
922.353	9835
922.462	9682
922.571	9705
922.68	9511
922.789	9500
922.898	9473
923.007	9447
923.116	9576
923.224	9485
923.333	9431
923.442	9359
923.55	9283
923.659	9340
923.767	9416
923.876	9340
923.984	9485
924.092	9431
924.201	9359
924.309	9329
924.417	9310
924.525	9287
924.633	9317
924.741	10280
924.849	9192
924.956	9237
925.064	9047
925.172	9066
925.279	9093
925.387	9097
925.494	9077
925.602	9298
925.709	9233
925.816	9150
925.924	9024
926.031	9173
926.138	9199
926.245	9218
926.352	9066
926.459	9245
926.566	9329
926.673	9131
926.779	9024
926.886	8960
926.993	8872
927.099	8849
927.206	8785
927.312	8838
927.419	8880
927.525	8861
927.631	8895
927.737	8785
927.843	8815
927.95	8659
928.056	8727
928.162	8766
928.267	8788
928.373	9332
928.479	8838
928.585	8640
928.69	8727
928.796	8754
928.901	8754
929.007	8530
929.112	8655
929.218	8663
929.323	8598
929.428	8571
929.533	8716
929.638	8526
929.743	8606
929.848	8568
929.953	8568
930.058	8469
930.163	8248
930.267	8374
930.372	8492
930.477	8324
930.581	8530
930.685	8328
930.79	8336
930.894	8301
930.998	8298
931.103	8374
931.207	8077
931.311	7978
931.415	7986
931.519	7795
931.623	7788
