Data from test_V78500241_3093.txt Node
Date: Fri Mar 25 14:55:15 CST 2022
User: usil
Spectrometer: V785-0024
Trigger mode: 0
Integration Time (sec): 4.000000E-1
Scans to average: 1
Nonlinearity correction enabled: false
Boxcar width: 0
Storing dark spectrum: false
XAxis mode: Wavelengths
Number of Pixels in Spectrum: 1024
>>>>>Begin Spectral Data<<<<<
801.071	22013
801.214	21937
801.356	21667
801.499	21610
801.641	21481
801.783	21462
801.926	21363
802.068	21439
802.211	21275
802.353	21184
802.496	21093
802.638	21020
802.78	20982
802.923	20807
803.065	20705
803.208	20674
803.35	20754
803.492	20800
803.635	20861
803.777	20765
803.919	20724
804.061	21184
804.204	20826
804.346	20705
804.488	20708
804.63	20830
804.773	20571
804.915	20663
805.057	20674
805.199	20667
805.341	20716
805.483	20826
805.626	20765
805.768	20689
805.91	20621
806.052	20716
806.194	20564
806.336	20861
806.478	20663
806.62	20579
806.762	20727
806.904	20811
807.046	21028
807.188	21096
807.33	20956
807.472	21074
807.614	20853
807.756	20929
807.898	20739
808.04	20769
808.182	20663
808.324	20811
808.465	20712
808.607	20948
808.749	21039
808.891	21264
809.033	21150
809.174	21173
809.316	21039
809.458	21135
809.6	21001
809.741	20990
809.883	21108
810.025	21218
810.166	21275
810.308	21150
810.45	21116
810.591	21169
810.733	21043
810.875	20826
811.016	20792
811.158	20659
811.299	20895
811.441	20967
811.582	20990
811.724	20823
811.865	20902
812.007	20750
812.148	20754
812.29	20830
812.431	20971
812.573	20986
812.714	21207
812.855	21401
812.997	21405
813.138	21492
813.279	21458
813.421	21294
813.562	21249
813.703	21108
813.845	20971
813.986	20632
814.127	20533
814.268	20476
814.41	20362
814.551	20313
814.692	20332
814.833	20374
814.974	20358
815.115	20309
815.256	20157
815.397	20233
815.539	20290
815.68	20092
815.821	20122
815.962	20100
816.103	19951
816.244	19875
816.385	19727
816.526	19742
816.666	19624
816.807	19537
816.948	19597
817.089	19476
817.23	19559
817.371	19502
817.512	19487
817.653	19464
817.793	19468
817.934	19468
818.075	19529
818.216	19521
818.356	19346
818.497	19282
818.638	19225
818.778	19103
818.919	19232
819.06	19225
819.2	19381
819.341	19316
819.481	19381
819.622	19544
819.762	19715
819.903	19658
820.043	19453
820.184	19457
820.324	19430
820.465	19502
820.605	19426
820.746	19411
820.886	19312
821.026	19392
821.167	19411
821.307	19499
821.447	19403
821.588	19400
821.728	19148
821.868	19031
822.008	18962
822.149	18882
822.289	18757
822.429	18703
822.569	18623
822.709	18555
822.849	18311
822.99	18380
823.13	18247
823.27	18338
823.41	18232
823.55	18182
823.69	18171
823.83	18064
823.97	18114
824.11	17878
824.25	17851
824.389	17874
824.529	17980
824.669	17874
824.809	18049
824.949	17961
825.089	18022
825.228	17882
825.368	17676
825.508	17722
825.648	17745
825.787	17737
825.927	17707
826.067	17680
826.206	17699
826.346	17672
826.485	17798
826.625	17619
826.765	17817
826.904	17657
827.044	17516
827.183	17520
827.323	17387
827.462	17417
827.601	17410
827.741	17436
827.88	17356
828.02	17223
828.159	17417
828.298	17337
828.437	17387
828.577	17288
828.716	17455
828.855	17223
828.994	17159
829.134	17121
829.273	17166
829.412	17128
829.551	17140
829.69	17025
829.829	17136
829.968	17220
830.107	17132
830.246	17239
830.385	17102
830.524	17124
830.663	16946
830.802	16881
830.941	16778
831.08	16630
831.219	16892
831.357	16843
831.496	16869
831.635	16679
831.774	16710
831.913	16588
832.051	16504
832.19	16653
832.329	16622
832.467	16417
832.606	16440
832.744	16447
832.883	16462
833.022	16352
833.16	16500
833.299	16436
833.437	16447
833.576	16527
833.714	16573
833.852	16478
833.991	16512
834.129	16512
834.267	16577
834.406	16546
834.544	16538
834.682	16519
834.821	16409
834.959	16691
835.097	16417
835.235	16580
835.373	16519
835.511	16481
835.65	16405
835.788	16379
835.926	16196
836.064	16162
836.202	16314
836.34	16394
836.478	16512
836.615	16322
836.753	16398
836.891	16424
837.029	16424
837.167	16314
837.305	16211
837.443	16257
837.58	16268
837.718	16246
837.856	16276
837.993	16185
838.131	16253
838.269	16131
838.406	16112
838.544	16162
838.681	16048
838.819	15934
838.956	15766
839.094	15762
839.231	15857
839.369	15915
839.506	16196
839.643	16048
839.781	15831
839.918	15793
840.055	15800
840.193	15770
840.33	15732
840.467	15789
840.604	15838
840.742	15987
840.879	15698
841.016	15720
841.153	15713
841.29	15907
841.427	15892
841.564	15892
841.701	15785
841.838	15785
841.975	15652
842.112	15690
842.249	15622
842.385	15568
842.522	15736
842.659	15606
842.796	15545
842.933	15523
843.069	15545
843.206	15485
843.343	15610
843.479	15561
843.616	15545
843.752	15351
843.889	15325
844.025	15439
844.162	15340
844.298	15439
844.435	15450
844.571	15279
844.708	15351
844.844	15584
844.98	15549
845.117	15412
845.253	15264
845.389	15268
845.525	15252
845.661	15192
845.798	15283
845.934	15173
846.07	15089
846.206	15195
846.342	15378
846.478	15169
846.614	15017
846.75	14857
846.886	14979
847.022	15001
847.158	14902
847.294	14937
847.429	15066
847.565	14891
847.701	15097
847.837	14705
847.972	14602
848.108	14724
848.244	14777
848.379	14640
848.515	14495
848.65	14476
848.786	14507
848.921	14587
849.057	14651
849.192	14648
849.328	14655
849.463	14514
849.598	14552
849.734	14434
849.869	14507
850.004	14271
850.14	14336
850.275	14294
850.41	14252
850.545	14320
850.68	14328
850.815	14271
850.95	14313
851.085	14442
851.22	14381
851.355	14381
851.49	14324
851.625	14278
851.76	14282
851.895	14259
852.03	14168
852.165	14263
852.299	14290
852.434	14366
852.569	14393
852.703	14336
852.838	14442
852.973	14476
853.107	14434
853.242	14176
853.376	14221
853.511	14062
853.645	14145
853.78	14294
853.914	14161
854.048	14202
854.183	14153
854.317	14195
854.451	14389
854.585	14172
854.72	14126
854.854	14202
854.988	14119
855.122	14123
855.256	14069
855.39	14199
855.524	14237
855.658	14183
855.792	14191
855.926	14164
856.06	14278
856.194	14271
856.327	14248
856.461	14043
856.595	14062
856.729	14065
856.862	14305
856.996	14294
857.13	14336
857.263	14320
857.397	14191
857.53	14149
857.664	14183
857.797	14286
857.931	14237
858.064	14263
858.197	14237
858.331	14157
858.464	14073
858.597	14020
858.731	14202
858.864	14221
858.997	14024
859.13	14259
859.263	14229
859.396	14263
859.529	14123
859.662	14096
859.795	14142
859.928	14138
860.061	14305
860.194	14355
860.327	14187
860.46	14157
860.592	14282
860.725	14324
860.858	14412
860.99	14210
861.123	14077
861.256	14180
861.388	14103
861.521	14842
861.653	14008
861.786	13978
861.918	14062
862.05	14092
862.183	14142
862.315	14092
862.447	14221
862.58	14145
862.712	13932
862.844	13906
862.976	13932
863.108	14016
863.24	14358
863.372	13951
863.504	14065
863.636	14008
863.768	13951
863.9	13997
864.032	13887
864.164	13917
864.296	14050
864.428	14115
864.559	13932
864.691	14111
864.823	13970
864.954	14081
865.086	14031
865.217	13947
865.349	13940
865.48	13890
865.612	13974
865.743	14123
865.875	13890
866.006	13909
866.137	13963
866.269	13932
866.4	13947
866.531	13849
866.662	13887
866.793	13887
866.924	13807
867.055	13925
867.186	13879
867.317	13852
867.448	13841
867.579	13917
867.71	13803
867.841	13868
867.972	13959
868.103	13989
868.233	13940
868.364	13898
868.495	14065
868.625	14210
868.756	14286
868.886	14039
869.017	14161
869.147	14225
869.278	14248
869.408	14176
869.539	14271
869.669	14294
869.799	14351
869.929	14355
870.06	14210
870.19	14560
870.32	14396
870.45	14423
870.58	14674
870.71	14667
870.84	14708
870.97	14587
871.1	14556
871.23	14735
871.36	14796
871.489	14674
871.619	14644
871.749	14693
871.879	14727
872.008	14944
872.138	14792
872.267	14678
872.397	14651
872.526	14568
872.656	14511
872.785	14686
872.915	14902
873.044	14921
873.173	14765
873.303	14899
873.432	14948
873.561	14933
873.69	14868
873.819	14804
873.948	14899
874.077	14815
874.206	14830
874.335	14834
874.464	15085
874.593	15218
874.722	14960
874.851	15226
874.979	15317
875.108	15241
875.237	15116
875.365	15146
875.494	15062
875.623	15184
875.751	15150
875.88	15264
876.008	15283
876.136	15351
876.265	15564
876.393	15599
876.521	15572
876.65	15701
876.778	15557
876.906	15538
877.034	15466
877.162	15595
877.29	15454
877.418	15526
877.546	15481
877.674	15610
877.802	15618
877.93	15625
878.058	15477
878.185	15454
878.313	15507
878.441	15599
878.568	15336
878.696	15435
878.824	15618
878.951	15584
879.079	15732
879.206	15861
879.333	15759
879.461	15663
879.588	15637
879.715	15812
879.842	15926
879.97	15614
880.097	15367
880.224	15408
880.351	15416
880.478	15526
880.605	15435
880.732	15378
880.859	15618
880.986	15462
881.112	15466
881.239	15313
881.366	15180
881.493	15112
881.619	15108
881.746	15119
881.872	15089
881.999	14963
882.125	15093
882.252	15116
882.378	15070
882.505	15218
882.631	14967
882.757	14864
882.883	14792
883.01	14944
883.136	14830
883.262	14773
883.388	14815
883.514	14944
883.64	14925
883.766	14777
883.892	14708
884.018	14765
884.143	14857
884.269	15051
884.395	14667
884.52	14552
884.646	14549
884.772	14545
884.897	14522
885.023	14621
885.148	14663
885.274	14750
885.399	14746
885.524	14655
885.65	14579
885.775	14636
885.9	14644
886.025	14731
886.15	14644
886.275	14518
886.4	14469
886.525	14507
886.65	14560
886.775	14644
886.9	14792
887.025	14876
887.149	14602
887.274	14469
887.399	14381
887.523	14431
887.648	14347
887.773	14377
887.897	14507
888.021	14465
888.146	14457
888.27	14503
888.395	14495
888.519	14457
888.643	14423
888.767	14495
888.891	14347
889.015	14298
889.139	14282
889.263	14278
889.387	14465
889.511	14438
889.635	14438
889.759	14263
889.883	14233
890.006	14320
890.13	14438
890.254	14206
890.377	14221
890.501	14145
890.624	14130
890.748	14187
890.871	14077
890.995	13955
891.118	13845
891.241	13997
891.364	13871
891.488	14020
891.611	13967
891.734	13947
891.857	13963
891.98	14069
892.103	14058
892.226	14107
892.349	13993
892.471	13909
892.594	13967
892.717	14043
892.839	14069
892.962	14012
893.085	14092
893.207	14012
893.33	13932
893.452	13913
893.575	14020
893.697	13944
893.819	14100
893.941	14164
894.064	14103
894.186	14050
894.308	13944
894.43	14229
894.552	14145
894.674	14149
894.796	14027
894.918	14092
895.04	14012
895.161	14126
895.283	14149
895.405	14107
895.526	14065
895.648	14027
895.769	14092
895.891	14172
896.012	14218
896.134	14180
896.255	14103
896.376	14119
896.498	14142
896.619	14225
896.74	14164
896.861	14195
896.982	14583
897.103	14648
897.224	14419
897.345	14404
897.466	14320
897.587	14423
897.708	14606
897.828	14442
897.949	14385
898.07	14404
898.19	14465
898.311	14613
898.431	14446
898.552	14499
898.672	14594
898.792	14621
898.913	14678
899.033	14514
899.153	14412
899.273	14282
899.393	14358
899.513	14431
899.633	14366
899.753	14450
899.873	14355
899.993	14438
900.113	14355
900.232	14438
900.352	14374
900.472	14336
900.591	14278
900.711	14271
900.83	14221
900.95	14313
901.069	14294
901.189	14271
901.308	13917
901.427	13928
901.546	13932
901.665	13970
901.784	13921
901.904	13856
902.023	13761
902.141	13559
902.26	13518
902.379	13613
902.498	13548
902.617	13422
902.735	13476
902.854	13464
902.973	13411
903.091	13324
903.21	13266
903.328	13289
903.446	13133
903.565	13095
903.683	13050
903.801	12939
903.919	13008
904.038	13084
904.156	12935
904.274	12958
904.392	12905
904.51	12897
904.627	12894
904.745	12962
904.863	12973
904.981	12764
905.098	12635
905.216	12578
905.334	12639
905.451	12620
905.569	12566
905.686	12612
905.803	12578
905.921	12323
906.038	12513
906.155	12502
906.272	12266
906.389	12334
906.506	12163
906.623	12186
906.74	12178
906.857	12155
906.974	12136
907.091	12220
907.208	12243
907.324	12266
907.441	12026
907.557	11946
907.674	11901
907.79	11824
907.907	11885
908.023	11916
908.139	11923
908.256	11824
908.372	11767
908.488	11874
908.604	11733
908.72	11592
908.836	11668
908.952	11661
909.068	11657
909.184	11767
909.3	11665
909.415	11764
909.531	11649
909.647	11467
909.762	11455
909.878	11433
909.993	11444
910.108	11505
910.224	11368
910.339	11395
910.454	11337
910.57	11284
910.685	11208
910.8	11611
910.915	11433
911.03	11284
911.145	11235
911.259	11193
911.374	11178
911.489	11071
911.604	10980
911.718	10934
911.833	10927
911.947	10809
912.062	10694
912.176	10854
912.291	10889
912.405	10881
912.519	11117
912.633	11117
912.748	10961
912.862	10927
912.976	10763
913.09	10634
913.204	10717
913.318	10771
913.431	10885
913.545	10904
913.659	10953
913.772	10797
913.886	10653
914	10645
914.113	10710
914.226	10721
914.34	10744
914.453	10637
914.566	10767
914.68	10664
914.793	10630
914.906	10485
915.019	10375
915.132	10424
915.245	10325
915.358	10489
915.47	10424
915.583	10371
915.696	10478
915.809	10546
915.921	10668
916.034	10371
916.146	10363
916.259	10295
916.371	10421
916.483	10440
916.595	10291
916.708	10360
916.82	10352
916.932	10356
917.044	10459
917.156	10337
917.268	10219
917.38	10230
917.491	10219
917.603	10276
917.715	10291
917.826	10459
917.938	10166
918.049	10166
918.161	10185
918.272	10440
918.384	10379
918.495	10306
918.606	10074
918.717	10006
918.828	10097
918.939	10162
919.05	10078
919.161	10169
919.272	9972
919.383	9983
919.494	10257
919.604	10440
919.715	10173
919.826	10036
919.936	10082
920.047	10219
920.157	10211
920.267	10375
920.378	10185
920.488	10150
920.598	10402
920.708	10417
920.818	10386
920.928	10379
921.038	10478
921.148	10493
921.258	10177
921.368	10109
921.477	9915
921.587	10002
921.697	9869
921.806	9998
921.916	9876
922.025	9747
922.134	9648
922.244	9618
922.353	9781
922.462	9660
922.571	9538
922.68	9435
922.789	9378
922.898	9428
923.007	9389
923.116	9523
923.224	9458
923.333	9351
923.442	9310
923.55	9317
923.659	9340
923.767	9389
923.876	9283
923.984	9370
924.092	9203
924.201	9302
924.309	9325
924.417	9294
924.525	9199
924.633	9260
924.741	10131
924.849	9055
924.956	9203
925.064	9047
925.172	8998
925.279	8982
925.387	9032
925.494	9032
925.602	9233
925.709	9188
925.816	9047
925.924	9066
926.031	9169
926.138	9036
926.245	9036
926.352	8998
926.459	9093
926.566	9195
926.673	9066
926.779	8918
926.886	8944
926.993	8804
927.099	8727
927.206	8686
927.312	8750
927.419	8750
927.525	8712
927.631	8842
927.737	8720
927.843	8644
927.95	8587
928.056	8678
928.162	8689
928.267	8739
928.373	9393
928.479	8727
928.585	8568
928.69	8667
928.796	8682
928.901	8560
929.007	8450
929.112	8632
929.218	8598
929.323	8522
929.428	8492
929.533	8613
929.638	8469
929.743	8488
929.848	8545
929.953	8549
930.058	8381
930.163	8237
930.267	8259
930.372	8381
930.477	8294
930.581	8552
930.685	8427
930.79	8240
930.894	8240
930.998	8119
931.103	8355
931.207	8035
931.311	7986
931.415	7902
931.519	7765
931.623	7723
