Data from test_V78500241_3274.txt Node
Date: Fri Mar 25 14:56:30 CST 2022
User: usil
Spectrometer: V785-0024
Trigger mode: 0
Integration Time (sec): 4.000000E-1
Scans to average: 1
Nonlinearity correction enabled: false
Boxcar width: 0
Storing dark spectrum: false
XAxis mode: Wavelengths
Number of Pixels in Spectrum: 1024
>>>>>Begin Spectral Data<<<<<
801.071	22017
801.214	21873
801.356	21690
801.499	21610
801.641	21401
801.783	21313
801.926	21344
802.068	21283
802.211	21180
802.353	21214
802.496	20925
802.638	20823
802.78	20785
802.923	20678
803.065	20598
803.208	20545
803.35	20731
803.492	20842
803.635	20887
803.777	20587
803.919	20785
804.061	20986
804.204	20788
804.346	20518
804.488	20575
804.63	20674
804.773	20537
804.915	20571
805.057	20663
805.199	20594
805.341	20720
805.483	20720
805.626	20560
805.768	20568
805.91	20693
806.052	20609
806.194	20480
806.336	20663
806.478	20541
806.62	20499
806.762	20648
806.904	20743
807.046	21043
807.188	21005
807.33	20807
807.472	20944
807.614	20830
807.756	20750
807.898	20785
808.04	20609
808.182	20560
808.324	20613
808.465	20693
808.607	20823
808.749	20895
808.891	20883
809.033	21154
809.174	20986
809.316	20963
809.458	20960
809.6	20895
809.741	20971
809.883	21009
810.025	20990
810.166	21157
810.308	20971
810.45	21036
810.591	20990
810.733	20765
810.875	20697
811.016	20598
811.158	20606
811.299	20682
811.441	20853
811.582	20731
811.724	20705
811.865	20800
812.007	20587
812.148	20636
812.29	20648
812.431	20842
812.573	21070
812.714	21131
812.855	21249
812.997	21370
813.138	21374
813.279	21325
813.421	21283
813.562	21070
813.703	21017
813.845	20872
813.986	20533
814.127	20377
814.268	20278
814.41	20305
814.551	20157
814.692	20244
814.833	20172
814.974	20233
815.115	20252
815.256	20100
815.397	20161
815.539	20088
815.68	19894
815.821	19909
815.962	19997
816.103	19940
816.244	19769
816.385	19624
816.526	19704
816.666	19514
816.807	19343
816.948	19453
817.089	19426
817.23	19449
817.371	19270
817.512	19415
817.653	19392
817.793	19304
817.934	19392
818.075	19346
818.216	19392
818.356	19362
818.497	19187
818.638	19019
818.778	19084
818.919	19099
819.06	19046
819.2	19126
819.341	19278
819.481	19324
819.622	19411
819.762	19525
819.903	19544
820.043	19426
820.184	19384
820.324	19373
820.465	19491
820.605	19403
820.746	19354
820.886	19202
821.026	19419
821.167	19304
821.307	19346
821.447	19251
821.588	19126
821.728	19103
821.868	18802
822.008	18837
822.149	18806
822.289	18734
822.429	18433
822.569	18479
822.709	18559
822.849	18285
822.99	18213
823.13	18330
823.27	18285
823.41	18152
823.55	18034
823.69	18136
823.83	18030
823.97	18053
824.11	17851
824.25	17741
824.389	17863
824.529	17790
824.669	17687
824.809	17920
824.949	17878
825.089	17870
825.228	17790
825.368	17524
825.508	17619
825.648	17630
825.787	17577
825.927	17665
826.067	17634
826.206	17497
826.346	17642
826.485	17627
826.625	17642
826.765	17733
826.904	17520
827.044	17364
827.183	17322
827.323	17292
827.462	17330
827.601	17337
827.741	17284
827.88	17334
828.02	17208
828.159	17277
828.298	17337
828.437	17433
828.577	17223
828.716	17414
828.855	17204
828.994	17086
829.134	16938
829.273	17113
829.412	17056
829.551	16919
829.69	17006
829.829	17041
829.968	17162
830.107	17083
830.246	17208
830.385	17083
830.524	16949
830.663	16843
830.802	16687
830.941	16702
831.08	16588
831.219	16816
831.357	16755
831.496	16934
831.635	16630
831.774	16519
831.913	16504
832.051	16470
832.19	16508
832.329	16599
832.467	16318
832.606	16329
832.744	16371
832.883	16413
833.022	16371
833.16	16280
833.299	16462
833.437	16394
833.576	16390
833.714	16291
833.852	16466
833.991	16478
834.129	16443
834.267	16546
834.406	16466
834.544	16512
834.682	16497
834.821	16360
834.959	16649
835.097	16325
835.235	16493
835.373	16565
835.511	16371
835.65	16428
835.788	16280
835.926	16093
836.064	16124
836.202	16169
836.34	16265
836.478	16424
836.615	16341
836.753	16344
836.891	16447
837.029	16333
837.167	16303
837.305	16341
837.443	16268
837.58	16067
837.718	16272
837.856	16261
837.993	16177
838.131	16154
838.269	16147
838.406	16181
838.544	16082
838.681	15968
838.819	15918
838.956	15819
839.094	15720
839.231	15857
839.369	15934
839.506	16188
839.643	15998
839.781	15755
839.918	15720
840.055	15766
840.193	15698
840.33	15679
840.467	15747
840.604	15819
840.742	16036
840.879	15504
841.016	15675
841.153	15694
841.29	15785
841.427	15736
841.564	15831
841.701	15797
841.838	15766
841.975	15606
842.112	15667
842.249	15526
842.385	15500
842.522	15713
842.659	15564
842.796	15462
842.933	15500
843.069	15450
843.206	15511
843.343	15587
843.479	15557
843.616	15515
843.752	15389
843.889	15363
844.025	15523
844.162	15340
844.298	15458
844.435	15298
844.571	15321
844.708	15408
844.844	15606
844.98	15439
845.117	15424
845.253	15298
845.389	15268
845.525	15241
845.661	15332
845.798	15161
845.934	15313
846.07	15127
846.206	15165
846.342	15256
846.478	15154
846.614	14929
846.75	14925
846.886	14876
847.022	15039
847.158	15047
847.294	14891
847.429	14914
847.565	14864
847.701	15100
847.837	14617
847.972	14590
848.108	14762
848.244	14739
848.379	14575
848.515	14495
848.65	14469
848.786	14568
848.921	14533
849.057	14556
849.192	14579
849.328	14594
849.463	14469
849.598	14484
849.734	14408
849.869	14324
850.004	14263
850.14	14366
850.275	14282
850.41	14233
850.545	14237
850.68	14286
850.815	14313
850.95	14176
851.085	14415
851.22	14385
851.355	14248
851.49	14244
851.625	14221
851.76	14248
851.895	14161
852.03	14142
852.165	14218
852.299	14305
852.434	14336
852.569	14301
852.703	14317
852.838	14412
852.973	14442
853.107	14381
853.242	14172
853.376	14229
853.511	14035
853.645	14096
853.78	14237
853.914	14035
854.048	14123
854.183	14149
854.317	14134
854.451	14343
854.585	14164
854.72	14221
854.854	14130
854.988	14054
855.122	14145
855.256	13932
855.39	14027
855.524	14149
855.658	14153
855.792	14161
855.926	14172
856.06	14126
856.194	14187
856.327	14058
856.461	14157
856.595	14054
856.729	14183
856.862	14320
856.996	14218
857.13	14149
857.263	14290
857.397	14298
857.53	14126
857.664	14214
857.797	14259
857.931	14176
858.064	14107
858.197	14267
858.331	14130
858.464	14176
858.597	14046
858.731	14103
858.864	14107
858.997	14008
859.13	14161
859.263	14244
859.396	14343
859.529	14172
859.662	14073
859.795	14202
859.928	14240
860.061	14202
860.194	14130
860.327	14218
860.46	14164
860.592	14225
860.725	14244
860.858	14259
860.99	14115
861.123	14062
861.256	14115
861.388	14142
861.521	14910
861.653	14046
861.786	14054
861.918	14115
862.05	14088
862.183	14046
862.315	14119
862.447	14180
862.58	14164
862.712	13955
862.844	13875
862.976	14012
863.108	13955
863.24	14221
863.372	13849
863.504	13902
863.636	13978
863.768	13989
863.9	13955
864.032	13894
864.164	13902
864.296	13909
864.428	13951
864.559	14046
864.691	14031
864.823	13959
864.954	13955
865.086	13932
865.217	13959
865.349	13826
865.48	13868
865.612	14050
865.743	14107
865.875	13967
866.006	13909
866.137	13864
866.269	13875
866.4	13883
866.531	13875
866.662	13814
866.793	13841
866.924	13879
867.055	13860
867.186	13978
867.317	13845
867.448	13784
867.579	13894
867.71	13830
867.841	13883
867.972	13902
868.103	13841
868.233	13928
868.364	13951
868.495	14008
868.625	14134
868.756	14301
868.886	13993
869.017	14103
869.147	14161
869.278	14301
869.408	14271
869.539	14142
869.669	14240
869.799	14202
869.929	14396
870.06	14202
870.19	14484
870.32	14404
870.45	14579
870.58	14579
870.71	14705
870.84	14632
870.97	14621
871.1	14579
871.23	14804
871.36	14765
871.489	14590
871.619	14701
871.749	14762
871.879	14811
872.008	14902
872.138	14792
872.267	14697
872.397	14644
872.526	14667
872.656	14560
872.785	14777
872.915	14842
873.044	14826
873.173	14788
873.303	14857
873.432	14804
873.561	14876
873.69	14845
873.819	14769
873.948	14857
874.077	14830
874.206	14750
874.335	14880
874.464	14982
874.593	15112
874.722	15127
874.851	15165
874.979	15192
875.108	15100
875.237	15150
875.365	15131
875.494	15032
875.623	15188
875.751	15157
875.88	15211
876.008	15214
876.136	15374
876.265	15622
876.393	15618
876.521	15701
876.65	15572
876.778	15523
876.906	15500
877.034	15500
877.162	15515
877.29	15435
877.418	15500
877.546	15542
877.674	15561
877.802	15492
877.93	15576
878.058	15599
878.185	15447
878.313	15428
878.441	15572
878.568	15340
878.696	15530
878.824	15549
878.951	15663
879.079	15690
879.206	15838
879.333	15686
879.461	15660
879.588	15644
879.715	15827
879.842	15945
879.97	15660
880.097	15359
880.224	15420
880.351	15450
880.478	15408
880.605	15389
880.732	15393
880.859	15610
880.986	15397
881.112	15428
881.239	15230
881.366	15203
881.493	15062
881.619	15104
881.746	15036
881.872	15097
881.999	15051
882.125	15020
882.252	15138
882.378	15081
882.505	15176
882.631	14883
882.757	14960
882.883	14887
883.01	14880
883.136	14815
883.262	14724
883.388	14705
883.514	14925
883.64	14990
883.766	14876
883.892	14678
884.018	14731
884.143	14914
884.269	14845
884.395	14651
884.52	14503
884.646	14568
884.772	14396
884.897	14564
885.023	14659
885.148	14678
885.274	14796
885.399	14693
885.524	14651
885.65	14526
885.775	14724
885.9	14598
886.025	14651
886.15	14667
886.275	14587
886.4	14461
886.525	14526
886.65	14526
886.775	14579
886.9	14746
887.025	14815
887.149	14579
887.274	14488
887.399	14366
887.523	14400
887.648	14305
887.773	14332
887.897	14560
888.021	14541
888.146	14446
888.27	14476
888.395	14594
888.519	14396
888.643	14507
888.767	14507
888.891	14294
889.015	14248
889.139	14377
889.263	14267
889.387	14408
889.511	14480
889.635	14457
889.759	14191
889.883	14202
890.006	14294
890.13	14385
890.254	14142
890.377	14218
890.501	14199
890.624	14126
890.748	14153
890.871	14031
890.995	13913
891.118	13921
891.241	14050
891.364	13970
891.488	14130
891.611	13928
891.734	13982
891.857	14050
891.98	14005
892.103	13993
892.226	13974
892.349	14012
892.471	13761
892.594	14020
892.717	14020
892.839	14012
892.962	14024
893.085	14054
893.207	13898
893.33	13928
893.452	13978
893.575	14039
893.697	13906
893.819	14142
893.941	14172
894.064	14157
894.186	13963
894.308	14027
894.43	14073
894.552	14240
894.674	14130
894.796	13963
894.918	14046
895.04	13974
895.161	14031
895.283	14130
895.405	13947
895.526	14065
895.648	14096
895.769	14187
895.891	14142
896.012	14142
896.134	14111
896.255	14187
896.376	14214
896.498	14145
896.619	14248
896.74	14062
896.861	14248
896.982	14492
897.103	14560
897.224	14480
897.345	14434
897.466	14355
897.587	14427
897.708	14575
897.828	14492
897.949	14263
898.07	14313
898.19	14355
898.311	14579
898.431	14469
898.552	14492
898.672	14541
898.792	14606
898.913	14556
899.033	14450
899.153	14347
899.273	14317
899.393	14454
899.513	14328
899.633	14381
899.753	14347
899.873	14332
899.993	14522
900.113	14343
900.232	14339
900.352	14400
900.472	14237
900.591	14183
900.711	14225
900.83	14119
900.95	14275
901.069	14313
901.189	14180
901.308	13989
901.427	13845
901.546	13883
901.665	14020
901.784	13997
901.904	13879
902.023	13700
902.141	13514
902.26	13529
902.379	13525
902.498	13499
902.617	13449
902.735	13548
902.854	13491
902.973	13415
903.091	13240
903.21	13232
903.328	13327
903.446	13065
903.565	13069
903.683	13129
903.801	12947
903.919	13072
904.038	13000
904.156	12897
904.274	12981
904.392	12844
904.51	12798
904.627	12882
904.745	12996
904.863	12932
904.981	12700
905.098	12525
905.216	12528
905.334	12597
905.451	12528
905.569	12627
905.686	12555
905.803	12601
905.921	12353
906.038	12494
906.155	12403
906.272	12300
906.389	12308
906.506	12163
906.623	12197
906.74	12148
906.857	12015
906.974	12136
907.091	12125
907.208	12266
907.324	12232
907.441	12030
907.557	11923
907.674	11958
907.79	11786
907.907	11859
908.023	11897
908.139	11939
908.256	11878
908.372	11836
908.488	11836
908.604	11642
908.72	11592
908.836	11611
908.952	11600
909.068	11653
909.184	11691
909.3	11665
909.415	11672
909.531	11775
909.647	11429
909.762	11436
909.878	11395
909.993	11429
910.108	11501
910.224	11364
910.339	11429
910.454	11307
910.57	11231
910.685	11303
910.8	11455
910.915	11463
911.03	11318
911.145	11075
911.259	11132
911.374	11140
911.489	11006
911.604	11022
911.718	10873
911.833	10953
911.947	10793
912.062	10759
912.176	10892
912.291	10869
912.405	10949
912.519	11067
912.633	11121
912.748	10949
912.862	10847
912.976	10729
913.09	10717
913.204	10710
913.318	10786
913.431	10885
913.545	10869
913.659	10847
913.772	10752
913.886	10649
914	10725
914.113	10706
914.226	10778
914.34	10672
914.453	10573
914.566	10672
914.68	10607
914.793	10599
914.906	10443
915.019	10318
915.132	10303
915.245	10299
915.358	10409
915.47	10318
915.583	10375
915.696	10466
915.809	10519
915.921	10573
916.034	10322
916.146	10299
916.259	10360
916.371	10394
916.483	10443
916.595	10363
916.708	10371
916.82	10257
916.932	10276
917.044	10325
917.156	10306
917.268	10166
917.38	10253
917.491	10238
917.603	10223
917.715	10341
917.826	10402
917.938	10215
918.049	10215
918.161	10291
918.272	10375
918.384	10344
918.495	10272
918.606	10131
918.717	10002
918.828	10074
918.939	10139
919.05	10040
919.161	10025
919.272	9907
919.383	9987
919.494	10162
919.604	10249
919.715	10135
919.826	10086
919.936	10090
920.047	10200
920.157	10230
920.267	10325
920.378	10192
920.488	10067
920.598	10310
920.708	10459
920.818	10303
920.928	10272
921.038	10500
921.148	10489
921.258	10101
921.368	9998
921.477	9972
921.587	10006
921.697	9888
921.806	9945
921.916	9880
922.025	9762
922.134	9797
922.244	9736
922.353	9728
922.462	9549
922.571	9595
922.68	9393
922.789	9393
922.898	9397
923.007	9378
923.116	9511
923.224	9348
923.333	9450
923.442	9241
923.55	9249
923.659	9291
923.767	9401
923.876	9264
923.984	9378
924.092	9192
924.201	9336
924.309	9279
924.417	9272
924.525	9237
924.633	9272
924.741	10257
924.849	9081
924.956	9161
925.064	9001
925.172	8971
925.279	9062
925.387	9108
925.494	9119
925.602	9241
925.709	9097
925.816	9089
925.924	9123
926.031	9173
926.138	9100
926.245	9165
926.352	9097
926.459	9123
926.566	9226
926.673	9047
926.779	8921
926.886	8982
926.993	8823
927.099	8792
927.206	8864
927.312	8735
927.419	8842
927.525	8773
927.631	8902
927.737	8708
927.843	8724
927.95	8583
928.056	8686
928.162	8735
928.267	8705
928.373	9321
928.479	8746
928.585	8568
928.69	8716
928.796	8708
928.901	8613
929.007	8568
929.112	8651
929.218	8625
929.323	8526
929.428	8549
929.533	8693
929.638	8476
929.743	8476
929.848	8594
929.953	8476
930.058	8484
930.163	8320
930.267	8358
930.372	8454
930.477	8328
930.581	8522
930.685	8377
930.79	8298
930.894	8225
930.998	8225
931.103	8442
931.207	8020
931.311	7963
931.415	7963
931.519	7662
931.623	7792
