Data from test_V78500241_1054.txt Node
Date: Fri Mar 25 14:41:03 CST 2022
User: usil
Spectrometer: V785-0024
Trigger mode: 0
Integration Time (sec): 4.000000E-1
Scans to average: 1
Nonlinearity correction enabled: false
Boxcar width: 0
Storing dark spectrum: false
XAxis mode: Wavelengths
Number of Pixels in Spectrum: 1024
>>>>>Begin Spectral Data<<<<<
801.071	22694
801.214	22675
801.356	22360
801.499	22276
801.641	22272
801.783	22253
801.926	22063
802.068	22097
802.211	22021
802.353	21968
802.496	21732
802.638	21774
802.78	21724
802.923	21515
803.065	21443
803.208	21477
803.35	21534
803.492	21625
803.635	21599
803.777	21473
803.919	21507
804.061	21865
804.204	21622
804.346	21340
804.488	21367
804.63	21507
804.773	21420
804.915	21428
805.057	21599
805.199	21389
805.341	21420
805.483	21644
805.626	21454
805.768	21397
805.91	21507
806.052	21408
806.194	21496
806.336	21553
806.478	21515
806.62	21538
806.762	21492
806.904	21789
807.046	21960
807.188	21998
807.33	21857
807.472	22021
807.614	21827
807.756	21888
807.898	21778
808.04	21819
808.182	21846
808.324	21930
808.465	22196
808.607	22333
808.749	22447
808.891	22656
809.033	22649
809.174	22584
809.316	22565
809.458	22249
809.6	22169
809.741	22211
809.883	22265
810.025	22314
810.166	22181
810.308	22181
810.45	22101
810.591	22101
810.733	21873
810.875	21797
811.016	21610
811.158	21606
811.299	21644
811.441	21846
811.582	21808
811.724	21667
811.865	21701
812.007	21671
812.148	21694
812.29	21770
812.431	21888
812.573	22002
812.714	22093
812.855	22097
812.997	22280
813.138	22432
813.279	22421
813.421	22154
813.562	22025
813.703	21953
813.845	21823
813.986	21675
814.127	21363
814.268	21287
814.41	21260
814.551	21230
814.692	21279
814.833	21268
814.974	21135
815.115	21264
815.256	21108
815.397	21062
815.539	21066
815.68	21013
815.821	20785
815.962	20979
816.103	20971
816.244	20849
816.385	20800
816.526	20609
816.666	20457
816.807	20385
816.948	20499
817.089	20598
817.23	20495
817.371	20442
817.512	20221
817.653	20347
817.793	20355
817.934	20362
818.075	20339
818.216	20434
818.356	20298
818.497	20218
818.638	19989
818.778	20005
818.919	20081
819.06	20084
819.2	20263
819.341	20214
819.481	20328
819.622	20358
819.762	20594
819.903	20590
820.043	20377
820.184	20298
820.324	20336
820.465	20545
820.605	20320
820.746	20347
820.886	20176
821.026	20332
821.167	20336
821.307	20408
821.447	20336
821.588	20126
821.728	20065
821.868	19978
822.008	19738
822.149	19693
822.289	19734
822.429	19426
822.569	19438
822.709	19571
822.849	19247
822.99	19270
823.13	19232
823.27	19118
823.41	18985
823.55	19012
823.69	19038
823.83	19015
823.97	18935
824.11	18890
824.25	18867
824.389	18886
824.529	18821
824.669	18783
824.809	18901
824.949	18863
825.089	18810
825.228	18928
825.368	18681
825.508	18677
825.648	18730
825.787	18677
825.927	18654
826.067	18559
826.206	18601
826.346	18654
826.485	18627
826.625	18551
826.765	18623
826.904	18589
827.044	18384
827.183	18372
827.323	18342
827.462	18407
827.601	18247
827.741	18197
827.88	18311
828.02	18178
828.159	18216
828.298	18391
828.437	18380
828.577	18167
828.716	18437
828.855	18289
828.994	18167
829.134	18041
829.273	18106
829.412	17961
829.551	18110
829.69	17977
829.829	18030
829.968	18060
830.107	18167
830.246	18007
830.385	18022
830.524	17946
830.663	17847
830.802	17745
830.941	17714
831.08	17596
831.219	17756
831.357	17790
831.496	17908
831.635	17649
831.774	17668
831.913	17551
832.051	17448
832.19	17402
832.329	17436
832.467	17296
832.606	17368
832.744	17299
832.883	17315
833.022	17239
833.16	17395
833.299	17421
833.437	17334
833.576	17452
833.714	17497
833.852	17440
833.991	17383
834.129	17543
834.267	17467
834.406	17353
834.544	17429
834.682	17547
834.821	17345
834.959	17638
835.097	17444
835.235	17383
835.373	17490
835.511	17520
835.65	17326
835.788	17246
835.926	17242
836.064	17143
836.202	17121
836.34	17341
836.478	17379
836.615	17200
836.753	17277
836.891	17318
837.029	17360
837.167	17239
837.305	17296
837.443	17254
837.58	17143
837.718	17280
837.856	17239
837.993	17193
838.131	17231
838.269	17056
838.406	17124
838.544	17086
838.681	16908
838.819	16938
838.956	16725
839.094	16771
839.231	16683
839.369	16904
839.506	17094
839.643	16908
839.781	16679
839.918	16710
840.055	16702
840.193	16668
840.33	16622
840.467	16698
840.604	16725
840.742	16995
840.879	16637
841.016	16679
841.153	16603
841.29	16828
841.427	16717
841.564	16843
841.701	16664
841.838	16603
841.975	16618
842.112	16698
842.249	16508
842.385	16459
842.522	16561
842.659	16519
842.796	16474
842.933	16500
843.069	16466
843.206	16409
843.343	16603
843.479	16405
843.616	16561
843.752	16265
843.889	16268
844.025	16428
844.162	16150
844.298	16360
844.435	16215
844.571	16280
844.708	16462
844.844	16474
844.98	16508
845.117	16478
845.253	16356
845.389	16272
845.525	16402
845.661	16569
845.798	16546
845.934	16900
846.07	16816
846.206	16915
846.342	16850
846.478	16447
846.614	16234
846.75	16002
846.886	15876
847.022	16013
847.158	15857
847.294	15857
847.429	15812
847.565	15838
847.701	16032
847.837	15584
847.972	15523
848.108	15709
848.244	15591
848.379	15523
848.515	15363
848.65	15389
848.786	15515
848.921	15511
849.057	15553
849.192	15488
849.328	15488
849.463	15355
849.598	15294
849.734	15424
849.869	15351
850.004	15226
850.14	15218
850.275	15188
850.41	15104
850.545	15112
850.68	15097
850.815	15233
850.95	15123
851.085	15344
851.22	15233
851.355	15116
851.49	15237
851.625	15108
851.76	15119
851.895	15085
852.03	14994
852.165	15157
852.299	15249
852.434	15188
852.569	15237
852.703	15188
852.838	15382
852.973	15332
853.107	15321
853.242	15188
853.376	15005
853.511	14899
853.645	14952
853.78	15138
853.914	15074
854.048	15074
854.183	15009
854.317	14933
854.451	15222
854.585	14986
854.72	15009
854.854	15062
854.988	14998
855.122	15058
855.256	14834
855.39	15013
855.524	15203
855.658	15131
855.792	15097
855.926	15028
856.06	15028
856.194	15176
856.327	15036
856.461	14994
856.595	14979
856.729	15036
856.862	15146
856.996	15047
857.13	15184
857.263	15173
857.397	15237
857.53	15009
857.664	15089
857.797	15146
857.931	15047
858.064	15009
858.197	15119
858.331	15036
858.464	15077
858.597	14899
858.731	15001
858.864	14914
858.997	15032
859.13	15077
859.263	14990
859.396	15070
859.529	14956
859.662	14982
859.795	14918
859.928	15081
860.061	15093
860.194	15218
860.327	15104
860.46	15043
860.592	15123
860.725	15119
860.858	15116
860.99	15024
861.123	14948
861.256	14994
861.388	15013
861.521	15679
861.653	14891
861.786	14800
861.918	14899
862.05	14998
862.183	14975
862.315	14902
862.447	15005
862.58	14906
862.712	14788
862.844	14678
862.976	14872
863.108	14880
863.24	15359
863.372	14834
863.504	14792
863.636	14785
863.768	14883
863.9	14861
864.032	14701
864.164	14849
864.296	14891
864.428	14914
864.559	14845
864.691	14765
864.823	14762
864.954	14880
865.086	14910
865.217	14815
865.349	14800
865.48	14773
865.612	14906
865.743	14956
865.875	14849
866.006	14800
866.137	14800
866.269	14724
866.4	14773
866.531	14670
866.662	14724
866.793	14750
866.924	14739
867.055	14773
867.186	14727
867.317	14659
867.448	14617
867.579	14640
867.71	14674
867.841	14735
867.972	14872
868.103	14769
868.233	14796
868.364	14750
868.495	14830
868.625	14990
868.756	15055
868.886	14982
869.017	14948
869.147	15112
869.278	15043
869.408	15001
869.539	15058
869.669	15165
869.799	15070
869.929	15138
870.06	15184
870.19	15340
870.32	15298
870.45	15348
870.58	15458
870.71	15572
870.84	15553
870.97	15477
871.1	15397
871.23	15576
871.36	15622
871.489	15351
871.619	15629
871.749	15625
871.879	15614
872.008	15625
872.138	15614
872.267	15542
872.397	15431
872.526	15344
872.656	15458
872.785	15450
872.915	15629
873.044	15755
873.173	15644
873.303	15641
873.432	15705
873.561	15709
873.69	15682
873.819	15652
873.948	15800
874.077	15644
874.206	15614
874.335	15614
874.464	15846
874.593	15953
874.722	15759
874.851	15968
874.979	16078
875.108	16040
875.237	15937
875.365	15850
875.494	15983
875.623	15968
875.751	15915
875.88	16074
876.008	16204
876.136	16211
876.265	16356
876.393	16447
876.521	16440
876.65	16443
876.778	16394
876.906	16382
877.034	16363
877.162	16432
877.29	16352
877.418	16493
877.546	16386
877.674	16379
877.802	16459
877.93	16447
878.058	16417
878.185	16367
878.313	16386
878.441	16440
878.568	16291
878.696	16284
878.824	16573
878.951	16481
879.079	16679
879.206	16991
879.333	16816
879.461	16786
879.588	16763
879.715	16873
879.842	17052
879.97	16755
880.097	16417
880.224	16489
880.351	16386
880.478	16344
880.605	16356
880.732	16402
880.859	16504
880.986	16337
881.112	16398
881.239	16242
881.366	16048
881.493	16010
881.619	15991
881.746	16025
881.872	15915
881.999	16013
882.125	15991
882.252	16093
882.378	15926
882.505	16097
882.631	15937
882.757	15732
882.883	15800
883.01	15800
883.136	15751
883.262	15660
883.388	15671
883.514	15907
883.64	15918
883.766	15698
883.892	15580
884.018	15625
884.143	15774
884.269	15884
884.395	15557
884.52	15538
884.646	15572
884.772	15374
884.897	15405
885.023	15485
885.148	15534
885.274	15614
885.399	15633
885.524	15542
885.65	15530
885.775	15496
885.9	15428
886.025	15538
886.15	15599
886.275	15340
886.4	15374
886.525	15401
886.65	15424
886.775	15374
886.9	15641
887.025	15698
887.149	15435
887.274	15294
887.399	15233
887.523	15207
887.648	15131
887.773	15131
887.897	15291
888.021	15348
888.146	15294
888.27	15340
888.395	15283
888.519	15169
888.643	15222
888.767	15264
888.891	15123
889.015	15100
889.139	15066
889.263	15039
889.387	15199
889.511	15344
889.635	15100
889.759	15032
889.883	15135
890.006	15043
890.13	15260
890.254	15039
890.377	15074
890.501	15001
890.624	14861
890.748	14941
890.871	14807
890.995	14735
891.118	14636
891.241	14781
891.364	14796
891.488	14830
891.611	14807
891.734	14773
891.857	14868
891.98	14769
892.103	14868
892.226	14796
892.349	14777
892.471	14571
892.594	14724
892.717	14735
892.839	14659
892.962	14830
893.085	14849
893.207	14724
893.33	14610
893.452	14712
893.575	14769
893.697	14777
893.819	14948
893.941	15001
894.064	14921
894.186	14720
894.308	14705
894.43	14815
894.552	14998
894.674	14724
894.796	14800
894.918	14754
895.04	14781
895.161	14811
895.283	14842
895.405	14807
895.526	14834
895.648	14739
895.769	14868
895.891	14830
896.012	14880
896.134	14933
896.255	14849
896.376	14876
896.498	14960
896.619	14994
896.74	14819
896.861	15017
896.982	15275
897.103	15355
897.224	15230
897.345	15135
897.466	15062
897.587	15089
897.708	15241
897.828	15218
897.949	15176
898.07	15077
898.19	15203
898.311	15214
898.431	15157
898.552	15211
898.672	15207
898.792	15283
898.913	15252
899.033	15230
899.153	15150
899.273	15009
899.393	15013
899.513	15070
899.633	15066
899.753	15047
899.873	14982
899.993	15211
900.113	15135
900.232	15203
900.352	15043
900.472	14990
900.591	14914
900.711	15055
900.83	14975
900.95	14998
901.069	14967
901.189	14872
901.308	14667
901.427	14518
901.546	14575
901.665	14636
901.784	14693
901.904	14457
902.023	14408
902.141	14301
902.26	14115
902.379	14294
902.498	14126
902.617	14111
902.735	14191
902.854	14176
902.973	14187
903.091	13944
903.21	13795
903.328	13864
903.446	13757
903.565	13693
903.683	13715
903.801	13639
903.919	13567
904.038	13639
904.156	13460
904.274	13639
904.392	13575
904.51	13502
904.627	13491
904.745	13480
904.863	13476
904.981	13365
905.098	13187
905.216	13236
905.334	13179
905.451	13308
905.569	13160
905.686	13301
905.803	13213
905.921	13095
906.038	13004
906.155	13027
906.272	12966
906.389	12916
906.506	12722
906.623	12863
906.74	12814
906.857	12623
906.974	12658
907.091	12844
907.208	12871
907.324	12806
907.441	12681
907.557	12506
907.674	12601
907.79	12391
907.907	12528
908.023	12494
908.139	12574
908.256	12414
908.372	12490
908.488	12445
908.604	12304
908.72	12247
908.836	12296
908.952	12239
909.068	12334
909.184	12338
909.3	12277
909.415	12308
909.531	12353
909.647	12030
909.762	11977
909.878	11996
909.993	12117
910.108	12083
910.224	12068
910.339	11973
910.454	11923
910.57	11950
910.685	11847
910.8	12087
910.915	12064
911.03	11916
911.145	11760
911.259	11726
911.374	11764
911.489	11653
911.604	11665
911.718	11554
911.833	11486
911.947	11345
912.062	11364
912.176	11474
912.291	11474
912.405	11509
912.519	11630
912.633	11646
912.748	11524
912.862	11452
912.976	11429
913.09	11246
913.204	11280
913.318	11463
913.431	11391
913.545	11440
913.659	11467
913.772	11277
913.886	11311
914	11208
914.113	11311
914.226	11341
914.34	11239
914.453	11143
914.566	11269
914.68	11212
914.793	11185
914.906	11132
915.019	10873
915.132	10892
915.245	10995
915.358	10961
915.47	10987
915.583	10938
915.696	10995
915.809	11098
915.921	11143
916.034	10934
916.146	10866
916.259	10896
916.371	11025
916.483	11018
916.595	10854
916.708	10881
916.82	10938
916.932	10877
917.044	10881
917.156	10816
917.268	10706
917.38	10778
917.491	10790
917.603	10755
917.715	10820
917.826	10877
917.938	10786
918.049	10675
918.161	10744
918.272	10965
918.384	10793
918.495	10771
918.606	10649
918.717	10618
918.828	10660
918.939	10641
919.05	10478
919.161	10649
919.272	10428
919.383	10394
919.494	10618
919.604	10869
919.715	10653
919.826	10626
919.936	10550
920.047	10706
920.157	10603
920.267	10797
920.378	10656
920.488	10668
920.598	10881
920.708	11052
920.818	10801
920.928	10801
921.038	10991
921.148	11006
921.258	10645
921.368	10546
921.477	10550
921.587	10500
921.697	10413
921.806	10508
921.916	10417
922.025	10287
922.134	10188
922.244	10166
922.353	10242
922.462	10135
922.571	10013
922.68	9857
922.789	9880
922.898	9888
923.007	9857
923.116	9884
923.224	9941
923.333	9857
923.442	9808
923.55	9842
923.659	9793
923.767	9854
923.876	9686
923.984	9964
924.092	9751
924.201	9850
924.309	9740
924.417	9709
924.525	9736
924.633	9717
924.741	10626
924.849	9587
924.956	9660
925.064	9564
925.172	9378
925.279	9477
925.387	9610
925.494	9572
925.602	9740
925.709	9599
925.816	9469
925.924	9526
926.031	9648
926.138	9644
926.245	9603
926.352	9504
926.459	9614
926.566	9603
926.673	9420
926.779	9431
926.886	9382
926.993	9272
927.099	9207
927.206	9268
927.312	9157
927.419	9233
927.525	9256
927.631	9268
927.737	9283
927.843	9142
927.95	9074
928.056	9123
928.162	9089
928.267	9214
928.373	9827
928.479	9214
928.585	8971
928.69	9089
928.796	9146
928.901	9081
929.007	8895
929.112	9005
929.218	9005
929.323	9020
929.428	8994
929.533	9074
929.638	8952
929.743	8944
929.848	8979
929.953	8948
930.058	8819
930.163	8724
930.267	8750
930.372	8868
930.477	8663
930.581	8918
930.685	8743
930.79	8712
930.894	8705
930.998	8587
931.103	8823
931.207	8408
931.311	8377
931.415	8305
931.519	8153
931.623	8157
