Data from test_V78500241_1405.txt Node
Date: Fri Mar 25 14:43:29 CST 2022
User: usil
Spectrometer: V785-0024
Trigger mode: 0
Integration Time (sec): 4.000000E-1
Scans to average: 1
Nonlinearity correction enabled: false
Boxcar width: 0
Storing dark spectrum: false
XAxis mode: Wavelengths
Number of Pixels in Spectrum: 1024
>>>>>Begin Spectral Data<<<<<
801.071	22382
801.214	22382
801.356	22124
801.499	22036
801.641	21857
801.783	21827
801.926	21789
802.068	21797
802.211	21736
802.353	21572
802.496	21272
802.638	21272
802.78	21237
802.923	21237
803.065	21218
803.208	21226
803.35	21154
803.492	21279
803.635	21294
803.777	21055
803.919	21340
804.061	21515
804.204	21233
804.346	21001
804.488	21009
804.63	21142
804.773	21039
804.915	21150
805.057	21157
805.199	21074
805.341	21093
805.483	21195
805.626	21135
805.768	21104
805.91	21119
806.052	21207
806.194	21032
806.336	21165
806.478	21093
806.62	20982
806.762	21135
806.904	21268
807.046	21435
807.188	21412
807.33	21477
807.472	21545
807.614	21424
807.756	21462
807.898	21378
808.04	21275
808.182	21294
808.324	21393
808.465	21420
808.607	21572
808.749	21728
808.891	21850
809.033	21850
809.174	21694
809.316	21637
809.458	21663
809.6	21622
809.741	21572
809.883	21603
810.025	21580
810.166	21656
810.308	21694
810.45	21720
810.591	21481
810.733	21313
810.875	21382
811.016	21131
811.158	21112
811.299	21279
811.441	21386
811.582	21466
811.724	21287
811.865	21180
812.007	21249
812.148	21321
812.29	21279
812.431	21500
812.573	21595
812.714	21595
812.855	21542
812.997	21911
813.138	21922
813.279	21884
813.421	21682
813.562	21755
813.703	21526
813.845	21515
813.986	21085
814.127	21055
814.268	20929
814.41	20925
814.551	20857
814.692	20781
814.833	20727
814.974	20708
815.115	20765
815.256	20708
815.397	20518
815.539	20655
815.68	20568
815.821	20473
815.962	20545
816.103	20507
816.244	20484
816.385	20278
816.526	20252
816.666	20214
816.807	19921
816.948	19993
817.089	20077
817.23	19970
817.371	20065
817.512	19864
817.653	19852
817.793	19890
817.934	19967
818.075	19940
818.216	19917
818.356	19906
818.497	19780
818.638	19529
818.778	19651
818.919	19708
819.06	19681
819.2	19788
819.341	19746
819.481	19807
819.622	20062
819.762	20111
819.903	20126
820.043	19940
820.184	19989
820.324	19978
820.465	19970
820.605	19921
820.746	19917
820.886	19746
821.026	19791
821.167	19860
821.307	19791
821.447	19811
821.588	19769
821.728	19586
821.868	19483
822.008	19362
822.149	19320
822.289	19202
822.429	19004
822.569	19031
822.709	19027
822.849	18749
822.99	18817
823.13	18848
823.27	18688
823.41	18559
823.55	18635
823.69	18517
823.83	18700
823.97	18506
824.11	18517
824.25	18376
824.389	18407
824.529	18395
824.669	18376
824.809	18620
824.949	18486
825.089	18395
825.228	18334
825.368	18251
825.508	18140
825.648	18243
825.787	18167
825.927	18277
826.067	18144
826.206	18125
826.346	18106
826.485	18270
826.625	18152
826.765	18197
826.904	18213
827.044	18019
827.183	17824
827.323	17847
827.462	17832
827.601	17809
827.741	17866
827.88	17878
828.02	17726
828.159	17832
828.298	17840
828.437	17935
828.577	17863
828.716	18083
828.855	17908
828.994	17608
829.134	17646
829.273	17611
829.412	17623
829.551	17452
829.69	17589
829.829	17634
829.968	17687
830.107	17608
830.246	17661
830.385	17562
830.524	17509
830.663	17398
830.802	17349
830.941	17181
831.08	17162
831.219	17307
831.357	17292
831.496	17452
831.635	17159
831.774	17060
831.913	17193
832.051	17117
832.19	17029
832.329	17147
832.467	16946
832.606	16869
832.744	16900
832.883	16911
833.022	16881
833.16	16987
833.299	16824
833.437	16961
833.576	16923
833.714	17048
833.852	16908
833.991	16957
834.129	17033
834.267	16987
834.406	16965
834.544	16976
834.682	17014
834.821	16995
834.959	17147
835.097	16911
835.235	17029
835.373	16987
835.511	17022
835.65	16904
835.788	16946
835.926	16782
836.064	16706
836.202	16698
836.34	16877
836.478	16930
836.615	16805
836.753	16869
836.891	16866
837.029	16968
837.167	16866
837.305	16831
837.443	16752
837.58	16835
837.718	16790
837.856	16725
837.993	16622
838.131	16717
838.269	16717
838.406	16641
838.544	16550
838.681	16405
838.819	16421
838.956	16242
839.094	16318
839.231	16265
839.369	16390
839.506	16668
839.643	16535
839.781	16207
839.918	16173
840.055	16341
840.193	16272
840.33	16284
840.467	16219
840.604	16360
840.742	16569
840.879	16154
841.016	16112
841.153	16200
841.29	16371
841.427	16322
841.564	16196
841.701	16280
841.838	16219
841.975	16154
842.112	16207
842.249	16059
842.385	16021
842.522	16268
842.659	16105
842.796	16025
842.933	16131
843.069	15922
843.206	15975
843.343	16207
843.479	15998
843.616	16078
843.752	15797
843.889	15911
844.025	15960
844.162	15827
844.298	16013
844.435	15743
844.571	15835
844.708	15949
844.844	15972
844.98	15975
845.117	16002
845.253	15793
845.389	15884
845.525	15934
845.661	15850
845.798	15793
845.934	15930
846.07	15994
846.206	15994
846.342	16078
846.478	15819
846.614	15477
846.75	15408
846.886	15397
847.022	15458
847.158	15454
847.294	15481
847.429	15412
847.565	15344
847.701	15679
847.837	15211
847.972	15112
848.108	15310
848.244	15241
848.379	14979
848.515	14960
848.65	14925
848.786	14963
848.921	15009
849.057	15123
849.192	15081
849.328	15036
849.463	15028
849.598	14906
849.734	14944
849.869	14918
850.004	14815
850.14	14796
850.275	14815
850.41	14720
850.545	14781
850.68	14762
850.815	14750
850.95	14765
851.085	14895
851.22	14872
851.355	14785
851.49	14705
851.625	14758
851.76	14743
851.895	14606
852.03	14670
852.165	14617
852.299	14815
852.434	14853
852.569	14792
852.703	14804
852.838	14845
852.973	14819
853.107	14792
853.242	14697
853.376	14648
853.511	14522
853.645	14648
853.78	14769
853.914	14659
854.048	14564
854.183	14625
854.317	14689
854.451	14842
854.585	14629
854.72	14530
854.854	14610
854.988	14473
855.122	14583
855.256	14492
855.39	14678
855.524	14678
855.658	14670
855.792	14674
855.926	14655
856.06	14629
856.194	14663
856.327	14644
856.461	14571
856.595	14488
856.729	14632
856.862	14796
856.996	14765
857.13	14670
857.263	14712
857.397	14762
857.53	14625
857.664	14667
857.797	14762
857.931	14693
858.064	14667
858.197	14762
858.331	14590
858.464	14667
858.597	14530
858.731	14552
858.864	14670
858.997	14648
859.13	14602
859.263	14663
859.396	14602
859.529	14537
859.662	14568
859.795	14579
859.928	14701
860.061	14876
860.194	14765
860.327	14648
860.46	14606
860.592	14724
860.725	14712
860.858	14735
860.99	14632
861.123	14621
861.256	14568
861.388	14602
861.521	15389
861.653	14446
861.786	14412
861.918	14503
862.05	14522
862.183	14518
862.315	14530
862.447	14621
862.58	14511
862.712	14385
862.844	14339
862.976	14549
863.108	14446
863.24	14815
863.372	14290
863.504	14434
863.636	14457
863.768	14492
863.9	14393
864.032	14366
864.164	14393
864.296	14533
864.428	14473
864.559	14454
864.691	14484
864.823	14461
864.954	14488
865.086	14438
865.217	14305
865.349	14252
865.48	14473
865.612	14469
865.743	14480
865.875	14454
866.006	14431
866.137	14461
866.269	14446
866.4	14343
866.531	14358
866.662	14339
866.793	14336
866.924	14324
867.055	14431
867.186	14370
867.317	14442
867.448	14248
867.579	14358
867.71	14294
867.841	14263
867.972	14396
868.103	14366
868.233	14362
868.364	14362
868.495	14492
868.625	14613
868.756	14720
868.886	14579
869.017	14735
869.147	14712
869.278	14731
869.408	14598
869.539	14537
869.669	14693
869.799	14632
869.929	14716
870.06	14762
870.19	14891
870.32	14921
870.45	15009
870.58	15116
870.71	15138
870.84	15093
870.97	14998
871.1	15020
871.23	15173
871.36	15203
871.489	15169
871.619	15161
871.749	15245
871.879	15245
872.008	15386
872.138	15249
872.267	15176
872.397	15154
872.526	15017
872.656	15001
872.785	15028
872.915	15214
873.044	15310
873.173	15199
873.303	15363
873.432	15268
873.561	15382
873.69	15348
873.819	15207
873.948	15389
874.077	15264
874.206	15233
874.335	15291
874.464	15416
874.593	15606
874.722	15511
874.851	15561
874.979	15553
875.108	15538
875.237	15603
875.365	15458
875.494	15500
875.623	15633
875.751	15553
875.88	15656
876.008	15629
876.136	15713
876.265	16032
876.393	16158
876.521	16143
876.65	16006
876.778	15979
876.906	15922
877.034	15915
877.162	15991
877.29	15911
877.418	15930
877.546	15975
877.674	15956
877.802	16040
877.93	16082
878.058	15937
878.185	15956
878.313	16017
878.441	15979
878.568	15918
878.696	16010
878.824	16051
878.951	16128
879.079	16246
879.206	16341
879.333	16287
879.461	16166
879.588	16299
879.715	16329
879.842	16466
879.97	16147
880.097	15895
880.224	15854
880.351	15991
880.478	15949
880.605	15774
880.732	15880
880.859	16135
880.986	15934
881.112	15979
881.239	15774
881.366	15652
881.493	15538
881.619	15492
881.746	15568
881.872	15622
881.999	15481
882.125	15523
882.252	15580
882.378	15568
882.505	15686
882.631	15424
882.757	15348
882.883	15424
883.01	15397
883.136	15192
883.262	15199
883.388	15306
883.514	15416
883.64	15348
883.766	15298
883.892	15127
884.018	15233
884.143	15233
884.269	15401
884.395	15074
884.52	15036
884.646	15138
884.772	14895
884.897	14982
885.023	15077
885.148	15131
885.274	15214
885.399	15245
885.524	14941
885.65	15074
885.775	15039
885.9	15089
886.025	15127
886.15	15020
886.275	14963
886.4	14971
886.525	15009
886.65	15013
886.775	14982
886.9	15150
887.025	15218
887.149	15055
887.274	14921
887.399	14807
887.523	14838
887.648	14769
887.773	14705
887.897	14971
888.021	14902
888.146	14864
888.27	14826
888.395	15036
888.519	14899
888.643	14845
888.767	14895
888.891	14667
889.015	14674
889.139	14720
889.263	14758
889.387	14807
889.511	14963
889.635	14887
889.759	14758
889.883	14648
890.006	14663
890.13	14864
890.254	14667
890.377	14689
890.501	14446
890.624	14476
890.748	14492
890.871	14530
890.995	14317
891.118	14419
891.241	14381
891.364	14301
891.488	14499
891.611	14377
891.734	14412
891.857	14492
891.98	14488
892.103	14408
892.226	14438
892.349	14446
892.471	14210
892.594	14336
892.717	14419
892.839	14358
892.962	14351
893.085	14381
893.207	14415
893.33	14248
893.452	14415
893.575	14454
893.697	14442
893.819	14522
893.941	14659
894.064	14556
894.186	14366
894.308	14320
894.43	14590
894.552	14655
894.674	14598
894.796	14415
894.918	14438
895.04	14358
895.161	14613
895.283	14499
895.405	14385
895.526	14473
895.648	14457
895.769	14575
895.891	14484
896.012	14549
896.134	14518
896.255	14556
896.376	14537
896.498	14564
896.619	14655
896.74	14583
896.861	14697
896.982	14880
897.103	15043
897.224	14830
897.345	14872
897.466	14800
897.587	14769
897.708	14948
897.828	14899
897.949	14724
898.07	14727
898.19	14823
898.311	15009
898.431	14788
898.552	14899
898.672	15020
898.792	14944
898.913	14994
899.033	14781
899.153	14823
899.273	14682
899.393	14777
899.513	14804
899.633	14769
899.753	14765
899.873	14674
899.993	14727
900.113	14705
900.232	14773
900.352	14830
900.472	14720
900.591	14537
900.711	14564
900.83	14613
900.95	14750
901.069	14724
901.189	14473
901.308	14320
901.427	14298
901.546	14286
901.665	14309
901.784	14438
901.904	14123
902.023	14180
902.141	13909
902.26	13868
902.379	14001
902.498	13860
902.617	13780
902.735	13909
902.854	13852
902.973	13837
903.091	13506
903.21	13594
903.328	13529
903.446	13495
903.565	13354
903.683	13514
903.801	13335
903.919	13419
904.038	13289
904.156	13247
904.274	13259
904.392	13133
904.51	13183
904.627	13236
904.745	13274
904.863	13316
904.981	13042
905.098	12897
905.216	12909
905.334	13019
905.451	12985
905.569	12916
905.686	12920
905.803	13008
905.921	12719
906.038	12802
906.155	12787
906.272	12612
906.389	12684
906.506	12502
906.623	12525
906.74	12490
906.857	12338
906.974	12365
907.091	12620
907.208	12646
907.324	12574
907.441	12395
907.557	12327
907.674	12258
907.79	12114
907.907	12239
908.023	12308
908.139	12281
908.256	12178
908.372	12155
908.488	12117
908.604	11969
908.72	11950
908.836	12076
908.952	11969
909.068	12030
909.184	12178
909.3	12030
909.415	12030
909.531	11897
909.647	11798
909.762	11710
909.878	11703
909.993	11775
910.108	11786
910.224	11764
910.339	11756
910.454	11634
910.57	11627
910.685	11596
910.8	11809
910.915	11771
911.03	11657
911.145	11448
911.259	11414
911.374	11406
911.489	11376
911.604	11345
911.718	11227
911.833	11227
911.947	11071
912.062	11056
912.176	11261
912.291	11246
912.405	11159
912.519	11410
912.633	11356
912.748	11273
912.862	11216
912.976	11170
913.09	10854
913.204	11086
913.318	11162
913.431	11166
913.545	11212
913.659	11220
913.772	11140
913.886	10919
914	11014
914.113	10961
914.226	11105
914.34	11064
914.453	10900
914.566	11033
914.68	10911
914.793	10904
914.906	10736
915.019	10694
915.132	10611
915.245	10634
915.358	10721
915.47	10714
915.583	10755
915.696	10782
915.809	10858
915.921	10835
916.034	10580
916.146	10706
916.259	10626
916.371	10733
916.483	10664
916.595	10691
916.708	10592
916.82	10672
916.932	10637
917.044	10622
917.156	10603
917.268	10497
917.38	10569
917.491	10516
917.603	10523
917.715	10546
917.826	10649
917.938	10500
918.049	10398
918.161	10569
918.272	10664
918.384	10694
918.495	10519
918.606	10424
918.717	10287
918.828	10405
918.939	10474
919.05	10299
919.161	10329
919.272	10207
919.383	10211
919.494	10478
919.604	10630
919.715	10379
919.826	10325
919.936	10394
920.047	10432
920.157	10386
920.267	10588
920.378	10535
920.488	10417
920.598	10550
920.708	10771
920.818	10664
920.928	10675
921.038	10725
921.148	10752
921.258	10493
921.368	10360
921.477	10379
921.587	10261
921.697	10158
921.806	10268
921.916	10128
922.025	9949
922.134	9937
922.244	9918
922.353	10006
922.462	9804
922.571	9873
922.68	9679
922.789	9618
922.898	9629
923.007	9587
923.116	9755
923.224	9713
923.333	9614
923.442	9667
923.55	9473
923.659	9564
923.767	9545
923.876	9428
923.984	9599
924.092	9431
924.201	9500
924.309	9564
924.417	9511
924.525	9408
924.633	9469
924.741	10398
924.849	9298
924.956	9469
925.064	9302
925.172	9188
925.279	9241
925.387	9344
925.494	9268
925.602	9378
925.709	9450
925.816	9348
925.924	9355
926.031	9393
926.138	9279
926.245	9351
926.352	9199
926.459	9321
926.566	9359
926.673	9291
926.779	9176
926.886	9180
926.993	9009
927.099	9032
927.206	8990
927.312	8971
927.419	9043
927.525	9036
927.631	9074
927.737	8982
927.843	8929
927.95	8785
928.056	8967
928.162	8910
928.267	8960
928.373	9614
928.479	8979
928.585	8788
928.69	8883
928.796	8876
928.901	8743
929.007	8689
929.112	8842
929.218	8804
929.323	8731
929.428	8720
929.533	8937
929.638	8640
929.743	8766
929.848	8701
929.953	8712
930.058	8629
930.163	8476
930.267	8454
930.372	8644
930.477	8408
930.581	8678
930.685	8594
930.79	8450
930.894	8461
930.998	8358
931.103	8594
931.207	8202
931.311	8168
931.415	8065
931.519	7902
931.623	7932
