Data from test_V78500241_3519.txt Node
Date: Fri Mar 25 14:58:13 CST 2022
User: usil
Spectrometer: V785-0024
Trigger mode: 0
Integration Time (sec): 4.000000E-1
Scans to average: 1
Nonlinearity correction enabled: false
Boxcar width: 0
Storing dark spectrum: false
XAxis mode: Wavelengths
Number of Pixels in Spectrum: 1024
>>>>>Begin Spectral Data<<<<<
801.071	21968
801.214	21819
801.356	21538
801.499	21523
801.641	21306
801.783	21233
801.926	21252
802.068	21112
802.211	21192
802.353	21093
802.496	20819
802.638	20712
802.78	20834
802.923	20735
803.065	20575
803.208	20514
803.35	20511
803.492	20636
803.635	20659
803.777	20613
803.919	20724
804.061	20990
804.204	20583
804.346	20549
804.488	20492
804.63	20549
804.773	20404
804.915	20571
805.057	20533
805.199	20545
805.341	20648
805.483	20606
805.626	20617
805.768	20488
805.91	20564
806.052	20495
806.194	20434
806.336	20598
806.478	20457
806.62	20434
806.762	20514
806.904	20701
807.046	20872
807.188	20895
807.33	20868
807.472	20914
807.614	20720
807.756	20762
807.898	20629
808.04	20541
808.182	20632
808.324	20564
808.465	20545
808.607	20712
808.749	20849
808.891	21036
809.033	21017
809.174	20944
809.316	20872
809.458	20750
809.6	20731
809.741	20971
809.883	20872
810.025	21093
810.166	20933
810.308	21085
810.45	20971
810.591	20868
810.733	20712
810.875	20720
811.016	20514
811.158	20564
811.299	20648
811.441	20621
811.582	20765
811.724	20575
811.865	20602
812.007	20571
812.148	20663
812.29	20640
812.431	20659
812.573	20899
812.714	21066
812.855	21116
812.997	21245
813.138	21340
813.279	21222
813.421	21127
813.562	20998
813.703	20979
813.845	20781
813.986	20461
814.127	20290
814.268	20240
814.41	20180
814.551	20157
814.692	20313
814.833	20111
814.974	20084
815.115	20168
815.256	20043
815.397	19989
815.539	19944
815.68	19894
815.821	19769
815.962	19826
816.103	19890
816.244	19788
816.385	19537
816.526	19723
816.666	19476
816.807	19304
816.948	19415
817.089	19422
817.23	19304
817.371	19350
817.512	19362
817.653	19183
817.793	19213
817.934	19213
818.075	19320
818.216	19278
818.356	19198
818.497	19088
818.638	18943
818.778	19027
818.919	19027
819.06	18993
819.2	19053
819.341	19145
819.481	19213
819.622	19289
819.762	19464
819.903	19411
820.043	19293
820.184	19327
820.324	19331
820.465	19343
820.605	19350
820.746	19228
820.886	19050
821.026	19145
821.167	19285
821.307	19255
821.447	19293
821.588	19179
821.728	18928
821.868	18871
822.008	18719
822.149	18665
822.289	18665
822.429	18357
822.569	18220
822.709	18422
822.849	18243
822.99	18281
823.13	18273
823.27	18133
823.41	17988
823.55	17988
823.69	18049
823.83	17935
823.97	17935
824.11	17790
824.25	17619
824.389	17672
824.529	17916
824.669	17859
824.809	17885
824.949	17851
825.089	17840
825.228	17649
825.368	17581
825.508	17467
825.648	17589
825.787	17573
825.927	17646
826.067	17520
826.206	17604
826.346	17535
826.485	17429
826.625	17501
826.765	17535
826.904	17505
827.044	17318
827.183	17296
827.323	17273
827.462	17181
827.601	17239
827.741	17292
827.88	17288
828.02	17113
828.159	17170
828.298	17250
828.437	17326
828.577	17193
828.716	17334
828.855	17273
828.994	16980
829.134	17025
829.273	17071
829.412	16911
829.551	16919
829.69	16991
829.829	17041
829.968	16999
830.107	17086
830.246	16999
830.385	16972
830.524	16938
830.663	16873
830.802	16774
830.941	16664
831.08	16622
831.219	16786
831.357	16698
831.496	16740
831.635	16546
831.774	16523
831.913	16504
832.051	16341
832.19	16363
832.329	16375
832.467	16325
832.606	16185
832.744	16314
832.883	16226
833.022	16284
833.16	16333
833.299	16409
833.437	16314
833.576	16306
833.714	16402
833.852	16402
833.991	16474
834.129	16375
834.267	16466
834.406	16287
834.544	16352
834.682	16398
834.821	16398
834.959	16546
835.097	16303
835.235	16542
835.373	16417
835.511	16371
835.65	16253
835.788	16322
835.926	16143
836.064	16017
836.202	16044
836.34	16325
836.478	16459
836.615	16310
836.753	16291
836.891	16390
837.029	16394
837.167	16234
837.305	16207
837.443	16192
837.58	16086
837.718	16200
837.856	16135
837.993	16078
838.131	16204
838.269	16185
838.406	16025
838.544	16048
838.681	15911
838.819	15915
838.956	15663
839.094	15690
839.231	15732
839.369	15903
839.506	16078
839.643	15934
839.781	15804
839.918	15644
840.055	15759
840.193	15736
840.33	15717
840.467	15694
840.604	15812
840.742	15930
840.879	15694
841.016	15720
841.153	15622
841.29	15827
841.427	15747
841.564	15701
841.701	15663
841.838	15606
841.975	15660
842.112	15694
842.249	15504
842.385	15473
842.522	15709
842.659	15523
842.796	15564
842.933	15511
843.069	15587
843.206	15519
843.343	15584
843.479	15538
843.616	15477
843.752	15367
843.889	15298
844.025	15450
844.162	15275
844.298	15428
844.435	15275
844.571	15275
844.708	15336
844.844	15386
844.98	15492
845.117	15386
845.253	15138
845.389	15211
845.525	15199
845.661	15142
845.798	15131
845.934	15173
846.07	14960
846.206	15100
846.342	15222
846.478	15089
846.614	14845
846.75	14849
846.886	14864
847.022	14838
847.158	14921
847.294	14876
847.429	14914
847.565	14880
847.701	15138
847.837	14461
847.972	14640
848.108	14613
848.244	14678
848.379	14526
848.515	14404
848.65	14427
848.786	14450
848.921	14446
849.057	14579
849.192	14533
849.328	14526
849.463	14526
849.598	14434
849.734	14400
849.869	14419
850.004	14282
850.14	14294
850.275	14237
850.41	14134
850.545	14107
850.68	14199
850.815	14244
850.95	14294
851.085	14530
851.22	14298
851.355	14183
851.49	14275
851.625	14244
851.76	14180
851.895	14218
852.03	14157
852.165	14187
852.299	14324
852.434	14385
852.569	14248
852.703	14195
852.838	14309
852.973	14313
853.107	14427
853.242	14130
853.376	14119
853.511	13940
853.645	14039
853.78	14168
853.914	14115
854.048	14054
854.183	14119
854.317	14180
854.451	14263
854.585	14115
854.72	14130
854.854	14172
854.988	14043
855.122	14001
855.256	13932
855.39	14126
855.524	14164
855.658	14172
855.792	14126
855.926	14263
856.06	14195
856.194	14172
856.327	14161
856.461	14084
856.595	14115
856.729	14157
856.862	14252
856.996	14134
857.13	14180
857.263	14351
857.397	14233
857.53	14039
857.664	14176
857.797	14225
857.931	14202
858.064	14100
858.197	14229
858.331	14069
858.464	14092
858.597	13993
858.731	14172
858.864	14111
858.997	14119
859.13	14206
859.263	14103
859.396	14168
859.529	14119
859.662	14145
859.795	14043
859.928	14142
860.061	14240
860.194	14263
860.327	14267
860.46	14142
860.592	14195
860.725	14214
860.858	14233
860.99	14138
861.123	14100
861.256	14077
861.388	14138
861.521	14982
861.653	13997
861.786	13875
861.918	13913
862.05	14039
862.183	14054
862.315	14111
862.447	14149
862.58	14168
862.712	13909
862.844	13909
862.976	14016
863.108	13936
863.24	14267
863.372	13963
863.504	13864
863.636	13856
863.768	14073
863.9	13932
864.032	13761
864.164	13887
864.296	14008
864.428	14024
864.559	13986
864.691	13928
864.823	13871
864.954	13925
865.086	13970
865.217	13936
865.349	13807
865.48	13959
865.612	13913
865.743	14039
865.875	13947
866.006	13845
866.137	13864
866.269	13898
866.4	13906
866.531	13826
866.662	13803
866.793	13849
866.924	13803
867.055	13822
867.186	13898
867.317	13830
867.448	13795
867.579	13811
867.71	13826
867.841	13807
867.972	13852
868.103	13845
868.233	13940
868.364	13803
868.495	14035
868.625	14077
868.756	14206
868.886	14043
869.017	14092
869.147	14317
869.278	14206
869.408	14164
869.539	14107
869.669	14294
869.799	14145
869.929	14206
870.06	14305
870.19	14484
870.32	14370
870.45	14393
870.58	14530
870.71	14541
870.84	14693
870.97	14461
871.1	14549
871.23	14712
871.36	14731
871.489	14648
871.619	14762
871.749	14750
871.879	14804
872.008	14807
872.138	14762
872.267	14804
872.397	14610
872.526	14526
872.656	14552
872.785	14629
872.915	14693
873.044	14849
873.173	14804
873.303	14876
873.432	14754
873.561	14800
873.69	14876
873.819	14777
873.948	14842
874.077	14796
874.206	14853
874.335	14769
874.464	14952
874.593	15180
874.722	15104
874.851	15161
874.979	15154
875.108	15127
875.237	15093
875.365	14982
875.494	15013
875.623	15256
875.751	15093
875.88	15161
876.008	15218
876.136	15408
876.265	15492
876.393	15755
876.521	15599
876.65	15667
876.778	15542
876.906	15454
877.034	15492
877.162	15507
877.29	15450
877.418	15507
877.546	15507
877.674	15576
877.802	15458
877.93	15492
878.058	15447
878.185	15420
878.313	15519
878.441	15504
878.568	15363
878.696	15492
878.824	15530
878.951	15599
879.079	15701
879.206	15899
879.333	15671
879.461	15443
879.588	15614
879.715	15739
879.842	15762
879.97	15557
880.097	15325
880.224	15268
880.351	15397
880.478	15344
880.605	15344
880.732	15340
880.859	15644
880.986	15374
881.112	15374
881.239	15275
881.366	15180
881.493	15020
881.619	14944
881.746	15047
881.872	15070
881.999	15058
882.125	14956
882.252	15017
882.378	15043
882.505	15127
882.631	14918
882.757	14807
882.883	14883
883.01	14762
883.136	14788
883.262	14674
883.388	14743
883.514	14887
883.64	14971
883.766	14781
883.892	14739
884.018	14765
884.143	14921
884.269	14857
884.395	14610
884.52	14598
884.646	14590
884.772	14408
884.897	14511
885.023	14613
885.148	14587
885.274	14727
885.399	14708
885.524	14590
885.65	14613
885.775	14518
885.9	14549
886.025	14629
886.15	14606
886.275	14511
886.4	14415
886.525	14476
886.65	14492
886.775	14503
886.9	14697
887.025	14819
887.149	14606
887.274	14454
887.399	14396
887.523	14313
887.648	14343
887.773	14305
887.897	14457
888.021	14442
888.146	14427
888.27	14389
888.395	14556
888.519	14518
888.643	14446
888.767	14545
888.891	14309
889.015	14275
889.139	14248
889.263	14210
889.387	14351
889.511	14476
889.635	14355
889.759	14153
889.883	14271
890.006	14336
890.13	14305
890.254	14210
890.377	14168
890.501	14123
890.624	14054
890.748	14145
890.871	14024
890.995	13902
891.118	13936
891.241	13932
891.364	14016
891.488	14001
891.611	13959
891.734	14008
891.857	13997
891.98	13947
892.103	14065
892.226	13982
892.349	13967
892.471	13708
892.594	13902
892.717	13963
892.839	13917
892.962	13986
893.085	14039
893.207	14012
893.33	13894
893.452	13959
893.575	14077
893.697	13928
893.819	14172
893.941	14157
894.064	14054
894.186	13944
894.308	13955
894.43	14088
894.552	14107
894.674	14043
894.796	13955
894.918	14081
895.04	14016
895.161	14069
895.283	14020
895.405	13974
895.526	14058
895.648	14058
895.769	14069
895.891	14107
896.012	14115
896.134	14161
896.255	14077
896.376	14176
896.498	14157
896.619	14134
896.74	14115
896.861	14153
896.982	14492
897.103	14667
897.224	14404
897.345	14461
897.466	14339
897.587	14473
897.708	14533
897.828	14484
897.949	14423
898.07	14229
898.19	14396
898.311	14473
898.431	14438
898.552	14518
898.672	14610
898.792	14518
898.913	14442
899.033	14400
899.153	14309
899.273	14305
899.393	14286
899.513	14313
899.633	14309
899.753	14366
899.873	14202
899.993	14362
900.113	14290
900.232	14396
900.352	14309
900.472	14298
900.591	14225
900.711	14275
900.83	14092
900.95	14320
901.069	14244
901.189	14069
901.308	14020
901.427	13799
901.546	13788
901.665	13887
901.784	13887
901.904	13746
902.023	13636
902.141	13533
902.26	13407
902.379	13419
902.498	13415
902.617	13327
902.735	13483
902.854	13441
902.973	13339
903.091	13137
903.21	13183
903.328	13050
903.446	13091
903.565	13042
903.683	13004
903.801	12958
903.919	12966
904.038	12966
904.156	12833
904.274	12916
904.392	12791
904.51	12779
904.627	12901
904.745	12928
904.863	12871
904.981	12639
905.098	12578
905.216	12578
905.334	12582
905.451	12525
905.569	12521
905.686	12540
905.803	12578
905.921	12395
906.038	12410
906.155	12414
906.272	12266
906.389	12342
906.506	12175
906.623	12163
906.74	12140
906.857	12106
906.974	12011
907.091	12254
907.208	12243
907.324	12140
907.441	12003
907.557	11999
907.674	11916
907.79	11863
907.907	11851
908.023	11904
908.139	11920
908.256	11866
908.372	11767
908.488	11760
908.604	11783
908.72	11581
908.836	11642
908.952	11699
909.068	11714
909.184	11748
909.3	11653
909.415	11741
909.531	11718
909.647	11512
909.762	11414
909.878	11414
909.993	11444
910.108	11573
910.224	11478
910.339	11509
910.454	11360
910.57	11334
910.685	11254
910.8	11577
910.915	11440
911.03	11303
911.145	11231
911.259	11098
911.374	11235
911.489	11181
911.604	11014
911.718	10900
911.833	10938
911.947	10797
912.062	10733
912.176	10934
912.291	10965
912.405	10957
912.519	11056
912.633	11098
912.748	11022
912.862	10908
912.976	10793
913.09	10683
913.204	10752
913.318	10774
913.431	10995
913.545	10839
913.659	10885
913.772	10767
913.886	10774
914	10649
914.113	10759
914.226	10824
914.34	10725
914.453	10569
914.566	10839
914.68	10660
914.793	10630
914.906	10447
915.019	10356
915.132	10375
915.245	10417
915.358	10440
915.47	10478
915.583	10451
915.696	10470
915.809	10519
915.921	10569
916.034	10443
916.146	10325
916.259	10287
916.371	10421
916.483	10386
916.595	10352
916.708	10375
916.82	10291
916.932	10322
917.044	10329
917.156	10299
917.268	10249
917.38	10276
917.491	10276
917.603	10265
917.715	10341
917.826	10398
917.938	10227
918.049	10093
918.161	10253
918.272	10337
918.384	10432
918.495	10306
918.606	10238
918.717	10109
918.828	10200
918.939	10188
919.05	9972
919.161	10169
919.272	9857
919.383	10082
919.494	10242
919.604	10398
919.715	10207
919.826	10059
919.936	10124
920.047	10230
920.157	10124
920.267	10291
920.378	10230
920.488	10112
920.598	10386
920.708	10607
920.818	10493
920.928	10367
921.038	10500
921.148	10470
921.258	10188
921.368	10143
921.477	9991
921.587	10055
921.697	9884
921.806	9994
921.916	9960
922.025	9781
922.134	9682
922.244	9614
922.353	9736
922.462	9515
922.571	9542
922.68	9450
922.789	9401
922.898	9428
923.007	9359
923.116	9504
923.224	9382
923.333	9443
923.442	9302
923.55	9256
923.659	9313
923.767	9355
923.876	9260
923.984	9325
924.092	9291
924.201	9374
924.309	9329
924.417	9291
924.525	9245
924.633	9256
924.741	9991
924.849	9081
924.956	9226
925.064	9055
925.172	8971
925.279	9058
925.387	9116
925.494	9089
925.602	9188
925.709	9184
925.816	8998
925.924	9009
926.031	9165
926.138	9062
926.245	9100
926.352	9001
926.459	9119
926.566	9180
926.673	9005
926.779	9009
926.886	8906
926.993	8785
927.099	8815
927.206	8743
927.312	8712
927.419	8849
927.525	8830
927.631	8807
927.737	8670
927.843	8693
927.95	8587
928.056	8663
928.162	8735
928.267	8758
928.373	9279
928.479	8788
928.585	8541
928.69	8762
928.796	8697
928.901	8636
929.007	8465
929.112	8587
929.218	8629
929.323	8518
929.428	8476
929.533	8594
929.638	8427
929.743	8495
929.848	8514
929.953	8526
930.058	8355
930.163	8317
930.267	8336
930.372	8454
930.477	8191
930.581	8461
930.685	8374
930.79	8214
930.894	8256
930.998	8233
931.103	8324
931.207	8069
931.311	8027
931.415	7890
931.519	7670
931.623	7674
