Data from test_V78500241_1327.txt Node
Date: Fri Mar 25 14:42:57 CST 2022
User: usil
Spectrometer: V785-0024
Trigger mode: 0
Integration Time (sec): 4.000000E-1
Scans to average: 1
Nonlinearity correction enabled: false
Boxcar width: 0
Storing dark spectrum: false
XAxis mode: Wavelengths
Number of Pixels in Spectrum: 1024
>>>>>Begin Spectral Data<<<<<
801.071	22459
801.214	22337
801.356	22204
801.499	21930
801.641	21873
801.783	21964
801.926	21869
802.068	21709
802.211	21675
802.353	21576
802.496	21340
802.638	21306
802.78	21226
802.923	21256
803.065	21119
803.208	21062
803.35	21245
803.492	21241
803.635	21268
803.777	21169
803.919	21218
804.061	21496
804.204	21169
804.346	21146
804.488	20918
804.63	21013
804.773	20948
804.915	21051
805.057	21237
805.199	21096
805.341	21081
805.483	21146
805.626	20986
805.768	20979
805.91	21077
806.052	21093
806.194	21108
806.336	21020
806.478	21112
806.62	21032
806.762	21085
806.904	21207
807.046	21469
807.188	21462
807.33	21332
807.472	21526
807.614	21367
807.756	21313
807.898	21279
808.04	21127
808.182	21203
808.324	21336
808.465	21313
808.607	21485
808.749	21542
808.891	21675
809.033	21854
809.174	21622
809.316	21667
809.458	21530
809.6	21496
809.741	21526
809.883	21469
810.025	21637
810.166	21739
810.308	21576
810.45	21564
810.591	21462
810.733	21233
810.875	21378
811.016	21104
811.158	21062
811.299	21306
811.441	21306
811.582	21272
811.724	21222
811.865	21203
812.007	21298
812.148	21348
812.29	21340
812.431	21439
812.573	21488
812.714	21690
812.855	21751
812.997	21766
813.138	21846
813.279	21930
813.421	21633
813.562	21618
813.703	21428
813.845	21469
813.986	21058
814.127	20887
814.268	20811
814.41	20800
814.551	20769
814.692	20853
814.833	20648
814.974	20758
815.115	20743
815.256	20636
815.397	20579
815.539	20705
815.68	20434
815.821	20450
815.962	20549
816.103	20492
816.244	20180
816.385	20263
816.526	20252
816.666	20012
816.807	19887
816.948	19917
817.089	20119
817.23	20024
817.371	19826
817.512	19871
817.653	19986
817.793	19917
817.934	19928
818.075	19993
818.216	19959
818.356	19814
818.497	19750
818.638	19655
818.778	19563
818.919	19609
819.06	19719
819.2	19696
819.341	19715
819.481	19731
819.622	19894
819.762	20149
819.903	19974
820.043	19986
820.184	19814
820.324	19860
820.465	19936
820.605	19818
820.746	19887
820.886	19940
821.026	19826
821.167	19875
821.307	19947
821.447	19852
821.588	19757
821.728	19533
821.868	19537
822.008	19285
822.149	19232
822.289	19346
822.429	19072
822.569	19012
822.709	19031
822.849	18798
822.99	18783
823.13	18810
823.27	18764
823.41	18650
823.55	18498
823.69	18650
823.83	18601
823.97	18464
824.11	18353
824.25	18296
824.389	18414
824.529	18452
824.669	18369
824.809	18361
824.949	18509
825.089	18521
825.228	18357
825.368	18235
825.508	18110
825.648	18194
825.787	18194
825.927	18285
826.067	18209
826.206	18171
826.346	18076
826.485	18083
826.625	18190
826.765	18228
826.904	18182
827.044	17874
827.183	17977
827.323	17908
827.462	17882
827.601	17859
827.741	17840
827.88	17771
828.02	17779
828.159	17813
828.298	17851
828.437	17904
828.577	17901
828.716	17996
828.855	17767
828.994	17665
829.134	17653
829.273	17718
829.412	17482
829.551	17551
829.69	17653
829.829	17718
829.968	17619
830.107	17649
830.246	17684
830.385	17474
830.524	17452
830.663	17497
830.802	17356
830.941	17159
831.08	17155
831.219	17231
831.357	17227
831.496	17429
831.635	17185
831.774	17136
831.913	17105
832.051	16991
832.19	17048
832.329	17098
832.467	16987
832.606	16801
832.744	16858
832.883	16957
833.022	16919
833.16	16892
833.299	17041
833.437	16835
833.576	16942
833.714	17022
833.852	17006
833.991	16949
834.129	17014
834.267	16934
834.406	16995
834.544	16965
834.682	17064
834.821	16984
834.959	17174
835.097	16797
835.235	17113
835.373	16995
835.511	16972
835.65	16858
835.788	16957
835.926	16679
836.064	16729
836.202	16733
836.34	16873
836.478	17033
836.615	16847
836.753	16900
836.891	16900
837.029	16835
837.167	16915
837.305	16717
837.443	16820
837.58	16649
837.718	16904
837.856	16805
837.993	16736
838.131	16710
838.269	16702
838.406	16672
838.544	16630
838.681	16462
838.819	16421
838.956	16314
839.094	16226
839.231	16413
839.369	16436
839.506	16592
839.643	16516
839.781	16367
839.918	16284
840.055	16348
840.193	16265
840.33	16291
840.467	16204
840.604	16215
840.742	16402
840.879	16177
841.016	16272
841.153	16173
841.29	16459
841.427	16226
841.564	16325
841.701	16226
841.838	16188
841.975	16211
842.112	16215
842.249	16051
842.385	15903
842.522	16268
842.659	16101
842.796	16086
842.933	16093
843.069	15911
843.206	15953
843.343	16154
843.479	16166
843.616	16112
843.752	15945
843.889	15857
844.025	15960
844.162	15789
844.298	15899
844.435	15808
844.571	15831
844.708	15926
844.844	16147
844.98	16124
845.117	15953
845.253	15838
845.389	15679
845.525	15778
845.661	15804
845.798	15736
845.934	15899
846.07	15781
846.206	15854
846.342	15930
846.478	15797
846.614	15576
846.75	15492
846.886	15416
847.022	15488
847.158	15458
847.294	15386
847.429	15450
847.565	15351
847.701	15572
847.837	15157
847.972	15093
848.108	15207
848.244	15150
848.379	15070
848.515	14937
848.65	15024
848.786	15039
848.921	14937
849.057	15127
849.192	15070
849.328	15058
849.463	14990
849.598	14937
849.734	14834
849.869	14842
850.004	14811
850.14	14777
850.275	14758
850.41	14708
850.545	14716
850.68	14708
850.815	14796
850.95	14792
851.085	14948
851.22	14921
851.355	14765
851.49	14689
851.625	14651
851.76	14659
851.895	14693
852.03	14625
852.165	14670
852.299	14895
852.434	14781
852.569	14800
852.703	14788
852.838	14925
852.973	15005
853.107	14891
853.242	14800
853.376	14610
853.511	14492
853.645	14632
853.78	14697
853.914	14610
854.048	14571
854.183	14667
854.317	14648
854.451	14853
854.585	14568
854.72	14670
854.854	14686
854.988	14682
855.122	14670
855.256	14465
855.39	14640
855.524	14781
855.658	14674
855.792	14587
855.926	14720
856.06	14712
856.194	14762
856.327	14659
856.461	14590
856.595	14537
856.729	14537
856.862	14788
856.996	14667
857.13	14743
857.263	14746
857.397	14826
857.53	14667
857.664	14739
857.797	14655
857.931	14811
858.064	14689
858.197	14758
858.331	14602
858.464	14625
858.597	14552
858.731	14610
858.864	14583
858.997	14629
859.13	14678
859.263	14594
859.396	14739
859.529	14682
859.662	14590
859.795	14632
859.928	14587
860.061	14823
860.194	14910
860.327	14625
860.46	14606
860.592	14720
860.725	14807
860.858	14758
860.99	14686
861.123	14602
861.256	14594
861.388	14617
861.521	15287
861.653	14476
861.786	14575
861.918	14446
862.05	14587
862.183	14564
862.315	14507
862.447	14693
862.58	14594
862.712	14412
862.844	14298
862.976	14473
863.108	14598
863.24	14887
863.372	14313
863.504	14473
863.636	14434
863.768	14362
863.9	14434
864.032	14336
864.164	14381
864.296	14423
864.428	14495
864.559	14518
864.691	14454
864.823	14431
864.954	14503
865.086	14404
865.217	14324
865.349	14351
865.48	14377
865.612	14389
865.743	14415
865.875	14393
866.006	14396
866.137	14362
866.269	14465
866.4	14415
866.531	14343
866.662	14290
866.793	14298
866.924	14374
867.055	14320
867.186	14336
867.317	14309
867.448	14233
867.579	14370
867.71	14336
867.841	14278
867.972	14309
868.103	14423
868.233	14495
868.364	14332
868.495	14473
868.625	14670
868.756	14712
868.886	14537
869.017	14617
869.147	14765
869.278	14731
869.408	14651
869.539	14621
869.669	14651
869.799	14674
869.929	14792
870.06	14689
870.19	15036
870.32	14914
870.45	14971
870.58	15039
870.71	15112
870.84	15138
870.97	14944
871.1	15024
871.23	15184
871.36	15230
871.489	15104
871.619	15218
871.749	15199
871.879	15329
872.008	15279
872.138	15218
872.267	15131
872.397	15112
872.526	15043
872.656	15135
872.785	15032
872.915	15146
873.044	15431
873.173	15169
873.303	15332
873.432	15378
873.561	15336
873.69	15310
873.819	15370
873.948	15310
874.077	15275
874.206	15192
874.335	15287
874.464	15370
874.593	15644
874.722	15557
874.851	15743
874.979	15614
875.108	15618
875.237	15523
875.365	15618
875.494	15591
875.623	15694
875.751	15580
875.88	15656
876.008	15876
876.136	15850
876.265	16055
876.393	16150
876.521	16135
876.65	16090
876.778	16082
876.906	15964
877.034	15850
877.162	16002
877.29	15937
877.418	15903
877.546	16048
877.674	16044
877.802	16040
877.93	15979
878.058	15953
878.185	15907
878.313	16010
878.441	16044
878.568	15918
878.696	15960
878.824	16051
878.951	16105
879.079	16325
879.206	16306
879.333	16238
879.461	16116
879.588	16253
879.715	16223
879.842	16421
879.97	16238
880.097	15857
880.224	15937
880.351	15850
880.478	15964
880.605	15842
880.732	15835
880.859	16051
880.986	15892
881.112	15964
881.239	15949
881.366	15557
881.493	15644
881.619	15606
881.746	15488
881.872	15614
881.999	15481
882.125	15477
882.252	15538
882.378	15458
882.505	15648
882.631	15553
882.757	15412
882.883	15450
883.01	15287
883.136	15389
883.262	15245
883.388	15180
883.514	15424
883.64	15450
883.766	15321
883.892	15123
884.018	15241
884.143	15408
884.269	15538
884.395	15119
884.52	14975
884.646	15055
884.772	14967
884.897	14967
885.023	15066
885.148	15165
885.274	15233
885.399	15211
885.524	15051
885.65	15013
885.775	15043
885.9	15051
886.025	15180
886.15	15165
886.275	15013
886.4	14979
886.525	15077
886.65	15051
886.775	15024
886.9	15100
887.025	15252
887.149	15005
887.274	14906
887.399	14800
887.523	14811
887.648	14785
887.773	14765
887.897	14952
888.021	14880
888.146	14906
888.27	14944
888.395	15028
888.519	14937
888.643	15005
888.767	14883
888.891	14796
889.015	14785
889.139	14648
889.263	14670
889.387	14758
889.511	14956
889.635	14826
889.759	14762
889.883	14678
890.006	14727
890.13	14834
890.254	14587
890.377	14746
890.501	14526
890.624	14602
890.748	14594
890.871	14469
890.995	14370
891.118	14465
891.241	14499
891.364	14366
891.488	14450
891.611	14400
891.734	14480
891.857	14457
891.98	14488
892.103	14507
892.226	14503
892.349	14461
892.471	14256
892.594	14431
892.717	14404
892.839	14351
892.962	14381
893.085	14381
893.207	14290
893.33	14202
893.452	14404
893.575	14442
893.697	14324
893.819	14583
893.941	14697
894.064	14613
894.186	14393
894.308	14309
894.43	14473
894.552	14632
894.674	14552
894.796	14377
894.918	14423
895.04	14476
895.161	14450
895.283	14606
895.405	14465
895.526	14431
895.648	14594
895.769	14533
895.891	14571
896.012	14503
896.134	14518
896.255	14579
896.376	14617
896.498	14560
896.619	14579
896.74	14434
896.861	14655
896.982	14925
897.103	15062
897.224	14864
897.345	14853
897.466	14830
897.587	14796
897.708	14975
897.828	14902
897.949	14746
898.07	14807
898.19	14838
898.311	14982
898.431	14880
898.552	14895
898.672	14967
898.792	14975
898.913	14918
899.033	14849
899.153	14712
899.273	14712
899.393	14716
899.513	14811
899.633	14811
899.753	14807
899.873	14636
899.993	14823
900.113	14785
900.232	14777
900.352	14724
900.472	14651
900.591	14621
900.711	14720
900.83	14545
900.95	14667
901.069	14781
901.189	14552
901.308	14343
901.427	14305
901.546	14225
901.665	14221
901.784	14336
901.904	14130
902.023	14073
902.141	13951
902.26	13841
902.379	13913
902.498	13883
902.617	13811
902.735	13894
902.854	13833
902.973	13761
903.091	13609
903.21	13601
903.328	13563
903.446	13586
903.565	13430
903.683	13419
903.801	13343
903.919	13396
904.038	13403
904.156	13126
904.274	13304
904.392	13255
904.51	13221
904.627	13194
904.745	13236
904.863	13350
904.981	13008
905.098	12928
905.216	12935
905.334	12989
905.451	12958
905.569	12844
905.686	12996
905.803	12939
905.921	12760
906.038	12863
906.155	12779
906.272	12620
906.389	12738
906.506	12536
906.623	12563
906.74	12464
906.857	12353
906.974	12502
907.091	12623
907.208	12578
907.324	12525
907.441	12433
907.557	12254
907.674	12281
907.79	12121
907.907	12197
908.023	12258
908.139	12251
908.256	12228
908.372	12171
908.488	12152
908.604	12079
908.72	12011
908.836	12068
908.952	11958
909.068	12026
909.184	12098
909.3	11999
909.415	12117
909.531	12057
909.647	11733
909.762	11836
909.878	11668
909.993	11802
910.108	11741
910.224	11726
910.339	11756
910.454	11630
910.57	11619
910.685	11570
910.8	11756
910.915	11802
911.03	11680
911.145	11440
911.259	11543
911.374	11471
911.489	11474
911.604	11303
911.718	11132
911.833	11296
911.947	11071
912.062	10976
912.176	11204
912.291	11296
912.405	11330
912.519	11505
912.633	11440
912.748	11193
912.862	11235
912.976	11075
913.09	11052
913.204	11003
913.318	11041
913.431	11181
913.545	11185
913.659	11174
913.772	11143
913.886	11064
914	10885
914.113	11010
914.226	11094
914.34	11010
914.453	10881
914.566	10991
914.68	10949
914.793	10889
914.906	10778
915.019	10710
915.132	10637
915.245	10702
915.358	10733
915.47	10717
915.583	10733
915.696	10759
915.809	10873
915.921	10824
916.034	10691
916.146	10679
916.259	10634
916.371	10679
916.483	10759
916.595	10588
916.708	10615
916.82	10588
916.932	10679
917.044	10626
917.156	10626
917.268	10489
917.38	10554
917.491	10485
917.603	10516
917.715	10622
917.826	10607
917.938	10485
918.049	10424
918.161	10538
918.272	10656
918.384	10656
918.495	10569
918.606	10348
918.717	10390
918.828	10421
918.939	10421
919.05	10322
919.161	10432
919.272	10169
919.383	10341
919.494	10455
919.604	10599
919.715	10382
919.826	10382
919.936	10398
920.047	10466
920.157	10405
920.267	10656
920.378	10413
920.488	10474
920.598	10615
920.708	10801
920.818	10588
920.928	10641
921.038	10778
921.148	10767
921.258	10489
921.368	10394
921.477	10242
921.587	10261
921.697	10173
921.806	10238
921.916	10188
922.025	10002
922.134	9987
922.244	9975
922.353	10017
922.462	9800
922.571	9854
922.68	9564
922.789	9690
922.898	9656
923.007	9652
923.116	9709
923.224	9667
923.333	9690
923.442	9530
923.55	9526
923.659	9530
923.767	9614
923.876	9469
923.984	9576
924.092	9428
924.201	9523
924.309	9462
924.417	9485
924.525	9561
924.633	9507
924.741	10405
924.849	9382
924.956	9443
925.064	9355
925.172	9253
925.279	9253
925.387	9264
925.494	9287
925.602	9469
925.709	9355
925.816	9218
925.924	9272
926.031	9348
926.138	9233
926.245	9310
926.352	9287
926.459	9412
926.566	9431
926.673	9253
926.779	9180
926.886	9135
926.993	9024
927.099	9074
927.206	8937
927.312	9001
927.419	9036
927.525	8963
927.631	9097
927.737	8864
927.843	8861
927.95	8815
928.056	8823
928.162	8880
928.267	8921
928.373	9576
928.479	8948
928.585	8823
928.69	8941
928.796	8906
928.901	8804
929.007	8701
929.112	8800
929.218	8735
929.323	8708
929.428	8648
929.533	8883
929.638	8602
929.743	8689
929.848	8830
929.953	8678
930.058	8613
930.163	8461
930.267	8480
930.372	8678
930.477	8518
930.581	8686
930.685	8583
930.79	8404
930.894	8438
930.998	8423
931.103	8610
931.207	8275
931.311	8126
931.415	8130
931.519	7944
931.623	7902
