Data from test_V78500241_2652.txt Node
Date: Fri Mar 25 14:52:10 CST 2022
User: usil
Spectrometer: V785-0024
Trigger mode: 0
Integration Time (sec): 4.000000E-1
Scans to average: 1
Nonlinearity correction enabled: false
Boxcar width: 0
Storing dark spectrum: false
XAxis mode: Wavelengths
Number of Pixels in Spectrum: 1024
>>>>>Begin Spectral Data<<<<<
801.071	21987
801.214	21835
801.356	21625
801.499	21450
801.641	21264
801.783	21397
801.926	21321
802.068	21287
802.211	21188
802.353	21112
802.496	20895
802.638	20762
802.78	20899
802.923	20727
803.065	20629
803.208	20590
803.35	20811
803.492	20796
803.635	20815
803.777	20758
803.919	20762
804.061	21013
804.204	20716
804.346	20663
804.488	20568
804.63	20708
804.773	20587
804.915	20613
805.057	20587
805.199	20655
805.341	20480
805.483	20743
805.626	20697
805.768	20438
805.91	20594
806.052	20560
806.194	20442
806.336	20560
806.478	20507
806.62	20503
806.762	20705
806.904	20925
807.046	20994
807.188	20967
807.33	20956
807.472	20921
807.614	20842
807.756	20864
807.898	20792
808.04	20762
808.182	20682
808.324	20613
808.465	20716
808.607	20883
808.749	20937
808.891	21108
809.033	21093
809.174	21032
809.316	21009
809.458	20914
809.6	20887
809.741	20979
809.883	20887
810.025	21112
810.166	20994
810.308	21039
810.45	21005
810.591	20952
810.733	20845
810.875	20861
811.016	20511
811.158	20530
811.299	20735
811.441	20838
811.582	20880
811.724	20686
811.865	20739
812.007	20674
812.148	20720
812.29	20636
812.431	20864
812.573	21089
812.714	21047
812.855	21252
812.997	21279
813.138	21397
813.279	21233
813.421	21165
813.562	21131
813.703	20876
813.845	20861
813.986	20598
814.127	20442
814.268	20328
814.41	20294
814.551	20218
814.692	20294
814.833	20039
814.974	20176
815.115	20172
815.256	20107
815.397	20103
815.539	20035
815.68	20058
815.821	19932
815.962	19928
816.103	19970
816.244	19791
816.385	19780
816.526	19597
816.666	19472
816.807	19304
816.948	19426
817.089	19514
817.23	19388
817.371	19384
817.512	19354
817.653	19308
817.793	19346
817.934	19339
818.075	19331
818.216	19384
818.356	19434
818.497	19118
818.638	19046
818.778	19141
818.919	19057
819.06	19103
819.2	19107
819.341	19282
819.481	19228
819.622	19441
819.762	19597
819.903	19487
820.043	19460
820.184	19434
820.324	19289
820.465	19476
820.605	19289
820.746	19324
820.886	19293
821.026	19217
821.167	19225
821.307	19324
821.447	19358
821.588	19198
821.728	19107
821.868	18981
822.008	18878
822.149	18787
822.289	18631
822.429	18486
822.569	18365
822.709	18426
822.849	18239
822.99	18174
823.13	18311
823.27	18216
823.41	17996
823.55	18045
823.69	18057
823.83	18152
823.97	18095
824.11	17790
824.25	17977
824.389	17901
824.529	17977
824.669	17836
824.809	17885
824.949	18053
825.089	17809
825.228	17855
825.368	17611
825.508	17691
825.648	17695
825.787	17684
825.927	17638
826.067	17623
826.206	17665
826.346	17623
826.485	17638
826.625	17585
826.765	17729
826.904	17653
827.044	17364
827.183	17410
827.323	17220
827.462	17299
827.601	17345
827.741	17376
827.88	17417
828.02	17231
828.159	17315
828.298	17459
828.437	17410
828.577	17391
828.716	17376
828.855	17330
828.994	17117
829.134	17109
829.273	17178
829.412	17045
829.551	16942
829.69	17117
829.829	17071
829.968	17185
830.107	17155
830.246	17025
830.385	17045
830.524	16953
830.663	16835
830.802	16824
830.941	16679
831.08	16729
831.219	16744
831.357	16793
831.496	16904
831.635	16733
831.774	16603
831.913	16542
832.051	16580
832.19	16527
832.329	16550
832.467	16303
832.606	16382
832.744	16432
832.883	16382
833.022	16428
833.16	16538
833.299	16394
833.437	16443
833.576	16436
833.714	16466
833.852	16428
833.991	16481
834.129	16489
834.267	16527
834.406	16493
834.544	16478
834.682	16512
834.821	16531
834.959	16550
835.097	16432
835.235	16615
835.373	16367
835.511	16630
835.65	16440
835.788	16344
835.926	16246
836.064	16173
836.202	16162
836.34	16417
836.478	16497
836.615	16367
836.753	16356
836.891	16440
837.029	16512
837.167	16348
837.305	16386
837.443	16322
837.58	16272
837.718	16394
837.856	16173
837.993	16226
838.131	16280
838.269	16158
838.406	16246
838.544	16154
838.681	16040
838.819	15895
838.956	15838
839.094	15831
839.231	15759
839.369	15968
839.506	16299
839.643	16093
839.781	15831
839.918	15675
840.055	15895
840.193	15812
840.33	15755
840.467	15812
840.604	15907
840.742	16086
840.879	15682
841.016	15800
841.153	15732
841.29	15956
841.427	15804
841.564	15865
841.701	15861
841.838	15720
841.975	15739
842.112	15759
842.249	15660
842.385	15629
842.522	15789
842.659	15644
842.796	15633
842.933	15557
843.069	15584
843.206	15587
843.343	15603
843.479	15584
843.616	15622
843.752	15359
843.889	15488
844.025	15515
844.162	15329
844.298	15545
844.435	15488
844.571	15230
844.708	15428
844.844	15515
844.98	15595
845.117	15469
845.253	15401
845.389	15272
845.525	15317
845.661	15180
845.798	15131
845.934	15306
846.07	15123
846.206	15218
846.342	15389
846.478	15211
846.614	15108
846.75	14925
846.886	14948
847.022	15020
847.158	14975
847.294	14918
847.429	14979
847.565	15039
847.701	15169
847.837	14701
847.972	14712
848.108	14826
848.244	14830
848.379	14602
848.515	14602
848.65	14503
848.786	14568
848.921	14492
849.057	14826
849.192	14739
849.328	14682
849.463	14556
849.598	14575
849.734	14495
849.869	14408
850.004	14362
850.14	14404
850.275	14343
850.41	14202
850.545	14305
850.68	14408
850.815	14408
850.95	14271
851.085	14568
851.22	14427
851.355	14282
851.49	14305
851.625	14218
851.76	14343
851.895	14271
852.03	14206
852.165	14240
852.299	14431
852.434	14415
852.569	14381
852.703	14370
852.838	14400
852.973	14492
853.107	14514
853.242	14248
853.376	14271
853.511	14130
853.645	14130
853.78	14309
853.914	14320
854.048	14168
854.183	14084
854.317	14221
854.451	14419
854.585	14176
854.72	14134
854.854	14324
854.988	14172
855.122	14286
855.256	14039
855.39	14180
855.524	14275
855.658	14248
855.792	14278
855.926	14317
856.06	14267
856.194	14324
856.327	14214
856.461	14043
856.595	14134
856.729	14149
856.862	14317
856.996	14252
857.13	14298
857.263	14298
857.397	14362
857.53	14195
857.664	14240
857.797	14263
857.931	14294
858.064	14290
858.197	14309
858.331	14176
858.464	14176
858.597	14259
858.731	14248
858.864	14256
858.997	14195
859.13	14256
859.263	14286
859.396	14317
859.529	14172
859.662	14123
859.795	14180
859.928	14286
860.061	14309
860.194	14396
860.327	14233
860.46	14210
860.592	14339
860.725	14457
860.858	14309
860.99	14214
861.123	14103
861.256	14164
861.388	14138
861.521	14823
861.653	14191
861.786	14069
861.918	14081
862.05	14081
862.183	14107
862.315	14138
862.447	14317
862.58	14221
862.712	13936
862.844	13944
862.976	14008
863.108	14005
863.24	14465
863.372	13852
863.504	13951
863.636	14008
863.768	13944
863.9	14039
864.032	14001
864.164	13989
864.296	14035
864.428	14043
864.559	14084
864.691	14130
864.823	14149
864.954	13947
865.086	13997
865.217	14027
865.349	13925
865.48	13993
865.612	13936
865.743	14134
865.875	14001
866.006	13959
866.137	14001
866.269	13928
866.4	14016
866.531	13894
866.662	13944
866.793	13940
866.924	13879
867.055	13982
867.186	13997
867.317	13921
867.448	13868
867.579	13978
867.71	13856
867.841	13837
867.972	14046
868.103	13963
868.233	14005
868.364	13894
868.495	14138
868.625	14229
868.756	14332
868.886	14168
869.017	14233
869.147	14286
869.278	14343
869.408	14248
869.539	14206
869.669	14332
869.799	14271
869.929	14473
870.06	14275
870.19	14568
870.32	14393
870.45	14632
870.58	14541
870.71	14724
870.84	14720
870.97	14644
871.1	14689
871.23	14785
871.36	14815
871.489	14678
871.619	14796
871.749	14872
871.879	14849
872.008	14956
872.138	14804
872.267	14918
872.397	14716
872.526	14648
872.656	14651
872.785	14697
872.915	14826
873.044	14986
873.173	14895
873.303	14952
873.432	14914
873.561	14937
873.69	14838
873.819	14826
873.948	14887
874.077	14914
874.206	14842
874.335	14933
874.464	15074
874.593	15230
874.722	15070
874.851	15176
874.979	15199
875.108	15287
875.237	15131
875.365	15214
875.494	15123
875.623	15272
875.751	15226
875.88	15256
876.008	15424
876.136	15530
876.265	15545
876.393	15751
876.521	15641
876.65	15759
876.778	15568
876.906	15580
877.034	15511
877.162	15561
877.29	15420
877.418	15618
877.546	15644
877.674	15549
877.802	15660
877.93	15633
878.058	15618
878.185	15496
878.313	15572
878.441	15595
878.568	15469
878.696	15481
878.824	15663
878.951	15660
879.079	15838
879.206	15857
879.333	15747
879.461	15751
879.588	15816
879.715	15701
879.842	15934
879.97	15591
880.097	15454
880.224	15420
880.351	15416
880.478	15526
880.605	15439
880.732	15443
880.859	15698
880.986	15504
881.112	15500
881.239	15382
881.366	15283
881.493	15203
881.619	15085
881.746	15180
881.872	15097
881.999	15127
882.125	15100
882.252	15135
882.378	15100
882.505	15245
882.631	15154
882.757	14925
882.883	15058
883.01	14948
883.136	14956
883.262	14769
883.388	14754
883.514	14937
883.64	14941
883.766	14838
883.892	14773
884.018	14754
884.143	14906
884.269	14990
884.395	14674
884.52	14731
884.646	14678
884.772	14571
884.897	14560
885.023	14659
885.148	14804
885.274	14724
885.399	14731
885.524	14693
885.65	14701
885.775	14705
885.9	14705
886.025	14663
886.15	14720
886.275	14602
886.4	14632
886.525	14621
886.65	14640
886.775	14545
886.9	14701
887.025	14872
887.149	14651
887.274	14503
887.399	14541
887.523	14419
887.648	14446
887.773	14347
887.897	14488
888.021	14492
888.146	14514
888.27	14606
888.395	14571
888.519	14434
888.643	14545
888.767	14537
888.891	14408
889.015	14362
889.139	14415
889.263	14328
889.387	14469
889.511	14518
889.635	14446
889.759	14252
889.883	14370
890.006	14358
890.13	14511
890.254	14233
890.377	14313
890.501	14229
890.624	14111
890.748	14199
890.871	14001
890.995	14012
891.118	13959
891.241	14100
891.364	14020
891.488	14202
891.611	14020
891.734	14092
891.857	14119
891.98	14088
892.103	14069
892.226	14130
892.349	14058
892.471	13845
892.594	14039
892.717	13974
892.839	13970
892.962	14027
893.085	14069
893.207	14153
893.33	13978
893.452	13902
893.575	14161
893.697	13959
893.819	14214
893.941	14240
894.064	14161
894.186	14027
894.308	14103
894.43	14218
894.552	14172
894.674	14210
894.796	14054
894.918	14046
895.04	14103
895.161	14164
895.283	14199
895.405	14039
895.526	14115
895.648	14115
895.769	14195
895.891	14214
896.012	14324
896.134	14240
896.255	14244
896.376	14202
896.498	14145
896.619	14183
896.74	14191
896.861	14336
896.982	14579
897.103	14667
897.224	14629
897.345	14476
897.466	14343
897.587	14457
897.708	14674
897.828	14492
897.949	14431
898.07	14400
898.19	14522
898.311	14533
898.431	14457
898.552	14602
898.672	14617
898.792	14648
898.913	14583
899.033	14465
899.153	14450
899.273	14320
899.393	14404
899.513	14400
899.633	14374
899.753	14499
899.873	14366
899.993	14518
900.113	14332
900.232	14336
900.352	14427
900.472	14328
900.591	14339
900.711	14309
900.83	14237
900.95	14374
901.069	14275
901.189	14176
901.308	13993
901.427	14050
901.546	13860
901.665	13970
901.784	13967
901.904	13795
902.023	13742
902.141	13636
902.26	13639
902.379	13651
902.498	13525
902.617	13483
902.735	13571
902.854	13571
902.973	13403
903.091	13278
903.21	13259
903.328	13244
903.446	13122
903.565	13065
903.683	13042
903.801	12973
903.919	13107
904.038	13072
904.156	12920
904.274	12989
904.392	12993
904.51	12882
904.627	12886
904.745	12939
904.863	13004
904.981	12776
905.098	12582
905.216	12696
905.334	12684
905.451	12677
905.569	12559
905.686	12662
905.803	12566
905.921	12456
906.038	12566
906.155	12384
906.272	12346
906.389	12289
906.506	12254
906.623	12186
906.74	12220
906.857	12034
906.974	12057
907.091	12311
907.208	12323
907.324	12224
907.441	12155
907.557	12049
907.674	12003
907.79	11809
907.907	11882
908.023	11977
908.139	11999
908.256	11893
908.372	11809
908.488	11866
908.604	11722
908.72	11718
908.836	11665
908.952	11653
909.068	11756
909.184	11882
909.3	11737
909.415	11817
909.531	11707
909.647	11467
909.762	11482
909.878	11455
909.993	11535
910.108	11436
910.224	11463
910.339	11524
910.454	11376
910.57	11322
910.685	11326
910.8	11505
910.915	11471
911.03	11387
911.145	11143
911.259	11261
911.374	11121
911.489	11113
911.604	11113
911.718	10885
911.833	10873
911.947	10835
912.062	10812
912.176	11003
912.291	10908
912.405	10946
912.519	11216
912.633	11117
912.748	11010
912.862	11025
912.976	10805
913.09	10755
913.204	10831
913.318	10839
913.431	10934
913.545	10934
913.659	10911
913.772	10839
913.886	10740
914	10615
914.113	10755
914.226	10869
914.34	10801
914.453	10649
914.566	10733
914.68	10596
914.793	10596
914.906	10451
915.019	10424
915.132	10394
915.245	10493
915.358	10409
915.47	10535
915.583	10497
915.696	10462
915.809	10584
915.921	10565
916.034	10424
916.146	10413
916.259	10356
916.371	10413
916.483	10440
916.595	10371
916.708	10417
916.82	10371
916.932	10394
917.044	10360
917.156	10337
917.268	10284
917.38	10306
917.491	10329
917.603	10291
917.715	10436
917.826	10348
917.938	10314
918.049	10173
918.161	10356
918.272	10402
918.384	10363
918.495	10348
918.606	10196
918.717	10154
918.828	10188
918.939	10215
919.05	10040
919.161	10177
919.272	9945
919.383	10048
919.494	10120
919.604	10402
919.715	10246
919.826	10116
919.936	10150
920.047	10261
920.157	10097
920.267	10432
920.378	10223
920.488	10261
920.598	10394
920.708	10462
920.818	10325
920.928	10352
921.038	10584
921.148	10546
921.258	10207
921.368	10120
921.477	10032
921.587	9972
921.697	9937
921.806	9991
921.916	9949
922.025	9808
922.134	9747
922.244	9736
922.353	9747
922.462	9644
922.571	9633
922.68	9420
922.789	9420
922.898	9466
923.007	9351
923.116	9466
923.224	9313
923.333	9405
923.442	9275
923.55	9264
923.659	9336
923.767	9431
923.876	9298
923.984	9378
924.092	9264
924.201	9279
924.309	9367
924.417	9313
924.525	9211
924.633	9283
924.741	10025
924.849	9039
924.956	9173
925.064	9070
925.172	9058
925.279	9017
925.387	9192
925.494	9081
925.602	9214
925.709	9192
925.816	9024
925.924	9077
926.031	9097
926.138	9100
926.245	9169
926.352	8986
926.459	9199
926.566	9203
926.673	9062
926.779	8880
926.886	8963
926.993	8811
927.099	8807
927.206	8670
927.312	8712
927.419	8845
927.525	8815
927.631	8796
927.737	8735
927.843	8670
927.95	8625
928.056	8621
928.162	8655
928.267	8766
928.373	9374
928.479	8785
928.585	8632
928.69	8644
928.796	8705
928.901	8537
929.007	8552
929.112	8579
929.218	8518
929.323	8518
929.428	8552
929.533	8648
929.638	8488
929.743	8511
929.848	8602
929.953	8480
930.058	8351
930.163	8294
930.267	8282
930.372	8423
930.477	8256
930.581	8530
930.685	8400
930.79	8180
930.894	8199
930.998	8199
931.103	8370
931.207	8077
931.311	7997
931.415	7932
931.519	7750
931.623	7727
