Data from test_V78500241_1300.txt Node
Date: Fri Mar 25 14:42:46 CST 2022
User: usil
Spectrometer: V785-0024
Trigger mode: 0
Integration Time (sec): 4.000000E-1
Scans to average: 1
Nonlinearity correction enabled: false
Boxcar width: 0
Storing dark spectrum: false
XAxis mode: Wavelengths
Number of Pixels in Spectrum: 1024
>>>>>Begin Spectral Data<<<<<
801.071	22478
801.214	22360
801.356	21865
801.499	21903
801.641	21770
801.783	21686
801.926	21846
802.068	21648
802.211	21686
802.353	21530
802.496	21279
802.638	21188
802.78	21233
802.923	21161
803.065	20998
803.208	21154
803.35	21173
803.492	21180
803.635	21184
803.777	21089
803.919	21222
804.061	21542
804.204	21233
804.346	21104
804.488	20944
804.63	21013
804.773	21013
804.915	21017
805.057	21173
805.199	20910
805.341	21062
805.483	21116
805.626	21062
805.768	20967
805.91	21058
806.052	21005
806.194	20933
806.336	21108
806.478	21096
806.62	21039
806.762	21142
806.904	21344
807.046	21428
807.188	21340
807.33	21279
807.472	21435
807.614	21416
807.756	21443
807.898	21260
808.04	21165
808.182	21165
808.324	21245
808.465	21195
808.607	21462
808.749	21564
808.891	21603
809.033	21804
809.174	21663
809.316	21549
809.458	21614
809.6	21580
809.741	21485
809.883	21549
810.025	21690
810.166	21618
810.308	21553
810.45	21526
810.591	21435
810.733	21378
810.875	21321
811.016	21150
811.158	21100
811.299	21176
811.441	21378
811.582	21310
811.724	21116
811.865	21081
812.007	21180
812.148	21184
812.29	21203
812.431	21332
812.573	21557
812.714	21568
812.855	21629
812.997	21759
813.138	21842
813.279	21762
813.421	21720
813.562	21648
813.703	21340
813.845	21268
813.986	21089
814.127	20883
814.268	20891
814.41	20735
814.551	20796
814.692	20834
814.833	20686
814.974	20644
815.115	20727
815.256	20560
815.397	20667
815.539	20427
815.68	20465
815.821	20419
815.962	20598
816.103	20454
816.244	20374
816.385	20313
816.526	20168
816.666	20027
816.807	19894
816.948	20024
817.089	20024
817.23	19932
817.371	19917
817.512	19826
817.653	19871
817.793	19696
817.934	19890
818.075	19928
818.216	19883
818.356	19856
818.497	19689
818.638	19571
818.778	19525
818.919	19575
819.06	19658
819.2	19616
819.341	19753
819.481	19769
819.622	19860
819.762	20145
819.903	20020
820.043	19921
820.184	19879
820.324	19879
820.465	19864
820.605	19947
820.746	19719
820.886	19841
821.026	19818
821.167	19788
821.307	19951
821.447	19765
821.588	19693
821.728	19578
821.868	19411
822.008	19331
822.149	19278
822.289	19198
822.429	18970
822.569	18993
822.709	18916
822.849	18859
822.99	18776
823.13	18833
823.27	18658
823.41	18570
823.55	18513
823.69	18608
823.83	18620
823.97	18506
824.11	18243
824.25	18258
824.389	18311
824.529	18437
824.669	18285
824.809	18403
824.949	18471
825.089	18418
825.228	18388
825.368	18129
825.508	18273
825.648	18117
825.787	18174
825.927	18171
826.067	18148
826.206	18041
826.346	18167
826.485	18167
826.625	18216
826.765	18285
826.904	18209
827.044	17923
827.183	17859
827.323	17771
827.462	17980
827.601	17802
827.741	17878
827.88	17817
828.02	17737
828.159	17824
828.298	17813
828.437	17840
828.577	17794
828.716	17809
828.855	17847
828.994	17608
829.134	17668
829.273	17680
829.412	17532
829.551	17676
829.69	17570
829.829	17509
829.968	17710
830.107	17665
830.246	17676
830.385	17570
830.524	17509
830.663	17349
830.802	17311
830.941	17193
831.08	17140
831.219	17398
831.357	17322
831.496	17452
831.635	17204
831.774	17136
831.913	17166
832.051	16984
832.19	16892
832.329	17083
832.467	17006
832.606	16824
832.744	16854
832.883	16885
833.022	16873
833.16	16885
833.299	16968
833.437	16900
833.576	16987
833.714	16984
833.852	16919
833.991	16919
834.129	17033
834.267	17048
834.406	16835
834.544	16995
834.682	16889
834.821	16957
834.959	17079
835.097	16953
835.235	17117
835.373	17064
835.511	16946
835.65	16866
835.788	16881
835.926	16683
836.064	16626
836.202	16702
836.34	16835
836.478	16984
836.615	16873
836.753	16885
836.891	16930
837.029	16900
837.167	16831
837.305	16824
837.443	16740
837.58	16698
837.718	16725
837.856	16736
837.993	16713
838.131	16725
838.269	16634
838.406	16580
838.544	16634
838.681	16493
838.819	16436
838.956	16181
839.094	16295
839.231	16371
839.369	16325
839.506	16660
839.643	16558
839.781	16295
839.918	16219
840.055	16265
840.193	16318
840.33	16223
840.467	16196
840.604	16295
840.742	16519
840.879	16238
841.016	16154
841.153	16166
841.29	16371
841.427	16234
841.564	16363
841.701	16204
841.838	16249
841.975	16246
842.112	16166
842.249	16105
842.385	16013
842.522	16219
842.659	16063
842.796	15994
842.933	16017
843.069	15945
843.206	16032
843.343	16158
843.479	16048
843.616	16120
843.752	15922
843.889	15915
844.025	16071
844.162	15934
844.298	15987
844.435	15808
844.571	15835
844.708	15892
844.844	15964
844.98	16044
845.117	15975
845.253	15842
845.389	15751
845.525	15816
845.661	15895
845.798	15812
845.934	15857
846.07	15804
846.206	15895
846.342	15899
846.478	15827
846.614	15523
846.75	15435
846.886	15401
847.022	15568
847.158	15504
847.294	15458
847.429	15481
847.565	15405
847.701	15618
847.837	15188
847.972	15097
848.108	15199
848.244	15302
848.379	15005
848.515	15062
848.65	14956
848.786	15017
848.921	15047
849.057	15085
849.192	15070
849.328	15051
849.463	14975
849.598	14944
849.734	14944
849.869	14899
850.004	14868
850.14	14883
850.275	14735
850.41	14689
850.545	14739
850.68	14842
850.815	14819
850.95	14739
851.085	14952
851.22	14823
851.355	14887
851.49	14792
851.625	14746
851.76	14716
851.895	14663
852.03	14701
852.165	14769
852.299	14800
852.434	14872
852.569	14887
852.703	14842
852.838	14845
852.973	14842
853.107	14906
853.242	14804
853.376	14659
853.511	14503
853.645	14625
853.78	14777
853.914	14689
854.048	14484
854.183	14621
854.317	14708
854.451	14785
854.585	14708
854.72	14667
854.854	14724
854.988	14587
855.122	14678
855.256	14499
855.39	14579
855.524	14659
855.658	14663
855.792	14720
855.926	14636
856.06	14727
856.194	14834
856.327	14583
856.461	14606
856.595	14617
856.729	14602
856.862	14659
856.996	14769
857.13	14765
857.263	14815
857.397	14849
857.53	14602
857.664	14705
857.797	14667
857.931	14727
858.064	14667
858.197	14819
858.331	14659
858.464	14667
858.597	14469
858.731	14598
858.864	14621
858.997	14621
859.13	14693
859.263	14724
859.396	14735
859.529	14545
859.662	14667
859.795	14686
859.928	14682
860.061	14887
860.194	14792
860.327	14674
860.46	14663
860.592	14781
860.725	14769
860.858	14708
860.99	14648
861.123	14556
861.256	14598
861.388	14617
861.521	15298
861.653	14564
861.786	14339
861.918	14454
862.05	14590
862.183	14598
862.315	14552
862.447	14701
862.58	14617
862.712	14423
862.844	14393
862.976	14457
863.108	14507
863.24	14861
863.372	14377
863.504	14427
863.636	14446
863.768	14473
863.9	14370
864.032	14332
864.164	14374
864.296	14355
864.428	14537
864.559	14438
864.691	14541
864.823	14400
864.954	14454
865.086	14552
865.217	14385
865.349	14271
865.48	14457
865.612	14431
865.743	14541
865.875	14457
866.006	14408
866.137	14396
866.269	14446
866.4	14393
866.531	14252
866.662	14374
866.793	14336
866.924	14294
867.055	14347
867.186	14317
867.317	14381
867.448	14328
867.579	14305
867.71	14309
867.841	14317
867.972	14339
868.103	14389
868.233	14324
868.364	14396
868.495	14488
868.625	14541
868.756	14720
868.886	14594
869.017	14610
869.147	14769
869.278	14815
869.408	14678
869.539	14655
869.669	14739
869.799	14731
869.929	14769
870.06	14724
870.19	14944
870.32	14895
870.45	15005
870.58	15051
870.71	15176
870.84	15192
870.97	15070
871.1	14986
871.23	15233
871.36	15268
871.489	15089
871.619	15256
871.749	15199
871.879	15294
872.008	15416
872.138	15230
872.267	15252
872.397	15039
872.526	15017
872.656	15013
872.785	15100
872.915	15351
873.044	15389
873.173	15344
873.303	15264
873.432	15294
873.561	15340
873.69	15306
873.819	15298
873.948	15329
874.077	15329
874.206	15355
874.335	15363
874.464	15534
874.593	15606
874.722	15450
874.851	15701
874.979	15610
875.108	15622
875.237	15568
875.365	15500
875.494	15534
875.623	15701
875.751	15515
875.88	15675
876.008	15739
876.136	15755
876.265	16029
876.393	16101
876.521	16032
876.65	16093
876.778	15994
876.906	15979
877.034	15941
877.162	15979
877.29	16029
877.418	16032
877.546	16082
877.674	15941
877.802	15991
877.93	16101
878.058	15968
878.185	15850
878.313	15907
878.441	16090
878.568	15831
878.696	16051
878.824	16200
878.951	16112
879.079	16181
879.206	16390
879.333	16253
879.461	16185
879.588	16147
879.715	16211
879.842	16341
879.97	16242
880.097	15975
880.224	15876
880.351	15930
880.478	15937
880.605	15816
880.732	15823
880.859	16071
880.986	15903
881.112	15922
881.239	15728
881.366	15705
881.493	15576
881.619	15549
881.746	15469
881.872	15526
881.999	15439
882.125	15492
882.252	15614
882.378	15580
882.505	15701
882.631	15481
882.757	15313
882.883	15367
883.01	15321
883.136	15367
883.262	15180
883.388	15195
883.514	15313
883.64	15435
883.766	15245
883.892	15222
884.018	15154
884.143	15325
884.269	15488
884.395	15142
884.52	15017
884.646	15013
884.772	15024
884.897	14902
885.023	15127
885.148	15192
885.274	15195
885.399	15157
885.524	15104
885.65	15062
885.775	15013
885.9	15066
886.025	15127
886.15	15119
886.275	14960
886.4	14891
886.525	15005
886.65	14960
886.775	14876
886.9	15062
887.025	15241
887.149	15001
887.274	14979
887.399	14887
887.523	14716
887.648	14872
887.773	14792
887.897	14952
888.021	14944
888.146	14906
888.27	14941
888.395	14937
888.519	14838
888.643	14918
888.767	14925
888.891	14720
889.015	14716
889.139	14785
889.263	14670
889.387	14880
889.511	14956
889.635	14804
889.759	14617
889.883	14678
890.006	14670
890.13	14876
890.254	14701
890.377	14686
890.501	14541
890.624	14530
890.748	14537
890.871	14457
890.995	14343
891.118	14393
891.241	14381
891.364	14518
891.488	14587
891.611	14484
891.734	14400
891.857	14518
891.98	14396
892.103	14507
892.226	14347
892.349	14427
892.471	14278
892.594	14415
892.717	14412
892.839	14473
892.962	14427
893.085	14503
893.207	14400
893.33	14298
893.452	14240
893.575	14514
893.697	14385
893.819	14518
893.941	14708
894.064	14503
894.186	14358
894.308	14336
894.43	14511
894.552	14503
894.674	14503
894.796	14480
894.918	14465
895.04	14389
895.161	14610
895.283	14537
895.405	14434
895.526	14587
895.648	14480
895.769	14564
895.891	14629
896.012	14590
896.134	14587
896.255	14541
896.376	14571
896.498	14594
896.619	14606
896.74	14651
896.861	14606
896.982	14876
897.103	15024
897.224	14895
897.345	14902
897.466	14708
897.587	14815
897.708	14918
897.828	14925
897.949	14758
898.07	14739
898.19	14769
898.311	14941
898.431	14872
898.552	14963
898.672	15028
898.792	14937
898.913	14937
899.033	14857
899.153	14765
899.273	14625
899.393	14758
899.513	14720
899.633	14788
899.753	14826
899.873	14773
899.993	14819
900.113	14758
900.232	14785
900.352	14762
900.472	14670
900.591	14522
900.711	14632
900.83	14590
900.95	14727
901.069	14693
901.189	14560
901.308	14290
901.427	14278
901.546	14206
901.665	14294
901.784	14275
901.904	14210
902.023	14084
902.141	13917
902.26	13818
902.379	13974
902.498	13837
902.617	13879
902.735	13944
902.854	13784
902.973	13769
903.091	13620
903.21	13601
903.328	13594
903.446	13518
903.565	13487
903.683	13460
903.801	13278
903.919	13373
904.038	13403
904.156	13244
904.274	13278
904.392	13232
904.51	13244
904.627	13247
904.745	13251
904.863	13236
904.981	13190
905.098	12993
905.216	12989
905.334	12966
905.451	12890
905.569	12844
905.686	12966
905.803	12928
905.921	12779
906.038	12787
906.155	12730
906.272	12665
906.389	12715
906.506	12517
906.623	12570
906.74	12521
906.857	12388
906.974	12327
907.091	12608
907.208	12688
907.324	12506
907.441	12380
907.557	12353
907.674	12251
907.79	12197
907.907	12270
908.023	12292
908.139	12171
908.256	12186
908.372	12076
908.488	12190
908.604	11973
908.72	12007
908.836	12007
908.952	11927
909.068	12026
909.184	12110
909.3	11958
909.415	12030
909.531	12083
909.647	11805
909.762	11824
909.878	11779
909.993	11786
910.108	11802
910.224	11718
910.339	11802
910.454	11707
910.57	11691
910.685	11573
910.8	11843
910.915	11745
911.03	11585
911.145	11440
911.259	11452
911.374	11459
911.489	11387
911.604	11349
911.718	11223
911.833	11231
911.947	11170
912.062	11048
912.176	11128
912.291	11326
912.405	11288
912.519	11387
912.633	11440
912.748	11364
912.862	11254
912.976	11155
913.09	10934
913.204	10999
913.318	11181
913.431	11151
913.545	11201
913.659	11162
913.772	11090
913.886	10949
914	10949
914.113	11136
914.226	11094
914.34	11056
914.453	10942
914.566	11033
914.68	10946
914.793	10911
914.906	10763
915.019	10675
915.132	10649
915.245	10691
915.358	10782
915.47	10679
915.583	10733
915.696	10831
915.809	10858
915.921	10896
916.034	10702
916.146	10660
916.259	10675
916.371	10740
916.483	10698
916.595	10584
916.708	10603
916.82	10702
916.932	10721
917.044	10603
917.156	10660
917.268	10440
917.38	10550
917.491	10462
917.603	10489
917.715	10611
917.826	10599
917.938	10596
918.049	10485
918.161	10470
918.272	10691
918.384	10717
918.495	10481
918.606	10375
918.717	10352
918.828	10371
918.939	10443
919.05	10360
919.161	10440
919.272	10200
919.383	10261
919.494	10455
919.604	10618
919.715	10478
919.826	10318
919.936	10360
920.047	10558
920.157	10527
920.267	10599
920.378	10512
920.488	10443
920.598	10573
920.708	10782
920.818	10569
920.928	10603
921.038	10782
921.148	10729
921.258	10447
921.368	10352
921.477	10287
921.587	10272
921.697	10128
921.806	10257
921.916	10192
922.025	9945
922.134	9949
922.244	9934
922.353	9983
922.462	9907
922.571	9823
922.68	9614
922.789	9629
922.898	9625
923.007	9671
923.116	9701
923.224	9660
923.333	9701
923.442	9545
923.55	9526
923.659	9504
923.767	9663
923.876	9507
923.984	9614
924.092	9450
924.201	9576
924.309	9504
924.417	9625
924.525	9488
924.633	9454
924.741	10207
924.849	9306
924.956	9488
925.064	9351
925.172	9218
925.279	9256
925.387	9344
925.494	9329
925.602	9450
925.709	9405
925.816	9294
925.924	9294
926.031	9359
926.138	9294
926.245	9420
926.352	9230
926.459	9355
926.566	9393
926.673	9272
926.779	9142
926.886	9154
926.993	9043
927.099	8910
927.206	9009
927.312	8982
927.419	9127
927.525	9009
927.631	9047
927.737	8899
927.843	8918
927.95	8811
928.056	8849
928.162	8861
928.267	8864
928.373	9584
928.479	9001
928.585	8754
928.69	8853
928.796	8994
928.901	8826
929.007	8769
929.112	8788
929.218	8754
929.323	8785
929.428	8788
929.533	8796
929.638	8670
929.743	8693
929.848	8743
929.953	8678
930.058	8602
930.163	8438
930.267	8488
930.372	8651
930.477	8457
930.581	8667
930.685	8560
930.79	8396
930.894	8518
930.998	8438
931.103	8484
931.207	8256
931.311	8183
931.415	8111
931.519	7951
931.623	7974
