Data from test_V78500241_1510.txt Node
Date: Fri Mar 25 14:44:13 CST 2022
User: usil
Spectrometer: V785-0024
Trigger mode: 0
Integration Time (sec): 4.000000E-1
Scans to average: 1
Nonlinearity correction enabled: false
Boxcar width: 0
Storing dark spectrum: false
XAxis mode: Wavelengths
Number of Pixels in Spectrum: 1024
>>>>>Begin Spectral Data<<<<<
801.071	22500
801.214	22303
801.356	22021
801.499	21991
801.641	21915
801.783	21739
801.926	21808
802.068	21633
802.211	21720
802.353	21599
802.496	21283
802.638	21302
802.78	21302
802.923	21123
803.065	21081
803.208	21127
803.35	21165
803.492	21192
803.635	21302
803.777	21104
803.919	21150
804.061	21344
804.204	21275
804.346	20941
804.488	21108
804.63	21074
804.773	20952
804.915	21108
805.057	21058
805.199	21066
805.341	21157
805.483	21188
805.626	21085
805.768	21093
805.91	21005
806.052	20929
806.194	20979
806.336	21161
806.478	21146
806.62	21005
806.762	21173
806.904	21180
807.046	21519
807.188	21386
807.33	21355
807.472	21530
807.614	21447
807.756	21424
807.898	21241
808.04	21207
808.182	21138
808.324	21222
808.465	21211
808.607	21329
808.749	21625
808.891	21770
809.033	21682
809.174	21724
809.316	21515
809.458	21496
809.6	21397
809.741	21526
809.883	21507
810.025	21652
810.166	21705
810.308	21549
810.45	21557
810.591	21405
810.733	21287
810.875	21317
811.016	21207
811.158	21214
811.299	21169
811.441	21195
811.582	21256
811.724	21135
811.865	21123
812.007	21154
812.148	21108
812.29	21188
812.431	21561
812.573	21641
812.714	21641
812.855	21808
812.997	21751
813.138	21953
813.279	21937
813.421	21819
813.562	21576
813.703	21416
813.845	21332
813.986	21131
814.127	20960
814.268	20819
814.41	20864
814.551	20716
814.692	20967
814.833	20621
814.974	20731
815.115	20796
815.256	20549
815.397	20648
815.539	20613
815.68	20370
815.821	20537
815.962	20568
816.103	20457
816.244	20313
816.385	20259
816.526	20275
816.666	19936
816.807	19894
816.948	19963
817.089	20031
817.23	19997
817.371	19936
817.512	20054
817.653	19830
817.793	19811
817.934	19753
818.075	19887
818.216	19856
818.356	19746
818.497	19643
818.638	19567
818.778	19613
818.919	19670
819.06	19620
819.2	19757
819.341	19696
819.481	19700
819.622	19928
819.762	20035
819.903	19982
820.043	19902
820.184	19860
820.324	19837
820.465	19928
820.605	19940
820.746	19921
820.886	19643
821.026	19818
821.167	19795
821.307	19898
821.447	19769
821.588	19715
821.728	19635
821.868	19316
822.008	19266
822.149	19312
822.289	19266
822.429	19012
822.569	18856
822.709	18935
822.849	18760
822.99	18772
823.13	18726
823.27	18612
823.41	18646
823.55	18528
823.69	18616
823.83	18536
823.97	18532
824.11	18350
824.25	18460
824.389	18403
824.529	18433
824.669	18319
824.809	18479
824.949	18445
825.089	18384
825.228	18384
825.368	18239
825.508	18163
825.648	18087
825.787	18254
825.927	18167
826.067	18247
826.206	18194
826.346	18148
826.485	18239
826.625	18098
826.765	18270
826.904	18125
827.044	17958
827.183	17901
827.323	17836
827.462	17950
827.601	17813
827.741	17779
827.88	17874
828.02	17779
828.159	17729
828.298	17756
828.437	17912
828.577	17741
828.716	18041
828.855	17824
828.994	17653
829.134	17585
829.273	17596
829.412	17520
829.551	17558
829.69	17615
829.829	17554
829.968	17779
830.107	17604
830.246	17604
830.385	17547
830.524	17516
830.663	17425
830.802	17280
830.941	17181
831.08	17151
831.219	17246
831.357	17250
831.496	17372
831.635	17151
831.774	17105
831.913	17048
832.051	17025
832.19	16934
832.329	17067
832.467	16934
832.606	16801
832.744	16900
832.883	16812
833.022	16748
833.16	16927
833.299	16961
833.437	16919
833.576	16965
833.714	16949
833.852	16824
833.991	16900
834.129	17052
834.267	17075
834.406	16984
834.544	16972
834.682	16965
834.821	16995
834.959	17086
835.097	16889
835.235	16999
835.373	16934
835.511	16999
835.65	16816
835.788	16824
835.926	16717
836.064	16637
836.202	16706
836.34	16801
836.478	16946
836.615	16820
836.753	16816
836.891	16915
837.029	16862
837.167	16725
837.305	16698
837.443	16683
837.58	16702
837.718	16816
837.856	16679
837.993	16626
838.131	16668
838.269	16626
838.406	16664
838.544	16569
838.681	16405
838.819	16390
838.956	16188
839.094	16249
839.231	16246
839.369	16337
839.506	16668
839.643	16497
839.781	16295
839.918	16147
840.055	16242
840.193	16299
840.33	16147
840.467	16192
840.604	16211
840.742	16459
840.879	16131
841.016	16150
841.153	16051
841.29	16306
841.427	16246
841.564	16341
841.701	16181
841.838	16166
841.975	16147
842.112	16143
842.249	15949
842.385	15953
842.522	16177
842.659	15987
842.796	15953
842.933	16013
843.069	15937
843.206	15975
843.343	16063
843.479	16055
843.616	15968
843.752	15808
843.889	15789
844.025	15949
844.162	15793
844.298	15903
844.435	15781
844.571	15804
844.708	15808
844.844	15899
844.98	15899
845.117	15846
845.253	15831
845.389	15759
845.525	15762
845.661	15686
845.798	15728
845.934	15827
846.07	15857
846.206	15835
846.342	15930
846.478	15785
846.614	15507
846.75	15397
846.886	15348
847.022	15439
847.158	15408
847.294	15408
847.429	15294
847.565	15294
847.701	15526
847.837	15138
847.972	15116
848.108	15131
848.244	15108
848.379	15009
848.515	15020
848.65	15024
848.786	14899
848.921	14998
849.057	15036
849.192	15028
849.328	14994
849.463	15017
849.598	14948
849.734	14887
849.869	14781
850.004	14872
850.14	14727
850.275	14811
850.41	14625
850.545	14613
850.68	14712
850.815	14792
850.95	14693
851.085	14868
851.22	14910
851.355	14777
851.49	14667
851.625	14636
851.76	14678
851.895	14613
852.03	14568
852.165	14670
852.299	14819
852.434	14800
852.569	14785
852.703	14731
852.838	14804
852.973	14823
853.107	14830
853.242	14720
853.376	14575
853.511	14484
853.645	14594
853.78	14777
853.914	14613
854.048	14568
854.183	14632
854.317	14560
854.451	14705
854.585	14556
854.72	14514
854.854	14686
854.988	14552
855.122	14598
855.256	14465
855.39	14499
855.524	14625
855.658	14575
855.792	14640
855.926	14590
856.06	14648
856.194	14613
856.327	14560
856.461	14507
856.595	14480
856.729	14549
856.862	14727
856.996	14602
857.13	14651
857.263	14693
857.397	14800
857.53	14579
857.664	14705
857.797	14617
857.931	14712
858.064	14651
858.197	14769
858.331	14621
858.464	14549
858.597	14461
858.731	14476
858.864	14587
858.997	14590
859.13	14621
859.263	14564
859.396	14644
859.529	14556
859.662	14446
859.795	14610
859.928	14617
860.061	14724
860.194	14796
860.327	14598
860.46	14587
860.592	14800
860.725	14705
860.858	14648
860.99	14514
861.123	14533
861.256	14507
861.388	14613
861.521	15154
861.653	14541
861.786	14412
861.918	14476
862.05	14537
862.183	14552
862.315	14568
862.447	14629
862.58	14575
862.712	14339
862.844	14229
862.976	14419
863.108	14366
863.24	14712
863.372	14385
863.504	14351
863.636	14366
863.768	14351
863.9	14370
864.032	14256
864.164	14358
864.296	14427
864.428	14419
864.559	14499
864.691	14446
864.823	14473
864.954	14389
865.086	14317
865.217	14298
865.349	14244
865.48	14309
865.612	14313
865.743	14469
865.875	14358
866.006	14301
866.137	14336
866.269	14358
866.4	14286
866.531	14271
866.662	14237
866.793	14229
866.924	14366
867.055	14286
867.186	14313
867.317	14351
867.448	14210
867.579	14252
867.71	14313
867.841	14199
867.972	14332
868.103	14305
868.233	14317
868.364	14355
868.495	14457
868.625	14545
868.756	14693
868.886	14469
869.017	14579
869.147	14731
869.278	14594
869.408	14648
869.539	14575
869.669	14708
869.799	14594
869.929	14708
870.06	14693
870.19	14823
870.32	14868
870.45	14864
870.58	14921
870.71	15104
870.84	15066
870.97	14967
871.1	14921
871.23	15161
871.36	15195
871.489	15051
871.619	15024
871.749	15180
871.879	15173
872.008	15222
872.138	15260
872.267	15131
872.397	15058
872.526	14994
872.656	15112
872.785	15039
872.915	15195
873.044	15260
873.173	15176
873.303	15218
873.432	15237
873.561	15298
873.69	15218
873.819	15230
873.948	15214
874.077	15245
874.206	15233
874.335	15195
874.464	15393
874.593	15530
874.722	15477
874.851	15504
874.979	15542
875.108	15549
875.237	15530
875.365	15389
875.494	15504
875.623	15526
875.751	15622
875.88	15507
876.008	15709
876.136	15778
876.265	15964
876.393	16040
876.521	16029
876.65	16036
876.778	15899
876.906	15998
877.034	15698
877.162	15945
877.29	15953
877.418	15808
877.546	15888
877.674	15918
877.802	15899
877.93	15915
878.058	15934
878.185	15911
878.313	15953
878.441	15953
878.568	15793
878.696	15937
878.824	16082
878.951	16040
879.079	16150
879.206	16348
879.333	16166
879.461	16071
879.588	16223
879.715	16287
879.842	16226
879.97	16112
880.097	15778
880.224	15762
880.351	15827
880.478	15876
880.605	15812
880.732	15800
880.859	16021
880.986	15827
881.112	15819
881.239	15743
881.366	15625
881.493	15530
881.619	15488
881.746	15507
881.872	15530
881.999	15420
882.125	15469
882.252	15523
882.378	15492
882.505	15492
882.631	15519
882.757	15287
882.883	15450
883.01	15363
883.136	15310
883.262	15188
883.388	15047
883.514	15241
883.64	15397
883.766	15157
883.892	15070
884.018	15108
884.143	15264
884.269	15397
884.395	14971
884.52	14979
884.646	15020
884.772	14861
884.897	14868
885.023	14971
885.148	14982
885.274	15165
885.399	15097
885.524	14986
885.65	14979
885.775	15036
885.9	14887
886.025	15108
886.15	14979
886.275	14910
886.4	14864
886.525	14990
886.65	14883
886.775	14902
886.9	15157
887.025	15169
887.149	15017
887.274	14849
887.399	14819
887.523	14739
887.648	14777
887.773	14735
887.897	14830
888.021	14861
888.146	14720
888.27	14876
888.395	14933
888.519	14921
888.643	14838
888.767	14872
888.891	14701
889.015	14552
889.139	14651
889.263	14644
889.387	14792
889.511	14895
889.635	14792
889.759	14606
889.883	14606
890.006	14689
890.13	14689
890.254	14564
890.377	14621
890.501	14438
890.624	14465
890.748	14552
890.871	14393
890.995	14275
891.118	14263
891.241	14370
891.364	14412
891.488	14514
891.611	14362
891.734	14408
891.857	14412
891.98	14396
892.103	14400
892.226	14374
892.349	14286
892.471	14221
892.594	14267
892.717	14305
892.839	14343
892.962	14438
893.085	14336
893.207	14400
893.33	14233
893.452	14229
893.575	14412
893.697	14240
893.819	14465
893.941	14511
894.064	14457
894.186	14183
894.308	14328
894.43	14362
894.552	14560
894.674	14412
894.796	14324
894.918	14370
895.04	14370
895.161	14465
895.283	14492
895.405	14313
895.526	14317
895.648	14423
895.769	14473
895.891	14476
896.012	14530
896.134	14610
896.255	14575
896.376	14495
896.498	14374
896.619	14457
896.74	14507
896.861	14689
896.982	14773
897.103	14990
897.224	14834
897.345	14788
897.466	14708
897.587	14708
897.708	14948
897.828	14819
897.949	14670
898.07	14602
898.19	14743
898.311	14857
898.431	14819
898.552	14788
898.672	14868
898.792	14933
898.913	14910
899.033	14804
899.153	14773
899.273	14621
899.393	14731
899.513	14693
899.633	14724
899.753	14868
899.873	14670
899.993	14667
900.113	14629
900.232	14697
900.352	14735
900.472	14571
900.591	14598
900.711	14590
900.83	14404
900.95	14693
901.069	14640
901.189	14590
901.308	14385
901.427	14256
901.546	14229
901.665	14313
901.784	14309
901.904	14062
902.023	14046
902.141	13871
902.26	13818
902.379	13879
902.498	13875
902.617	13753
902.735	13902
902.854	13814
902.973	13818
903.091	13514
903.21	13529
903.328	13502
903.446	13518
903.565	13369
903.683	13346
903.801	13324
903.919	13324
904.038	13407
904.156	13065
904.274	13297
904.392	13187
904.51	13175
904.627	13080
904.745	13228
904.863	13270
904.981	13004
905.098	12859
905.216	12844
905.334	12928
905.451	12844
905.569	12810
905.686	12897
905.803	12875
905.921	12741
906.038	12726
906.155	12696
906.272	12631
906.389	12555
906.506	12429
906.623	12441
906.74	12448
906.857	12361
906.974	12357
907.091	12525
907.208	12612
907.324	12445
907.441	12388
907.557	12296
907.674	12083
907.79	12102
907.907	12152
908.023	12216
908.139	12171
908.256	12186
908.372	12178
908.488	12076
908.604	11973
908.72	11935
908.836	11958
908.952	11908
909.068	11920
909.184	12003
909.3	12007
909.415	11916
909.531	11969
909.647	11741
909.762	11764
909.878	11634
909.993	11805
910.108	11714
910.224	11699
910.339	11714
910.454	11608
910.57	11562
910.685	11467
910.8	11813
910.915	11779
911.03	11566
911.145	11372
911.259	11455
911.374	11383
911.489	11356
911.604	11315
911.718	11181
911.833	11204
911.947	11090
912.062	11098
912.176	11178
912.291	11235
912.405	11140
912.519	11353
912.633	11280
912.748	11178
912.862	11197
912.976	11029
913.09	10946
913.204	10965
913.318	11113
913.431	11151
913.545	11056
913.659	11132
913.772	11029
913.886	11006
914	10972
914.113	10972
914.226	10965
914.34	10961
914.453	10847
914.566	10972
914.68	10889
914.793	10790
914.906	10645
915.019	10660
915.132	10561
915.245	10626
915.358	10683
915.47	10675
915.583	10694
915.696	10767
915.809	10831
915.921	10812
916.034	10702
916.146	10558
916.259	10599
916.371	10729
916.483	10725
916.595	10596
916.708	10577
916.82	10660
916.932	10573
917.044	10527
917.156	10588
917.268	10455
917.38	10535
917.491	10527
917.603	10516
917.715	10554
917.826	10630
917.938	10493
918.049	10382
918.161	10489
918.272	10561
918.384	10653
918.495	10519
918.606	10363
918.717	10257
918.828	10318
918.939	10398
919.05	10314
919.161	10318
919.272	10150
919.383	10215
919.494	10516
919.604	10626
919.715	10360
919.826	10265
919.936	10329
920.047	10428
920.157	10371
920.267	10554
920.378	10322
920.488	10348
920.598	10611
920.708	10744
920.818	10565
920.928	10580
921.038	10683
921.148	10645
921.258	10421
921.368	10348
921.477	10272
921.587	10207
921.697	10078
921.806	10219
921.916	10086
922.025	9983
922.134	9903
922.244	9899
922.353	9972
922.462	9850
922.571	9759
922.68	9663
922.789	9614
922.898	9648
923.007	9534
923.116	9679
923.224	9625
923.333	9663
923.442	9530
923.55	9561
923.659	9473
923.767	9538
923.876	9500
923.984	9568
924.092	9454
924.201	9450
924.309	9408
924.417	9504
924.525	9447
924.633	9435
924.741	10382
924.849	9199
924.956	9393
925.064	9253
925.172	9272
925.279	9199
925.387	9279
925.494	9336
925.602	9420
925.709	9336
925.816	9287
925.924	9237
926.031	9332
926.138	9275
926.245	9336
926.352	9192
926.459	9325
926.566	9298
926.673	9184
926.779	9104
926.886	9135
926.993	8986
927.099	8944
927.206	8895
927.312	8941
927.419	9020
927.525	8948
927.631	9074
927.737	8982
927.843	8883
927.95	8689
928.056	8838
928.162	8823
928.267	8906
928.373	9420
928.479	8899
928.585	8746
928.69	8815
928.796	8994
928.901	8754
929.007	8610
929.112	8811
929.218	8762
929.323	8739
929.428	8686
929.533	8891
929.638	8640
929.743	8689
929.848	8788
929.953	8674
930.058	8571
930.163	8476
930.267	8484
930.372	8636
930.477	8393
930.581	8594
930.685	8522
930.79	8385
930.894	8423
930.998	8415
931.103	8587
931.207	8164
931.311	8138
931.415	8046
931.519	7951
931.623	7913
