Data from test_V78500241_3465.txt Node
Date: Fri Mar 25 14:57:50 CST 2022
User: usil
Spectrometer: V785-0024
Trigger mode: 0
Integration Time (sec): 4.000000E-1
Scans to average: 1
Nonlinearity correction enabled: false
Boxcar width: 0
Storing dark spectrum: false
XAxis mode: Wavelengths
Number of Pixels in Spectrum: 1024
>>>>>Begin Spectral Data<<<<<
801.071	21941
801.214	21873
801.356	21511
801.499	21477
801.641	21302
801.783	21252
801.926	21302
802.068	21355
802.211	21085
802.353	21074
802.496	20792
802.638	20944
802.78	20769
802.923	20533
803.065	20492
803.208	20579
803.35	20594
803.492	20640
803.635	20773
803.777	20674
803.919	20659
804.061	20998
804.204	20697
804.346	20583
804.488	20541
804.63	20507
804.773	20530
804.915	20564
805.057	20461
805.199	20358
805.341	20518
805.483	20640
805.626	20431
805.768	20503
805.91	20522
806.052	20511
806.194	20480
806.336	20613
806.478	20560
806.62	20412
806.762	20549
806.904	20769
807.046	20826
807.188	20815
807.33	20910
807.472	20739
807.614	20754
807.756	20701
807.898	20636
808.04	20545
808.182	20530
808.324	20545
808.465	20492
808.607	20724
808.749	20857
808.891	20902
809.033	20910
809.174	20963
809.316	20781
809.458	20872
809.6	20739
809.741	20792
809.883	20849
810.025	20895
810.166	21005
810.308	20952
810.45	21020
810.591	20937
810.733	20708
810.875	20693
811.016	20495
811.158	20427
811.299	20629
811.441	20697
811.582	20682
811.724	20575
811.865	20568
812.007	20522
812.148	20617
812.29	20663
812.431	20758
812.573	20952
812.714	21051
812.855	21089
812.997	21096
813.138	21393
813.279	21287
813.421	20979
813.562	21100
813.703	20857
813.845	20708
813.986	20442
814.127	20263
814.268	20183
814.41	20199
814.551	20107
814.692	20206
814.833	20183
814.974	20100
815.115	20084
815.256	20005
815.397	19925
815.539	20062
815.68	19875
815.821	19868
815.962	19814
816.103	19883
816.244	19651
816.385	19780
816.526	19563
816.666	19445
816.807	19381
816.948	19381
817.089	19362
817.23	19324
817.371	19240
817.512	19266
817.653	19266
817.793	19244
817.934	19240
818.075	19335
818.216	19327
818.356	19232
818.497	19065
818.638	18882
818.778	18939
818.919	18882
819.06	19015
819.2	19168
819.341	19175
819.481	19213
819.622	19335
819.762	19506
819.903	19502
820.043	19343
820.184	19190
820.324	19244
820.465	19384
820.605	19282
820.746	19236
820.886	18996
821.026	19202
821.167	19183
821.307	19331
821.447	19247
821.588	19099
821.728	18947
821.868	18814
822.008	18646
822.149	18703
822.289	18703
822.429	18536
822.569	18285
822.709	18460
822.849	18213
822.99	18102
823.13	18114
823.27	18053
823.41	17851
823.55	17931
823.69	18064
823.83	18034
823.97	17927
824.11	17676
824.25	17741
824.389	17813
824.529	17767
824.669	17729
824.809	17866
824.949	17802
825.089	17737
825.228	17668
825.368	17570
825.508	17585
825.648	17623
825.787	17691
825.927	17570
826.067	17315
826.206	17512
826.346	17509
826.485	17520
826.625	17474
826.765	17714
826.904	17509
827.044	17334
827.183	17425
827.323	17109
827.462	17349
827.601	17250
827.741	17280
827.88	17330
828.02	17147
828.159	17258
828.298	17223
828.437	17395
828.577	17155
828.716	17277
828.855	17132
828.994	17006
829.134	17105
829.273	17003
829.412	17056
829.551	17025
829.69	16946
829.829	17025
829.968	17181
830.107	17071
830.246	17109
830.385	16968
830.524	16862
830.663	16847
830.802	16687
830.941	16706
831.08	16550
831.219	16744
831.357	16706
831.496	16866
831.635	16592
831.774	16508
831.913	16512
832.051	16478
832.19	16329
832.329	16512
832.467	16303
832.606	16310
832.744	16310
832.883	16310
833.022	16367
833.16	16421
833.299	16375
833.437	16424
833.576	16481
833.714	16356
833.852	16436
833.991	16470
834.129	16535
834.267	16550
834.406	16402
834.544	16451
834.682	16421
834.821	16413
834.959	16607
835.097	16356
835.235	16500
835.373	16375
835.511	16508
835.65	16303
835.788	16238
835.926	16215
836.064	16071
836.202	16124
836.34	16398
836.478	16405
836.615	16310
836.753	16303
836.891	16382
837.029	16402
837.167	16230
837.305	16344
837.443	16265
837.58	16226
837.718	16284
837.856	16226
837.993	16162
838.131	16299
838.269	16074
838.406	16112
838.544	16226
838.681	15918
838.819	15842
838.956	15698
839.094	15770
839.231	15774
839.369	15827
839.506	16109
839.643	16029
839.781	15831
839.918	15701
840.055	15694
840.193	15762
840.33	15587
840.467	15679
840.604	15701
840.742	16044
840.879	15690
841.016	15667
841.153	15682
841.29	15907
841.427	15720
841.564	15778
841.701	15876
841.838	15762
841.975	15656
842.112	15663
842.249	15614
842.385	15542
842.522	15755
842.659	15580
842.796	15485
842.933	15542
843.069	15564
843.206	15652
843.343	15580
843.479	15564
843.616	15530
843.752	15294
843.889	15367
844.025	15477
844.162	15298
844.298	15477
844.435	15294
844.571	15249
844.708	15340
844.844	15473
844.98	15443
845.117	15401
845.253	15161
845.389	15188
845.525	15237
845.661	15252
845.798	15195
845.934	15173
846.07	15001
846.206	15180
846.342	15222
846.478	15089
846.614	14960
846.75	14986
846.886	14899
847.022	14998
847.158	14929
847.294	14868
847.429	14895
847.565	14834
847.701	15108
847.837	14644
847.972	14583
848.108	14788
848.244	14758
848.379	14530
848.515	14560
848.65	14465
848.786	14541
848.921	14549
849.057	14632
849.192	14560
849.328	14537
849.463	14480
849.598	14503
849.734	14408
849.869	14366
850.004	14343
850.14	14263
850.275	14263
850.41	14164
850.545	14145
850.68	14183
850.815	14248
850.95	14317
851.085	14514
851.22	14305
851.355	14377
851.49	14206
851.625	14240
851.76	14248
851.895	14214
852.03	14214
852.165	14115
852.299	14221
852.434	14351
852.569	14324
852.703	14309
852.838	14396
852.973	14476
853.107	14393
853.242	14282
853.376	14138
853.511	14092
853.645	14062
853.78	14183
853.914	14100
854.048	14176
854.183	14107
854.317	14153
854.451	14180
854.585	14134
854.72	14126
854.854	14248
854.988	14043
855.122	14062
855.256	13989
855.39	14062
855.524	14252
855.658	14248
855.792	14206
855.926	14183
856.06	14142
856.194	14282
856.327	14168
856.461	14103
856.595	14084
856.729	14092
856.862	14210
856.996	14149
857.13	14161
857.263	14244
857.397	14210
857.53	14176
857.664	14168
857.797	14252
857.931	14214
858.064	14206
858.197	14221
858.331	14111
858.464	14172
858.597	13970
858.731	14100
858.864	14229
858.997	14115
859.13	14149
859.263	14161
859.396	14214
859.529	14126
859.662	14107
859.795	14138
859.928	14107
860.061	14305
860.194	14328
860.327	14107
860.46	14240
860.592	14218
860.725	14271
860.858	14271
860.99	14062
861.123	14043
861.256	14016
861.388	14138
861.521	14781
861.653	14115
861.786	13997
861.918	14062
862.05	14050
862.183	14164
862.315	14046
862.447	14168
862.58	14153
862.712	13997
862.844	13795
862.976	14035
863.108	13947
863.24	14556
863.372	13875
863.504	13936
863.636	13970
863.768	14031
863.9	13951
864.032	13879
864.164	13970
864.296	13890
864.428	14039
864.559	14020
864.691	14043
864.823	14062
864.954	13944
865.086	13955
865.217	13902
865.349	13795
865.48	13852
865.612	13967
865.743	14035
865.875	13974
866.006	13841
866.137	13947
866.269	13928
866.4	13936
866.531	13894
866.662	13826
866.793	13830
866.924	13723
867.055	13868
867.186	13982
867.317	13799
867.448	13879
867.579	13795
867.71	13883
867.841	13845
867.972	13879
868.103	13841
868.233	13906
868.364	13944
868.495	14043
868.625	14111
868.756	14191
868.886	14100
869.017	14267
869.147	14202
869.278	14290
869.408	14039
869.539	14210
869.669	14229
869.799	14195
869.929	14351
870.06	14286
870.19	14499
870.32	14522
870.45	14530
870.58	14476
870.71	14651
870.84	14686
870.97	14606
871.1	14488
871.23	14663
871.36	14674
871.489	14705
871.619	14834
871.749	14777
871.879	14746
872.008	14899
872.138	14826
872.267	14762
872.397	14583
872.526	14602
872.656	14533
872.785	14613
872.915	14807
873.044	14941
873.173	14811
873.303	14872
873.432	14826
873.561	14941
873.69	14857
873.819	14796
873.948	14868
874.077	14807
874.206	14849
874.335	14807
874.464	14960
874.593	15047
874.722	15036
874.851	15138
874.979	15119
875.108	15123
875.237	15100
875.365	15100
875.494	15192
875.623	15154
875.751	15081
875.88	15127
876.008	15279
876.136	15344
876.265	15629
876.393	15671
876.521	15625
876.65	15728
876.778	15519
876.906	15538
877.034	15584
877.162	15572
877.29	15500
877.418	15610
877.546	15534
877.674	15496
877.802	15553
877.93	15454
878.058	15469
878.185	15408
878.313	15538
878.441	15542
878.568	15325
878.696	15382
878.824	15549
878.951	15660
879.079	15694
879.206	15873
879.333	15743
879.461	15568
879.588	15584
879.715	15641
879.842	15869
879.97	15606
880.097	15336
880.224	15351
880.351	15408
880.478	15382
880.605	15370
880.732	15454
880.859	15709
880.986	15466
881.112	15496
881.239	15249
881.366	15161
881.493	15131
881.619	15005
881.746	15032
881.872	15081
881.999	14986
882.125	14960
882.252	15131
882.378	15138
882.505	15180
882.631	15020
882.757	14804
882.883	14941
883.01	14933
883.136	14872
883.262	14750
883.388	14663
883.514	14899
883.64	14967
883.766	14918
883.892	14667
884.018	14705
884.143	14823
884.269	14937
884.395	14590
884.52	14465
884.646	14579
884.772	14590
884.897	14514
885.023	14651
885.148	14636
885.274	14796
885.399	14712
885.524	14568
885.65	14587
885.775	14564
885.9	14629
886.025	14739
886.15	14590
886.275	14526
886.4	14507
886.525	14545
886.65	14469
886.775	14484
886.9	14720
887.025	14826
887.149	14651
887.274	14412
887.399	14355
887.523	14427
887.648	14305
887.773	14317
887.897	14454
888.021	14556
888.146	14408
888.27	14511
888.395	14511
888.519	14507
888.643	14419
888.767	14457
888.891	14259
889.015	14317
889.139	14347
889.263	14187
889.387	14286
889.511	14537
889.635	14434
889.759	14248
889.883	14294
890.006	14271
890.13	14358
890.254	14237
890.377	14237
890.501	14084
890.624	14092
890.748	14054
890.871	14005
890.995	14005
891.118	13921
891.241	13906
891.364	14005
891.488	14027
891.611	13989
891.734	13917
891.857	13963
891.98	14012
892.103	14054
892.226	13925
892.349	13932
892.471	13811
892.594	13928
892.717	13970
892.839	13921
892.962	14077
893.085	14027
893.207	14024
893.33	13807
893.452	13898
893.575	14069
893.697	13978
893.819	14164
893.941	14134
894.064	14237
894.186	13967
894.308	13925
894.43	14172
894.552	14161
894.674	14138
894.796	14012
894.918	14100
895.04	14054
895.161	14149
895.283	14134
895.405	14054
895.526	14050
895.648	14069
895.769	14092
895.891	14145
896.012	14267
896.134	14126
896.255	14221
896.376	14153
896.498	14142
896.619	14100
896.74	14081
896.861	14339
896.982	14495
897.103	14590
897.224	14454
897.345	14412
897.466	14339
897.587	14400
897.708	14613
897.828	14412
897.949	14275
898.07	14385
898.19	14362
898.311	14594
898.431	14431
898.552	14476
898.672	14587
898.792	14530
898.913	14594
899.033	14499
899.153	14366
899.273	14256
899.393	14324
899.513	14408
899.633	14286
899.753	14332
899.873	14385
899.993	14518
900.113	14351
900.232	14320
900.352	14336
900.472	14145
900.591	14119
900.711	14180
900.83	14252
900.95	14305
901.069	14225
901.189	14115
901.308	13928
901.427	13784
901.546	13909
901.665	13928
901.784	13955
901.904	13799
902.023	13655
902.141	13559
902.26	13518
902.379	13491
902.498	13441
902.617	13396
902.735	13502
902.854	13468
902.973	13430
903.091	13202
903.21	13152
903.328	13175
903.446	13145
903.565	13057
903.683	13004
903.801	12989
903.919	12993
904.038	13053
904.156	12829
904.274	12932
904.392	12935
904.51	12814
904.627	12913
904.745	12878
904.863	12973
904.981	12635
905.098	12509
905.216	12547
905.334	12544
905.451	12517
905.569	12448
905.686	12662
905.803	12620
905.921	12422
906.038	12490
906.155	12395
906.272	12285
906.389	12304
906.506	12136
906.623	12117
906.74	12114
906.857	12015
906.974	11988
907.091	12289
907.208	12311
907.324	12182
907.441	12117
907.557	11958
907.674	11908
907.79	11847
907.907	11908
908.023	11889
908.139	11897
908.256	11859
908.372	11760
908.488	11885
908.604	11703
908.72	11714
908.836	11661
908.952	11691
909.068	11649
909.184	11733
909.3	11646
909.415	11684
909.531	11707
909.647	11376
909.762	11398
909.878	11417
909.993	11436
910.108	11391
910.224	11356
910.339	11417
910.454	11296
910.57	11239
910.685	11227
910.8	11421
910.915	11425
911.03	11277
911.145	11242
911.259	11140
911.374	11155
911.489	11083
911.604	10942
911.718	10900
911.833	10835
911.947	10755
912.062	10790
912.176	10908
912.291	10885
912.405	10850
912.519	11022
912.633	11098
912.748	10919
912.862	10923
912.976	10820
913.09	10721
913.204	10725
913.318	10786
913.431	10877
913.545	10782
913.659	10824
913.772	10793
913.886	10660
914	10561
914.113	10828
914.226	10797
914.34	10733
914.453	10489
914.566	10691
914.68	10577
914.793	10538
914.906	10447
915.019	10352
915.132	10341
915.245	10348
915.358	10432
915.47	10363
915.583	10379
915.696	10443
915.809	10569
915.921	10588
916.034	10398
916.146	10405
916.259	10268
916.371	10470
916.483	10421
916.595	10295
916.708	10314
916.82	10265
916.932	10356
917.044	10257
917.156	10303
917.268	10185
917.38	10261
917.491	10112
917.603	10181
917.715	10379
917.826	10306
917.938	10154
918.049	10093
918.161	10204
918.272	10303
918.384	10367
918.495	10291
918.606	10139
918.717	10040
918.828	10131
918.939	10135
919.05	10029
919.161	10029
919.272	9857
919.383	9994
919.494	10219
919.604	10325
919.715	10192
919.826	10055
919.936	10120
920.047	10230
920.157	10139
920.267	10337
920.378	10185
920.488	10166
920.598	10295
920.708	10466
920.818	10329
920.928	10398
921.038	10607
921.148	10443
921.258	10131
921.368	10082
921.477	10006
921.587	9994
921.697	9945
921.806	10032
921.916	9873
922.025	9789
922.134	9629
922.244	9610
922.353	9717
922.462	9545
922.571	9629
922.68	9412
922.789	9348
922.898	9393
923.007	9397
923.116	9416
923.224	9481
923.333	9424
923.442	9272
923.55	9233
923.659	9279
923.767	9401
923.876	9161
923.984	9367
924.092	9214
924.201	9214
924.309	9245
924.417	9249
924.525	9207
924.633	9157
924.741	10177
924.849	8998
924.956	9207
925.064	9066
925.172	9058
925.279	9013
925.387	9062
925.494	9066
925.602	9214
925.709	9146
925.816	8998
925.924	9085
926.031	9154
926.138	9093
926.245	9112
926.352	8986
926.459	9192
926.566	9173
926.673	9001
926.779	8895
926.886	8887
926.993	8750
927.099	8731
927.206	8754
927.312	8731
927.419	8838
927.525	8701
927.631	8853
927.737	8655
927.843	8670
927.95	8598
928.056	8667
928.162	8640
928.267	8686
928.373	9332
928.479	8693
928.585	8560
928.69	8659
928.796	8644
928.901	8556
929.007	8465
929.112	8606
929.218	8552
929.323	8461
929.428	8457
929.533	8590
929.638	8446
929.743	8370
929.848	8495
929.953	8514
930.058	8332
930.163	8195
930.267	8240
930.372	8339
930.477	8233
930.581	8469
930.685	8434
930.79	8187
930.894	8267
930.998	8240
931.103	8301
931.207	7963
931.311	7970
931.415	7830
931.519	7734
931.623	7658
