Data from test_V78500241_809.txt Node
Date: Fri Mar 25 14:39:21 CST 2022
User: usil
Spectrometer: V785-0024
Trigger mode: 0
Integration Time (sec): 4.000000E-1
Scans to average: 1
Nonlinearity correction enabled: false
Boxcar width: 0
Storing dark spectrum: false
XAxis mode: Wavelengths
Number of Pixels in Spectrum: 1024
>>>>>Begin Spectral Data<<<<<
801.071	26248
801.214	26130
801.356	26096
801.499	25845
801.641	25769
801.783	25822
801.926	25731
802.068	25521
802.211	25552
802.353	25411
802.496	25251
802.638	25282
802.78	25168
802.923	25095
803.065	25034
803.208	25164
803.35	25236
803.492	25304
803.635	25415
803.777	25183
803.919	25373
804.061	25582
804.204	25362
804.346	25293
804.488	25236
804.63	25285
804.773	25251
804.915	25327
805.057	25624
805.199	25491
805.341	25620
805.483	25761
805.626	25917
805.768	25651
805.91	25887
806.052	26050
806.194	26020
806.336	26256
806.478	26237
806.62	26324
806.762	26674
806.904	26952
807.046	27393
807.188	27530
807.33	27934
807.472	28211
807.614	28801
807.756	29752
807.898	30532
808.04	31468
808.182	33146
808.324	35136
808.465	37472
808.607	39846
808.749	42235
808.891	43270
809.033	43525
809.174	42346
809.316	40040
809.458	37365
809.6	34968
809.741	32720
809.883	31168
810.025	30155
810.166	29269
810.308	28672
810.45	28166
810.591	27625
810.733	27245
810.875	26998
811.016	26556
811.158	26503
811.299	26423
811.441	26480
811.582	26358
811.724	26157
811.865	26054
812.007	25928
812.148	26008
812.29	25784
812.431	25951
812.573	26126
812.714	26130
812.855	26195
812.997	26210
813.138	26282
813.279	26267
813.421	26073
813.562	25921
813.703	25685
813.845	25670
813.986	25304
814.127	25202
814.268	25038
814.41	24996
814.551	24935
814.692	24932
814.833	24772
814.974	24817
815.115	24920
815.256	24585
815.397	24703
815.539	24684
815.68	24483
815.821	24544
815.962	24551
816.103	24426
816.244	24338
816.385	24194
816.526	24182
816.666	23946
816.807	23954
816.948	23969
817.089	23961
817.23	23984
817.371	23878
817.512	23984
817.653	23866
817.793	23718
817.934	23729
818.075	23794
818.216	23817
818.356	23684
818.497	23623
818.638	23459
818.778	23421
818.919	23395
819.06	23520
819.2	23638
819.341	23615
819.481	23589
819.622	23920
819.762	23984
819.903	23752
820.043	23767
820.184	23699
820.324	23604
820.465	23745
820.605	23691
820.746	23516
820.886	23410
821.026	23589
821.167	23501
821.307	23562
821.447	23440
821.588	23433
821.728	23189
821.868	23071
822.008	22934
822.149	22862
822.289	22995
822.429	22755
822.569	22626
822.709	22519
822.849	22451
822.99	22310
823.13	22299
823.27	22405
823.41	22173
823.55	22044
823.69	22055
823.83	22219
823.97	22116
824.11	21808
824.25	21884
824.389	21907
824.529	21930
824.669	21869
824.809	22124
824.949	22105
825.089	22017
825.228	21812
825.368	21812
825.508	21622
825.648	21690
825.787	21724
825.927	21705
826.067	21686
826.206	21663
826.346	21690
826.485	21785
826.625	21705
826.765	21846
826.904	21831
827.044	21359
827.183	21511
827.323	21272
827.462	21462
827.601	21477
827.741	21321
827.88	21439
828.02	21245
828.159	21393
828.298	21401
828.437	21447
828.577	21348
828.716	21374
828.855	21241
828.994	21112
829.134	21074
829.273	21119
829.412	20982
829.551	20914
829.69	21074
829.829	20982
829.968	21184
830.107	20990
830.246	21047
830.385	20929
830.524	21051
830.663	20842
830.802	20815
830.941	20636
831.08	20708
831.219	20781
831.357	20667
831.496	20883
831.635	20697
831.774	20499
831.913	20381
832.051	20309
832.19	20511
832.329	20511
832.467	20412
832.606	20526
832.744	20488
832.883	20518
833.022	20598
833.16	20705
833.299	20735
833.437	20807
833.576	20914
833.714	20960
833.852	21180
833.991	21192
834.129	21279
834.267	21450
834.406	21279
834.544	21230
834.682	21055
834.821	21043
834.959	21131
835.097	20811
835.235	20807
835.373	20617
835.511	20632
835.65	20552
835.788	20320
835.926	20157
836.064	20161
836.202	20039
836.34	20358
836.478	20301
836.615	20240
836.753	20263
836.891	20393
837.029	20351
837.167	20107
837.305	20050
837.443	20031
837.58	19944
837.718	20065
837.856	20077
837.993	19860
838.131	20050
838.269	19826
838.406	19860
838.544	19837
838.681	19655
838.819	19616
838.956	19430
839.094	19506
839.231	19506
839.369	19670
839.506	19784
839.643	19746
839.781	19449
839.918	19373
840.055	19544
840.193	19449
840.33	19480
840.467	19403
840.604	19445
840.742	19700
840.879	19339
841.016	19217
841.153	19343
841.29	19563
841.427	19415
841.564	19537
841.701	19537
841.838	19331
841.975	19308
842.112	19247
842.249	19285
842.385	19194
842.522	19270
842.659	19274
842.796	19240
842.933	19179
843.069	19221
843.206	19198
843.343	19304
843.479	19240
843.616	19381
843.752	19179
843.889	19133
844.025	19392
844.162	19247
844.298	19419
844.435	19453
844.571	19647
844.708	19860
844.844	20164
844.98	20587
845.117	21039
845.253	21625
845.389	22904
845.525	25487
845.661	29847
845.798	34953
845.934	39100
846.07	40523
846.206	39507
846.342	36106
846.478	31038
846.614	26522
846.75	23554
846.886	21705
847.022	20754
847.158	20115
847.294	19693
847.429	19263
847.565	19069
847.701	19190
847.837	18650
847.972	18498
848.108	18566
848.244	18509
848.379	18361
848.515	18235
848.65	18194
848.786	18266
848.921	18262
849.057	18235
849.192	18334
849.328	18251
849.463	18190
849.598	18125
849.734	18034
849.869	17992
850.004	17882
850.14	17923
850.275	17874
850.41	17733
850.545	17824
850.68	17889
850.815	17851
850.95	17897
851.085	18041
851.22	17931
851.355	17866
851.49	17775
851.625	17764
851.76	17916
851.895	17836
852.03	17783
852.165	17851
852.299	17935
852.434	17950
852.569	18011
852.703	17882
852.838	18030
852.973	18060
853.107	17954
853.242	17817
853.376	17794
853.511	17752
853.645	17809
853.78	18110
853.914	17999
854.048	17977
854.183	17996
854.317	17984
854.451	18182
854.585	18015
854.72	17980
854.854	17939
854.988	17950
855.122	17836
855.256	17707
855.39	17843
855.524	18011
855.658	17779
855.792	17821
855.926	17813
856.06	17798
856.194	17783
856.327	17775
856.461	17573
856.595	17623
856.729	17676
856.862	17817
856.996	17718
857.13	17840
857.263	17718
857.397	17805
857.53	17760
857.664	17657
857.797	17691
857.931	17855
858.064	17661
858.197	17840
858.331	17558
858.464	17573
858.597	17467
858.731	17539
858.864	17516
858.997	17577
859.13	17551
859.263	17600
859.396	17668
859.529	17512
859.662	17600
859.795	17493
859.928	17474
860.061	17665
860.194	17661
860.327	17463
860.46	17604
860.592	17691
860.725	17672
860.858	17687
860.99	17611
861.123	17493
861.256	17497
861.388	17425
861.521	18140
861.653	17417
861.786	17280
861.918	17288
862.05	17383
862.183	17471
862.315	17558
862.447	17570
862.58	17532
862.712	17341
862.844	17143
862.976	17326
863.108	17254
863.24	17790
863.372	17162
863.504	17284
863.636	17185
863.768	17318
863.9	17292
864.032	17231
864.164	17174
864.296	17235
864.428	17326
864.559	17216
864.691	17353
864.823	17315
864.954	17254
865.086	17261
865.217	17121
865.349	17136
865.48	17098
865.612	17197
865.743	17372
865.875	17155
866.006	17189
866.137	17094
866.269	17136
866.4	17151
866.531	17079
866.662	17056
866.793	17193
866.924	17200
867.055	17124
867.186	17235
867.317	17124
867.448	16987
867.579	17265
867.71	17147
867.841	17029
867.972	17075
868.103	17075
868.233	17117
868.364	17181
868.495	17185
868.625	17360
868.756	17421
868.886	17296
869.017	17406
869.147	17570
869.278	17516
869.408	17463
869.539	17398
869.669	17474
869.799	17410
869.929	17581
870.06	17463
870.19	17771
870.32	17703
870.45	17752
870.58	17870
870.71	17958
870.84	17942
870.97	17923
871.1	17851
871.23	18106
871.36	18038
871.489	17977
871.619	18068
871.749	18136
871.879	18102
872.008	18243
872.138	18060
872.267	18049
872.397	18007
872.526	17901
872.656	18034
872.785	18041
872.915	18136
873.044	18281
873.173	18251
873.303	18315
873.432	18338
873.561	18372
873.69	18258
873.819	18277
873.948	18471
874.077	18429
874.206	18334
874.335	18464
874.464	18490
874.593	18669
874.722	18661
874.851	18768
874.979	18787
875.108	18802
875.237	18776
875.365	18665
875.494	18734
875.623	19084
875.751	18871
875.88	19019
876.008	19137
876.136	19377
876.265	19358
876.393	19499
876.521	19674
876.65	19666
876.778	19643
876.906	19681
877.034	19639
877.162	19746
877.29	19704
877.418	19932
877.546	19989
877.674	19982
877.802	20149
877.93	20290
878.058	20290
878.185	20457
878.313	20568
878.441	20979
878.568	21203
878.696	21553
878.824	22154
878.951	23117
879.079	24426
879.206	26001
879.333	27485
879.461	28710
879.588	29570
879.715	29638
879.842	29003
879.97	27466
880.097	25890
880.224	24578
880.351	23551
880.478	22949
880.605	22424
880.732	22310
880.859	22268
880.986	21956
881.112	21888
881.239	21781
881.366	21462
881.493	21504
881.619	21424
881.746	21367
881.872	21424
881.999	21553
882.125	21542
882.252	21618
882.378	21644
882.505	21751
882.631	21599
882.757	21477
882.883	21473
883.01	21538
883.136	21469
883.262	21481
883.388	21272
883.514	21351
883.64	21428
883.766	21340
883.892	21203
884.018	21249
884.143	21313
884.269	21450
884.395	21264
884.52	21135
884.646	21123
884.772	21089
884.897	21036
885.023	21138
885.148	21245
885.274	21173
885.399	21062
885.524	20925
885.65	20785
885.775	20788
885.9	20552
886.025	20602
886.15	20488
886.275	20305
886.4	20092
886.525	20153
886.65	20005
886.775	19902
886.9	19982
887.025	20016
887.149	19772
887.274	19495
887.399	19369
887.523	19251
887.648	19240
887.773	19152
887.897	19278
888.021	19145
888.146	19031
888.27	19023
888.395	19069
888.519	18973
888.643	18913
888.767	18810
888.891	18757
889.015	18650
889.139	18513
889.263	18525
889.387	18658
889.511	18734
889.635	18601
889.759	18460
889.883	18380
890.006	18395
890.13	18490
890.254	18353
890.377	18277
890.501	18060
890.624	18064
890.748	18091
890.871	18038
890.995	17916
891.118	17767
891.241	17847
891.364	17840
891.488	17904
891.611	17699
891.734	17771
891.857	17851
891.98	17756
892.103	17775
892.226	17642
892.349	17695
892.471	17478
892.594	17653
892.717	17668
892.839	17570
892.962	17570
893.085	17570
893.207	17505
893.33	17311
893.452	17391
893.575	17444
893.697	17345
893.819	17554
893.941	17604
894.064	17448
894.186	17311
894.308	17273
894.43	17349
894.552	17406
894.674	17341
894.796	17227
894.918	17204
895.04	17273
895.161	17239
895.283	17246
895.405	17174
895.526	17178
895.648	17079
895.769	17200
895.891	17216
896.012	17356
896.134	17273
896.255	17292
896.376	17189
896.498	17212
896.619	17265
896.74	17265
896.861	17204
896.982	17543
897.103	17577
897.224	17444
897.345	17402
897.466	17360
897.587	17311
897.708	17474
897.828	17467
897.949	17318
898.07	17162
898.19	17356
898.311	17368
898.431	17322
898.552	17402
898.672	17455
898.792	17436
898.913	17368
899.033	17360
899.153	17246
899.273	17056
899.393	17132
899.513	17143
899.633	17216
899.753	17216
899.873	17269
899.993	17269
900.113	17200
900.232	17166
900.352	17086
900.472	17094
900.591	16980
900.711	17045
900.83	16980
900.95	17037
901.069	17052
901.189	16816
901.308	16713
901.427	16656
901.546	16710
901.665	16626
901.784	16596
901.904	16356
902.023	16382
902.141	16272
902.26	16173
902.379	16105
902.498	16124
902.617	15994
902.735	16055
902.854	16036
902.973	15994
903.091	15804
903.21	15755
903.328	15755
903.446	15660
903.565	15584
903.683	15530
903.801	15412
903.919	15568
904.038	15416
904.156	15329
904.274	15291
904.392	15222
904.51	15275
904.627	15336
904.745	15294
904.863	15351
904.981	15085
905.098	14918
905.216	14975
905.334	15123
905.451	14944
905.569	14906
905.686	14963
905.803	14925
905.921	14804
906.038	14796
906.155	14750
906.272	14632
906.389	14621
906.506	14473
906.623	14579
906.74	14427
906.857	14377
906.974	14404
907.091	14621
907.208	14621
907.324	14583
907.441	14469
907.557	14252
907.674	14210
907.79	14111
907.907	14199
908.023	14271
908.139	14221
908.256	14180
908.372	14103
908.488	14069
908.604	13997
908.72	13947
908.836	13974
908.952	13845
909.068	13928
909.184	13932
909.3	13898
909.415	13928
909.531	13875
909.647	13753
909.762	13643
909.878	13715
909.993	13780
910.108	13685
910.224	13708
910.339	13693
910.454	13499
910.57	13556
910.685	13506
910.8	13712
910.915	13685
911.03	13525
911.145	13327
911.259	13346
911.374	13316
911.489	13247
911.604	13198
911.718	13057
911.833	13031
911.947	12996
912.062	12970
912.176	13057
912.291	13114
912.405	13084
912.519	13145
912.633	13293
912.748	13137
912.862	12966
912.976	12996
913.09	12810
913.204	12920
913.318	12867
913.431	13000
913.545	13034
913.659	13118
913.772	12867
913.886	12779
914	12662
914.113	12886
914.226	12833
914.34	12962
914.453	12662
914.566	12806
914.68	12623
914.793	12673
914.906	12502
915.019	12433
915.132	12407
915.245	12483
915.358	12601
915.47	12536
915.583	12506
915.696	12570
915.809	12734
915.921	12696
916.034	12532
916.146	12388
916.259	12494
916.371	12551
916.483	12582
916.595	12323
916.708	12437
916.82	12475
916.932	12448
917.044	12429
917.156	12418
917.268	12289
917.38	12220
917.491	12235
917.603	12213
917.715	12388
917.826	12380
917.938	12197
918.049	12087
918.161	12201
918.272	12334
918.384	12315
918.495	12254
918.606	12022
918.717	11973
918.828	12060
918.939	12102
919.05	11897
919.161	11988
919.272	11775
919.383	11828
919.494	12091
919.604	12205
919.715	12068
919.826	11950
919.936	12015
920.047	12136
920.157	12007
920.267	12167
920.378	12129
920.488	12015
920.598	12213
920.708	12296
920.818	12152
920.928	12186
921.038	12391
921.148	12334
921.258	11973
921.368	11878
921.477	11775
921.587	11824
921.697	11714
921.806	11786
921.916	11665
922.025	11436
922.134	11417
922.244	11440
922.353	11532
922.462	11395
922.571	11242
922.68	11170
922.789	11151
922.898	11246
923.007	11037
923.116	11151
923.224	11094
923.333	11140
923.442	10999
923.55	10919
923.659	10934
923.767	11083
923.876	10911
923.984	11064
924.092	10900
924.201	11014
924.309	10911
924.417	11003
924.525	10965
924.633	10900
924.741	11851
924.849	10755
924.956	10847
925.064	10679
925.172	10679
925.279	10675
925.387	10733
925.494	10736
925.602	10755
925.709	10748
925.816	10580
925.924	10637
926.031	10793
926.138	10649
926.245	10767
926.352	10626
926.459	10679
926.566	10702
926.673	10550
926.779	10508
926.886	10466
926.993	10329
927.099	10280
927.206	10314
927.312	10310
927.419	10325
927.525	10371
927.631	10417
927.737	10276
927.843	10230
927.95	10055
928.056	10147
928.162	10166
928.267	10272
928.373	10812
928.479	10211
928.585	10086
928.69	10196
928.796	10253
928.901	10051
929.007	9983
929.112	10055
929.218	10097
929.323	10006
929.428	9953
929.533	10211
929.638	9911
929.743	9972
929.848	10040
929.953	9884
930.058	9770
930.163	9766
930.267	9717
930.372	9819
930.477	9690
930.581	9991
930.685	9720
930.79	9732
930.894	9675
930.998	9591
931.103	9705
931.207	9355
931.311	9332
931.415	9351
931.519	9142
931.623	9169
