Data from test_V78500241_2870.txt Node
Date: Fri Mar 25 14:53:41 CST 2022
User: usil
Spectrometer: V785-0024
Trigger mode: 0
Integration Time (sec): 4.000000E-1
Scans to average: 1
Nonlinearity correction enabled: false
Boxcar width: 0
Storing dark spectrum: false
XAxis mode: Wavelengths
Number of Pixels in Spectrum: 1024
>>>>>Begin Spectral Data<<<<<
801.071	22196
801.214	21918
801.356	21625
801.499	21614
801.641	21424
801.783	21443
801.926	21447
802.068	21389
802.211	21321
802.353	21135
802.496	21108
802.638	20899
802.78	20902
802.923	20765
803.065	20781
803.208	20777
803.35	20781
803.492	20895
803.635	20876
803.777	20735
803.919	20819
804.061	21161
804.204	20807
804.346	20625
804.488	20522
804.63	20800
804.773	20670
804.915	20625
805.057	20876
805.199	20735
805.341	20765
805.483	20800
805.626	20708
805.768	20571
805.91	20609
806.052	20853
806.194	20708
806.336	20861
806.478	20655
806.62	20473
806.762	20838
806.904	20906
807.046	21024
807.188	21009
807.33	21089
807.472	21150
807.614	20982
807.756	20910
807.898	20727
808.04	20708
808.182	20655
808.324	20796
808.465	20811
808.607	21001
808.749	21154
808.891	21237
809.033	21382
809.174	21154
809.316	21024
809.458	20979
809.6	20967
809.741	21138
809.883	21100
810.025	21119
810.166	21188
810.308	21188
810.45	21093
810.591	21058
810.733	20921
810.875	20925
811.016	20716
811.158	20785
811.299	20929
811.441	20857
811.582	20902
811.724	20830
811.865	20845
812.007	20815
812.148	20876
812.29	20910
812.431	20963
812.573	21142
812.714	21237
812.855	21428
812.997	21367
813.138	21587
813.279	21450
813.421	21264
813.562	21367
813.703	21070
813.845	21017
813.986	20777
814.127	20484
814.268	20434
814.41	20404
814.551	20434
814.692	20336
814.833	20446
814.974	20290
815.115	20362
815.256	20221
815.397	20252
815.539	20301
815.68	20122
815.821	20088
815.962	20187
816.103	20130
816.244	19963
816.385	19841
816.526	19784
816.666	19727
816.807	19540
816.948	19712
817.089	19639
817.23	19533
817.371	19559
817.512	19434
817.653	19529
817.793	19464
817.934	19434
818.075	19552
818.216	19422
818.356	19365
818.497	19346
818.638	19145
818.778	19217
818.919	19266
819.06	19095
819.2	19354
819.341	19316
819.481	19445
819.622	19548
819.762	19628
819.903	19552
820.043	19506
820.184	19354
820.324	19362
820.465	19552
820.605	19491
820.746	19559
820.886	19289
821.026	19400
821.167	19411
821.307	19666
821.447	19346
821.588	19266
821.728	19118
821.868	19015
822.008	18890
822.149	18894
822.289	18852
822.429	18661
822.569	18517
822.709	18585
822.849	18365
822.99	18410
823.13	18281
823.27	18258
823.41	18308
823.55	18098
823.69	18216
823.83	18213
823.97	18079
824.11	17977
824.25	17855
824.389	17939
824.529	17942
824.669	18007
824.809	17984
824.949	18022
825.089	17980
825.228	18019
825.368	17680
825.508	17771
825.648	17798
825.787	17714
825.927	17786
826.067	17642
826.206	17695
826.346	17748
826.485	17756
826.625	17722
826.765	17737
826.904	17703
827.044	17425
827.183	17520
827.323	17402
827.462	17410
827.601	17417
827.741	17395
827.88	17474
828.02	17246
828.159	17425
828.298	17463
828.437	17448
828.577	17284
828.716	17585
828.855	17482
828.994	17208
829.134	17197
829.273	17254
829.412	17113
829.551	17071
829.69	17098
829.829	17193
829.968	17227
830.107	17376
830.246	17223
830.385	17132
830.524	17033
830.663	17041
830.802	16904
830.941	16790
831.08	16710
831.219	16911
831.357	16953
831.496	16904
831.635	16706
831.774	16733
831.913	16645
832.051	16558
832.19	16679
832.329	16675
832.467	16417
832.606	16417
832.744	16489
832.883	16341
833.022	16489
833.16	16447
833.299	16580
833.437	16474
833.576	16443
833.714	16500
833.852	16519
833.991	16535
834.129	16603
834.267	16596
834.406	16443
834.544	16531
834.682	16508
834.821	16451
834.959	16687
835.097	16478
835.235	16656
835.373	16668
835.511	16462
835.65	16485
835.788	16474
835.926	16257
836.064	16257
836.202	16295
836.34	16421
836.478	16466
836.615	16413
836.753	16405
836.891	16516
837.029	16371
837.167	16428
837.305	16276
837.443	16299
837.58	16291
837.718	16424
837.856	16261
837.993	16257
838.131	16402
838.269	16249
838.406	16230
838.544	16143
838.681	16105
838.819	15979
838.956	15915
839.094	15861
839.231	15842
839.369	16048
839.506	16173
839.643	16101
839.781	15865
839.918	15770
840.055	15915
840.193	15797
840.33	15819
840.467	15785
840.604	15850
840.742	16131
840.879	15762
841.016	15675
841.153	15675
841.29	15915
841.427	15930
841.564	15808
841.701	15880
841.838	15789
841.975	15709
842.112	15781
842.249	15686
842.385	15587
842.522	15800
842.659	15694
842.796	15591
842.933	15705
843.069	15553
843.206	15545
843.343	15660
843.479	15618
843.616	15610
843.752	15477
843.889	15485
844.025	15576
844.162	15416
844.298	15549
844.435	15279
844.571	15374
844.708	15420
844.844	15496
844.98	15610
845.117	15515
845.253	15408
845.389	15291
845.525	15245
845.661	15252
845.798	15207
845.934	15237
846.07	15180
846.206	15279
846.342	15340
846.478	15180
846.614	14975
846.75	14876
846.886	15024
847.022	15020
847.158	14952
847.294	15100
847.429	15001
847.565	15020
847.701	15203
847.837	14739
847.972	14610
848.108	14819
848.244	14800
848.379	14659
848.515	14587
848.65	14579
848.786	14568
848.921	14568
849.057	14617
849.192	14785
849.328	14606
849.463	14587
849.598	14590
849.734	14461
849.869	14461
850.004	14328
850.14	14419
850.275	14374
850.41	14298
850.545	14290
850.68	14385
850.815	14446
850.95	14309
851.085	14537
851.22	14446
851.355	14404
851.49	14461
851.625	14339
851.76	14370
851.895	14271
852.03	14233
852.165	14355
852.299	14442
852.434	14427
852.569	14358
852.703	14389
852.838	14404
852.973	14461
853.107	14583
853.242	14290
853.376	14355
853.511	14096
853.645	14263
853.78	14374
853.914	14233
854.048	14256
854.183	14237
854.317	14343
854.451	14438
854.585	14259
854.72	14199
854.854	14290
854.988	14123
855.122	14126
855.256	14069
855.39	14183
855.524	14317
855.658	14313
855.792	14263
855.926	14298
856.06	14259
856.194	14298
856.327	14237
856.461	14164
856.595	14210
856.729	14168
856.862	14389
856.996	14351
857.13	14271
857.263	14366
857.397	14404
857.53	14218
857.664	14305
857.797	14328
857.931	14290
858.064	14256
858.197	14305
858.331	14252
858.464	14172
858.597	14138
858.731	14229
858.864	14218
858.997	14259
859.13	14225
859.263	14263
859.396	14324
859.529	14294
859.662	14180
859.795	14077
859.928	14317
860.061	14476
860.194	14431
860.327	14157
860.46	14256
860.592	14301
860.725	14358
860.858	14396
860.99	14164
861.123	14183
861.256	14096
861.388	14221
861.521	14785
861.653	14221
861.786	14126
861.918	14161
862.05	14199
862.183	14229
862.315	14278
862.447	14256
862.58	14183
862.712	14031
862.844	13928
862.976	14065
863.108	14020
863.24	14522
863.372	14050
863.504	13940
863.636	13974
863.768	14020
863.9	13986
864.032	14020
864.164	14035
864.296	14073
864.428	14214
864.559	14142
864.691	14065
864.823	14073
864.954	14092
865.086	14069
865.217	13932
865.349	14035
865.48	13989
865.612	14084
865.743	14157
865.875	14134
866.006	14046
866.137	13940
866.269	13989
866.4	13978
866.531	13993
866.662	13826
866.793	13986
866.924	13993
867.055	13997
867.186	14035
867.317	14020
867.448	13906
867.579	14073
867.71	13868
867.841	13955
867.972	14001
868.103	14035
868.233	14024
868.364	14050
868.495	14081
868.625	14210
868.756	14294
868.886	14191
869.017	14347
869.147	14396
869.278	14355
869.408	14332
869.539	14259
869.669	14286
869.799	14259
869.929	14328
870.06	14393
870.19	14598
870.32	14499
870.45	14575
870.58	14674
870.71	14735
870.84	14842
870.97	14621
871.1	14632
871.23	14876
871.36	14880
871.489	14781
871.619	14845
871.749	14891
871.879	14861
872.008	15001
872.138	14857
872.267	14845
872.397	14735
872.526	14746
872.656	14682
872.785	14674
872.915	14887
873.044	14956
873.173	14948
873.303	14914
873.432	14971
873.561	14906
873.69	14830
873.819	14933
873.948	15036
874.077	14937
874.206	14861
874.335	14960
874.464	15055
874.593	15165
874.722	15157
874.851	15306
874.979	15135
875.108	15188
875.237	15165
875.365	15169
875.494	15135
875.623	15264
875.751	15161
875.88	15249
876.008	15416
876.136	15382
876.265	15591
876.393	15778
876.521	15629
876.65	15648
876.778	15686
876.906	15629
877.034	15610
877.162	15603
877.29	15473
877.418	15606
877.546	15641
877.674	15580
877.802	15534
877.93	15610
878.058	15507
878.185	15526
878.313	15500
878.441	15591
878.568	15401
878.696	15526
878.824	15576
878.951	15762
879.079	15842
879.206	15945
879.333	15781
879.461	15652
879.588	15747
879.715	15762
879.842	15972
879.97	15667
880.097	15488
880.224	15424
880.351	15507
880.478	15481
880.605	15424
880.732	15572
880.859	15789
880.986	15481
881.112	15507
881.239	15393
881.366	15256
881.493	15089
881.619	15127
881.746	15207
881.872	15058
881.999	15066
882.125	15184
882.252	15188
882.378	15138
882.505	15306
882.631	15058
882.757	14910
882.883	14975
883.01	14960
883.136	14868
883.262	14872
883.388	14811
883.514	15062
883.64	14944
883.766	14880
883.892	14758
884.018	14686
884.143	14910
884.269	14998
884.395	14708
884.52	14617
884.646	14754
884.772	14644
884.897	14587
885.023	14568
885.148	14777
885.274	14800
885.399	14781
885.524	14689
885.65	14625
885.775	14720
885.9	14621
886.025	14849
886.15	14849
886.275	14659
886.4	14606
886.525	14655
886.65	14549
886.775	14545
886.9	14667
887.025	14849
887.149	14636
887.274	14571
887.399	14465
887.523	14423
887.648	14385
887.773	14374
887.897	14514
888.021	14587
888.146	14389
888.27	14511
888.395	14590
888.519	14545
888.643	14560
888.767	14568
888.891	14412
889.015	14412
889.139	14305
889.263	14320
889.387	14446
889.511	14541
889.635	14537
889.759	14377
889.883	14278
890.006	14339
890.13	14419
890.254	14313
890.377	14294
890.501	14240
890.624	14187
890.748	14195
890.871	14191
890.995	13940
891.118	13963
891.241	13997
891.364	14024
891.488	14126
891.611	14176
891.734	14119
891.857	14039
891.98	14073
892.103	14073
892.226	14119
892.349	14008
892.471	13963
892.594	13989
892.717	14050
892.839	14069
892.962	14073
893.085	14115
893.207	14050
893.33	13902
893.452	14024
893.575	14069
893.697	14092
893.819	14214
893.941	14229
894.064	14240
894.186	14058
894.308	14001
894.43	14199
894.552	14317
894.674	14195
894.796	14062
894.918	14084
895.04	14126
895.161	14229
895.283	14157
895.405	14134
895.526	14142
895.648	14206
895.769	14164
895.891	14206
896.012	14244
896.134	14237
896.255	14263
896.376	14237
896.498	14248
896.619	14221
896.74	14282
896.861	14267
896.982	14606
897.103	14712
897.224	14484
897.345	14465
897.466	14450
897.587	14575
897.708	14564
897.828	14499
897.949	14404
898.07	14336
898.19	14457
898.311	14583
898.431	14640
898.552	14533
898.672	14579
898.792	14701
898.913	14587
899.033	14446
899.153	14469
899.273	14381
899.393	14415
899.513	14408
899.633	14358
899.753	14423
899.873	14377
899.993	14530
900.113	14343
900.232	14415
900.352	14381
900.472	14320
900.591	14252
900.711	14339
900.83	14233
900.95	14415
901.069	14370
901.189	14233
901.308	14081
901.427	13955
901.546	14024
901.665	14046
901.784	14054
901.904	13807
902.023	13769
902.141	13704
902.26	13502
902.379	13578
902.498	13533
902.617	13483
902.735	13613
902.854	13495
902.973	13388
903.091	13354
903.21	13206
903.328	13301
903.446	13240
903.565	13103
903.683	13126
903.801	13034
903.919	13057
904.038	13114
904.156	12909
904.274	12962
904.392	12996
904.51	12833
904.627	12932
904.745	12954
904.863	12973
904.981	12726
905.098	12593
905.216	12597
905.334	12707
905.451	12631
905.569	12578
905.686	12665
905.803	12677
905.921	12464
906.038	12467
906.155	12471
906.272	12338
906.389	12361
906.506	12178
906.623	12243
906.74	12197
906.857	12091
906.974	12136
907.091	12266
907.208	12319
907.324	12277
907.441	12159
907.557	12007
907.674	11950
907.79	11882
907.907	11920
908.023	11988
908.139	12060
908.256	11946
908.372	11920
908.488	11859
908.604	11771
908.72	11714
908.836	11764
908.952	11680
909.068	11714
909.184	11832
909.3	11691
909.415	11726
909.531	11699
909.647	11501
909.762	11577
909.878	11486
909.993	11501
910.108	11501
910.224	11429
910.339	11478
910.454	11433
910.57	11349
910.685	11288
910.8	11566
910.915	11471
911.03	11364
911.145	11109
911.259	11159
911.374	11235
911.489	11105
911.604	10991
911.718	10999
911.833	10904
911.947	10839
912.062	10839
912.176	10923
912.291	10889
912.405	11022
912.519	11124
912.633	11140
912.748	11003
912.862	10991
912.976	10869
913.09	10706
913.204	10828
913.318	10805
913.431	10968
913.545	10820
913.659	10858
913.772	10873
913.886	10744
914	10679
914.113	10729
914.226	10889
914.34	10797
914.453	10577
914.566	10793
914.68	10622
914.793	10706
914.906	10516
915.019	10428
915.132	10405
915.245	10459
915.358	10405
915.47	10519
915.583	10493
915.696	10436
915.809	10630
915.921	10531
916.034	10508
916.146	10352
916.259	10382
916.371	10451
916.483	10485
916.595	10386
916.708	10417
916.82	10371
916.932	10398
917.044	10382
917.156	10367
917.268	10185
917.38	10272
917.491	10173
917.603	10314
917.715	10341
917.826	10306
917.938	10227
918.049	10207
918.161	10227
918.272	10436
918.384	10322
918.495	10287
918.606	10124
918.717	10112
918.828	10143
918.939	10219
919.05	10013
919.161	10143
919.272	9972
919.383	10002
919.494	10169
919.604	10405
919.715	10227
919.826	10105
919.936	10124
920.047	10276
920.157	10169
920.267	10352
920.378	10109
920.488	10192
920.598	10325
920.708	10573
920.818	10379
920.928	10398
921.038	10577
921.148	10428
921.258	10322
921.368	10086
921.477	10074
921.587	10025
921.697	9956
921.806	10078
921.916	9911
922.025	9789
922.134	9789
922.244	9610
922.353	9842
922.462	9663
922.571	9580
922.68	9488
922.789	9348
922.898	9507
923.007	9336
923.116	9523
923.224	9447
923.333	9424
923.442	9374
923.55	9321
923.659	9302
923.767	9412
923.876	9287
923.984	9298
924.092	9283
924.201	9268
924.309	9344
924.417	9291
924.525	9214
924.633	9237
924.741	10185
924.849	9013
924.956	9199
925.064	9051
925.172	9043
925.279	9039
925.387	9127
925.494	9108
925.602	9256
925.709	9199
925.816	9036
925.924	9142
926.031	9112
926.138	9093
926.245	9097
926.352	9013
926.459	9169
926.566	9150
926.673	9043
926.779	8929
926.886	8967
926.993	8758
927.099	8720
927.206	8792
927.312	8826
927.419	8838
927.525	8739
927.631	8773
927.737	8731
927.843	8708
927.95	8560
928.056	8712
928.162	8670
928.267	8781
928.373	9287
928.479	8807
928.585	8556
928.69	8705
928.796	8727
928.901	8621
929.007	8503
929.112	8648
929.218	8587
929.323	8537
929.428	8507
929.533	8686
929.638	8507
929.743	8461
929.848	8526
929.953	8469
930.058	8393
930.163	8237
930.267	8237
930.372	8476
930.477	8279
930.581	8511
930.685	8396
930.79	8233
930.894	8347
930.998	8180
931.103	8347
931.207	8119
931.311	7947
931.415	7925
931.519	7792
931.623	7731
