Data from test_V78500241_2864.txt Node
Date: Fri Mar 25 14:53:39 CST 2022
User: usil
Spectrometer: V785-0024
Trigger mode: 0
Integration Time (sec): 4.000000E-1
Scans to average: 1
Nonlinearity correction enabled: false
Boxcar width: 0
Storing dark spectrum: false
XAxis mode: Wavelengths
Number of Pixels in Spectrum: 1024
>>>>>Begin Spectral Data<<<<<
801.071	22120
801.214	21956
801.356	21686
801.499	21618
801.641	21530
801.783	21481
801.926	21504
802.068	21447
802.211	21355
802.353	21211
802.496	21127
802.638	20998
802.78	20807
802.923	20758
803.065	20762
803.208	20708
803.35	20686
803.492	20834
803.635	20895
803.777	20750
803.919	20826
804.061	21093
804.204	20773
804.346	20750
804.488	20473
804.63	20796
804.773	20659
804.915	20731
805.057	20811
805.199	20655
805.341	20743
805.483	20826
805.626	20701
805.768	20674
805.91	20648
806.052	20659
806.194	20727
806.336	20705
806.478	20701
806.62	20731
806.762	20796
806.904	20868
807.046	21127
807.188	20998
807.33	20975
807.472	20937
807.614	21005
807.756	20868
807.898	20754
808.04	20670
808.182	20674
808.324	20640
808.465	20705
808.607	20883
808.749	21081
808.891	21108
809.033	21272
809.174	21055
809.316	20990
809.458	21013
809.6	20910
809.741	21066
809.883	21154
810.025	21321
810.166	21074
810.308	21161
810.45	21119
810.591	21154
810.733	20990
810.875	20842
811.016	20689
811.158	20838
811.299	20895
811.441	20929
811.582	20963
811.724	20883
811.865	20781
812.007	20659
812.148	20804
812.29	20876
812.431	20986
812.573	20990
812.714	21214
812.855	21260
812.997	21435
813.138	21523
813.279	21435
813.421	21359
813.562	21211
813.703	21161
813.845	20906
813.986	20640
814.127	20495
814.268	20313
814.41	20442
814.551	20259
814.692	20423
814.833	20259
814.974	20256
815.115	20320
815.256	20278
815.397	20199
815.539	20172
815.68	20157
815.821	19978
815.962	20145
816.103	20062
816.244	19868
816.385	19712
816.526	19830
816.666	19651
816.807	19575
816.948	19529
817.089	19624
817.23	19525
817.371	19609
817.512	19468
817.653	19533
817.793	19449
817.934	19457
818.075	19445
818.216	19502
818.356	19365
818.497	19324
818.638	19152
818.778	19148
818.919	19148
819.06	19175
819.2	19301
819.341	19419
819.481	19320
819.622	19388
819.762	19689
819.903	19575
820.043	19499
820.184	19438
820.324	19628
820.465	19441
820.605	19529
820.746	19392
820.886	19240
821.026	19426
821.167	19415
821.307	19483
821.447	19415
821.588	19354
821.728	19164
821.868	19004
822.008	18825
822.149	18916
822.289	18882
822.429	18616
822.569	18517
822.709	18623
822.849	18330
822.99	18384
823.13	18235
823.27	18292
823.41	18163
823.55	18083
823.69	18140
823.83	18152
823.97	18163
824.11	17920
824.25	18019
824.389	17931
824.529	17950
824.669	17870
824.809	17908
824.949	17942
825.089	17950
825.228	17923
825.368	17665
825.508	17767
825.648	17687
825.787	17760
825.927	17661
826.067	17638
826.206	17691
826.346	17737
826.485	17684
826.625	17646
826.765	17809
826.904	17638
827.044	17547
827.183	17604
827.323	17554
827.462	17497
827.601	17421
827.741	17311
827.88	17414
828.02	17303
828.159	17383
828.298	17505
828.437	17452
828.577	17250
828.716	17558
828.855	17452
828.994	17178
829.134	17117
829.273	17166
829.412	17037
829.551	17025
829.69	17094
829.829	17079
829.968	17227
830.107	17220
830.246	17231
830.385	17109
830.524	16968
830.663	16953
830.802	16881
830.941	16729
831.08	16843
831.219	16717
831.357	16831
831.496	16953
831.635	16679
831.774	16691
831.913	16713
832.051	16607
832.19	16561
832.329	16527
832.467	16577
832.606	16474
832.744	16493
832.883	16440
833.022	16413
833.16	16405
833.299	16478
833.437	16455
833.576	16558
833.714	16478
833.852	16535
833.991	16558
834.129	16584
834.267	16565
834.406	16497
834.544	16516
834.682	16516
834.821	16531
834.959	16656
835.097	16455
835.235	16516
835.373	16489
835.511	16508
835.65	16322
835.788	16432
835.926	16207
836.064	16207
836.202	16128
836.34	16561
836.478	16451
836.615	16512
836.753	16474
836.891	16603
837.029	16417
837.167	16398
837.305	16344
837.443	16246
837.58	16166
837.718	16405
837.856	16268
837.993	16280
838.131	16234
838.269	16173
838.406	16268
838.544	16150
838.681	15949
838.819	15941
838.956	15793
839.094	15823
839.231	15831
839.369	16051
839.506	16143
839.643	16048
839.781	15880
839.918	15800
840.055	15823
840.193	15781
840.33	15838
840.467	15812
840.604	15930
840.742	16032
840.879	15637
841.016	15816
841.153	15682
841.29	15823
841.427	15854
841.564	15888
841.701	15873
841.838	15854
841.975	15785
842.112	15831
842.249	15614
842.385	15591
842.522	15838
842.659	15743
842.796	15538
842.933	15800
843.069	15519
843.206	15511
843.343	15663
843.479	15690
843.616	15564
843.752	15382
843.889	15374
844.025	15542
844.162	15241
844.298	15477
844.435	15408
844.571	15329
844.708	15542
844.844	15507
844.98	15511
845.117	15526
845.253	15332
845.389	15256
845.525	15389
845.661	15252
845.798	15138
845.934	15325
846.07	15165
846.206	15249
846.342	15226
846.478	15142
846.614	15039
846.75	14937
846.886	14948
847.022	15039
847.158	14994
847.294	14967
847.429	15009
847.565	14864
847.701	15173
847.837	14693
847.972	14682
848.108	14815
848.244	14689
848.379	14606
848.515	14461
848.65	14522
848.786	14560
848.921	14533
849.057	14541
849.192	14667
849.328	14571
849.463	14602
849.598	14499
849.734	14434
849.869	14469
850.004	14389
850.14	14366
850.275	14294
850.41	14259
850.545	14320
850.68	14282
850.815	14301
850.95	14294
851.085	14476
851.22	14488
851.355	14374
851.49	14332
851.625	14275
851.76	14248
851.895	14237
852.03	14225
852.165	14244
852.299	14324
852.434	14351
852.569	14294
852.703	14374
852.838	14305
852.973	14503
853.107	14465
853.242	14176
853.376	14149
853.511	14058
853.645	14115
853.78	14339
853.914	14138
854.048	14153
854.183	14161
854.317	14103
854.451	14320
854.585	14180
854.72	14187
854.854	14301
854.988	14111
855.122	14149
855.256	13982
855.39	14206
855.524	14259
855.658	14389
855.792	14229
855.926	14278
856.06	14202
856.194	14298
856.327	14157
856.461	14069
856.595	14024
856.729	14157
856.862	14263
856.996	14286
857.13	14229
857.263	14320
857.397	14305
857.53	14195
857.664	14271
857.797	14362
857.931	14332
858.064	14221
858.197	14393
858.331	14229
858.464	14195
858.597	14214
858.731	14172
858.864	14199
858.997	14256
859.13	14164
859.263	14256
859.396	14233
859.529	14195
859.662	14161
859.795	14088
859.928	14202
860.061	14290
860.194	14389
860.327	14142
860.46	14157
860.592	14294
860.725	14252
860.858	14271
860.99	14172
861.123	14111
861.256	14210
861.388	14256
861.521	14678
861.653	14065
861.786	14043
861.918	14062
862.05	14035
862.183	14145
862.315	14225
862.447	14191
862.58	14202
862.712	13913
862.844	14005
862.976	14103
863.108	14024
863.24	14412
863.372	13894
863.504	14008
863.636	13928
863.768	13944
863.9	13989
864.032	13883
864.164	13928
864.296	14096
864.428	14111
864.559	14123
864.691	14046
864.823	13967
864.954	13970
865.086	14062
865.217	13921
865.349	13871
865.48	13970
865.612	13852
865.743	14115
865.875	13970
866.006	13989
866.137	13959
866.269	13951
866.4	13963
866.531	13982
866.662	13902
866.793	13928
866.924	13932
867.055	13909
867.186	13811
867.317	13917
867.448	13913
867.579	13860
867.71	13982
867.841	13906
867.972	14012
868.103	13928
868.233	13940
868.364	14008
868.495	13947
868.625	14210
868.756	14221
868.886	14081
869.017	14134
869.147	14408
869.278	14278
869.408	14164
869.539	14263
869.669	14233
869.799	14393
869.929	14263
870.06	14263
870.19	14533
870.32	14404
870.45	14503
870.58	14648
870.71	14678
870.84	14644
870.97	14564
871.1	14492
871.23	14781
871.36	14785
871.489	14644
871.619	14785
871.749	14868
871.879	14823
872.008	14929
872.138	14842
872.267	14727
872.397	14758
872.526	14617
872.656	14697
872.785	14537
872.915	14781
873.044	14906
873.173	14830
873.303	14906
873.432	14887
873.561	14914
873.69	14944
873.819	14815
873.948	14948
874.077	14971
874.206	14800
874.335	14925
874.464	15043
874.593	15173
874.722	15043
874.851	15135
874.979	15112
875.108	15161
875.237	15127
875.365	15176
875.494	15131
875.623	15237
875.751	15142
875.88	15169
876.008	15340
876.136	15450
876.265	15637
876.393	15656
876.521	15747
876.65	15713
876.778	15633
876.906	15511
877.034	15492
877.162	15519
877.29	15496
877.418	15618
877.546	15686
877.674	15534
877.802	15679
877.93	15622
878.058	15519
878.185	15462
878.313	15526
878.441	15591
878.568	15496
878.696	15564
878.824	15625
878.951	15743
879.079	15686
879.206	15964
879.333	15675
879.461	15614
879.588	15705
879.715	15724
879.842	15789
879.97	15587
880.097	15405
880.224	15469
880.351	15469
880.478	15389
880.605	15443
880.732	15454
880.859	15599
880.986	15519
881.112	15507
881.239	15386
881.366	15116
881.493	15116
881.619	15104
881.746	15165
881.872	15013
881.999	14979
882.125	15119
882.252	15169
882.378	15127
882.505	15256
882.631	15047
882.757	14933
882.883	14963
883.01	14918
883.136	14880
883.262	14682
883.388	14746
883.514	14872
883.64	15005
883.766	14864
883.892	14708
884.018	14765
884.143	14895
884.269	14937
884.395	14667
884.52	14556
884.646	14648
884.772	14530
884.897	14495
885.023	14682
885.148	14701
885.274	14815
885.399	14727
885.524	14663
885.65	14678
885.775	14568
885.9	14606
886.025	14796
886.15	14655
886.275	14560
886.4	14499
886.525	14488
886.65	14556
886.775	14613
886.9	14689
887.025	14807
887.149	14533
887.274	14419
887.399	14377
887.523	14385
887.648	14457
887.773	14366
887.897	14412
888.021	14541
888.146	14400
888.27	14488
888.395	14526
888.519	14537
888.643	14495
888.767	14499
888.891	14446
889.015	14400
889.139	14336
889.263	14305
889.387	14370
889.511	14541
889.635	14442
889.759	14282
889.883	14218
890.006	14362
890.13	14526
890.254	14263
890.377	14225
890.501	14157
890.624	14062
890.748	14210
890.871	14107
890.995	13978
891.118	13913
891.241	14081
891.364	13951
891.488	14142
891.611	14005
891.734	14084
891.857	14027
891.98	14065
892.103	14058
892.226	14062
892.349	13955
892.471	13841
892.594	13982
892.717	14027
892.839	13970
892.962	13967
893.085	14039
893.207	13944
893.33	13849
893.452	13913
893.575	14134
893.697	14001
893.819	14214
893.941	14309
894.064	14214
894.186	13902
894.308	13993
894.43	14180
894.552	14214
894.674	14202
894.796	13978
894.918	14046
895.04	13940
895.161	14103
895.283	14134
895.405	13982
895.526	14088
895.648	14065
895.769	14111
895.891	14195
896.012	14240
896.134	14263
896.255	14130
896.376	14134
896.498	14248
896.619	14332
896.74	14210
896.861	14187
896.982	14590
897.103	14682
897.224	14488
897.345	14404
897.466	14396
897.587	14434
897.708	14590
897.828	14530
897.949	14381
898.07	14381
898.19	14358
898.311	14674
898.431	14461
898.552	14556
898.672	14644
898.792	14598
898.913	14560
899.033	14480
899.153	14362
899.273	14271
899.393	14465
899.513	14412
899.633	14431
899.753	14415
899.873	14374
899.993	14400
900.113	14275
900.232	14362
900.352	14396
900.472	14305
900.591	14191
900.711	14298
900.83	14252
900.95	14309
901.069	14317
901.189	14248
901.308	13940
901.427	14050
901.546	13860
901.665	13906
901.784	14012
901.904	13845
902.023	13769
902.141	13586
902.26	13434
902.379	13666
902.498	13491
902.617	13430
902.735	13632
902.854	13441
902.973	13487
903.091	13274
903.21	13141
903.328	13301
903.446	13278
903.565	13171
903.683	13190
903.801	12928
903.919	13072
904.038	13076
904.156	12943
904.274	12970
904.392	12878
904.51	12909
904.627	12875
904.745	12848
904.863	12951
904.981	12700
905.098	12589
905.216	12612
905.334	12601
905.451	12559
905.569	12544
905.686	12711
905.803	12547
905.921	12414
906.038	12502
906.155	12448
906.272	12357
906.389	12369
906.506	12194
906.623	12194
906.74	12140
906.857	12114
906.974	12098
907.091	12239
907.208	12311
907.324	12285
907.441	12106
907.557	11916
907.674	11996
907.79	11923
907.907	11855
908.023	11961
908.139	11912
908.256	11813
908.372	11847
908.488	11843
908.604	11745
908.72	11608
908.836	11691
908.952	11722
909.068	11676
909.184	11767
909.3	11703
909.415	11771
909.531	11726
909.647	11478
909.762	11501
909.878	11364
909.993	11490
910.108	11452
910.224	11410
910.339	11448
910.454	11410
910.57	11395
910.685	11273
910.8	11604
910.915	11478
911.03	11326
911.145	11151
911.259	11124
911.374	11079
911.489	11086
911.604	11147
911.718	10972
911.833	10889
911.947	10915
912.062	10744
912.176	10869
912.291	10881
912.405	10900
912.519	11197
912.633	11162
912.748	10877
912.862	10965
912.976	10763
913.09	10687
913.204	10717
913.318	10748
913.431	10927
913.545	10877
913.659	10873
913.772	10763
913.886	10694
914	10706
914.113	10790
914.226	10843
914.34	10725
914.453	10573
914.566	10744
914.68	10588
914.793	10641
914.906	10519
915.019	10405
915.132	10295
915.245	10428
915.358	10398
915.47	10512
915.583	10455
915.696	10497
915.809	10558
915.921	10542
916.034	10398
916.146	10402
916.259	10344
916.371	10424
916.483	10417
916.595	10382
916.708	10363
916.82	10375
916.932	10295
917.044	10242
917.156	10363
917.268	10246
917.38	10280
917.491	10249
917.603	10181
917.715	10367
917.826	10337
917.938	10223
918.049	10147
918.161	10211
918.272	10493
918.384	10375
918.495	10428
918.606	10143
918.717	10116
918.828	10097
918.939	10154
919.05	10036
919.161	10139
919.272	9949
919.383	10002
919.494	10173
919.604	10329
919.715	10169
919.826	9998
919.936	10154
920.047	10261
920.157	10158
920.267	10303
920.378	10219
920.488	10185
920.598	10367
920.708	10451
920.818	10428
920.928	10325
921.038	10565
921.148	10504
921.258	10181
921.368	10048
921.477	10002
921.587	10048
921.697	9854
921.806	10051
921.916	9903
922.025	9694
922.134	9743
922.244	9641
922.353	9785
922.462	9576
922.571	9549
922.68	9416
922.789	9363
922.898	9424
923.007	9332
923.116	9439
923.224	9416
923.333	9412
923.442	9363
923.55	9245
923.659	9367
923.767	9378
923.876	9256
923.984	9405
924.092	9230
924.201	9306
924.309	9233
924.417	9306
924.525	9264
924.633	9237
924.741	10200
924.849	9077
924.956	9211
925.064	9085
925.172	9001
925.279	9043
925.387	9036
925.494	9077
925.602	9188
925.709	9180
925.816	8952
925.924	9047
926.031	9142
926.138	9100
926.245	9154
926.352	9047
926.459	9207
926.566	9135
926.673	9089
926.779	8948
926.886	8986
926.993	8834
927.099	8724
927.206	8705
927.312	8811
927.419	8811
927.525	8823
927.631	8830
927.737	8670
927.843	8674
927.95	8590
928.056	8743
928.162	8689
928.267	8739
928.373	9275
928.479	8864
928.585	8575
928.69	8651
928.796	8640
928.901	8629
929.007	8495
929.112	8644
929.218	8575
929.323	8560
929.428	8476
929.533	8686
929.638	8503
929.743	8461
929.848	8629
929.953	8461
930.058	8446
930.163	8237
930.267	8324
930.372	8465
930.477	8225
930.581	8533
930.685	8393
930.79	8240
930.894	8195
930.998	8153
931.103	8343
931.207	8054
931.311	7997
931.415	7932
931.519	7738
931.623	7723
