Data from test_V78500241_657.txt Node
Date: Fri Mar 25 14:38:17 CST 2022
User: usil
Spectrometer: V785-0024
Trigger mode: 0
Integration Time (sec): 4.000000E-1
Scans to average: 1
Nonlinearity correction enabled: false
Boxcar width: 0
Storing dark spectrum: false
XAxis mode: Wavelengths
Number of Pixels in Spectrum: 1024
>>>>>Begin Spectral Data<<<<<
801.071	28078
801.214	27960
801.356	27789
801.499	27606
801.641	27420
801.783	27507
801.926	27530
802.068	27241
802.211	27222
802.353	27138
802.496	26891
802.638	26960
802.78	27176
802.923	26906
803.065	26769
803.208	26830
803.35	26948
803.492	26971
803.635	27176
803.777	26982
803.919	27279
804.061	27416
804.204	27306
804.346	27096
804.488	27161
804.63	27207
804.773	27055
804.915	27329
805.057	27329
805.199	27325
805.341	27542
805.483	27648
805.626	27797
805.768	27625
805.91	27751
806.052	27823
806.194	27918
806.336	28451
806.478	28348
806.62	28421
806.762	28721
806.904	29083
807.046	29771
807.188	29870
807.33	30319
807.472	30840
807.614	31327
807.756	32252
807.898	33294
808.04	34710
808.182	36448
808.324	39032
808.465	41615
808.607	44724
808.749	47277
808.891	49107
809.033	49175
809.174	47668
809.316	45043
809.458	41684
809.6	38636
809.741	36129
809.883	34086
810.025	32826
810.166	31890
810.308	31008
810.45	30467
810.591	29996
810.733	29372
810.875	29185
811.016	28862
811.158	28466
811.299	28607
811.441	28379
811.582	28261
811.724	28192
811.865	28139
812.007	28017
812.148	27857
812.29	27892
812.431	27895
812.573	27918
812.714	28090
812.855	28036
812.997	28147
813.138	28284
813.279	28086
813.421	28040
813.562	27865
813.703	27724
813.845	27477
813.986	27207
814.127	26940
814.268	26899
814.41	26902
814.551	26807
814.692	26819
814.833	26488
814.974	26575
815.115	26606
815.256	26434
815.397	26537
815.539	26465
815.68	26370
815.821	26294
815.962	26221
816.103	26240
816.244	26046
816.385	25879
816.526	25894
816.666	25769
816.807	25609
816.948	25677
817.089	25666
817.23	25761
817.371	25441
817.512	25499
817.653	25483
817.793	25422
817.934	25495
818.075	25495
818.216	25419
818.356	25479
818.497	25339
818.638	25152
818.778	25171
818.919	25156
819.06	25270
819.2	25324
819.341	25274
819.481	25373
819.622	25529
819.762	25723
819.903	25556
820.043	25563
820.184	25403
820.324	25422
820.465	25453
820.605	25365
820.746	25354
820.886	25160
821.026	25320
821.167	25247
821.307	25293
821.447	25175
821.588	25042
821.728	24973
821.868	24753
822.008	24475
822.149	24722
822.289	24559
822.429	24357
822.569	24083
822.709	24277
822.849	24064
822.99	24053
823.13	24026
823.27	23996
823.41	23798
823.55	23756
823.69	23882
823.83	23855
823.97	23668
824.11	23707
824.25	23547
824.389	23463
824.529	23558
824.669	23608
824.809	23676
824.949	23695
825.089	23573
825.228	23547
825.368	23425
825.508	23372
825.648	23334
825.787	23505
825.927	23322
826.067	23318
826.206	23265
826.346	23425
826.485	23391
826.625	23425
826.765	23452
826.904	23322
827.044	23250
827.183	23121
827.323	23052
827.462	23223
827.601	22953
827.741	22968
827.88	23067
828.02	22930
828.159	22831
828.298	22968
828.437	23056
828.577	22869
828.716	23094
828.855	22908
828.994	22683
829.134	22706
829.273	22755
829.412	22618
829.551	22611
829.69	22599
829.829	22675
829.968	22630
830.107	22733
830.246	22588
830.385	22679
830.524	22637
830.663	22428
830.802	22470
830.941	22394
831.08	22284
831.219	22287
831.357	22352
831.496	22504
831.635	22211
831.774	22310
831.913	22188
832.051	22135
832.19	22166
832.329	22196
832.467	21987
832.606	22013
832.744	22013
832.883	22188
833.022	22154
833.16	22291
833.299	22371
833.437	22592
833.576	22717
833.714	22797
833.852	23041
833.991	23128
834.129	23117
834.267	23140
834.406	23083
834.544	23064
834.682	23067
834.821	22782
834.959	22892
835.097	22428
835.235	22500
835.373	22413
835.511	22207
835.65	22013
835.788	22116
835.926	21911
836.064	21785
836.202	21800
836.34	21941
836.478	21884
836.615	21789
836.753	21850
836.891	21888
837.029	21789
837.167	21766
837.305	21622
837.443	21633
837.58	21618
837.718	21755
837.856	21660
837.993	21507
838.131	21625
838.269	21450
838.406	21580
838.544	21317
838.681	21249
838.819	21176
838.956	21005
839.094	20986
839.231	21047
839.369	21252
839.506	21389
839.643	21222
839.781	21104
839.918	20982
840.055	20979
840.193	20956
840.33	20921
840.467	21020
840.604	20971
840.742	21169
840.879	20769
841.016	20872
841.153	20826
841.29	21039
841.427	20979
841.564	20929
841.701	20998
841.838	20902
841.975	20876
842.112	20891
842.249	20811
842.385	20804
842.522	20979
842.659	20792
842.796	20800
842.933	20781
843.069	20727
843.206	20712
843.343	20754
843.479	20853
843.616	20864
843.752	20701
843.889	20792
844.025	20918
844.162	20853
844.298	21104
844.435	21028
844.571	21386
844.708	21580
844.844	21998
844.98	22443
845.117	22972
845.253	23756
845.389	25464
845.525	28771
845.661	34082
845.798	40394
845.934	45226
846.07	47010
846.206	45751
846.342	41379
846.478	35075
846.614	29516
846.75	25917
846.886	23893
847.022	22854
847.158	21819
847.294	21435
847.429	21043
847.565	20765
847.701	20906
847.837	20351
847.972	20153
848.108	20210
848.244	19940
848.379	19906
848.515	19833
848.65	19700
848.786	19849
848.921	19860
849.057	19689
849.192	19738
849.328	19674
849.463	19723
849.598	19510
849.734	19582
849.869	19331
850.004	19343
850.14	19438
850.275	19358
850.41	19278
850.545	19263
850.68	19236
850.815	19251
850.95	19232
851.085	19544
851.22	19480
851.355	19422
851.49	19422
851.625	19293
851.76	19343
851.895	19160
852.03	19259
852.165	19381
852.299	19343
852.434	19563
852.569	19327
852.703	19468
852.838	19415
852.973	19552
853.107	19537
853.242	19434
853.376	19407
853.511	19266
853.645	19304
853.78	19639
853.914	19480
854.048	19453
854.183	19499
854.317	19597
854.451	19795
854.585	19537
854.72	19464
854.854	19548
854.988	19388
855.122	19407
855.256	19346
855.39	19316
855.524	19460
855.658	19236
855.792	19289
855.926	19259
856.06	19324
856.194	19343
856.327	19206
856.461	19244
856.595	19133
856.729	19183
856.862	19259
856.996	19179
857.13	19148
857.263	19221
857.397	19164
857.53	19046
857.664	19053
857.797	19213
857.931	19202
858.064	19187
858.197	19225
858.331	19065
858.464	19091
858.597	19069
858.731	19023
858.864	19038
858.997	18993
859.13	19076
859.263	19072
859.396	19168
859.529	18966
859.662	18920
859.795	18924
859.928	18901
860.061	19175
860.194	19148
860.327	19069
860.46	18977
860.592	19076
860.725	19027
860.858	19023
860.99	18958
861.123	18905
861.256	18859
861.388	18958
861.521	19689
861.653	18844
861.786	18779
861.918	18791
862.05	18916
862.183	18909
862.315	19000
862.447	19031
862.58	18943
862.712	18646
862.844	18608
862.976	18677
863.108	18661
863.24	19050
863.372	18661
863.504	18582
863.636	18642
863.768	18646
863.9	18760
864.032	18654
864.164	18650
864.296	18631
864.428	18776
864.559	18635
864.691	18741
864.823	18692
864.954	18658
865.086	18646
865.217	18578
865.349	18467
865.48	18513
865.612	18601
865.743	18616
865.875	18597
866.006	18479
866.137	18585
866.269	18650
866.4	18536
866.531	18589
866.662	18410
866.793	18433
866.924	18479
867.055	18677
867.186	18570
867.317	18418
867.448	18422
867.579	18540
867.71	18464
867.841	18445
867.972	18566
868.103	18506
868.233	18555
868.364	18563
868.495	18711
868.625	18711
868.756	18878
868.886	18631
869.017	18669
869.147	18867
869.278	18897
869.408	18932
869.539	18817
869.669	18825
869.799	18772
869.929	18787
870.06	18871
870.19	18993
870.32	19057
870.45	19065
870.58	19221
870.71	19365
870.84	19297
870.97	19179
871.1	19308
871.23	19506
871.36	19495
871.489	19388
871.619	19480
871.749	19411
871.879	19514
872.008	19635
872.138	19415
872.267	19468
872.397	19468
872.526	19343
872.656	19411
872.785	19483
872.915	19582
873.044	19742
873.173	19624
873.303	19807
873.432	19658
873.561	19856
873.69	19849
873.819	19666
873.948	19765
874.077	19791
874.206	19883
874.335	19795
874.464	20050
874.593	20138
874.722	20062
874.851	20263
874.979	20183
875.108	20294
875.237	20240
875.365	20107
875.494	20385
875.623	20298
875.751	20396
875.88	20457
876.008	20556
876.136	20754
876.265	21013
876.393	21157
876.521	21135
876.65	21249
876.778	21142
876.906	21340
877.034	21264
877.162	21382
877.29	21355
877.418	21504
877.546	21557
877.674	21572
877.802	21709
877.93	21895
878.058	22158
878.185	22143
878.313	22508
878.441	22752
878.568	23037
878.696	23570
878.824	24350
878.951	25289
879.079	26804
879.206	28748
879.333	30700
879.461	32153
879.588	33294
879.715	33313
879.842	32404
879.97	30700
880.097	28839
880.224	27188
880.351	26126
880.478	25274
880.605	24734
880.732	24467
880.859	24361
880.986	23973
881.112	23984
881.239	23767
881.366	23703
881.493	23604
881.619	23474
881.746	23471
881.872	23566
881.999	23589
882.125	23509
882.252	23722
882.378	23623
882.505	23764
882.631	23649
882.757	23486
882.883	23566
883.01	23459
883.136	23421
883.262	23372
883.388	23299
883.514	23535
883.64	23471
883.766	23474
883.892	23231
884.018	23368
884.143	23425
884.269	23520
884.395	23258
884.52	23174
884.646	23284
884.772	23208
884.897	23162
885.023	23136
885.148	23200
885.274	23235
885.399	23170
885.524	23025
885.65	22812
885.775	22759
885.9	22542
886.025	22713
886.15	22504
886.275	22249
886.4	22086
886.525	21903
886.65	21778
886.775	21652
886.9	21785
887.025	21835
887.149	21302
887.274	21241
887.399	21146
887.523	20948
887.648	20899
887.773	20724
887.897	20823
888.021	20819
888.146	20739
888.27	20765
888.395	20781
888.519	20655
888.643	20480
888.767	20545
888.891	20286
889.015	20244
889.139	20256
889.263	20119
889.387	20187
889.511	20396
889.635	20172
889.759	20001
889.883	20027
890.006	19906
890.13	20069
890.254	19833
890.377	19799
890.501	19632
890.624	19601
890.748	19563
890.871	19426
890.995	19304
891.118	19266
891.241	19301
891.364	19362
891.488	19324
891.611	19228
891.734	19301
891.857	19228
891.98	19198
892.103	19255
892.226	19050
892.349	19042
892.471	18806
892.594	18924
892.717	18981
892.839	18867
892.962	18913
893.085	18913
893.207	18802
893.33	18806
893.452	18703
893.575	18779
893.697	18757
893.819	18920
893.941	18897
894.064	18798
894.186	18612
894.308	18471
894.43	18749
894.552	18658
894.674	18719
894.796	18471
894.918	18612
895.04	18498
895.161	18585
895.283	18566
895.405	18437
895.526	18509
895.648	18506
895.769	18479
895.891	18460
896.012	18582
896.134	18502
896.255	18479
896.376	18426
896.498	18311
896.619	18448
896.74	18452
896.861	18506
896.982	18696
897.103	18867
897.224	18798
897.345	18616
897.466	18525
897.587	18661
897.708	18722
897.828	18506
897.949	18521
898.07	18483
898.19	18551
898.311	18604
898.431	18578
898.552	18669
898.672	18688
898.792	18772
898.913	18597
899.033	18464
899.153	18414
899.273	18429
899.393	18407
899.513	18380
899.633	18441
899.753	18418
899.873	18289
899.993	18403
900.113	18376
900.232	18334
900.352	18277
900.472	18308
900.591	18254
900.711	18213
900.83	18087
900.95	18163
901.069	18182
901.189	18022
901.308	17904
901.427	17691
901.546	17661
901.665	17779
901.784	17783
901.904	17608
902.023	17474
902.141	17284
902.26	17212
902.379	17478
902.498	17258
902.617	17033
902.735	17246
902.854	17174
902.973	17041
903.091	16885
903.21	16889
903.328	16934
903.446	16713
903.565	16645
903.683	16596
903.801	16569
903.919	16546
904.038	16573
904.156	16310
904.274	16375
904.392	16329
904.51	16352
904.627	16409
904.745	16379
904.863	16341
904.981	16131
905.098	16002
905.216	16029
905.334	16105
905.451	15968
905.569	15979
905.686	16055
905.803	15991
905.921	15739
906.038	15979
906.155	15774
906.272	15610
906.389	15667
906.506	15473
906.623	15549
906.74	15412
906.857	15374
906.974	15462
907.091	15580
907.208	15599
907.324	15545
907.441	15386
907.557	15142
907.674	15195
907.79	15146
907.907	15249
908.023	15150
908.139	15203
908.256	15146
908.372	15135
908.488	14960
908.604	14948
908.72	14899
908.836	14887
908.952	14895
909.068	14925
909.184	15051
909.3	14906
909.415	14933
909.531	14781
909.647	14727
909.762	14689
909.878	14617
909.993	14640
910.108	14613
910.224	14598
910.339	14587
910.454	14530
910.57	14450
910.685	14415
910.8	14655
910.915	14594
911.03	14423
911.145	14290
911.259	14199
911.374	14263
911.489	14180
911.604	14206
911.718	14046
911.833	14024
911.947	13818
912.062	13750
912.176	14024
912.291	13951
912.405	14008
912.519	14054
912.633	14271
912.748	13986
912.862	13974
912.976	13887
913.09	13681
913.204	13799
913.318	13951
913.431	13928
913.545	13833
913.659	13955
913.772	13776
913.886	13662
914	13746
914.113	13776
914.226	13875
914.34	13818
914.453	13518
914.566	13712
914.68	13632
914.793	13578
914.906	13434
915.019	13495
915.132	13324
915.245	13388
915.358	13400
915.47	13350
915.583	13453
915.696	13411
915.809	13510
915.921	13540
916.034	13365
916.146	13312
916.259	13335
916.371	13495
916.483	13415
916.595	13263
916.708	13274
916.82	13343
916.932	13209
917.044	13278
917.156	13240
917.268	13274
917.38	13103
917.491	13088
917.603	13175
917.715	13183
917.826	13137
917.938	13012
918.049	13031
918.161	12993
918.272	13171
918.384	13095
918.495	13004
918.606	12802
918.717	12840
918.828	12825
918.939	12897
919.05	12776
919.161	12954
919.272	12662
919.383	12700
919.494	12776
919.604	13004
919.715	12852
919.826	12722
919.936	12738
920.047	12913
920.157	12844
920.267	12973
920.378	12829
920.488	12745
920.598	13012
920.708	13042
920.818	12943
920.928	12954
921.038	13126
921.148	12977
921.258	12791
921.368	12711
921.477	12616
921.587	12536
921.697	12460
921.806	12566
921.916	12426
922.025	12327
922.134	12304
922.244	12201
922.353	12319
922.462	12114
922.571	11988
922.68	11908
922.789	11942
922.898	11965
923.007	11779
923.116	11908
923.224	11863
923.333	11824
923.442	11798
923.55	11729
923.659	11691
923.767	11817
923.876	11726
923.984	11729
924.092	11649
924.201	11657
924.309	11608
924.417	11611
924.525	11596
924.633	11619
924.741	12388
924.849	11391
924.956	11497
925.064	11395
925.172	11330
925.279	11414
925.387	11398
925.494	11448
925.602	11524
925.709	11528
925.816	11254
925.924	11387
926.031	11478
926.138	11318
926.245	11455
926.352	11284
926.459	11315
926.566	11421
926.673	11254
926.779	11258
926.886	11143
926.993	11060
927.099	11045
927.206	11003
927.312	10930
927.419	10999
927.525	11029
927.631	11079
927.737	10938
927.843	10919
927.95	10831
928.056	10881
928.162	10816
928.267	10919
928.373	11433
928.479	10927
928.585	10801
928.69	10858
928.796	10869
928.901	10615
929.007	10596
929.112	10733
929.218	10706
929.323	10675
929.428	10580
929.533	10774
929.638	10637
929.743	10588
929.848	10687
929.953	10588
930.058	10466
930.163	10394
930.267	10360
930.372	10443
930.477	10287
930.581	10508
930.685	10447
930.79	10261
930.894	10261
930.998	10181
931.103	10402
931.207	10071
931.311	9983
931.415	9903
931.519	9679
931.623	9736
