Data from test_V78500241_1785.txt Node
Date: Fri Mar 25 14:46:08 CST 2022
User: usil
Spectrometer: V785-0024
Trigger mode: 0
Integration Time (sec): 4.000000E-1
Scans to average: 1
Nonlinearity correction enabled: false
Boxcar width: 0
Storing dark spectrum: false
XAxis mode: Wavelengths
Number of Pixels in Spectrum: 1024
>>>>>Begin Spectral Data<<<<<
801.071	22090
801.214	22086
801.356	21831
801.499	21819
801.641	21485
801.783	21572
801.926	21500
802.068	21595
802.211	21473
802.353	21321
802.496	21104
802.638	21119
802.78	21005
802.923	20994
803.065	20800
803.208	20792
803.35	20834
803.492	20929
803.635	20948
803.777	20823
803.919	20998
804.061	21233
804.204	20933
804.346	20750
804.488	20883
804.63	20868
804.773	20667
804.915	20716
805.057	20834
805.199	20785
805.341	20864
805.483	20933
805.626	20887
805.768	20792
805.91	20750
806.052	20739
806.194	20682
806.336	20994
806.478	20807
806.62	20842
806.762	20735
806.904	20967
807.046	21150
807.188	21249
807.33	21237
807.472	21192
807.614	20918
807.756	21062
807.898	20902
808.04	20899
808.182	20872
808.324	21001
808.465	20998
808.607	21062
808.749	21211
808.891	21325
809.033	21313
809.174	21150
809.316	21146
809.458	21157
809.6	21131
809.741	21294
809.883	21249
810.025	21298
810.166	21336
810.308	21317
810.45	21363
810.591	21195
810.733	20956
810.875	21093
811.016	20952
811.158	20838
811.299	20910
811.441	21142
811.582	21108
811.724	20960
811.865	20899
812.007	20994
812.148	20925
812.29	20979
812.431	21112
812.573	21306
812.714	21378
812.855	21492
812.997	21542
813.138	21629
813.279	21606
813.421	21526
813.562	21340
813.703	21184
813.845	21077
813.986	20834
814.127	20640
814.268	20507
814.41	20571
814.551	20537
814.692	20503
814.833	20336
814.974	20400
815.115	20533
815.256	20282
815.397	20404
815.539	20412
815.68	20244
815.821	20275
815.962	20336
816.103	20202
816.244	20058
816.385	19959
816.526	19997
816.666	19837
816.807	19685
816.948	19708
817.089	19776
817.23	19613
817.371	19578
817.512	19525
817.653	19605
817.793	19582
817.934	19605
818.075	19601
818.216	19651
818.356	19620
818.497	19415
818.638	19308
818.778	19350
818.919	19324
819.06	19304
819.2	19419
819.341	19464
819.481	19464
819.622	19757
819.762	19822
819.903	19750
820.043	19712
820.184	19677
820.324	19586
820.465	19731
820.605	19605
820.746	19514
820.886	19430
821.026	19544
821.167	19639
821.307	19590
821.447	19495
821.588	19483
821.728	19244
821.868	19122
822.008	18977
822.149	19069
822.289	19012
822.429	18764
822.569	18700
822.709	18753
822.849	18532
822.99	18540
823.13	18559
823.27	18486
823.41	18289
823.55	18292
823.69	18304
823.83	18247
823.97	18224
824.11	18121
824.25	18045
824.389	18095
824.529	18171
824.669	18057
824.809	18106
824.949	18174
825.089	18091
825.228	18087
825.368	17904
825.508	17920
825.648	17855
825.787	17950
825.927	17935
826.067	17802
826.206	17870
826.346	17920
826.485	17916
826.625	17878
826.765	18060
826.904	17855
827.044	17707
827.183	17566
827.323	17570
827.462	17524
827.601	17638
827.741	17501
827.88	17676
828.02	17417
828.159	17539
828.298	17592
828.437	17741
828.577	17539
828.716	17783
828.855	17512
828.994	17452
829.134	17364
829.273	17360
829.412	17242
829.551	17242
829.69	17356
829.829	17356
829.968	17455
830.107	17429
830.246	17398
830.385	17265
830.524	17307
830.663	17124
830.802	17098
830.941	16889
831.08	16873
831.219	17064
831.357	16999
831.496	17083
831.635	17006
831.774	16850
831.913	16896
832.051	16748
832.19	16771
832.329	16790
832.467	16675
832.606	16618
832.744	16653
832.883	16710
833.022	16675
833.16	16599
833.299	16809
833.437	16809
833.576	16740
833.714	16672
833.852	16740
833.991	16744
834.129	16839
834.267	16812
834.406	16763
834.544	16713
834.682	16740
834.821	16752
834.959	16968
835.097	16771
835.235	16805
835.373	16828
835.511	16691
835.65	16577
835.788	16679
835.926	16470
836.064	16462
836.202	16367
836.34	16687
836.478	16725
836.615	16634
836.753	16664
836.891	16691
837.029	16588
837.167	16573
837.305	16508
837.443	16451
837.58	16428
837.718	16584
837.856	16550
837.993	16379
838.131	16470
838.269	16405
838.406	16371
838.544	16310
838.681	16230
838.819	16158
838.956	16116
839.094	16029
839.231	16116
839.369	16185
839.506	16413
839.643	16177
839.781	15956
839.918	15991
840.055	16063
840.193	16048
840.33	15956
840.467	15926
840.604	16078
840.742	16207
840.879	15987
841.016	16006
841.153	15953
841.29	16044
841.427	16051
841.564	16074
841.701	16116
841.838	16032
841.975	15899
842.112	15945
842.249	15869
842.385	15835
842.522	16021
842.659	15903
842.796	15797
842.933	15835
843.069	15709
843.206	15747
843.343	15892
843.479	15789
843.616	15850
843.752	15614
843.889	15595
844.025	15762
844.162	15629
844.298	15781
844.435	15561
844.571	15526
844.708	15576
844.844	15671
844.98	15789
845.117	15762
845.253	15557
845.389	15576
845.525	15526
845.661	15561
845.798	15454
845.934	15500
846.07	15283
846.206	15416
846.342	15542
846.478	15329
846.614	15230
846.75	15051
846.886	15123
847.022	15218
847.158	15157
847.294	15260
847.429	15192
847.565	15043
847.701	15454
847.837	14956
847.972	14845
848.108	14971
848.244	14990
848.379	14758
848.515	14743
848.65	14811
848.786	14777
848.921	14762
849.057	14823
849.192	14845
849.328	14796
849.463	14807
849.598	14727
849.734	14758
849.869	14651
850.004	14530
850.14	14670
850.275	14545
850.41	14480
850.545	14438
850.68	14541
850.815	14587
850.95	14488
851.085	14708
851.22	14644
851.355	14488
851.49	14431
851.625	14560
851.76	14575
851.895	14454
852.03	14389
852.165	14457
852.299	14594
852.434	14629
852.569	14526
852.703	14564
852.838	14606
852.973	14564
853.107	14769
853.242	14583
853.376	14473
853.511	14290
853.645	14324
853.78	14514
853.914	14408
854.048	14389
854.183	14282
854.317	14484
854.451	14541
854.585	14446
854.72	14355
854.854	14476
854.988	14332
855.122	14294
855.256	14240
855.39	14438
855.524	14374
855.658	14488
855.792	14427
855.926	14366
856.06	14370
856.194	14526
856.327	14434
856.461	14358
856.595	14343
856.729	14457
856.862	14560
856.996	14507
857.13	14457
857.263	14568
857.397	14549
857.53	14469
857.664	14514
857.797	14427
857.931	14545
858.064	14469
858.197	14469
858.331	14431
858.464	14377
858.597	14259
858.731	14362
858.864	14461
858.997	14404
859.13	14404
859.263	14454
859.396	14495
859.529	14393
859.662	14370
859.795	14400
859.928	14427
860.061	14594
860.194	14511
860.327	14431
860.46	14400
860.592	14560
860.725	14590
860.858	14499
860.99	14412
861.123	14374
861.256	14465
861.388	14343
861.521	15024
861.653	14305
861.786	14153
861.918	14301
862.05	14309
862.183	14271
862.315	14396
862.447	14415
862.58	14381
862.712	14161
862.844	14069
862.976	14275
863.108	14214
863.24	14526
863.372	14142
863.504	14119
863.636	14164
863.768	14244
863.9	14240
864.032	14123
864.164	14183
864.296	14202
864.428	14286
864.559	14202
864.691	14290
864.823	14157
864.954	14176
865.086	14256
865.217	14145
865.349	14058
865.48	14176
865.612	14180
865.743	14275
865.875	14240
866.006	14126
866.137	14168
866.269	14100
866.4	14145
866.531	14202
866.662	14081
866.793	14130
866.924	14168
867.055	14096
867.186	14103
867.317	14168
867.448	14081
867.579	14084
867.71	14046
867.841	14130
867.972	14153
868.103	14103
868.233	14172
868.364	14210
868.495	14355
868.625	14358
868.756	14499
868.886	14282
869.017	14396
869.147	14575
869.278	14568
869.408	14473
869.539	14374
869.669	14530
869.799	14503
869.929	14499
870.06	14571
870.19	14762
870.32	14682
870.45	14716
870.58	14861
870.71	14899
870.84	15017
870.97	14769
871.1	14899
871.23	15009
871.36	15039
871.489	14842
871.619	15058
871.749	14902
871.879	15119
872.008	15097
872.138	15093
872.267	15017
872.397	14914
872.526	14864
872.656	14838
872.785	14902
872.915	15085
873.044	15180
873.173	15013
873.303	15047
873.432	15085
873.561	15146
873.69	15097
873.819	14883
873.948	15085
874.077	15085
874.206	14986
874.335	15005
874.464	15218
874.593	15313
874.722	15344
874.851	15374
874.979	15454
875.108	15428
875.237	15344
875.365	15256
875.494	15359
875.623	15405
875.751	15389
875.88	15450
876.008	15542
876.136	15667
876.265	15781
876.393	15876
876.521	15846
876.65	15907
876.778	15774
876.906	15774
877.034	15720
877.162	15720
877.29	15694
877.418	15762
877.546	15797
877.674	15762
877.802	15747
877.93	15762
878.058	15781
878.185	15728
878.313	15766
878.441	15812
878.568	15682
878.696	15705
878.824	15739
878.951	15918
879.079	15934
879.206	16135
879.333	15972
879.461	15838
879.588	15892
879.715	15941
879.842	15968
879.97	15960
880.097	15633
880.224	15652
880.351	15762
880.478	15660
880.605	15679
880.732	15591
880.859	15888
880.986	15728
881.112	15679
881.239	15568
881.366	15298
881.493	15336
881.619	15325
881.746	15268
881.872	15241
881.999	15298
882.125	15245
882.252	15287
882.378	15336
882.505	15424
882.631	15287
882.757	15100
882.883	15116
883.01	15214
883.136	14982
883.262	15020
883.388	14899
883.514	15199
883.64	15097
883.766	15066
883.892	14872
884.018	14960
884.143	15001
884.269	15195
884.395	14781
884.52	14785
884.646	14857
884.772	14762
884.897	14743
885.023	14792
885.148	14967
885.274	14937
885.399	14899
885.524	14842
885.65	14830
885.775	14914
885.9	14819
886.025	14941
886.15	14777
886.275	14781
886.4	14590
886.525	14796
886.65	14686
886.775	14746
886.9	14876
887.025	15009
887.149	14781
887.274	14667
887.399	14606
887.523	14617
887.648	14564
887.773	14579
887.897	14705
888.021	14636
888.146	14667
888.27	14697
888.395	14838
888.519	14625
888.643	14708
888.767	14712
888.891	14549
889.015	14461
889.139	14587
889.263	14381
889.387	14674
889.511	14708
889.635	14575
889.759	14358
889.883	14457
890.006	14537
890.13	14533
890.254	14434
890.377	14427
890.501	14271
890.624	14225
890.748	14347
890.871	14229
890.995	14134
891.118	14138
891.241	14142
891.364	14130
891.488	14339
891.611	14119
891.734	14221
891.857	14183
891.98	14123
892.103	14271
892.226	14210
892.349	14294
892.471	14031
892.594	14176
892.717	14229
892.839	14119
892.962	14305
893.085	14240
893.207	14214
893.33	14020
893.452	14111
893.575	14317
893.697	14130
893.819	14252
893.941	14427
894.064	14324
894.186	14073
894.308	14119
894.43	14332
894.552	14385
894.674	14320
894.796	14161
894.918	14214
895.04	14195
895.161	14389
895.283	14305
895.405	14164
895.526	14191
895.648	14202
895.769	14259
895.891	14317
896.012	14434
896.134	14377
896.255	14427
896.376	14309
896.498	14267
896.619	14457
896.74	14446
896.861	14480
896.982	14689
897.103	14826
897.224	14602
897.345	14606
897.466	14514
897.587	14602
897.708	14762
897.828	14678
897.949	14693
898.07	14503
898.19	14625
898.311	14815
898.431	14587
898.552	14678
898.672	14826
898.792	14724
898.913	14769
899.033	14762
899.153	14507
899.273	14560
899.393	14473
899.513	14530
899.633	14621
899.753	14598
899.873	14625
899.993	14712
900.113	14560
900.232	14568
900.352	14514
900.472	14564
900.591	14400
900.711	14389
900.83	14313
900.95	14526
901.069	14632
901.189	14278
901.308	14115
901.427	14031
901.546	14096
901.665	14115
901.784	14123
901.904	13978
902.023	13909
902.141	13715
902.26	13681
902.379	13734
902.498	13639
902.617	13643
902.735	13628
902.854	13738
902.973	13578
903.091	13354
903.21	13358
903.328	13316
903.446	13225
903.565	13270
903.683	13263
903.801	13179
903.919	13221
904.038	13236
904.156	13038
904.274	13118
904.392	13084
904.51	13061
904.627	13053
904.745	13156
904.863	13168
904.981	12833
905.098	12696
905.216	12684
905.334	12745
905.451	12817
905.569	12757
905.686	12772
905.803	12764
905.921	12593
906.038	12738
906.155	12639
906.272	12422
906.389	12471
906.506	12353
906.623	12418
906.74	12292
906.857	12239
906.974	12266
907.091	12456
907.208	12372
907.324	12380
907.441	12315
907.557	12190
907.674	12136
907.79	12072
907.907	12087
908.023	12159
908.139	12064
908.256	11992
908.372	12034
908.488	11980
908.604	11866
908.72	11809
908.836	11870
908.952	11767
909.068	11904
909.184	11984
909.3	11870
909.415	11916
909.531	11893
909.647	11691
909.762	11543
909.878	11554
909.993	11638
910.108	11619
910.224	11573
910.339	11657
910.454	11581
910.57	11417
910.685	11452
910.8	11691
910.915	11646
911.03	11604
911.145	11410
911.259	11322
911.374	11337
911.489	11212
911.604	11242
911.718	11094
911.833	11178
911.947	11071
912.062	10908
912.176	10999
912.291	11124
912.405	11124
912.519	11315
912.633	11227
912.748	11181
912.862	11105
912.976	10957
913.09	10908
913.204	11006
913.318	10930
913.431	11117
913.545	11083
913.659	11083
913.772	10957
913.886	10805
914	10824
914.113	10930
914.226	11014
914.34	10930
914.453	10755
914.566	10911
914.68	10831
914.793	10824
914.906	10626
915.019	10694
915.132	10546
915.245	10618
915.358	10615
915.47	10577
915.583	10580
915.696	10706
915.809	10778
915.921	10729
916.034	10626
916.146	10584
916.259	10558
916.371	10618
916.483	10626
916.595	10485
916.708	10538
916.82	10527
916.932	10451
917.044	10470
917.156	10462
917.268	10481
917.38	10421
917.491	10405
917.603	10405
917.715	10493
917.826	10485
917.938	10402
918.049	10246
918.161	10455
918.272	10531
918.384	10554
918.495	10375
918.606	10333
918.717	10230
918.828	10249
918.939	10310
919.05	10147
919.161	10272
919.272	10078
919.383	10234
919.494	10325
919.604	10558
919.715	10329
919.826	10265
919.936	10295
920.047	10379
920.157	10280
920.267	10519
920.378	10333
920.488	10348
920.598	10466
920.708	10607
920.818	10485
920.928	10478
921.038	10725
921.148	10721
921.258	10363
921.368	10215
921.477	10166
921.587	10169
921.697	10006
921.806	10173
921.916	10093
922.025	9926
922.134	9869
922.244	9766
922.353	9884
922.462	9819
922.571	9724
922.68	9576
922.789	9591
922.898	9564
923.007	9515
923.116	9591
923.224	9603
923.333	9538
923.442	9424
923.55	9424
923.659	9416
923.767	9488
923.876	9397
923.984	9481
924.092	9378
924.201	9386
924.309	9424
924.417	9408
924.525	9389
924.633	9302
924.741	10253
924.849	9165
924.956	9439
925.064	9207
925.172	9104
925.279	9142
925.387	9169
925.494	9230
925.602	9355
925.709	9302
925.816	9131
925.924	9256
926.031	9241
926.138	9192
926.245	9275
926.352	9157
926.459	9222
926.566	9283
926.673	9146
926.779	9017
926.886	9032
926.993	9017
927.099	8887
927.206	8880
927.312	8880
927.419	8963
927.525	8941
927.631	8921
927.737	8933
927.843	8826
927.95	8686
928.056	8807
928.162	8826
928.267	8815
928.373	9485
928.479	8948
928.585	8579
928.69	8853
928.796	8849
928.901	8689
929.007	8602
929.112	8811
929.218	8659
929.323	8598
929.428	8640
929.533	8777
929.638	8575
929.743	8602
929.848	8682
929.953	8602
930.058	8488
930.163	8358
930.267	8404
930.372	8583
930.477	8370
930.581	8674
930.685	8465
930.79	8355
930.894	8370
930.998	8324
931.103	8465
931.207	8142
931.311	8111
931.415	8020
931.519	7792
931.623	7780
