Data from test_V78500241_1550.txt Node
Date: Fri Mar 25 14:44:30 CST 2022
User: usil
Spectrometer: V785-0024
Trigger mode: 0
Integration Time (sec): 4.000000E-1
Scans to average: 1
Nonlinearity correction enabled: false
Boxcar width: 0
Storing dark spectrum: false
XAxis mode: Wavelengths
Number of Pixels in Spectrum: 1024
>>>>>Begin Spectral Data<<<<<
801.071	22421
801.214	22306
801.356	22131
801.499	21793
801.641	21869
801.783	21781
801.926	21774
802.068	21739
802.211	21583
802.353	21515
802.496	21332
802.638	21272
802.78	21237
802.923	21199
803.065	20986
803.208	21142
803.35	21009
803.492	21211
803.635	21203
803.777	21085
803.919	21237
804.061	21405
804.204	21100
804.346	21039
804.488	20941
804.63	20979
804.773	21028
804.915	20998
805.057	21226
805.199	21032
805.341	21077
805.483	21188
805.626	21093
805.768	21017
805.91	21017
806.052	21070
806.194	20902
806.336	21150
806.478	21096
806.62	21032
806.762	21165
806.904	21233
807.046	21466
807.188	21405
807.33	21351
807.472	21466
807.614	21298
807.756	21408
807.898	21222
808.04	21233
808.182	21211
808.324	21233
808.465	21386
808.607	21389
808.749	21572
808.891	21671
809.033	21739
809.174	21641
809.316	21523
809.458	21504
809.6	21466
809.741	21473
809.883	21618
810.025	21679
810.166	21610
810.308	21671
810.45	21424
810.591	21515
810.733	21382
810.875	21249
811.016	21169
811.158	21055
811.299	21340
811.441	21466
811.582	21283
811.724	21272
811.865	21226
812.007	21123
812.148	21131
812.29	21218
812.431	21443
812.573	21549
812.714	21580
812.855	21656
812.997	21762
813.138	21956
813.279	21842
813.421	21789
813.562	21671
813.703	21431
813.845	21386
813.986	21089
814.127	20948
814.268	20781
814.41	20864
814.551	20750
814.692	20788
814.833	20727
814.974	20686
815.115	20735
815.256	20488
815.397	20568
815.539	20632
815.68	20556
815.821	20454
815.962	20484
816.103	20526
816.244	20362
816.385	20256
816.526	20180
816.666	20024
816.807	19887
816.948	20027
817.089	20054
817.23	19936
817.371	19818
817.512	19845
817.653	19947
817.793	19860
817.934	19845
818.075	19887
818.216	19860
818.356	19887
818.497	19738
818.638	19525
818.778	19575
818.919	19586
819.06	19635
819.2	19742
819.341	19849
819.481	19696
819.622	19944
819.762	19955
819.903	20012
820.043	20024
820.184	19845
820.324	19868
820.465	19989
820.605	19928
820.746	19894
820.886	19830
821.026	19841
821.167	19856
821.307	19837
821.447	19837
821.588	19712
821.728	19639
821.868	19419
822.008	19365
822.149	19282
822.289	19240
822.429	19065
822.569	18981
822.709	18856
822.849	18681
822.99	18741
823.13	18764
823.27	18719
823.41	18669
823.55	18544
823.69	18608
823.83	18544
823.97	18448
824.11	18407
824.25	18346
824.389	18330
824.529	18460
824.669	18350
824.809	18467
824.949	18391
825.089	18437
825.228	18372
825.368	18163
825.508	18155
825.648	18205
825.787	18148
825.927	18079
826.067	18144
826.206	18060
826.346	18167
826.485	18026
826.625	18091
826.765	18114
826.904	18201
827.044	17805
827.183	18011
827.323	17760
827.462	17836
827.601	17832
827.741	17847
827.88	17893
828.02	17703
828.159	17828
828.298	17817
828.437	17897
828.577	17851
828.716	17961
828.855	17672
828.994	17611
829.134	17695
829.273	17600
829.412	17493
829.551	17497
829.69	17482
829.829	17512
829.968	17687
830.107	17577
830.246	17627
830.385	17509
830.524	17379
830.663	17421
830.802	17269
830.941	17174
831.08	17197
831.219	17200
831.357	17185
831.496	17395
831.635	17322
831.774	17128
831.913	16995
832.051	16965
832.19	16839
832.329	16915
832.467	16892
832.606	16790
832.744	16771
832.883	16869
833.022	16786
833.16	16786
833.299	16877
833.437	16892
833.576	16934
833.714	16923
833.852	17010
833.991	16942
834.129	17041
834.267	16972
834.406	16881
834.544	16911
834.682	16934
834.821	16889
834.959	16999
835.097	16949
835.235	17022
835.373	16972
835.511	16976
835.65	16854
835.788	16763
835.926	16691
836.064	16607
836.202	16634
836.34	16793
836.478	16949
836.615	16797
836.753	16801
836.891	16831
837.029	16767
837.167	16744
837.305	16683
837.443	16679
837.58	16573
837.718	16752
837.856	16702
837.993	16546
838.131	16637
838.269	16546
838.406	16607
838.544	16531
838.681	16344
838.819	16303
838.956	16200
839.094	16246
839.231	16238
839.369	16371
839.506	16626
839.643	16417
839.781	16181
839.918	16181
840.055	16173
840.193	16215
840.33	16200
840.467	16124
840.604	16325
840.742	16455
840.879	16048
841.016	16097
841.153	16101
841.29	16306
841.427	16109
841.564	16261
841.701	16272
841.838	16154
841.975	16082
842.112	16112
842.249	15918
842.385	15972
842.522	16154
842.659	16021
842.796	16002
842.933	15994
843.069	15823
843.206	16032
843.343	15941
843.479	15941
843.616	16036
843.752	15827
843.889	15717
844.025	15869
844.162	15732
844.298	15892
844.435	15774
844.571	15728
844.708	15717
844.844	15930
844.98	15960
845.117	15854
845.253	15785
845.389	15793
845.525	15728
845.661	15720
845.798	15736
845.934	15739
846.07	15644
846.206	15724
846.342	15800
846.478	15610
846.614	15348
846.75	15340
846.886	15321
847.022	15485
847.158	15420
847.294	15218
847.429	15359
847.565	15374
847.701	15538
847.837	15074
847.972	15058
848.108	15138
848.244	15142
848.379	14994
848.515	14876
848.65	14868
848.786	14925
848.921	14895
849.057	14994
849.192	15077
849.328	14982
849.463	14895
849.598	14842
849.734	14826
849.869	14773
850.004	14667
850.14	14731
850.275	14777
850.41	14560
850.545	14651
850.68	14629
850.815	14712
850.95	14697
851.085	14899
851.22	14834
851.355	14804
851.49	14697
851.625	14632
851.76	14640
851.895	14613
852.03	14537
852.165	14644
852.299	14655
852.434	14682
852.569	14708
852.703	14731
852.838	14724
852.973	14792
853.107	14800
853.242	14587
853.376	14560
853.511	14488
853.645	14552
853.78	14640
853.914	14533
854.048	14564
854.183	14594
854.317	14518
854.451	14648
854.585	14552
854.72	14560
854.854	14659
854.988	14408
855.122	14511
855.256	14408
855.39	14545
855.524	14579
855.658	14590
855.792	14606
855.926	14693
856.06	14518
856.194	14648
856.327	14450
856.461	14465
856.595	14473
856.729	14545
856.862	14705
856.996	14571
857.13	14632
857.263	14670
857.397	14697
857.53	14564
857.664	14625
857.797	14629
857.931	14632
858.064	14632
858.197	14587
858.331	14533
858.464	14594
858.597	14431
858.731	14522
858.864	14537
858.997	14583
859.13	14503
859.263	14644
859.396	14632
859.529	14473
859.662	14454
859.795	14499
859.928	14590
860.061	14731
860.194	14739
860.327	14545
860.46	14495
860.592	14648
860.725	14788
860.858	14712
860.99	14613
861.123	14461
861.256	14499
861.388	14541
861.521	15108
861.653	14431
861.786	14355
861.918	14377
862.05	14503
862.183	14511
862.315	14530
862.447	14549
862.58	14499
862.712	14305
862.844	14290
862.976	14393
863.108	14381
863.24	14796
863.372	14256
863.504	14366
863.636	14301
863.768	14446
863.9	14267
864.032	14218
864.164	14286
864.296	14328
864.428	14446
864.559	14499
864.691	14393
864.823	14339
864.954	14370
865.086	14370
865.217	14294
865.349	14161
865.48	14275
865.612	14221
865.743	14484
865.875	14225
866.006	14294
866.137	14305
866.269	14362
866.4	14290
866.531	14309
866.662	14157
866.793	14256
866.924	14233
867.055	14301
867.186	14385
867.317	14229
867.448	14172
867.579	14263
867.71	14221
867.841	14142
867.972	14282
868.103	14343
868.233	14275
868.364	14324
868.495	14431
868.625	14484
868.756	14568
868.886	14446
869.017	14590
869.147	14587
869.278	14629
869.408	14560
869.539	14522
869.669	14575
869.799	14594
869.929	14743
870.06	14602
870.19	14796
870.32	14842
870.45	14914
870.58	14899
870.71	15055
870.84	15020
870.97	14937
871.1	14971
871.23	15119
871.36	15108
871.489	15024
871.619	15070
871.749	15119
871.879	15119
872.008	15260
872.138	15142
872.267	15176
872.397	15024
872.526	14937
872.656	14857
872.785	14895
872.915	15165
873.044	15161
873.173	15070
873.303	15279
873.432	15222
873.561	15272
873.69	15226
873.819	15192
873.948	15233
874.077	15226
874.206	15184
874.335	15226
874.464	15291
874.593	15458
874.722	15382
874.851	15530
874.979	15473
875.108	15595
875.237	15367
875.365	15340
875.494	15424
875.623	15599
875.751	15511
875.88	15496
876.008	15701
876.136	15698
876.265	15846
876.393	15987
876.521	16025
876.65	16093
876.778	15930
876.906	15918
877.034	15827
877.162	15907
877.29	15876
877.418	15892
877.546	15937
877.674	15926
877.802	15895
877.93	15907
878.058	15873
878.185	15785
878.313	15861
878.441	15922
878.568	15797
878.696	15698
878.824	15907
878.951	16013
879.079	16124
879.206	16287
879.333	16135
879.461	16021
879.588	16158
879.715	16154
879.842	16443
879.97	16006
880.097	15751
880.224	15736
880.351	15857
880.478	15846
880.605	15774
880.732	15816
880.859	15915
880.986	15762
881.112	15778
881.239	15622
881.366	15561
881.493	15523
881.619	15439
881.746	15454
881.872	15523
881.999	15325
882.125	15374
882.252	15378
882.378	15466
882.505	15633
882.631	15431
882.757	15192
882.883	15249
883.01	15306
883.136	15256
883.262	15093
883.388	15108
883.514	15363
883.64	15287
883.766	15119
883.892	14979
884.018	15097
884.143	15176
884.269	15298
884.395	14918
884.52	14967
884.646	14918
884.772	14872
884.897	14902
885.023	14925
885.148	14944
885.274	15138
885.399	14979
885.524	14921
885.65	14883
885.775	15005
885.9	14944
886.025	15081
886.15	14906
886.275	14815
886.4	14697
886.525	14899
886.65	14864
886.775	14826
886.9	15001
887.025	15184
887.149	15024
887.274	14750
887.399	14720
887.523	14689
887.648	14663
887.773	14731
887.897	14895
888.021	14781
888.146	14727
888.27	14845
888.395	14891
888.519	14876
888.643	14823
888.767	14731
888.891	14731
889.015	14670
889.139	14663
889.263	14686
889.387	14785
889.511	14811
889.635	14754
889.759	14556
889.883	14651
890.006	14667
890.13	14743
890.254	14530
890.377	14415
890.501	14438
890.624	14313
890.748	14492
890.871	14396
890.995	14252
891.118	14161
891.241	14309
891.364	14332
891.488	14343
891.611	14248
891.734	14374
891.857	14343
891.98	14355
892.103	14389
892.226	14381
892.349	14278
892.471	14237
892.594	14202
892.717	14301
892.839	14362
892.962	14286
893.085	14343
893.207	14229
893.33	14252
893.452	14278
893.575	14389
893.697	14301
893.819	14370
893.941	14480
894.064	14522
894.186	14320
894.308	14259
894.43	14427
894.552	14530
894.674	14336
894.796	14233
894.918	14347
895.04	14336
895.161	14533
895.283	14415
895.405	14301
895.526	14381
895.648	14396
895.769	14374
895.891	14568
896.012	14442
896.134	14499
896.255	14450
896.376	14446
896.498	14484
896.619	14415
896.74	14533
896.861	14499
896.982	14849
897.103	15039
897.224	14804
897.345	14804
897.466	14705
897.587	14743
897.708	14925
897.828	14838
897.949	14670
898.07	14564
898.19	14724
898.311	14910
898.431	14743
898.552	14864
898.672	14941
898.792	14861
898.913	14941
899.033	14773
899.153	14659
899.273	14518
899.393	14674
899.513	14773
899.633	14667
899.753	14678
899.873	14640
899.993	14705
900.113	14674
900.232	14735
900.352	14689
900.472	14625
900.591	14423
900.711	14564
900.83	14552
900.95	14594
901.069	14724
901.189	14530
901.308	14442
901.427	14202
901.546	14263
901.665	14259
901.784	14263
901.904	14020
902.023	13997
902.141	13769
902.26	13750
902.379	13852
902.498	13814
902.617	13742
902.735	13883
902.854	13727
902.973	13715
903.091	13578
903.21	13548
903.328	13499
903.446	13411
903.565	13324
903.683	13350
903.801	13339
903.919	13285
904.038	13320
904.156	13088
904.274	13289
904.392	13027
904.51	13152
904.627	13095
904.745	13244
904.863	13213
904.981	12901
905.098	12878
905.216	12920
905.334	12859
905.451	12871
905.569	12738
905.686	12867
905.803	12840
905.921	12650
906.038	12768
906.155	12692
906.272	12650
906.389	12597
906.506	12437
906.623	12464
906.74	12323
906.857	12384
906.974	12273
907.091	12460
907.208	12555
907.324	12555
907.441	12388
907.557	12148
907.674	12224
907.79	12125
907.907	12095
908.023	12133
908.139	12232
908.256	12133
908.372	12087
908.488	12095
908.604	11958
908.72	11923
908.836	11836
908.952	11897
909.068	11954
909.184	12049
909.3	12003
909.415	12019
909.531	11916
909.647	11752
909.762	11688
909.878	11619
909.993	11760
910.108	11661
910.224	11695
910.339	11695
910.454	11615
910.57	11558
910.685	11490
910.8	11775
910.915	11623
911.03	11543
911.145	11421
911.259	11395
911.374	11296
911.489	11353
911.604	11341
911.718	11162
911.833	11216
911.947	11083
912.062	10949
912.176	11178
912.291	11162
912.405	11140
912.519	11395
912.633	11345
912.748	11208
912.862	11064
912.976	11075
913.09	10980
913.204	10976
913.318	11003
913.431	11124
913.545	11143
913.659	11136
913.772	10991
913.886	10869
914	10839
914.113	10987
914.226	11037
914.34	10980
914.453	10824
914.566	10999
914.68	10854
914.793	10889
914.906	10668
915.019	10592
915.132	10538
915.245	10630
915.358	10645
915.47	10725
915.583	10714
915.696	10767
915.809	10790
915.921	10812
916.034	10527
916.146	10519
916.259	10561
916.371	10710
916.483	10683
916.595	10516
916.708	10603
916.82	10535
916.932	10550
917.044	10569
917.156	10527
917.268	10443
917.38	10417
917.491	10421
917.603	10508
917.715	10622
917.826	10573
917.938	10443
918.049	10344
918.161	10493
918.272	10550
918.384	10615
918.495	10451
918.606	10306
918.717	10322
918.828	10371
918.939	10360
919.05	10287
919.161	10299
919.272	10238
919.383	10158
919.494	10481
919.604	10607
919.715	10390
919.826	10272
919.936	10234
920.047	10394
920.157	10367
920.267	10500
920.378	10394
920.488	10356
920.598	10500
920.708	10683
920.818	10592
920.928	10580
921.038	10771
921.148	10679
921.258	10470
921.368	10363
921.477	10185
921.587	10192
921.697	10166
921.806	10238
921.916	10093
922.025	9949
922.134	9956
922.244	9880
922.353	9972
922.462	9755
922.571	9785
922.68	9625
922.789	9572
922.898	9686
923.007	9511
923.116	9584
923.224	9584
923.333	9553
923.442	9507
923.55	9393
923.659	9492
923.767	9564
923.876	9405
923.984	9519
924.092	9405
924.201	9450
924.309	9469
924.417	9428
924.525	9348
924.633	9511
924.741	10291
924.849	9275
924.956	9428
925.064	9241
925.172	9097
925.279	9211
925.387	9260
925.494	9233
925.602	9283
925.709	9363
925.816	9108
925.924	9245
926.031	9401
926.138	9340
926.245	9313
926.352	9154
926.459	9306
926.566	9344
926.673	9230
926.779	9089
926.886	9081
926.993	9028
927.099	8967
927.206	8906
927.312	8941
927.419	9013
927.525	8944
927.631	8963
927.737	8952
927.843	8804
927.95	8724
928.056	8830
928.162	8777
928.267	8921
928.373	9382
928.479	9017
928.585	8727
928.69	8769
928.796	8819
928.901	8705
929.007	8667
929.112	8796
929.218	8788
929.323	8667
929.428	8693
929.533	8720
929.638	8594
929.743	8667
929.848	8697
929.953	8697
930.058	8552
930.163	8514
930.267	8431
930.372	8617
930.477	8423
930.581	8644
930.685	8537
930.79	8381
930.894	8438
930.998	8404
931.103	8499
931.207	8240
931.311	8119
931.415	8031
931.519	7906
931.623	7940
