Data from test_V78500241_1888.txt Node
Date: Fri Mar 25 14:46:51 CST 2022
User: usil
Spectrometer: V785-0024
Trigger mode: 0
Integration Time (sec): 4.000000E-1
Scans to average: 1
Nonlinearity correction enabled: false
Boxcar width: 0
Storing dark spectrum: false
XAxis mode: Wavelengths
Number of Pixels in Spectrum: 1024
>>>>>Begin Spectral Data<<<<<
801.071	22006
801.214	22059
801.356	21682
801.499	21709
801.641	21534
801.783	21500
801.926	21545
802.068	21424
802.211	21363
802.353	21230
802.496	21093
802.638	20861
802.78	20857
802.923	20861
803.065	20849
803.208	20868
803.35	20941
803.492	20910
803.635	21001
803.777	20902
803.919	20910
804.061	21165
804.204	20906
804.346	20792
804.488	20800
804.63	20853
804.773	20720
804.915	20765
805.057	20830
805.199	20689
805.341	20800
805.483	20868
805.626	20834
805.768	20644
805.91	20826
806.052	20773
806.194	20682
806.336	20921
806.478	20762
806.62	20663
806.762	20769
806.904	20956
807.046	21127
807.188	21116
807.33	21001
807.472	21131
807.614	20998
807.756	21047
807.898	20804
808.04	20769
808.182	20636
808.324	20777
808.465	20857
808.607	21058
808.749	21062
808.891	21089
809.033	21287
809.174	21146
809.316	20990
809.458	20990
809.6	21093
809.741	21230
809.883	21264
810.025	21302
810.166	21370
810.308	21214
810.45	21180
810.591	21116
810.733	20921
810.875	20849
811.016	20804
811.158	20670
811.299	20982
811.441	20887
811.582	20952
811.724	20857
811.865	20826
812.007	20792
812.148	20868
812.29	20944
812.431	21058
812.573	21154
812.714	21367
812.855	21416
812.997	21481
813.138	21538
813.279	21416
813.421	21408
813.562	21325
813.703	21176
813.845	21108
813.986	20712
814.127	20541
814.268	20533
814.41	20495
814.551	20408
814.692	20450
814.833	20377
814.974	20457
815.115	20385
815.256	20267
815.397	20263
815.539	20328
815.68	20084
815.821	20069
815.962	20134
816.103	20054
816.244	19997
816.385	19944
816.526	19822
816.666	19731
816.807	19571
816.948	19628
817.089	19643
817.23	19658
817.371	19495
817.512	19594
817.653	19639
817.793	19521
817.934	19544
818.075	19590
818.216	19571
818.356	19438
818.497	19434
818.638	19206
818.778	19221
818.919	19175
819.06	19301
819.2	19419
819.341	19403
819.481	19350
819.622	19601
819.762	19738
819.903	19674
820.043	19514
820.184	19495
820.324	19594
820.465	19689
820.605	19571
820.746	19449
820.886	19453
821.026	19605
821.167	19609
821.307	19586
821.447	19533
821.588	19354
821.728	19293
821.868	19110
822.008	18932
822.149	19027
822.289	18993
822.429	18681
822.569	18631
822.709	18654
822.849	18426
822.99	18490
823.13	18467
823.27	18346
823.41	18327
823.55	18235
823.69	18262
823.83	18186
823.97	18098
824.11	18019
824.25	18060
824.389	17939
824.529	18098
824.669	18053
824.809	18129
824.949	18163
825.089	18121
825.228	18034
825.368	17809
825.508	17821
825.648	17836
825.787	17935
825.927	17923
826.067	17745
826.206	17657
826.346	17813
826.485	17779
826.625	17760
826.765	17897
826.904	17798
827.044	17585
827.183	17638
827.323	17520
827.462	17691
827.601	17490
827.741	17471
827.88	17467
828.02	17334
828.159	17486
828.298	17566
828.437	17558
828.577	17433
828.716	17608
828.855	17463
828.994	17307
829.134	17307
829.273	17334
829.412	17242
829.551	17208
829.69	17296
829.829	17273
829.968	17372
830.107	17258
830.246	17311
830.385	17208
830.524	17124
830.663	17033
830.802	17045
830.941	16881
831.08	16820
831.219	16934
831.357	16892
831.496	17060
831.635	16831
831.774	16835
831.913	16710
832.051	16694
832.19	16694
832.329	16607
832.467	16542
832.606	16538
832.744	16599
832.883	16599
833.022	16546
833.16	16626
833.299	16740
833.437	16664
833.576	16637
833.714	16653
833.852	16725
833.991	16641
834.129	16721
834.267	16656
834.406	16584
834.544	16653
834.682	16656
834.821	16538
834.959	16740
835.097	16596
835.235	16645
835.373	16679
835.511	16683
835.65	16466
835.788	16493
835.926	16398
836.064	16405
836.202	16421
836.34	16577
836.478	16618
836.615	16512
836.753	16531
836.891	16596
837.029	16618
837.167	16462
837.305	16531
837.443	16402
837.58	16402
837.718	16447
837.856	16337
837.993	16405
838.131	16455
838.269	16367
838.406	16367
838.544	16310
838.681	16071
838.819	16086
838.956	15964
839.094	15949
839.231	15956
839.369	16196
839.506	16356
839.643	16246
839.781	15960
839.918	15899
840.055	15975
840.193	15968
840.33	16036
840.467	15975
840.604	16025
840.742	16226
840.879	15899
841.016	15895
841.153	15842
841.29	16090
841.427	15968
841.564	15975
841.701	16040
841.838	15937
841.975	15819
842.112	15804
842.249	15895
842.385	15759
842.522	15895
842.659	15766
842.796	15709
842.933	15785
843.069	15644
843.206	15629
843.343	15785
843.479	15835
843.616	15736
843.752	15519
843.889	15538
844.025	15682
844.162	15519
844.298	15545
844.435	15568
844.571	15492
844.708	15637
844.844	15705
844.98	15736
845.117	15778
845.253	15526
845.389	15447
845.525	15408
845.661	15344
845.798	15351
845.934	15325
846.07	15283
846.206	15378
846.342	15439
846.478	15199
846.614	15142
846.75	15009
846.886	15138
847.022	15116
847.158	15165
847.294	15176
847.429	15154
847.565	15043
847.701	15405
847.837	14830
847.972	14883
848.108	14929
848.244	14906
848.379	14754
848.515	14644
848.65	14708
848.786	14754
848.921	14811
849.057	14887
849.192	14804
849.328	14724
849.463	14758
849.598	14705
849.734	14568
849.869	14575
850.004	14518
850.14	14575
850.275	14530
850.41	14336
850.545	14431
850.68	14415
850.815	14438
850.95	14473
851.085	14674
851.22	14552
851.355	14533
851.49	14514
851.625	14431
851.76	14423
851.895	14347
852.03	14313
852.165	14400
852.299	14480
852.434	14587
852.569	14503
852.703	14518
852.838	14476
852.973	14678
853.107	14735
853.242	14454
853.376	14324
853.511	14278
853.645	14218
853.78	14473
853.914	14317
854.048	14267
854.183	14286
854.317	14309
854.451	14522
854.585	14317
854.72	14282
854.854	14488
854.988	14256
855.122	14355
855.256	14214
855.39	14278
855.524	14469
855.658	14377
855.792	14400
855.926	14377
856.06	14339
856.194	14423
856.327	14362
856.461	14221
856.595	14225
856.729	14282
856.862	14469
856.996	14362
857.13	14499
857.263	14511
857.397	14484
857.53	14347
857.664	14355
857.797	14351
857.931	14632
858.064	14355
858.197	14549
858.331	14339
858.464	14336
858.597	14290
858.731	14347
858.864	14298
858.997	14267
859.13	14366
859.263	14400
859.396	14282
859.529	14256
859.662	14351
859.795	14301
859.928	14381
860.061	14473
860.194	14541
860.327	14381
860.46	14324
860.592	14465
860.725	14423
860.858	14579
860.99	14366
861.123	14282
861.256	14366
861.388	14339
861.521	14883
861.653	14176
861.786	14180
861.918	14210
862.05	14256
862.183	14294
862.315	14355
862.447	14358
862.58	14328
862.712	14123
862.844	13921
862.976	14195
863.108	14206
863.24	14571
863.372	14043
863.504	14134
863.636	14031
863.768	14145
863.9	14020
864.032	14035
864.164	14130
864.296	14259
864.428	14309
864.559	14214
864.691	14256
864.823	14202
864.954	14123
865.086	14077
865.217	14027
865.349	13997
865.48	14111
865.612	14161
865.743	14191
865.875	14062
866.006	13852
866.137	14069
866.269	14111
866.4	14069
866.531	14065
866.662	14012
866.793	14103
866.924	14126
867.055	14077
867.186	14039
867.317	14077
867.448	14024
867.579	14134
867.71	13925
867.841	14046
867.972	14130
868.103	14073
868.233	14157
868.364	14084
868.495	14240
868.625	14294
868.756	14431
868.886	14309
869.017	14317
869.147	14431
869.278	14575
869.408	14404
869.539	14461
869.669	14366
869.799	14442
869.929	14518
870.06	14404
870.19	14598
870.32	14632
870.45	14697
870.58	14815
870.71	14754
870.84	14902
870.97	14750
871.1	14735
871.23	14864
871.36	14933
871.489	14929
871.619	14963
871.749	14986
871.879	14929
872.008	15074
872.138	14941
872.267	14864
872.397	14769
872.526	14883
872.656	14746
872.785	14845
872.915	15043
873.044	15077
873.173	15020
873.303	15100
873.432	15062
873.561	14990
873.69	15024
873.819	15043
873.948	15020
874.077	15093
874.206	14933
874.335	15001
874.464	15154
874.593	15393
874.722	15184
874.851	15374
874.979	15294
875.108	15428
875.237	15233
875.365	15211
875.494	15226
875.623	15386
875.751	15287
875.88	15428
876.008	15488
876.136	15443
876.265	15701
876.393	15804
876.521	15857
876.65	15793
876.778	15785
876.906	15705
877.034	15732
877.162	15770
877.29	15610
877.418	15705
877.546	15713
877.674	15816
877.802	15831
877.93	15622
878.058	15667
878.185	15545
878.313	15781
878.441	15732
878.568	15584
878.696	15614
878.824	15800
878.951	15778
879.079	15869
879.206	16048
879.333	15949
879.461	15766
879.588	15804
879.715	15922
879.842	16051
879.97	15888
880.097	15557
880.224	15561
880.351	15591
880.478	15618
880.605	15538
880.732	15599
880.859	15880
880.986	15667
881.112	15641
881.239	15393
881.366	15336
881.493	15332
881.619	15260
881.746	15180
881.872	15233
881.999	15256
882.125	15142
882.252	15245
882.378	15313
882.505	15439
882.631	15199
882.757	15013
882.883	15074
883.01	15039
883.136	15047
883.262	14971
883.388	14971
883.514	15093
883.64	14975
883.766	15100
883.892	14872
884.018	14872
884.143	15074
884.269	15058
884.395	14834
884.52	14750
884.646	14769
884.772	14663
884.897	14674
885.023	14777
885.148	14792
885.274	14929
885.399	14777
885.524	14655
885.65	14750
885.775	14640
885.9	14746
886.025	14804
886.15	14807
886.275	14823
886.4	14606
886.525	14663
886.65	14739
886.775	14682
886.9	14834
887.025	15032
887.149	14716
887.274	14602
887.399	14568
887.523	14583
887.648	14507
887.773	14514
887.897	14568
888.021	14689
888.146	14537
888.27	14644
888.395	14708
888.519	14705
888.643	14602
888.767	14697
888.891	14541
889.015	14408
889.139	14415
889.263	14446
889.387	14583
889.511	14701
889.635	14606
889.759	14442
889.883	14404
890.006	14362
890.13	14571
890.254	14370
890.377	14476
890.501	14271
890.624	14172
890.748	14263
890.871	14240
890.995	14130
891.118	14012
891.241	14157
891.364	14111
891.488	14294
891.611	14119
891.734	14092
891.857	14263
891.98	14172
892.103	14256
892.226	14103
892.349	14103
892.471	14050
892.594	14126
892.717	14225
892.839	14100
892.962	14195
893.085	14191
893.207	14111
893.33	14073
893.452	14103
893.575	14161
893.697	14157
893.819	14358
893.941	14347
894.064	14275
894.186	14031
894.308	14115
894.43	14263
894.552	14355
894.674	14282
894.796	14145
894.918	14096
895.04	14252
895.161	14305
895.283	14263
895.405	14225
895.526	14256
895.648	14294
895.769	14221
895.891	14199
896.012	14374
896.134	14381
896.255	14263
896.376	14263
896.498	14256
896.619	14278
896.74	14305
896.861	14358
896.982	14655
897.103	14746
897.224	14636
897.345	14693
897.466	14476
897.587	14556
897.708	14648
897.828	14651
897.949	14568
898.07	14396
898.19	14545
898.311	14724
898.431	14625
898.552	14644
898.672	14701
898.792	14758
898.913	14689
899.033	14606
899.153	14484
899.273	14438
899.393	14511
899.513	14549
899.633	14461
899.753	14602
899.873	14522
899.993	14492
900.113	14465
900.232	14560
900.352	14495
900.472	14465
900.591	14317
900.711	14412
900.83	14278
900.95	14480
901.069	14408
901.189	14309
901.308	14115
901.427	13967
901.546	14039
901.665	14054
901.784	14100
901.904	13951
902.023	13875
902.141	13651
902.26	13719
902.379	13628
902.498	13605
902.617	13559
902.735	13632
902.854	13628
902.973	13601
903.091	13445
903.21	13377
903.328	13434
903.446	13293
903.565	13156
903.683	13244
903.801	13027
903.919	13209
904.038	13232
904.156	12989
904.274	13171
904.392	13042
904.51	12981
904.627	13023
904.745	13091
904.863	13168
904.981	12764
905.098	12753
905.216	12703
905.334	12749
905.451	12749
905.569	12688
905.686	12772
905.803	12623
905.921	12540
906.038	12627
906.155	12578
906.272	12418
906.389	12498
906.506	12384
906.623	12289
906.74	12220
906.857	12159
906.974	12213
907.091	12285
907.208	12483
907.324	12285
907.441	12148
907.557	12007
907.674	11958
907.79	12011
907.907	12015
908.023	12072
908.139	12003
908.256	12007
908.372	11950
908.488	11931
908.604	11836
908.72	11821
908.836	11821
908.952	11767
909.068	11863
909.184	11893
909.3	11809
909.415	11832
909.531	11813
909.647	11634
909.762	11627
909.878	11554
909.993	11604
910.108	11543
910.224	11577
910.339	11554
910.454	11455
910.57	11406
910.685	11395
910.8	11688
910.915	11573
911.03	11486
911.145	11242
911.259	11288
911.374	11258
911.489	11273
911.604	11159
911.718	11094
911.833	10915
911.947	11018
912.062	10881
912.176	10999
912.291	11025
912.405	11018
912.519	11193
912.633	11299
912.748	11132
912.862	11025
912.976	10984
913.09	10744
913.204	10889
913.318	10930
913.431	11018
913.545	10942
913.659	11022
913.772	10908
913.886	10820
914	10744
914.113	10866
914.226	10908
914.34	10778
914.453	10683
914.566	10877
914.68	10717
914.793	10717
914.906	10554
915.019	10466
915.132	10459
915.245	10516
915.358	10485
915.47	10592
915.583	10531
915.696	10611
915.809	10645
915.921	10687
916.034	10500
916.146	10493
916.259	10413
916.371	10630
916.483	10523
916.595	10436
916.708	10508
916.82	10462
916.932	10516
917.044	10382
917.156	10382
917.268	10333
917.38	10382
917.491	10325
917.603	10382
917.715	10394
917.826	10440
917.938	10310
918.049	10181
918.161	10363
918.272	10519
918.384	10443
918.495	10375
918.606	10272
918.717	10162
918.828	10196
918.939	10314
919.05	10135
919.161	10173
919.272	10021
919.383	10078
919.494	10287
919.604	10462
919.715	10268
919.826	10120
919.936	10230
920.047	10306
920.157	10295
920.267	10478
920.378	10363
920.488	10318
920.598	10428
920.708	10519
920.818	10367
920.928	10459
921.038	10554
921.148	10538
921.258	10234
921.368	10150
921.477	10120
921.587	10086
921.697	9987
921.806	10093
921.916	10044
922.025	9873
922.134	9778
922.244	9747
922.353	9846
922.462	9736
922.571	9637
922.68	9538
922.789	9481
922.898	9473
923.007	9454
923.116	9557
923.224	9466
923.333	9504
923.442	9408
923.55	9272
923.659	9382
923.767	9428
923.876	9359
923.984	9439
924.092	9336
924.201	9428
924.309	9443
924.417	9367
924.525	9253
924.633	9332
924.741	10219
924.849	9180
924.956	9359
925.064	9131
925.172	9119
925.279	9081
925.387	9173
925.494	9131
925.602	9332
925.709	9245
925.816	9108
925.924	9127
926.031	9279
926.138	9218
926.245	9157
926.352	9100
926.459	9169
926.566	9230
926.673	9077
926.779	9055
926.886	9024
926.993	8887
927.099	8861
927.206	8788
927.312	8796
927.419	8872
927.525	8876
927.631	8914
927.737	8743
927.843	8773
927.95	8667
928.056	8758
928.162	8804
928.267	8849
928.373	9363
928.479	8902
928.585	8632
928.69	8743
928.796	8819
928.901	8667
929.007	8518
929.112	8769
929.218	8693
929.323	8640
929.428	8606
929.533	8693
929.638	8560
929.743	8590
929.848	8636
929.953	8533
930.058	8434
930.163	8282
930.267	8393
930.372	8511
930.477	8374
930.581	8549
930.685	8434
930.79	8286
930.894	8317
930.998	8214
931.103	8419
931.207	8077
931.311	8054
931.415	8008
931.519	7807
931.623	7750
