Data from test_V78500241_635.txt Node
Date: Fri Mar 25 14:38:08 CST 2022
User: usil
Spectrometer: V785-0024
Trigger mode: 0
Integration Time (sec): 4.000000E-1
Scans to average: 1
Nonlinearity correction enabled: false
Boxcar width: 0
Storing dark spectrum: false
XAxis mode: Wavelengths
Number of Pixels in Spectrum: 1024
>>>>>Begin Spectral Data<<<<<
801.071	27857
801.214	27838
801.356	27625
801.499	27378
801.641	27313
801.783	27264
801.926	27420
802.068	27142
802.211	27138
802.353	26944
802.496	26796
802.638	26826
802.78	26746
802.923	26826
803.065	26602
803.208	26697
803.35	26686
803.492	26838
803.635	26948
803.777	26659
803.919	26826
804.061	27245
804.204	27093
804.346	27001
804.488	26948
804.63	26994
804.773	26887
804.915	26880
805.057	27146
805.199	27074
805.341	27070
805.483	27431
805.626	27325
805.768	27351
805.91	27511
806.052	27519
806.194	27587
806.336	27941
806.478	28002
806.62	28082
806.762	28375
806.904	28672
807.046	29166
807.188	29444
807.33	29672
807.472	30239
807.614	30700
807.756	31419
807.898	32370
808.04	33618
808.182	35193
808.324	37434
808.465	39732
808.607	42334
808.749	44876
808.891	46337
809.033	46333
809.174	44804
809.316	42680
809.458	39770
809.6	36985
809.741	34797
809.883	33096
810.025	32012
810.166	31095
810.308	30486
810.45	29904
810.591	29459
810.733	28927
810.875	28801
811.016	28401
811.158	28154
811.299	28299
811.441	28166
811.582	28067
811.724	27766
811.865	27663
812.007	27576
812.148	27591
812.29	27416
812.431	27660
812.573	27701
812.714	27789
812.855	27778
812.997	28051
813.138	27956
813.279	27876
813.421	27709
813.562	27523
813.703	27344
813.845	27230
813.986	26990
814.127	26705
814.268	26514
814.41	26636
814.551	26560
814.692	26571
814.833	26480
814.974	26480
815.115	26503
815.256	26248
815.397	26206
815.539	26180
815.68	26206
815.821	26100
815.962	26164
816.103	26122
816.244	25993
816.385	25986
816.526	25647
816.666	25487
816.807	25495
816.948	25578
817.089	25419
817.23	25396
817.371	25407
817.512	25358
817.653	25403
817.793	25316
817.934	25400
818.075	25369
818.216	25331
818.356	25270
818.497	25236
818.638	25008
818.778	25099
818.919	25050
819.06	25129
819.2	25137
819.341	25221
819.481	25183
819.622	25285
819.762	25655
819.903	25518
820.043	25289
820.184	25270
820.324	25244
820.465	25164
820.605	25247
820.746	25236
820.886	25027
821.026	25107
821.167	25050
821.307	25179
821.447	25110
821.588	24943
821.728	24764
821.868	24612
822.008	24601
822.149	24544
822.289	24414
822.429	24285
822.569	24114
822.709	24159
822.849	23923
822.99	23954
823.13	23882
823.27	23821
823.41	23764
823.55	23741
823.69	23786
823.83	23748
823.97	23661
824.11	23349
824.25	23406
824.389	23512
824.529	23436
824.669	23501
824.809	23653
824.949	23535
825.089	23452
825.228	23429
825.368	23250
825.508	23258
825.648	23258
825.787	23208
825.927	23277
826.067	23193
826.206	23132
826.346	23311
826.485	23231
826.625	23124
826.765	23322
826.904	23292
827.044	22930
827.183	22980
827.323	22942
827.462	22999
827.601	22858
827.741	22850
827.88	22938
828.02	22854
828.159	22862
828.298	22809
828.437	22831
828.577	22843
828.716	23044
828.855	22736
828.994	22561
829.134	22679
829.273	22569
829.412	22432
829.551	22493
829.69	22512
829.829	22592
829.968	22569
830.107	22577
830.246	22535
830.385	22561
830.524	22333
830.663	22360
830.802	22402
830.941	22093
831.08	22177
831.219	22154
831.357	22207
831.496	22382
831.635	22090
831.774	21979
831.913	22223
832.051	21903
832.19	22006
832.329	22139
832.467	22067
832.606	22097
832.744	21991
832.883	21994
833.022	22002
833.16	22185
833.299	22238
833.437	22371
833.576	22531
833.714	22592
833.852	22771
833.991	22706
834.129	22866
834.267	22927
834.406	22782
834.544	22854
834.682	22691
834.821	22481
834.959	22649
835.097	22390
835.235	22284
835.373	22204
835.511	22120
835.65	21960
835.788	21907
835.926	21698
836.064	21534
836.202	21625
836.34	21797
836.478	21960
836.615	21644
836.753	21641
836.891	21713
837.029	21755
837.167	21679
837.305	21526
837.443	21450
837.58	21462
837.718	21492
837.856	21443
837.993	21469
838.131	21485
838.269	21268
838.406	21336
838.544	21329
838.681	21176
838.819	21077
838.956	20929
839.094	20826
839.231	21119
839.369	21077
839.506	21298
839.643	21123
839.781	20902
839.918	20864
840.055	20845
840.193	20899
840.33	20880
840.467	20902
840.604	20944
840.742	21096
840.879	20739
841.016	20811
841.153	20674
841.29	21013
841.427	20918
841.564	20853
841.701	20853
841.838	20735
841.975	20754
842.112	20682
842.249	20651
842.385	20667
842.522	20910
842.659	20651
842.796	20743
842.933	20602
843.069	20587
843.206	20667
843.343	20853
843.479	20796
843.616	20682
843.752	20629
843.889	20594
844.025	20777
844.162	20705
844.298	20956
844.435	20887
844.571	21051
844.708	21313
844.844	21637
844.98	22112
845.117	22497
845.253	23121
845.389	24589
845.525	27458
845.661	32115
845.798	37499
845.934	41923
846.07	43438
846.206	42429
846.342	38678
846.478	33180
846.614	28645
846.75	25160
846.886	23455
847.022	22230
847.158	21511
847.294	21005
847.429	20872
847.565	20533
847.701	20712
847.837	20115
847.972	19940
848.108	19986
848.244	19909
848.379	19693
848.515	19624
848.65	19559
848.786	19586
848.921	19502
849.057	19658
849.192	19601
849.328	19632
849.463	19381
849.598	19495
849.734	19476
849.869	19327
850.004	19225
850.14	19327
850.275	19247
850.41	19175
850.545	19209
850.68	19381
850.815	19198
850.95	19270
851.085	19483
851.22	19255
851.355	19190
851.49	19202
851.625	19194
851.76	19198
851.895	19137
852.03	19164
852.165	19251
852.299	19175
852.434	19244
852.569	19236
852.703	19274
852.838	19308
852.973	19476
853.107	19480
853.242	19206
853.376	19259
853.511	19114
853.645	19202
853.78	19320
853.914	19400
854.048	19278
854.183	19285
854.317	19312
854.451	19506
854.585	19346
854.72	19362
854.854	19457
854.988	19240
855.122	19282
855.256	19012
855.39	19213
855.524	19320
855.658	19202
855.792	19327
855.926	19050
856.06	19145
856.194	19152
856.327	19034
856.461	18977
856.595	18924
856.729	19015
856.862	19164
856.996	19145
857.13	19179
857.263	19152
857.397	19080
857.53	18966
857.664	19129
857.797	19050
857.931	19240
858.064	18993
858.197	19088
858.331	18913
858.464	18932
858.597	18837
858.731	18814
858.864	18825
858.997	18871
859.13	18901
859.263	18875
859.396	19031
859.529	18840
859.662	18772
859.795	18905
859.928	18894
860.061	19133
860.194	18962
860.327	18886
860.46	18871
860.592	19019
860.725	19034
860.858	18943
860.99	18806
861.123	18768
861.256	18776
861.388	18798
861.521	19457
861.653	18673
861.786	18620
861.918	18741
862.05	18768
862.183	18802
862.315	18856
862.447	18901
862.58	18897
862.712	18498
862.844	18566
862.976	18608
863.108	18551
863.24	19038
863.372	18460
863.504	18677
863.636	18464
863.768	18639
863.9	18540
864.032	18479
864.164	18479
864.296	18608
864.428	18601
864.559	18722
864.691	18532
864.823	18555
864.954	18604
865.086	18650
865.217	18479
865.349	18311
865.48	18445
865.612	18456
865.743	18604
865.875	18532
866.006	18403
866.137	18479
866.269	18456
866.4	18486
866.531	18467
866.662	18361
866.793	18414
866.924	18395
867.055	18426
867.186	18403
867.317	18338
867.448	18323
867.579	18410
867.71	18289
867.841	18391
867.972	18426
868.103	18403
868.233	18551
868.364	18452
868.495	18540
868.625	18612
868.756	18707
868.886	18623
869.017	18570
869.147	18806
869.278	18817
869.408	18745
869.539	18734
869.669	18795
869.799	18760
869.929	18901
870.06	18783
870.19	19038
870.32	19050
870.45	19076
870.58	19141
870.71	19187
870.84	19183
870.97	19046
871.1	19160
871.23	19369
871.36	19209
871.489	19308
871.619	19365
871.749	19335
871.879	19464
872.008	19533
872.138	19388
872.267	19373
872.397	19301
872.526	19285
872.656	19343
872.785	19350
872.915	19514
873.044	19525
873.173	19575
873.303	19639
873.432	19586
873.561	19662
873.69	19544
873.819	19605
873.948	19571
874.077	19613
874.206	19670
874.335	19693
874.464	19883
874.593	20050
874.722	19951
874.851	20142
874.979	20050
875.108	20073
875.237	19989
875.365	20043
875.494	20039
875.623	20221
875.751	20206
875.88	20290
876.008	20503
876.136	20442
876.265	20830
876.393	20887
876.521	21047
876.65	20967
876.778	20975
876.906	21036
877.034	21005
877.162	21074
877.29	21131
877.418	21135
877.546	21329
877.674	21428
877.802	21443
877.93	21599
878.058	21698
878.185	21739
878.313	22021
878.441	22474
878.568	22580
878.696	23143
878.824	23710
878.951	24688
879.079	25940
879.206	27671
879.333	29395
879.461	30677
879.588	31613
879.715	31616
879.842	30973
879.97	29311
880.097	27545
880.224	26282
880.351	25228
880.478	24627
880.605	24102
880.732	23798
880.859	23832
880.986	23585
881.112	23474
881.239	23178
881.366	23052
881.493	22968
881.619	22934
881.746	23010
881.872	22915
881.999	23018
882.125	23037
882.252	23147
882.378	23216
882.505	23379
882.631	23124
882.757	23010
882.883	23025
883.01	22957
883.136	22942
883.262	22828
883.388	22744
883.514	22892
883.64	22927
883.766	22805
883.892	22687
884.018	22740
884.143	22900
884.269	22919
884.395	22698
884.52	22664
884.646	22660
884.772	22561
884.897	22618
885.023	22599
885.148	22694
885.274	22774
885.399	22630
885.524	22470
885.65	22348
885.775	22261
885.9	22147
886.025	21994
886.15	22070
886.275	21770
886.4	21511
886.525	21549
886.65	21370
886.775	21207
886.9	21302
887.025	21393
887.149	21188
887.274	20914
887.399	20777
887.523	20735
887.648	20613
887.773	20503
887.897	20537
888.021	20545
888.146	20320
888.27	20442
888.395	20484
888.519	20282
888.643	20286
888.767	20259
888.891	20126
889.015	20012
889.139	20016
889.263	19898
889.387	19875
889.511	20202
889.635	19944
889.759	19811
889.883	19696
890.006	19632
890.13	19875
890.254	19518
890.377	19597
890.501	19343
890.624	19282
890.748	19441
890.871	19335
890.995	19175
891.118	19148
891.241	19061
891.364	19137
891.488	19209
891.611	18932
891.734	18973
891.857	19065
891.98	18901
892.103	19084
892.226	18973
892.349	18833
892.471	18715
892.594	18894
892.717	18802
892.839	18658
892.962	18787
893.085	18844
893.207	18726
893.33	18555
893.452	18452
893.575	18726
893.697	18616
893.819	18772
893.941	18753
894.064	18738
894.186	18566
894.308	18528
894.43	18620
894.552	18559
894.674	18506
894.796	18372
894.918	18452
895.04	18467
895.161	18475
895.283	18429
895.405	18410
895.526	18350
895.648	18388
895.769	18342
895.891	18350
896.012	18566
896.134	18509
896.255	18380
896.376	18403
896.498	18407
896.619	18369
896.74	18315
896.861	18384
896.982	18620
897.103	18715
897.224	18589
897.345	18540
897.466	18604
897.587	18479
897.708	18521
897.828	18502
897.949	18528
898.07	18376
898.19	18502
898.311	18563
898.431	18456
898.552	18509
898.672	18661
898.792	18604
898.913	18502
899.033	18346
899.153	18376
899.273	18171
899.393	18243
899.513	18273
899.633	18243
899.753	18338
899.873	18254
899.993	18254
900.113	18334
900.232	18372
900.352	18235
900.472	18270
900.591	18064
900.711	18087
900.83	17980
900.95	18174
901.069	18251
901.189	18049
901.308	17847
901.427	17634
901.546	17684
901.665	17642
901.784	17668
901.904	17497
902.023	17353
902.141	17220
902.26	17200
902.379	17185
902.498	17143
902.617	17067
902.735	17204
902.854	17140
902.973	17086
903.091	16809
903.21	16736
903.328	16824
903.446	16713
903.565	16508
903.683	16634
903.801	16440
903.919	16569
904.038	16451
904.156	16371
904.274	16329
904.392	16284
904.51	16280
904.627	16360
904.745	16356
904.863	16341
904.981	16135
905.098	15968
905.216	15915
905.334	15930
905.451	15953
905.569	15953
905.686	15979
905.803	16025
905.921	15759
906.038	15812
906.155	15743
906.272	15629
906.389	15701
906.506	15485
906.623	15450
906.74	15439
906.857	15401
906.974	15310
907.091	15504
907.208	15580
907.324	15504
907.441	15454
907.557	15203
907.674	15268
907.79	15116
907.907	15116
908.023	15184
908.139	15119
908.256	15131
908.372	15089
908.488	14998
908.604	14914
908.72	14910
908.836	14933
908.952	14918
909.068	14948
909.184	14944
909.3	14952
909.415	14914
909.531	14746
909.647	14667
909.762	14689
909.878	14594
909.993	14549
910.108	14625
910.224	14617
910.339	14514
910.454	14549
910.57	14480
910.685	14389
910.8	14587
910.915	14541
911.03	14442
911.145	14343
911.259	14271
911.374	14252
911.489	14187
911.604	14142
911.718	14069
911.833	14035
911.947	13887
912.062	13772
912.176	13944
912.291	14005
912.405	14001
912.519	14172
912.633	14050
912.748	14024
912.862	13909
912.976	13795
913.09	13712
913.204	13784
913.318	13868
913.431	13936
913.545	13963
913.659	13928
913.772	13780
913.886	13639
914	13620
914.113	13738
914.226	13791
914.34	13833
914.453	13613
914.566	13750
914.68	13609
914.793	13689
914.906	13365
915.019	13331
915.132	13308
915.245	13358
915.358	13373
915.47	13289
915.583	13388
915.696	13438
915.809	13422
915.921	13464
916.034	13331
916.146	13289
916.259	13206
916.371	13301
916.483	13339
916.595	13274
916.708	13301
916.82	13369
916.932	13263
917.044	13168
917.156	13168
917.268	13126
917.38	13164
917.491	13053
917.603	13076
917.715	13095
917.826	13152
917.938	13008
918.049	12985
918.161	13008
918.272	13152
918.384	13198
918.495	13076
918.606	12882
918.717	12734
918.828	12897
918.939	12943
919.05	12692
919.161	12783
919.272	12597
919.383	12734
919.494	12837
919.604	13004
919.715	12749
919.826	12730
919.936	12791
920.047	12829
920.157	12894
920.267	12973
920.378	12844
920.488	12783
920.598	13046
920.708	13000
920.818	12859
920.928	12894
921.038	13152
921.148	12993
921.258	12791
921.368	12566
921.477	12532
921.587	12525
921.697	12486
921.806	12521
921.916	12365
922.025	12277
922.134	12311
922.244	12125
922.353	12270
922.462	12083
922.571	12091
922.68	11889
922.789	11897
922.898	11878
923.007	11889
923.116	11832
923.224	11843
923.333	11901
923.442	11668
923.55	11684
923.659	11790
923.767	11760
923.876	11657
923.984	11794
924.092	11585
924.201	11710
924.309	11695
924.417	11653
924.525	11585
924.633	11668
924.741	12429
924.849	11425
924.956	11520
925.064	11395
925.172	11201
925.279	11425
925.387	11459
925.494	11299
925.602	11452
925.709	11452
925.816	11341
925.924	11383
926.031	11452
926.138	11299
926.245	11345
926.352	11311
926.459	11372
926.566	11444
926.673	11330
926.779	11140
926.886	11155
926.993	11052
927.099	11113
927.206	10934
927.312	10881
927.419	10995
927.525	10995
927.631	10968
927.737	10976
927.843	10889
927.95	10816
928.056	10824
928.162	10835
928.267	10885
928.373	11387
928.479	10961
928.585	10668
928.69	10892
928.796	10869
928.901	10805
929.007	10603
929.112	10733
929.218	10656
929.323	10714
929.428	10588
929.533	10850
929.638	10531
929.743	10588
929.848	10694
929.953	10527
930.058	10466
930.163	10398
930.267	10352
930.372	10428
930.477	10367
930.581	10546
930.685	10314
930.79	10268
930.894	10379
930.998	10192
931.103	10291
931.207	10029
931.311	9895
931.415	9869
931.519	9717
931.623	9660
