Data from test_V78500241_463.txt Node
Date: Fri Mar 25 14:36:56 CST 2022
User: usil
Spectrometer: V785-0024
Trigger mode: 0
Integration Time (sec): 4.000000E-1
Scans to average: 1
Nonlinearity correction enabled: false
Boxcar width: 0
Storing dark spectrum: false
XAxis mode: Wavelengths
Number of Pixels in Spectrum: 1024
>>>>>Begin Spectral Data<<<<<
801.071	26499
801.214	26408
801.356	26176
801.499	26168
801.641	25989
801.783	25902
801.926	25970
802.068	25830
802.211	25772
802.353	25811
802.496	25601
802.638	25521
802.78	25586
802.923	25438
803.065	25289
803.208	25434
803.35	25384
803.492	25578
803.635	25620
803.777	25502
803.919	25460
804.061	25833
804.204	25453
804.346	25441
804.488	25426
804.63	25426
804.773	25407
804.915	25559
805.057	25674
805.199	25422
805.341	25559
805.483	25567
805.626	25419
805.768	25445
805.91	25502
806.052	25491
806.194	25285
806.336	25704
806.478	25578
806.62	25460
806.762	25662
806.904	25750
807.046	25978
807.188	25944
807.33	25890
807.472	25932
807.614	25837
807.756	25708
807.898	25571
808.04	25635
808.182	25514
808.324	25655
808.465	25639
808.607	25811
808.749	25913
808.891	26187
809.033	26187
809.174	26115
809.316	25947
809.458	26005
809.6	25807
809.741	25959
809.883	26187
810.025	26122
810.166	26256
810.308	26081
810.45	26126
810.591	25986
810.733	25879
810.875	25906
811.016	25594
811.158	25620
811.299	25788
811.441	26103
811.582	25989
811.724	25799
811.865	25883
812.007	25906
812.148	25803
812.29	25849
812.431	25940
812.573	26107
812.714	26012
812.855	26233
812.997	26400
813.138	26541
813.279	26385
813.421	26298
813.562	26062
813.703	26157
813.845	25852
813.986	25643
814.127	25563
814.268	25358
814.41	25411
814.551	25168
814.692	25491
814.833	25289
814.974	25282
815.115	25327
815.256	25221
815.397	25126
815.539	25244
815.68	25065
815.821	25072
815.962	25232
816.103	25152
816.244	24958
816.385	24882
816.526	24821
816.666	24688
816.807	24395
816.948	24749
817.089	24707
817.23	24498
817.371	24578
817.512	24540
817.653	24407
817.793	24540
817.934	24460
818.075	24502
818.216	24563
818.356	24490
818.497	24235
818.638	24201
818.778	24045
818.919	24136
819.06	24201
819.2	24277
819.341	24350
819.481	24433
819.622	24422
819.762	24753
819.903	24658
820.043	24627
820.184	24509
820.324	24437
820.465	24471
820.605	24445
820.746	24574
820.886	24315
821.026	24479
821.167	24551
821.307	24494
821.447	24502
821.588	24247
821.728	24106
821.868	24182
822.008	23942
822.149	23710
822.289	23695
822.429	23478
822.569	23471
822.709	23402
822.849	23269
822.99	23280
823.13	23288
823.27	23208
823.41	23033
823.55	23037
823.69	22942
823.83	23010
823.97	23041
824.11	23006
824.25	22801
824.389	22759
824.529	22862
824.669	22816
824.809	22881
824.949	22961
825.089	22854
825.228	22786
825.368	22531
825.508	22622
825.648	22641
825.787	22637
825.927	22615
826.067	22508
826.206	22596
826.346	22634
826.485	22622
826.625	22607
826.765	22793
826.904	22637
827.044	22455
827.183	22455
827.323	22284
827.462	22257
827.601	22344
827.741	22303
827.88	22276
828.02	22120
828.159	22207
828.298	22352
828.437	22272
828.577	22249
828.716	22394
828.855	22010
828.994	22063
829.134	22082
829.273	22070
829.412	22029
829.551	21911
829.69	21907
829.829	22044
829.968	22093
830.107	21998
830.246	21956
830.385	21922
830.524	21949
830.663	21831
830.802	21656
830.941	21545
831.08	21599
831.219	21610
831.357	21599
831.496	21770
831.635	21610
831.774	21428
831.913	21370
832.051	21344
832.19	21279
832.329	21336
832.467	21302
832.606	21108
832.744	21214
832.883	21359
833.022	21123
833.16	21249
833.299	21211
833.437	21218
833.576	21184
833.714	21180
833.852	21207
833.991	21173
834.129	21370
834.267	21188
834.406	21237
834.544	21218
834.682	21214
834.821	21184
834.959	21370
835.097	21192
835.235	21386
835.373	21188
835.511	21173
835.65	21062
835.788	21096
835.926	20975
836.064	20861
836.202	21009
836.34	21112
836.478	21142
836.615	21058
836.753	21036
836.891	21226
837.029	21093
837.167	21123
837.305	21032
837.443	21020
837.58	20918
837.718	21017
837.856	20952
837.993	20910
838.131	21058
838.269	20800
838.406	20914
838.544	20781
838.681	20507
838.819	20613
838.956	20381
839.094	20434
839.231	20412
839.369	20427
839.506	20807
839.643	20621
839.781	20434
839.918	20389
840.055	20343
840.193	20317
840.33	20290
840.467	20412
840.604	20290
840.742	20545
840.879	20100
841.016	20290
841.153	20286
841.29	20457
841.427	20381
841.564	20400
841.701	20339
841.838	20301
841.975	20149
842.112	20229
842.249	20054
842.385	20096
842.522	20134
842.659	20043
842.796	19959
842.933	20046
843.069	20012
843.206	20008
843.343	20005
843.479	20027
843.616	19928
843.752	19807
843.889	19826
844.025	19883
844.162	19833
844.298	19803
844.435	19715
844.571	19685
844.708	19826
844.844	19871
844.98	19940
845.117	19719
845.253	19750
845.389	19647
845.525	19639
845.661	19658
845.798	19624
845.934	19639
846.07	19563
846.206	19544
846.342	19674
846.478	19453
846.614	19381
846.75	19213
846.886	19285
847.022	19400
847.158	19362
847.294	19236
847.429	19251
847.565	19160
847.701	19499
847.837	18951
847.972	18958
848.108	19095
848.244	19019
848.379	18905
848.515	18798
848.65	18722
848.786	18810
848.921	18848
849.057	19034
849.192	18966
849.328	18939
849.463	18859
849.598	18795
849.734	18768
849.869	18654
850.004	18547
850.14	18540
850.275	18532
850.41	18486
850.545	18479
850.68	18566
850.815	18540
850.95	18467
851.085	18608
851.22	18532
851.355	18490
851.49	18532
851.625	18452
851.76	18521
851.895	18540
852.03	18422
852.165	18483
852.299	18528
852.434	18646
852.569	18494
852.703	18479
852.838	18593
852.973	18711
853.107	18654
853.242	18456
853.376	18395
853.511	18197
853.645	18426
853.78	18460
853.914	18391
854.048	18330
854.183	18292
854.317	18311
854.451	18403
854.585	18300
854.72	18338
854.854	18346
854.988	18304
855.122	18281
855.256	18235
855.39	18445
855.524	18327
855.658	18365
855.792	18376
855.926	18315
856.06	18376
856.194	18380
856.327	18319
856.461	18292
856.595	18292
856.729	18292
856.862	18509
856.996	18353
857.13	18422
857.263	18399
857.397	18490
857.53	18182
857.664	18479
857.797	18506
857.931	18452
858.064	18403
858.197	18414
858.331	18407
858.464	18136
858.597	18258
858.731	18243
858.864	18171
858.997	18186
859.13	18277
859.263	18239
859.396	18395
859.529	18205
859.662	18319
859.795	18243
859.928	18323
860.061	18403
860.194	18547
860.327	18300
860.46	18194
860.592	18494
860.725	18460
860.858	18353
860.99	18311
861.123	18159
861.256	18270
861.388	18258
861.521	18947
861.653	18148
861.786	18034
861.918	18247
862.05	18254
862.183	18262
862.315	18319
862.447	18410
862.58	18292
862.712	18106
862.844	17992
862.976	18220
863.108	18087
863.24	18422
863.372	17969
863.504	17988
863.636	17935
863.768	18087
863.9	18072
864.032	17870
864.164	17897
864.296	18015
864.428	18114
864.559	18003
864.691	18038
864.823	18041
864.954	17980
865.086	18060
865.217	17961
865.349	17950
865.48	18030
865.612	17973
865.743	18068
865.875	17980
866.006	17885
866.137	17984
866.269	17851
866.4	17897
866.531	17916
866.662	17885
866.793	17874
866.924	17866
867.055	17969
867.186	17935
867.317	17927
867.448	17790
867.579	17863
867.71	17794
867.841	17779
867.972	17832
868.103	17889
868.233	17813
868.364	17958
868.495	17996
868.625	18159
868.756	18121
868.886	18068
869.017	18117
869.147	18235
869.278	18270
869.408	18186
869.539	18034
869.669	18125
869.799	18213
869.929	18194
870.06	18121
870.19	18445
870.32	18361
870.45	18494
870.58	18525
870.71	18627
870.84	18536
870.97	18475
871.1	18498
871.23	18692
871.36	18791
871.489	18570
871.619	18688
871.749	18700
871.879	18757
872.008	18783
872.138	18787
872.267	18661
872.397	18608
872.526	18551
872.656	18525
872.785	18464
872.915	18673
873.044	18875
873.173	18798
873.303	18776
873.432	18768
873.561	18760
873.69	18673
873.819	18692
873.948	18863
874.077	18833
874.206	18684
874.335	18886
874.464	18943
874.593	18954
874.722	18951
874.851	19141
874.979	19015
875.108	18993
875.237	18985
875.365	18871
875.494	18973
875.623	19050
875.751	19053
875.88	19080
876.008	19110
876.136	19118
876.265	19453
876.393	19552
876.521	19537
876.65	19487
876.778	19460
876.906	19365
877.034	19415
877.162	19434
877.29	19453
877.418	19407
877.546	19411
877.674	19487
877.802	19407
877.93	19407
878.058	19392
878.185	19240
878.313	19426
878.441	19533
878.568	19152
878.696	19301
878.824	19369
878.951	19422
879.079	19540
879.206	19700
879.333	19647
879.461	19445
879.588	19476
879.715	19601
879.842	19761
879.97	19480
880.097	19232
880.224	19225
880.351	19274
880.478	19263
880.605	19198
880.732	19194
880.859	19506
880.986	19324
881.112	19320
881.239	19228
881.366	19046
881.493	18970
881.619	18966
881.746	18882
881.872	18920
881.999	18935
882.125	18768
882.252	18920
882.378	18817
882.505	19042
882.631	18814
882.757	18779
882.883	18692
883.01	18623
883.136	18612
883.262	18570
883.388	18471
883.514	18719
883.64	18669
883.766	18559
883.892	18502
884.018	18536
884.143	18578
884.269	18817
884.395	18361
884.52	18266
884.646	18315
884.772	18194
884.897	18167
885.023	18357
885.148	18475
885.274	18479
885.399	18376
885.524	18308
885.65	18350
885.775	18395
885.9	18346
886.025	18330
886.15	18289
886.275	18251
886.4	18239
886.525	18251
886.65	18327
886.775	18209
886.9	18388
887.025	18452
887.149	18239
887.274	18174
887.399	18049
887.523	18015
887.648	17965
887.773	17946
887.897	18144
888.021	18125
888.146	17996
888.27	18045
888.395	18167
888.519	18133
888.643	18007
888.767	18110
888.891	17931
889.015	17840
889.139	17912
889.263	17790
889.387	18034
889.511	18190
889.635	17977
889.759	17950
889.883	17794
890.006	17942
890.13	17950
890.254	17790
890.377	17760
890.501	17794
890.624	17615
890.748	17634
890.871	17512
890.995	17520
891.118	17539
891.241	17577
891.364	17421
891.488	17604
891.611	17596
891.734	17493
891.857	17501
891.98	17539
892.103	17615
892.226	17543
892.349	17516
892.471	17349
892.594	17482
892.717	17387
892.839	17387
892.962	17486
893.085	17482
893.207	17539
893.33	17482
893.452	17387
893.575	17459
893.697	17398
893.819	17699
893.941	17642
894.064	17558
894.186	17322
894.308	17349
894.43	17699
894.552	17649
894.674	17573
894.796	17334
894.918	17395
895.04	17482
895.161	17661
895.283	17535
895.405	17395
895.526	17505
895.648	17440
895.769	17573
895.891	17543
896.012	17615
896.134	17581
896.255	17520
896.376	17493
896.498	17554
896.619	17638
896.74	17512
896.861	17589
896.982	17977
897.103	18022
897.224	17885
897.345	17813
897.466	17668
897.587	17817
897.708	17969
897.828	17771
897.949	17691
898.07	17649
898.19	17798
898.311	17969
898.431	17680
898.552	17916
898.672	17946
898.792	17805
898.913	17817
899.033	17668
899.153	17665
899.273	17509
899.393	17478
899.513	17596
899.633	17417
899.753	17604
899.873	17528
899.993	17634
900.113	17535
900.232	17562
900.352	17543
900.472	17562
900.591	17299
900.711	17554
900.83	17429
900.95	17493
901.069	17436
901.189	17330
901.308	17079
901.427	17022
901.546	17159
901.665	17010
901.784	16965
901.904	17006
902.023	16862
902.141	16637
902.26	16607
902.379	16554
902.498	16523
902.617	16550
902.735	16497
902.854	16512
902.973	16371
903.091	16257
903.21	16200
903.328	16333
903.446	16230
903.565	16093
903.683	16032
903.801	15930
903.919	16086
904.038	16074
904.156	15934
904.274	15941
904.392	15835
904.51	15823
904.627	15842
904.745	15869
904.863	15941
904.981	15591
905.098	15466
905.216	15568
905.334	15580
905.451	15447
905.569	15534
905.686	15572
905.803	15481
905.921	15294
906.038	15401
906.155	15298
906.272	15230
906.389	15199
906.506	15161
906.623	15058
906.74	14960
906.857	14994
906.974	14925
907.091	15093
907.208	15173
907.324	15077
907.441	14979
907.557	14785
907.674	14838
907.79	14693
907.907	14842
908.023	14823
908.139	14716
908.256	14727
908.372	14621
908.488	14670
908.604	14507
908.72	14438
908.836	14366
908.952	14480
909.068	14526
909.184	14556
909.3	14537
909.415	14499
909.531	14492
909.647	14233
909.762	14195
909.878	14225
909.993	14320
910.108	14240
910.224	14202
910.339	14229
910.454	14084
910.57	14008
910.685	13955
910.8	14206
910.915	14180
911.03	14020
911.145	13811
911.259	13753
911.374	13837
911.489	13776
911.604	13681
911.718	13540
911.833	13544
911.947	13518
912.062	13400
912.176	13510
912.291	13594
912.405	13605
912.519	13719
912.633	13693
912.748	13636
912.862	13499
912.976	13419
913.09	13388
913.204	13419
913.318	13438
913.431	13518
913.545	13434
913.659	13480
913.772	13384
913.886	13244
914	13236
914.113	13400
914.226	13407
914.34	13339
914.453	13171
914.566	13297
914.68	13255
914.793	13126
914.906	12989
915.019	12852
915.132	12833
915.245	12882
915.358	12958
915.47	12932
915.583	12920
915.696	12905
915.809	12993
915.921	13133
916.034	12905
916.146	12825
916.259	12833
916.371	12859
916.483	12878
916.595	12760
916.708	12779
916.82	12726
916.932	12749
917.044	12779
917.156	12745
917.268	12639
917.38	12623
917.491	12650
917.603	12627
917.715	12741
917.826	12741
917.938	12585
918.049	12555
918.161	12623
918.272	12684
918.384	12757
918.495	12608
918.606	12536
918.717	12460
918.828	12452
918.939	12456
919.05	12338
919.161	12361
919.272	12197
919.383	12273
919.494	12448
919.604	12582
919.715	12395
919.826	12357
919.936	12346
920.047	12517
920.157	12357
920.267	12631
920.378	12460
920.488	12422
920.598	12654
920.708	12734
920.818	12631
920.928	12544
921.038	12776
921.148	12715
921.258	12422
921.368	12346
921.477	12266
921.587	12186
921.697	12098
921.806	12296
921.916	12083
922.025	11958
922.134	11901
922.244	11798
922.353	11996
922.462	11874
922.571	11611
922.68	11547
922.789	11619
922.898	11505
923.007	11474
923.116	11505
923.224	11471
923.333	11551
923.442	11368
923.55	11368
923.659	11425
923.767	11501
923.876	11341
923.984	11391
924.092	11231
924.201	11288
924.309	11288
924.417	11265
924.525	11273
924.633	11341
924.741	12254
924.849	11113
924.956	11315
925.064	11132
925.172	10999
925.279	10995
925.387	11048
925.494	11128
925.602	11102
925.709	11162
925.816	11052
925.924	11090
926.031	11140
926.138	10968
926.245	11041
926.352	10961
926.459	11056
926.566	11136
926.673	10930
926.779	10873
926.886	10862
926.993	10748
927.099	10767
927.206	10660
927.312	10645
927.419	10771
927.525	10702
927.631	10672
927.737	10687
927.843	10611
927.95	10474
928.056	10565
928.162	10584
928.267	10554
928.373	11193
928.479	10615
928.585	10325
928.69	10478
928.796	10531
928.901	10360
929.007	10333
929.112	10451
929.218	10402
929.323	10360
929.428	10329
929.533	10417
929.638	10295
929.743	10265
929.848	10360
929.953	10325
930.058	10238
930.163	10025
930.267	10067
930.372	10143
930.477	10055
930.581	10234
930.685	10109
930.79	9937
930.894	10002
930.998	9876
931.103	10048
931.207	9701
931.311	9610
931.415	9568
931.519	9359
931.623	9412
