Data from test_V78500241_1932.txt Node
Date: Fri Mar 25 14:47:09 CST 2022
User: usil
Spectrometer: V785-0024
Trigger mode: 0
Integration Time (sec): 4.000000E-1
Scans to average: 1
Nonlinearity correction enabled: false
Boxcar width: 0
Storing dark spectrum: false
XAxis mode: Wavelengths
Number of Pixels in Spectrum: 1024
>>>>>Begin Spectral Data<<<<<
801.071	22112
801.214	21915
801.356	21701
801.499	21648
801.641	21389
801.783	21412
801.926	21378
802.068	21443
802.211	21393
802.353	21222
802.496	21055
802.638	20914
802.78	20880
802.923	20781
803.065	20857
803.208	20701
803.35	20807
803.492	21070
803.635	20883
803.777	20883
803.919	20823
804.061	21150
804.204	20849
804.346	20731
804.488	20629
804.63	20739
804.773	20686
804.915	20625
805.057	20693
805.199	20598
805.341	20727
805.483	20921
805.626	20712
805.768	20735
805.91	20670
806.052	20705
806.194	20511
806.336	20849
806.478	20724
806.62	20606
806.762	20765
806.904	20994
807.046	21123
807.188	21001
807.33	21055
807.472	21135
807.614	20857
807.756	20781
807.898	20762
808.04	20857
808.182	20716
808.324	20762
808.465	20834
808.607	21043
808.749	21116
808.891	21176
809.033	21230
809.174	21131
809.316	21024
809.458	20960
809.6	21028
809.741	21051
809.883	21135
810.025	21176
810.166	21157
810.308	21260
810.45	21138
810.591	21085
810.733	21024
810.875	20811
811.016	20815
811.158	20655
811.299	20769
811.441	20948
811.582	21017
811.724	20785
811.865	20716
812.007	20792
812.148	20861
812.29	20735
812.431	21077
812.573	21058
812.714	21256
812.855	21382
812.997	21435
813.138	21625
813.279	21386
813.421	21367
813.562	21268
813.703	21024
813.845	20914
813.986	20739
814.127	20533
814.268	20400
814.41	20442
814.551	20332
814.692	20488
814.833	20298
814.974	20343
815.115	20351
815.256	20195
815.397	20339
815.539	20275
815.68	20096
815.821	20084
815.962	20126
816.103	20073
816.244	19909
816.385	19780
816.526	19738
816.666	19677
816.807	19460
816.948	19586
817.089	19677
817.23	19571
817.371	19529
817.512	19586
817.653	19544
817.793	19438
817.934	19483
818.075	19544
818.216	19544
818.356	19529
818.497	19468
818.638	19160
818.778	19255
818.919	19217
819.06	19301
819.2	19297
819.341	19388
819.481	19403
819.622	19476
819.762	19746
819.903	19677
820.043	19605
820.184	19502
820.324	19586
820.465	19597
820.605	19464
820.746	19419
820.886	19324
821.026	19457
821.167	19480
821.307	19575
821.447	19343
821.588	19217
821.728	19259
821.868	19133
822.008	18890
822.149	18935
822.289	18833
822.429	18585
822.569	18631
822.709	18589
822.849	18475
822.99	18418
823.13	18388
823.27	18346
823.41	18220
823.55	18110
823.69	18239
823.83	18247
823.97	18140
824.11	17999
824.25	17935
824.389	17999
824.529	18133
824.669	18015
824.809	18163
824.949	18030
825.089	18091
825.228	17889
825.368	17885
825.508	17714
825.648	17821
825.787	17813
825.927	17798
826.067	17726
826.206	17649
826.346	17828
826.485	17958
826.625	17790
826.765	17794
826.904	17821
827.044	17524
827.183	17577
827.323	17345
827.462	17463
827.601	17592
827.741	17368
827.88	17577
828.02	17345
828.159	17383
828.298	17372
828.437	17547
828.577	17387
828.716	17623
828.855	17417
828.994	17269
829.134	17235
829.273	17223
829.412	17056
829.551	17086
829.69	17227
829.829	17280
829.968	17284
830.107	17254
830.246	17242
830.385	17166
830.524	17155
830.663	17029
830.802	16892
830.941	16831
831.08	16687
831.219	16839
831.357	16885
831.496	17121
831.635	16752
831.774	16790
831.913	16691
832.051	16622
832.19	16683
832.329	16660
832.467	16645
832.606	16500
832.744	16504
832.883	16538
833.022	16588
833.16	16500
833.299	16630
833.437	16599
833.576	16554
833.714	16611
833.852	16649
833.991	16630
834.129	16634
834.267	16634
834.406	16634
834.544	16706
834.682	16653
834.821	16558
834.959	16809
835.097	16577
835.235	16660
835.373	16554
835.511	16618
835.65	16398
835.788	16577
835.926	16390
836.064	16398
836.202	16367
836.34	16653
836.478	16618
836.615	16489
836.753	16538
836.891	16596
837.029	16580
837.167	16432
837.305	16478
837.443	16299
837.58	16432
837.718	16500
837.856	16382
837.993	16276
838.131	16478
838.269	16337
838.406	16363
838.544	16219
838.681	16093
838.819	16105
838.956	15930
839.094	15953
839.231	15972
839.369	16109
839.506	16462
839.643	16265
839.781	16025
839.918	16021
840.055	15926
840.193	15884
840.33	15983
840.467	15949
840.604	15956
840.742	16226
840.879	15785
841.016	15816
841.153	15861
841.29	16135
841.427	15994
841.564	16013
841.701	15953
841.838	15960
841.975	15842
842.112	15850
842.249	15785
842.385	15766
842.522	15857
842.659	15671
842.796	15717
842.933	15732
843.069	15755
843.206	15644
843.343	15804
843.479	15679
843.616	15789
843.752	15542
843.889	15526
844.025	15671
844.162	15412
844.298	15629
844.435	15584
844.571	15534
844.708	15580
844.844	15648
844.98	15648
845.117	15641
845.253	15462
845.389	15485
845.525	15363
845.661	15416
845.798	15420
845.934	15355
846.07	15157
846.206	15367
846.342	15439
846.478	15272
846.614	15100
846.75	15119
846.886	15047
847.022	15165
847.158	15165
847.294	15119
847.429	15203
847.565	15119
847.701	15233
847.837	14815
847.972	14788
848.108	14952
848.244	14956
848.379	14765
848.515	14712
848.65	14613
848.786	14659
848.921	14743
849.057	14853
849.192	14834
849.328	14708
849.463	14765
849.598	14716
849.734	14560
849.869	14514
850.004	14400
850.14	14537
850.275	14446
850.41	14358
850.545	14408
850.68	14328
850.815	14488
850.95	14431
851.085	14579
851.22	14511
851.355	14518
851.49	14450
851.625	14355
851.76	14522
851.895	14317
852.03	14309
852.165	14514
852.299	14431
852.434	14408
852.569	14457
852.703	14537
852.838	14575
852.973	14587
853.107	14610
853.242	14431
853.376	14332
853.511	14252
853.645	14278
853.78	14480
853.914	14385
854.048	14286
854.183	14313
854.317	14393
854.451	14492
854.585	14446
854.72	14347
854.854	14282
854.988	14183
855.122	14282
855.256	14240
855.39	14347
855.524	14408
855.658	14419
855.792	14412
855.926	14400
856.06	14324
856.194	14431
856.327	14450
856.461	14248
856.595	14278
856.729	14271
856.862	14408
856.996	14328
857.13	14377
857.263	14503
857.397	14495
857.53	14313
857.664	14355
857.797	14332
857.931	14313
858.064	14240
858.197	14385
858.331	14385
858.464	14278
858.597	14191
858.731	14336
858.864	14313
858.997	14305
859.13	14309
859.263	14366
859.396	14400
859.529	14336
859.662	14286
859.795	14221
859.928	14339
860.061	14499
860.194	14537
860.327	14385
860.46	14233
860.592	14499
860.725	14511
860.858	14412
860.99	14332
861.123	14259
861.256	14248
861.388	14332
861.521	15131
861.653	14084
861.786	14145
861.918	14183
862.05	14263
862.183	14320
862.315	14282
862.447	14362
862.58	14301
862.712	14157
862.844	14069
862.976	14168
863.108	14161
863.24	14530
863.372	13970
863.504	14176
863.636	14043
863.768	14172
863.9	14180
864.032	14031
864.164	14088
864.296	14062
864.428	14081
864.559	14233
864.691	14195
864.823	14225
864.954	14180
865.086	14123
865.217	14065
865.349	13974
865.48	14043
865.612	14153
865.743	14256
865.875	14046
866.006	14058
866.137	14191
866.269	14119
866.4	14092
866.531	14008
866.662	13970
866.793	14035
866.924	14039
867.055	14138
867.186	14111
867.317	14024
867.448	13986
867.579	14073
867.71	13967
867.841	13951
867.972	14119
868.103	14081
868.233	14027
868.364	14084
868.495	14142
868.625	14301
868.756	14526
868.886	14244
869.017	14343
869.147	14377
869.278	14469
869.408	14492
869.539	14362
869.669	14298
869.799	14347
869.929	14499
870.06	14408
870.19	14610
870.32	14583
870.45	14705
870.58	14735
870.71	14750
870.84	14845
870.97	14708
871.1	14727
871.23	14883
871.36	14990
871.489	14823
871.619	14902
871.749	14941
871.879	15081
872.008	15036
872.138	14880
872.267	14921
872.397	14838
872.526	14804
872.656	14731
872.785	14864
872.915	14887
873.044	15028
873.173	14941
873.303	15058
873.432	15055
873.561	15039
873.69	15047
873.819	14956
873.948	15116
874.077	14921
874.206	14979
874.335	15001
874.464	15146
874.593	15192
874.722	15256
874.851	15325
874.979	15283
875.108	15363
875.237	15260
875.365	15302
875.494	15264
875.623	15420
875.751	15275
875.88	15332
876.008	15424
876.136	15519
876.265	15667
876.393	15816
876.521	15819
876.65	15743
876.778	15739
876.906	15698
877.034	15625
877.162	15709
877.29	15606
877.418	15686
877.546	15724
877.674	15717
877.802	15713
877.93	15633
878.058	15728
878.185	15660
878.313	15679
878.441	15709
878.568	15572
878.696	15671
878.824	15698
878.951	15797
879.079	15835
879.206	16055
879.333	15941
879.461	15873
879.588	15846
879.715	15960
879.842	16036
879.97	15812
880.097	15591
880.224	15629
880.351	15568
880.478	15485
880.605	15614
880.732	15447
880.859	15835
880.986	15591
881.112	15553
881.239	15515
881.366	15355
881.493	15317
881.619	15165
881.746	15207
881.872	15146
881.999	15169
882.125	15222
882.252	15233
882.378	15313
882.505	15374
882.631	15214
882.757	15032
882.883	15157
883.01	15055
883.136	15066
883.262	14937
883.388	14906
883.514	15093
883.64	15020
883.766	15009
883.892	14868
884.018	14902
884.143	14986
884.269	15081
884.395	14792
884.52	14807
884.646	14788
884.772	14693
884.897	14682
885.023	14853
885.148	14895
885.274	14887
885.399	14914
885.524	14743
885.65	14731
885.775	14826
885.9	14762
886.025	14853
886.15	14762
886.275	14811
886.4	14655
886.525	14674
886.65	14629
886.775	14610
886.9	14891
887.025	14971
887.149	14765
887.274	14632
887.399	14541
887.523	14583
887.648	14457
887.773	14514
887.897	14606
888.021	14621
888.146	14484
888.27	14670
888.395	14674
888.519	14629
888.643	14686
888.767	14621
888.891	14484
889.015	14419
889.139	14495
889.263	14408
889.387	14488
889.511	14606
889.635	14556
889.759	14412
889.883	14446
890.006	14549
890.13	14484
890.254	14412
890.377	14370
890.501	14195
890.624	14218
890.748	14332
890.871	14164
890.995	14126
891.118	14111
891.241	14168
891.364	14229
891.488	14252
891.611	14100
891.734	14172
891.857	14248
891.98	14096
892.103	14202
892.226	14111
892.349	14115
892.471	14005
892.594	14077
892.717	14069
892.839	14134
892.962	14145
893.085	14248
893.207	14123
893.33	14069
893.452	14126
893.575	14199
893.697	14138
893.819	14240
893.941	14389
894.064	14301
894.186	14073
894.308	14191
894.43	14218
894.552	14267
894.674	14240
894.796	14176
894.918	14153
895.04	14088
895.161	14294
895.283	14248
895.405	14191
895.526	14206
895.648	14248
895.769	14275
895.891	14225
896.012	14355
896.134	14339
896.255	14396
896.376	14199
896.498	14240
896.619	14324
896.74	14324
896.861	14412
896.982	14644
897.103	14762
897.224	14552
897.345	14587
897.466	14549
897.587	14560
897.708	14697
897.828	14640
897.949	14499
898.07	14499
898.19	14545
898.311	14667
898.431	14568
898.552	14560
898.672	14773
898.792	14613
898.913	14708
899.033	14606
899.153	14526
899.273	14419
899.393	14488
899.513	14419
899.633	14526
899.753	14442
899.873	14465
899.993	14617
900.113	14427
900.232	14674
900.352	14423
900.472	14476
900.591	14286
900.711	14480
900.83	14309
900.95	14358
901.069	14457
901.189	14324
901.308	14134
901.427	13940
901.546	14096
901.665	13970
901.784	13989
901.904	13989
902.023	13765
902.141	13780
902.26	13643
902.379	13666
902.498	13658
902.617	13601
902.735	13575
902.854	13578
902.973	13609
903.091	13343
903.21	13293
903.328	13339
903.446	13152
903.565	13164
903.683	13160
903.801	13091
903.919	13156
904.038	13133
904.156	12981
904.274	12996
904.392	12951
904.51	13000
904.627	13023
904.745	13015
904.863	13019
904.981	12768
905.098	12722
905.216	12711
905.334	12707
905.451	12692
905.569	12665
905.686	12665
905.803	12650
905.921	12528
906.038	12604
906.155	12448
906.272	12391
906.389	12498
906.506	12296
906.623	12277
906.74	12277
906.857	12091
906.974	12235
907.091	12407
907.208	12441
907.324	12296
907.441	12300
907.557	12038
907.674	12095
907.79	11893
907.907	12011
908.023	12064
908.139	12091
908.256	11946
908.372	11999
908.488	11912
908.604	11764
908.72	11729
908.836	11847
908.952	11821
909.068	11779
909.184	11771
909.3	11748
909.415	11809
909.531	11809
909.647	11623
909.762	11577
909.878	11414
909.993	11566
910.108	11478
910.224	11589
910.339	11577
910.454	11463
910.57	11429
910.685	11296
910.8	11558
910.915	11570
911.03	11368
911.145	11277
911.259	11204
911.374	11258
911.489	11197
911.604	11128
911.718	11048
911.833	11048
911.947	10873
912.062	10858
912.176	10991
912.291	11010
912.405	11098
912.519	11197
912.633	11292
912.748	11151
912.862	10965
912.976	10908
913.09	10736
913.204	10873
913.318	10911
913.431	10930
913.545	11006
913.659	11025
913.772	10881
913.886	10714
914	10656
914.113	10900
914.226	10885
914.34	10786
914.453	10714
914.566	10809
914.68	10668
914.793	10691
914.906	10535
915.019	10573
915.132	10474
915.245	10489
915.358	10512
915.47	10455
915.583	10546
915.696	10649
915.809	10714
915.921	10641
916.034	10508
916.146	10432
916.259	10402
916.371	10535
916.483	10573
916.595	10413
916.708	10535
916.82	10409
916.932	10440
917.044	10462
917.156	10333
917.268	10276
917.38	10348
917.491	10367
917.603	10382
917.715	10485
917.826	10375
917.938	10375
918.049	10234
918.161	10352
918.272	10508
918.384	10481
918.495	10337
918.606	10276
918.717	10200
918.828	10242
918.939	10253
919.05	10169
919.161	10219
919.272	10021
919.383	10150
919.494	10363
919.604	10390
919.715	10185
919.826	10109
919.936	10162
920.047	10295
920.157	10207
920.267	10474
920.378	10284
920.488	10246
920.598	10443
920.708	10474
920.818	10413
920.928	10394
921.038	10596
921.148	10519
921.258	10268
921.368	10265
921.477	10029
921.587	10078
921.697	9994
921.806	10112
921.916	9941
922.025	9899
922.134	9835
922.244	9686
922.353	9797
922.462	9679
922.571	9606
922.68	9473
922.789	9553
922.898	9481
923.007	9416
923.116	9481
923.224	9564
923.333	9519
923.442	9431
923.55	9298
923.659	9382
923.767	9370
923.876	9363
923.984	9416
924.092	9321
924.201	9378
924.309	9389
924.417	9351
924.525	9253
924.633	9253
924.741	10219
924.849	9165
924.956	9264
925.064	9154
925.172	9039
925.279	9112
925.387	9150
925.494	9047
925.602	9272
925.709	9188
925.816	9089
925.924	9081
926.031	9230
926.138	9256
926.245	9173
926.352	9055
926.459	9237
926.566	9268
926.673	9085
926.779	9013
926.886	9020
926.993	8902
927.099	8921
927.206	8781
927.312	8766
927.419	8861
927.525	8842
927.631	8868
927.737	8743
927.843	8792
927.95	8640
928.056	8743
928.162	8682
928.267	8762
928.373	9367
928.479	8823
928.585	8617
928.69	8697
928.796	8708
928.901	8705
929.007	8537
929.112	8659
929.218	8689
929.323	8583
929.428	8560
929.533	8686
929.638	8461
929.743	8590
929.848	8644
929.953	8530
930.058	8400
930.163	8328
930.267	8313
930.372	8465
930.477	8252
930.581	8571
930.685	8419
930.79	8286
930.894	8305
930.998	8252
931.103	8465
931.207	8046
931.311	7982
931.415	7997
931.519	7841
931.623	7807
