Data from test_V78500241_2280.txt Node
Date: Fri Mar 25 14:49:35 CST 2022
User: usil
Spectrometer: V785-0024
Trigger mode: 0
Integration Time (sec): 4.000000E-1
Scans to average: 1
Nonlinearity correction enabled: false
Boxcar width: 0
Storing dark spectrum: false
XAxis mode: Wavelengths
Number of Pixels in Spectrum: 1024
>>>>>Begin Spectral Data<<<<<
801.071	22181
801.214	22124
801.356	21751
801.499	21648
801.641	21622
801.783	21599
801.926	21652
802.068	21519
802.211	21458
802.353	21275
802.496	21157
802.638	21165
802.78	21192
802.923	21028
803.065	20705
803.208	20838
803.35	20906
803.492	20998
803.635	21062
803.777	20883
803.919	20971
804.061	21279
804.204	20948
804.346	20956
804.488	20697
804.63	20807
804.773	20765
804.915	20830
805.057	20906
805.199	20773
805.341	20750
805.483	21058
805.626	20887
805.768	20739
805.91	20796
806.052	20864
806.194	20807
806.336	20823
806.478	20815
806.62	20750
806.762	20762
806.904	21043
807.046	21192
807.188	21112
807.33	21138
807.472	21131
807.614	21051
807.756	21100
807.898	20868
808.04	20811
808.182	20872
808.324	20929
808.465	20823
808.607	21123
808.749	21195
808.891	21325
809.033	21408
809.174	21298
809.316	21157
809.458	21146
809.6	21264
809.741	21222
809.883	21325
810.025	21473
810.166	21428
810.308	21367
810.45	21321
810.591	21291
810.733	21165
810.875	20971
811.016	20872
811.158	20944
811.299	21066
811.441	21104
811.582	21154
811.724	20975
811.865	20986
812.007	20933
812.148	20876
812.29	21070
812.431	21131
812.573	21287
812.714	21325
812.855	21412
812.997	21633
813.138	21660
813.279	21694
813.421	21519
813.562	21496
813.703	21302
813.845	21131
813.986	20781
814.127	20762
814.268	20636
814.41	20549
814.551	20556
814.692	20503
814.833	20450
814.974	20473
815.115	20484
815.256	20393
815.397	20396
815.539	20457
815.68	20313
815.821	20191
815.962	20317
816.103	20301
816.244	20202
816.385	19970
816.526	19993
816.666	19738
816.807	19715
816.948	19715
817.089	19807
817.23	19704
817.371	19704
817.512	19666
817.653	19685
817.793	19575
817.934	19655
818.075	19696
818.216	19677
818.356	19624
818.497	19343
818.638	19312
818.778	19304
818.919	19350
819.06	19369
819.2	19445
819.341	19571
819.481	19506
819.622	19620
819.762	19833
819.903	19746
820.043	19731
820.184	19685
820.324	19613
820.465	19670
820.605	19647
820.746	19552
820.886	19483
821.026	19597
821.167	19670
821.307	19578
821.447	19521
821.588	19388
821.728	19297
821.868	19194
822.008	19076
822.149	19103
822.289	19069
822.429	18795
822.569	18764
822.709	18738
822.849	18566
822.99	18547
823.13	18525
823.27	18517
823.41	18342
823.55	18346
823.69	18342
823.83	18384
823.97	18258
824.11	18030
824.25	18064
824.389	18106
824.529	18251
824.669	18171
824.809	18228
824.949	18121
825.089	18174
825.228	18133
825.368	18011
825.508	17878
825.648	17813
825.787	17908
825.927	17939
826.067	17843
826.206	17760
826.346	17939
826.485	17969
826.625	17840
826.765	17988
826.904	17851
827.044	17627
827.183	17703
827.323	17573
827.462	17581
827.601	17570
827.741	17452
827.88	17535
828.02	17459
828.159	17520
828.298	17535
828.437	17493
828.577	17440
828.716	17707
828.855	17535
828.994	17356
829.134	17220
829.273	17387
829.412	17235
829.551	17231
829.69	17280
829.829	17326
829.968	17383
830.107	17398
830.246	17330
830.385	17098
830.524	17220
830.663	17117
830.802	17090
830.941	16938
831.08	16820
831.219	16961
831.357	16968
831.496	17136
831.635	16866
831.774	16923
831.913	16839
832.051	16717
832.19	16626
832.329	16824
832.467	16721
832.606	16607
832.744	16645
832.883	16630
833.022	16424
833.16	16611
833.299	16653
833.437	16641
833.576	16580
833.714	16649
833.852	16577
833.991	16706
834.129	16752
834.267	16694
834.406	16596
834.544	16656
834.682	16584
834.821	16573
834.959	16755
835.097	16569
835.235	16626
835.373	16713
835.511	16664
835.65	16523
835.788	16599
835.926	16417
836.064	16363
836.202	16348
836.34	16535
836.478	16687
836.615	16493
836.753	16656
836.891	16611
837.029	16554
837.167	16489
837.305	16504
837.443	16409
837.58	16390
837.718	16485
837.856	16424
837.993	16432
838.131	16481
838.269	16303
838.406	16325
838.544	16314
838.681	16139
838.819	16048
838.956	15983
839.094	15895
839.231	15926
839.369	16101
839.506	16360
839.643	16143
839.781	15926
839.918	15930
840.055	15945
840.193	15949
840.33	15949
840.467	15945
840.604	15941
840.742	16299
840.879	15861
841.016	15842
841.153	15880
841.29	16010
841.427	15934
841.564	15956
841.701	15949
841.838	15911
841.975	15857
842.112	15842
842.249	15778
842.385	15709
842.522	15926
842.659	15770
842.796	15656
842.933	15804
843.069	15656
843.206	15675
843.343	15800
843.479	15713
843.616	15778
843.752	15462
843.889	15462
844.025	15572
844.162	15553
844.298	15606
844.435	15458
844.571	15500
844.708	15485
844.844	15675
844.98	15629
845.117	15606
845.253	15526
845.389	15405
845.525	15412
845.661	15340
845.798	15401
845.934	15329
846.07	15252
846.206	15355
846.342	15477
846.478	15382
846.614	15173
846.75	15100
846.886	15138
847.022	15154
847.158	15100
847.294	15051
847.429	15188
847.565	15058
847.701	15249
847.837	14853
847.972	14792
848.108	14887
848.244	14895
848.379	14594
848.515	14655
848.65	14644
848.786	14667
848.921	14743
849.057	14724
849.192	14773
849.328	14754
849.463	14750
849.598	14663
849.734	14564
849.869	14518
850.004	14419
850.14	14488
850.275	14446
850.41	14339
850.545	14259
850.68	14320
850.815	14450
850.95	14385
851.085	14587
851.22	14575
851.355	14412
851.49	14442
851.625	14355
851.76	14522
851.895	14358
852.03	14221
852.165	14351
852.299	14427
852.434	14457
852.569	14446
852.703	14442
852.838	14522
852.973	14590
853.107	14552
853.242	14385
853.376	14320
853.511	14271
853.645	14278
853.78	14431
853.914	14377
854.048	14237
854.183	14138
854.317	14294
854.451	14438
854.585	14206
854.72	14298
854.854	14374
854.988	14229
855.122	14248
855.256	14237
855.39	14355
855.524	14301
855.658	14305
855.792	14347
855.926	14320
856.06	14305
856.194	14328
856.327	14343
856.461	14244
856.595	14168
856.729	14290
856.862	14442
856.996	14347
857.13	14396
857.263	14396
857.397	14450
857.53	14313
857.664	14237
857.797	14389
857.931	14377
858.064	14313
858.197	14301
858.331	14366
858.464	14267
858.597	14134
858.731	14370
858.864	14225
858.997	14301
859.13	14290
859.263	14256
859.396	14366
859.529	14256
859.662	14176
859.795	14191
859.928	14377
860.061	14499
860.194	14492
860.327	14408
860.46	14320
860.592	14389
860.725	14377
860.858	14412
860.99	14324
861.123	14282
861.256	14244
861.388	14343
861.521	14918
861.653	14218
861.786	14161
861.918	14183
862.05	14248
862.183	14259
862.315	14309
862.447	14400
862.58	14221
862.712	14043
862.844	14001
862.976	14221
863.108	14202
863.24	14431
863.372	14016
863.504	13974
863.636	14096
863.768	14142
863.9	14119
864.032	14031
864.164	14084
864.296	14183
864.428	14183
864.559	14161
864.691	14111
864.823	14221
864.954	14134
865.086	14172
865.217	14157
865.349	13936
865.48	14050
865.612	14092
865.743	14263
865.875	14107
866.006	14039
866.137	14088
866.269	14084
866.4	14100
866.531	14100
866.662	13921
866.793	14031
866.924	14031
867.055	14119
867.186	14027
867.317	13963
867.448	13963
867.579	14016
867.71	14001
867.841	13993
867.972	14027
868.103	14069
868.233	14054
868.364	14107
868.495	14199
868.625	14267
868.756	14377
868.886	14191
869.017	14218
869.147	14358
869.278	14465
869.408	14332
869.539	14339
869.669	14423
869.799	14317
869.929	14415
870.06	14507
870.19	14617
870.32	14659
870.45	14651
870.58	14727
870.71	14781
870.84	14864
870.97	14686
871.1	14678
871.23	14876
871.36	14899
871.489	14788
871.619	14887
871.749	14944
871.879	14921
872.008	14986
872.138	14899
872.267	14895
872.397	14705
872.526	14705
872.656	14621
872.785	14651
872.915	14849
873.044	14952
873.173	15081
873.303	15020
873.432	14941
873.561	15039
873.69	14906
873.819	15036
873.948	15100
874.077	14815
874.206	15024
874.335	14941
874.464	15203
874.593	15230
874.722	15218
874.851	15332
874.979	15207
875.108	15363
875.237	15268
875.365	15142
875.494	15252
875.623	15336
875.751	15252
875.88	15321
876.008	15466
876.136	15515
876.265	15618
876.393	15778
876.521	15812
876.65	15743
876.778	15622
876.906	15762
877.034	15728
877.162	15641
877.29	15553
877.418	15587
877.546	15637
877.674	15603
877.802	15709
877.93	15743
878.058	15724
878.185	15595
878.313	15709
878.441	15587
878.568	15595
878.696	15625
878.824	15675
878.951	15800
879.079	15869
879.206	16029
879.333	15819
879.461	15690
879.588	15717
879.715	15854
879.842	16055
879.97	15728
880.097	15584
880.224	15534
880.351	15568
880.478	15523
880.605	15374
880.732	15496
880.859	15869
880.986	15576
881.112	15610
881.239	15439
881.366	15287
881.493	15233
881.619	15097
881.746	15192
881.872	15218
881.999	15199
882.125	15146
882.252	15241
882.378	15325
882.505	15389
882.631	15058
882.757	14967
882.883	15028
883.01	14994
883.136	14952
883.262	14804
883.388	14918
883.514	15089
883.64	15070
883.766	15028
883.892	14849
884.018	14857
884.143	14998
884.269	15039
884.395	14807
884.52	14629
884.646	14769
884.772	14659
884.897	14610
885.023	14792
885.148	14727
885.274	14910
885.399	14792
885.524	14777
885.65	14670
885.775	14750
885.9	14708
886.025	14826
886.15	14811
886.275	14621
886.4	14705
886.525	14667
886.65	14556
886.775	14697
886.9	14823
887.025	14899
887.149	14689
887.274	14701
887.399	14473
887.523	14594
887.648	14431
887.773	14476
887.897	14533
888.021	14610
888.146	14499
888.27	14625
888.395	14724
888.519	14579
888.643	14636
888.767	14602
888.891	14446
889.015	14324
889.139	14396
889.263	14370
889.387	14522
889.511	14564
889.635	14518
889.759	14473
889.883	14393
890.006	14404
890.13	14537
890.254	14362
890.377	14347
890.501	13989
890.624	14119
890.748	14248
890.871	14054
890.995	14084
891.118	13986
891.241	14134
891.364	14077
891.488	14138
891.611	14062
891.734	14046
891.857	14191
891.98	14164
892.103	14172
892.226	14046
892.349	14043
892.471	13989
892.594	14103
892.717	14107
892.839	14012
892.962	14103
893.085	14142
893.207	14073
893.33	13997
893.452	13982
893.575	14180
893.697	14069
893.819	14362
893.941	14317
894.064	14256
894.186	14111
894.308	14005
894.43	14256
894.552	14275
894.674	14317
894.796	14119
894.918	14142
895.04	14138
895.161	14275
895.283	14191
895.405	14142
895.526	14263
895.648	14130
895.769	14153
895.891	14305
896.012	14415
896.134	14244
896.255	14355
896.376	14282
896.498	14282
896.619	14263
896.74	14324
896.861	14362
896.982	14583
897.103	14716
897.224	14629
897.345	14556
897.466	14568
897.587	14484
897.708	14629
897.828	14552
897.949	14579
898.07	14423
898.19	14575
898.311	14640
898.431	14511
898.552	14587
898.672	14644
898.792	14765
898.913	14716
899.033	14602
899.153	14507
899.273	14450
899.393	14423
899.513	14438
899.633	14476
899.753	14488
899.873	14511
899.993	14541
900.113	14423
900.232	14461
900.352	14484
900.472	14473
900.591	14317
900.711	14374
900.83	14377
900.95	14393
901.069	14366
901.189	14328
901.308	14115
901.427	13974
901.546	14016
901.665	14119
901.784	13978
901.904	13909
902.023	13826
902.141	13674
902.26	13525
902.379	13700
902.498	13499
902.617	13594
902.735	13578
902.854	13601
902.973	13525
903.091	13285
903.21	13289
903.328	13225
903.446	13263
903.565	13225
903.683	13164
903.801	13114
903.919	13164
904.038	13129
904.156	12954
904.274	13065
904.392	13008
904.51	12909
904.627	12962
904.745	13038
904.863	12989
904.981	12741
905.098	12673
905.216	12642
905.334	12688
905.451	12726
905.569	12669
905.686	12665
905.803	12681
905.921	12429
906.038	12540
906.155	12490
906.272	12311
906.389	12433
906.506	12296
906.623	12277
906.74	12357
906.857	12087
906.974	12232
907.091	12391
907.208	12357
907.324	12270
907.441	12175
907.557	12053
907.674	11988
907.79	11977
907.907	12003
908.023	11935
908.139	11999
908.256	12022
908.372	11984
908.488	11882
908.604	11798
908.72	11760
908.836	11783
908.952	11665
909.068	11809
909.184	11840
909.3	11863
909.415	11851
909.531	11718
909.647	11486
909.762	11505
909.878	11410
909.993	11478
910.108	11436
910.224	11520
910.339	11543
910.454	11478
910.57	11341
910.685	11307
910.8	11627
910.915	11589
911.03	11425
911.145	11284
911.259	11189
911.374	11197
911.489	11178
911.604	11048
911.718	11033
911.833	10957
911.947	10904
912.062	10793
912.176	10946
912.291	11010
912.405	10953
912.519	11132
912.633	11242
912.748	11090
912.862	11075
912.976	10850
913.09	10793
913.204	10869
913.318	10850
913.431	11018
913.545	11079
913.659	11006
913.772	10862
913.886	10691
914	10729
914.113	10809
914.226	10805
914.34	10850
914.453	10725
914.566	10835
914.68	10668
914.793	10717
914.906	10474
915.019	10436
915.132	10436
915.245	10542
915.358	10474
915.47	10500
915.583	10489
915.696	10489
915.809	10668
915.921	10584
916.034	10424
916.146	10462
916.259	10371
916.371	10569
916.483	10519
916.595	10386
916.708	10481
916.82	10390
916.932	10470
917.044	10474
917.156	10409
917.268	10299
917.38	10325
917.491	10295
917.603	10287
917.715	10440
917.826	10333
917.938	10367
918.049	10219
918.161	10325
918.272	10440
918.384	10535
918.495	10428
918.606	10219
918.717	10169
918.828	10169
918.939	10238
919.05	10196
919.161	10124
919.272	10025
919.383	10078
919.494	10287
919.604	10432
919.715	10211
919.826	10078
919.936	10230
920.047	10276
920.157	10276
920.267	10379
920.378	10299
920.488	10166
920.598	10489
920.708	10500
920.818	10356
920.928	10344
921.038	10573
921.148	10508
921.258	10211
921.368	10158
921.477	10093
921.587	10101
921.697	9975
921.806	10101
921.916	10021
922.025	9861
922.134	9827
922.244	9762
922.353	9831
922.462	9671
922.571	9587
922.68	9428
922.789	9462
922.898	9500
923.007	9412
923.116	9557
923.224	9439
923.333	9435
923.442	9351
923.55	9363
923.659	9439
923.767	9507
923.876	9264
923.984	9447
924.092	9226
924.201	9389
924.309	9329
924.417	9408
924.525	9279
924.633	9351
924.741	10211
924.849	9024
924.956	9279
925.064	9180
925.172	9074
925.279	9093
925.387	9161
925.494	9146
925.602	9264
925.709	9173
925.816	9081
925.924	9165
926.031	9157
926.138	9199
926.245	9180
926.352	9024
926.459	9165
926.566	9253
926.673	9058
926.779	9047
926.886	8979
926.993	8902
927.099	8876
927.206	8830
927.312	8735
927.419	8891
927.525	8914
927.631	8948
927.737	8735
927.843	8705
927.95	8659
928.056	8750
928.162	8750
928.267	8777
928.373	9370
928.479	8819
928.585	8712
928.69	8697
928.796	8777
928.901	8689
929.007	8511
929.112	8655
929.218	8621
929.323	8602
929.428	8587
929.533	8686
929.638	8511
929.743	8545
929.848	8575
929.953	8541
930.058	8507
930.163	8355
930.267	8301
930.372	8552
930.477	8336
930.581	8514
930.685	8434
930.79	8225
930.894	8275
930.998	8286
931.103	8393
931.207	8031
931.311	8016
931.415	7974
931.519	7772
931.623	7852
