Data from test_V78500241_1258.txt Node
Date: Fri Mar 25 14:42:28 CST 2022
User: usil
Spectrometer: V785-0024
Trigger mode: 0
Integration Time (sec): 4.000000E-1
Scans to average: 1
Nonlinearity correction enabled: false
Boxcar width: 0
Storing dark spectrum: false
XAxis mode: Wavelengths
Number of Pixels in Spectrum: 1024
>>>>>Begin Spectral Data<<<<<
801.071	22428
801.214	22188
801.356	22029
801.499	21888
801.641	21762
801.783	21637
801.926	21888
802.068	21652
802.211	21660
802.353	21553
802.496	21348
802.638	21241
802.78	21287
802.923	21192
803.065	21146
803.208	21062
803.35	21165
803.492	21154
803.635	21119
803.777	21062
803.919	21047
804.061	21348
804.204	21123
804.346	21032
804.488	20849
804.63	21036
804.773	21017
804.915	20967
805.057	21039
805.199	20925
805.341	21138
805.483	21203
805.626	21142
805.768	20948
805.91	21070
806.052	20982
806.194	20895
806.336	21165
806.478	21024
806.62	20933
806.762	21138
806.904	21192
807.046	21386
807.188	21291
807.33	21283
807.472	21397
807.614	21165
807.756	21313
807.898	21230
808.04	21123
808.182	21116
808.324	21222
808.465	21116
808.607	21515
808.749	21416
808.891	21580
809.033	21713
809.174	21511
809.316	21386
809.458	21523
809.6	21408
809.741	21431
809.883	21450
810.025	21576
810.166	21595
810.308	21561
810.45	21492
810.591	21466
810.733	21302
810.875	21119
811.016	21028
811.158	21005
811.299	21127
811.441	21424
811.582	21264
811.724	21028
811.865	21116
812.007	21180
812.148	21142
812.29	21256
812.431	21245
812.573	21534
812.714	21568
812.855	21606
812.997	21816
813.138	21785
813.279	21861
813.421	21587
813.562	21606
813.703	21462
813.845	21325
813.986	21116
814.127	20872
814.268	20777
814.41	20792
814.551	20842
814.692	20788
814.833	20750
814.974	20598
815.115	20606
815.256	20579
815.397	20560
815.539	20514
815.68	20431
815.821	20381
815.962	20571
816.103	20473
816.244	20332
816.385	20183
816.526	20256
816.666	20020
816.807	19807
816.948	19955
817.089	20008
817.23	19883
817.371	19822
817.512	19799
817.653	19715
817.793	19818
817.934	19894
818.075	19909
818.216	19807
818.356	19845
818.497	19723
818.638	19491
818.778	19658
818.919	19567
819.06	19575
819.2	19689
819.341	19742
819.481	19772
819.622	19845
819.762	20043
819.903	20054
820.043	19936
820.184	19890
820.324	19841
820.465	20031
820.605	20035
820.746	19849
820.886	19860
821.026	19822
821.167	19769
821.307	19963
821.447	19780
821.588	19738
821.728	19674
821.868	19381
822.008	19221
822.149	19320
822.289	19285
822.429	18985
822.569	18943
822.709	19046
822.849	18798
822.99	18814
823.13	18681
823.27	18669
823.41	18722
823.55	18547
823.69	18620
823.83	18578
823.97	18563
824.11	18376
824.25	18300
824.389	18403
824.529	18391
824.669	18384
824.809	18540
824.949	18486
825.089	18410
825.228	18422
825.368	18228
825.508	18167
825.648	18201
825.787	18243
825.927	18270
826.067	18121
826.206	18095
826.346	18190
826.485	18182
826.625	18110
826.765	18300
826.904	18144
827.044	17946
827.183	18003
827.323	17920
827.462	17866
827.601	17874
827.741	17737
827.88	17920
828.02	17680
828.159	17885
828.298	17874
828.437	17942
828.577	17802
828.716	17939
828.855	17821
828.994	17703
829.134	17630
829.273	17551
829.412	17532
829.551	17589
829.69	17672
829.829	17737
829.968	17737
830.107	17592
830.246	17554
830.385	17551
830.524	17524
830.663	17414
830.802	17349
830.941	17242
831.08	17193
831.219	17288
831.357	17353
831.496	17421
831.635	17273
831.774	17227
831.913	17235
832.051	16976
832.19	16995
832.329	17064
832.467	16995
832.606	16885
832.744	16885
832.883	16850
833.022	16934
833.16	16908
833.299	17048
833.437	16965
833.576	16980
833.714	16972
833.852	17029
833.991	17022
834.129	17098
834.267	17060
834.406	16942
834.544	17185
834.682	17033
834.821	16995
834.959	17064
835.097	16957
835.235	17029
835.373	17010
835.511	17064
835.65	16980
835.788	16850
835.926	16923
836.064	16740
836.202	16736
836.34	16980
836.478	16991
836.615	16889
836.753	16869
836.891	16991
837.029	16847
837.167	16908
837.305	16839
837.443	16797
837.58	16786
837.718	16866
837.856	16824
837.993	16645
838.131	16858
838.269	16691
838.406	16755
838.544	16588
838.681	16447
838.819	16447
838.956	16306
839.094	16253
839.231	16360
839.369	16481
839.506	16706
839.643	16489
839.781	16390
839.918	16223
840.055	16398
840.193	16394
840.33	16386
840.467	16280
840.604	16337
840.742	16561
840.879	16116
841.016	16265
841.153	16207
841.29	16424
841.427	16265
841.564	16337
841.701	16329
841.838	16310
841.975	16185
842.112	16234
842.249	16086
842.385	15994
842.522	16230
842.659	16105
842.796	16105
842.933	16131
843.069	16048
843.206	16093
843.343	16177
843.479	16051
843.616	16143
843.752	15895
843.889	15915
844.025	16059
844.162	15842
844.298	15922
844.435	15907
844.571	15880
844.708	15911
844.844	16078
844.98	16093
845.117	16097
845.253	15781
845.389	15819
845.525	15922
845.661	15850
845.798	15762
845.934	15934
846.07	15819
846.206	15865
846.342	15949
846.478	15720
846.614	15564
846.75	15386
846.886	15370
847.022	15519
847.158	15496
847.294	15492
847.429	15492
847.565	15393
847.701	15610
847.837	15131
847.972	15127
848.108	15272
848.244	15241
848.379	15116
848.515	15051
848.65	15032
848.786	15112
848.921	15157
849.057	15165
849.192	15192
849.328	15100
849.463	15127
849.598	15097
849.734	14914
849.869	14933
850.004	14918
850.14	14929
850.275	14823
850.41	14777
850.545	14644
850.68	14819
850.815	14727
850.95	14807
851.085	14956
851.22	14845
851.355	14815
851.49	14823
851.625	14754
851.76	14823
851.895	14743
852.03	14735
852.165	14902
852.299	14819
852.434	14849
852.569	14895
852.703	14880
852.838	14941
852.973	14910
853.107	14933
853.242	14788
853.376	14769
853.511	14568
853.645	14606
853.78	14788
853.914	14716
854.048	14777
854.183	14636
854.317	14632
854.451	14845
854.585	14792
854.72	14663
854.854	14807
854.988	14644
855.122	14701
855.256	14571
855.39	14606
855.524	14686
855.658	14648
855.792	14686
855.926	14754
856.06	14765
856.194	14769
856.327	14629
856.461	14682
856.595	14575
856.729	14655
856.862	14800
856.996	14701
857.13	14705
857.263	14823
857.397	14842
857.53	14724
857.664	14674
857.797	14781
857.931	14716
858.064	14716
858.197	14785
858.331	14632
858.464	14590
858.597	14564
858.731	14640
858.864	14731
858.997	14648
859.13	14785
859.263	14682
859.396	14731
859.529	14686
859.662	14663
859.795	14598
859.928	14689
860.061	14762
860.194	14838
860.327	14674
860.46	14632
860.592	14739
860.725	14746
860.858	14823
860.99	14655
861.123	14708
861.256	14674
861.388	14712
861.521	15401
861.653	14621
861.786	14503
861.918	14598
862.05	14610
862.183	14590
862.315	14667
862.447	14720
862.58	14640
862.712	14446
862.844	14404
862.976	14476
863.108	14400
863.24	14910
863.372	14305
863.504	14488
863.636	14393
863.768	14473
863.9	14495
864.032	14469
864.164	14450
864.296	14526
864.428	14537
864.559	14552
864.691	14507
864.823	14450
864.954	14412
865.086	14503
865.217	14434
865.349	14381
865.48	14423
865.612	14503
865.743	14587
865.875	14484
866.006	14408
866.137	14400
866.269	14457
866.4	14415
866.531	14351
866.662	14389
866.793	14305
866.924	14305
867.055	14465
867.186	14476
867.317	14355
867.448	14328
867.579	14267
867.71	14278
867.841	14389
867.972	14461
868.103	14415
868.233	14457
868.364	14419
868.495	14560
868.625	14674
868.756	14804
868.886	14583
869.017	14617
869.147	14731
869.278	14777
869.408	14693
869.539	14621
869.669	14807
869.799	14727
869.929	14792
870.06	14708
870.19	14982
870.32	14906
870.45	14967
870.58	15024
870.71	15192
870.84	15157
870.97	15100
871.1	15039
871.23	15142
871.36	15249
871.489	15150
871.619	15203
871.749	15256
871.879	15237
872.008	15310
872.138	15245
872.267	15184
872.397	15127
872.526	15089
872.656	15116
872.785	15039
872.915	15211
873.044	15412
873.173	15260
873.303	15268
873.432	15310
873.561	15313
873.69	15207
873.819	15340
873.948	15408
874.077	15481
874.206	15287
874.335	15302
874.464	15492
874.593	15679
874.722	15561
874.851	15656
874.979	15644
875.108	15618
875.237	15576
875.365	15576
875.494	15663
875.623	15705
875.751	15587
875.88	15633
876.008	15793
876.136	15850
876.265	16063
876.393	16177
876.521	16200
876.65	16147
876.778	16029
876.906	15888
877.034	15911
877.162	16051
877.29	16017
877.418	15983
877.546	16021
877.674	15994
877.802	15998
877.93	15998
878.058	15964
878.185	15907
878.313	15979
878.441	16044
878.568	15911
878.696	15941
878.824	16040
878.951	16074
879.079	16257
879.206	16375
879.333	16223
879.461	16128
879.588	16261
879.715	16173
879.842	16379
879.97	16265
880.097	15945
880.224	15869
880.351	15949
880.478	15915
880.605	15865
880.732	15956
880.859	16234
880.986	15842
881.112	15869
881.239	15831
881.366	15720
881.493	15568
881.619	15572
881.746	15542
881.872	15603
881.999	15545
882.125	15504
882.252	15648
882.378	15568
882.505	15762
882.631	15462
882.757	15351
882.883	15405
883.01	15439
883.136	15283
883.262	15199
883.388	15211
883.514	15386
883.64	15454
883.766	15283
883.892	15233
884.018	15180
884.143	15340
884.269	15405
884.395	15203
884.52	15028
884.646	15127
884.772	14998
884.897	14948
885.023	15135
885.148	15176
885.274	15214
885.399	15154
885.524	15108
885.65	15077
885.775	14982
885.9	15051
886.025	15089
886.15	15195
886.275	15043
886.4	14952
886.525	15032
886.65	14982
886.775	14963
886.9	15195
887.025	15245
887.149	15081
887.274	14975
887.399	14868
887.523	14804
887.648	14891
887.773	14876
887.897	14887
888.021	14975
888.146	14826
888.27	15043
888.395	15009
888.519	15017
888.643	14944
888.767	14918
888.891	14773
889.015	14758
889.139	14785
889.263	14701
889.387	14796
889.511	14963
889.635	14842
889.759	14720
889.883	14674
890.006	14693
890.13	14845
890.254	14845
890.377	14746
890.501	14568
890.624	14552
890.748	14617
890.871	14522
890.995	14347
891.118	14412
891.241	14473
891.364	14427
891.488	14526
891.611	14415
891.734	14427
891.857	14457
891.98	14514
892.103	14602
892.226	14476
892.349	14370
892.471	14214
892.594	14313
892.717	14503
892.839	14305
892.962	14442
893.085	14492
893.207	14438
893.33	14301
893.452	14290
893.575	14434
893.697	14408
893.819	14571
893.941	14590
894.064	14632
894.186	14374
894.308	14305
894.43	14602
894.552	14598
894.674	14438
894.796	14339
894.918	14488
895.04	14423
895.161	14613
895.283	14530
895.405	14537
895.526	14480
895.648	14457
895.769	14571
895.891	14511
896.012	14629
896.134	14575
896.255	14526
896.376	14511
896.498	14621
896.619	14610
896.74	14537
896.861	14693
896.982	14979
897.103	15081
897.224	14762
897.345	14857
897.466	14823
897.587	14849
897.708	14899
897.828	14921
897.949	14819
898.07	14693
898.19	14781
898.311	14982
898.431	14944
898.552	14876
898.672	14982
898.792	15066
898.913	14944
899.033	14933
899.153	14811
899.273	14727
899.393	14731
899.513	14830
899.633	14777
899.753	14720
899.873	14735
899.993	14842
900.113	14674
900.232	14838
900.352	14773
900.472	14678
900.591	14571
900.711	14640
900.83	14583
900.95	14689
901.069	14746
901.189	14469
901.308	14240
901.427	14332
901.546	14305
901.665	14275
901.784	14374
901.904	14172
902.023	14077
902.141	13898
902.26	13917
902.379	13951
902.498	13852
902.617	13803
902.735	13871
902.854	13868
902.973	13799
903.091	13575
903.21	13597
903.328	13578
903.446	13453
903.565	13415
903.683	13422
903.801	13346
903.919	13438
904.038	13365
904.156	13282
904.274	13297
904.392	13247
904.51	13274
904.627	13285
904.745	13232
904.863	13304
904.981	12973
905.098	12981
905.216	13000
905.334	13038
905.451	12962
905.569	12871
905.686	12897
905.803	12928
905.921	12753
906.038	12905
906.155	12753
906.272	12639
906.389	12662
906.506	12544
906.623	12559
906.74	12483
906.857	12422
906.974	12445
907.091	12540
907.208	12700
907.324	12616
907.441	12418
907.557	12144
907.674	12243
907.79	12163
907.907	12235
908.023	12346
908.139	12273
908.256	12285
908.372	12239
908.488	12064
908.604	11992
908.72	11977
908.836	12053
908.952	12155
909.068	12019
909.184	12144
909.3	12045
909.415	12026
909.531	12030
909.647	11805
909.762	11790
909.878	11783
909.993	11813
910.108	11794
910.224	11802
910.339	11691
910.454	11760
910.57	11596
910.685	11589
910.8	11836
910.915	11855
911.03	11661
911.145	11524
911.259	11459
911.374	11448
911.489	11509
911.604	11410
911.718	11254
911.833	11280
911.947	11128
912.062	11128
912.176	11303
912.291	11258
912.405	11204
912.519	11368
912.633	11356
912.748	11273
912.862	11311
912.976	11117
913.09	10957
913.204	11083
913.318	11121
913.431	11174
913.545	11235
913.659	11223
913.772	11121
913.886	10911
914	10953
914.113	11079
914.226	11189
914.34	11045
914.453	10896
914.566	11056
914.68	10911
914.793	11003
914.906	10812
915.019	10729
915.132	10660
915.245	10729
915.358	10653
915.47	10774
915.583	10805
915.696	10786
915.809	10835
915.921	10908
916.034	10717
916.146	10687
916.259	10721
916.371	10771
916.483	10759
916.595	10672
916.708	10645
916.82	10649
916.932	10706
917.044	10626
917.156	10698
917.268	10493
917.38	10569
917.491	10500
917.603	10577
917.715	10618
917.826	10599
917.938	10497
918.049	10424
918.161	10569
918.272	10683
918.384	10778
918.495	10618
918.606	10371
918.717	10333
918.828	10398
918.939	10421
919.05	10318
919.161	10352
919.272	10272
919.383	10234
919.494	10546
919.604	10649
919.715	10497
919.826	10333
919.936	10299
920.047	10466
920.157	10535
920.267	10687
920.378	10485
920.488	10432
920.598	10626
920.708	10771
920.818	10656
920.928	10634
921.038	10801
921.148	10755
921.258	10451
921.368	10341
921.477	10348
921.587	10246
921.697	10158
921.806	10257
921.916	10116
922.025	9979
922.134	9953
922.244	9895
922.353	10059
922.462	9869
922.571	9827
922.68	9759
922.789	9675
922.898	9789
923.007	9652
923.116	9766
923.224	9728
923.333	9603
923.442	9599
923.55	9530
923.659	9523
923.767	9705
923.876	9564
923.984	9603
924.092	9542
924.201	9511
924.309	9580
924.417	9580
924.525	9428
924.633	9492
924.741	10329
924.849	9359
924.956	9523
925.064	9359
925.172	9237
925.279	9344
925.387	9340
925.494	9344
925.602	9435
925.709	9416
925.816	9313
925.924	9310
926.031	9454
926.138	9306
926.245	9408
926.352	9249
926.459	9389
926.566	9462
926.673	9306
926.779	9226
926.886	9081
926.993	9108
927.099	8975
927.206	9013
927.312	9024
927.419	9108
927.525	9039
927.631	9043
927.737	8937
927.843	8902
927.95	8807
928.056	8876
928.162	8956
928.267	8921
928.373	9675
928.479	8963
928.585	8724
928.69	8830
928.796	8963
928.901	8838
929.007	8777
929.112	8785
929.218	8819
929.323	8819
929.428	8750
929.533	8849
929.638	8739
929.743	8678
929.848	8762
929.953	8746
930.058	8579
930.163	8488
930.267	8514
930.372	8632
930.477	8511
930.581	8712
930.685	8594
930.79	8415
930.894	8488
930.998	8412
931.103	8587
931.207	8298
931.311	8161
931.415	8054
931.519	7967
931.623	7902
