Data from test_V78500241_2581.txt Node
Date: Fri Mar 25 14:51:41 CST 2022
User: usil
Spectrometer: V785-0024
Trigger mode: 0
Integration Time (sec): 4.000000E-1
Scans to average: 1
Nonlinearity correction enabled: false
Boxcar width: 0
Storing dark spectrum: false
XAxis mode: Wavelengths
Number of Pixels in Spectrum: 1024
>>>>>Begin Spectral Data<<<<<
801.071	21956
801.214	21797
801.356	21660
801.499	21656
801.641	21428
801.783	21329
801.926	21473
802.068	21401
802.211	21218
802.353	21184
802.496	21032
802.638	20864
802.78	20895
802.923	20819
803.065	20743
803.208	20796
803.35	20670
803.492	20758
803.635	20921
803.777	20705
803.919	20727
804.061	21036
804.204	20727
804.346	20648
804.488	20629
804.63	20727
804.773	20552
804.915	20632
805.057	20754
805.199	20617
805.341	20659
805.483	20701
805.626	20720
805.768	20594
805.91	20495
806.052	20701
806.194	20606
806.336	20735
806.478	20571
806.62	20560
806.762	20754
806.904	20887
807.046	20925
807.188	20891
807.33	20975
807.472	20967
807.614	20910
807.756	20807
807.898	20830
808.04	20636
808.182	20716
808.324	20701
808.465	20758
808.607	20838
808.749	20986
808.891	21199
809.033	21169
809.174	21032
809.316	21005
809.458	20971
809.6	20937
809.741	20998
809.883	21009
810.025	21127
810.166	21096
810.308	21013
810.45	21131
810.591	21062
810.733	20910
810.875	20682
811.016	20670
811.158	20579
811.299	20781
811.441	20906
811.582	20941
811.724	20746
811.865	20571
812.007	20659
812.148	20758
812.29	20853
812.431	20963
812.573	20979
812.714	21089
812.855	21157
812.997	21294
813.138	21485
813.279	21443
813.421	21294
813.562	21036
813.703	21131
813.845	20883
813.986	20720
814.127	20503
814.268	20377
814.41	20309
814.551	20301
814.692	20324
814.833	20218
814.974	20001
815.115	20396
815.256	20229
815.397	20039
815.539	20134
815.68	19982
815.821	19982
815.962	20073
816.103	20005
816.244	19811
816.385	19856
816.526	19681
816.666	19491
816.807	19411
816.948	19540
817.089	19544
817.23	19434
817.371	19457
817.512	19403
817.653	19403
817.793	19415
817.934	19521
818.075	19476
818.216	19457
818.356	19464
818.497	19320
818.638	18973
818.778	19110
818.919	19031
819.06	19133
819.2	19236
819.341	19350
819.481	19251
819.622	19499
819.762	19605
819.903	19571
820.043	19605
820.184	19411
820.324	19362
820.465	19502
820.605	19312
820.746	19381
820.886	19198
821.026	19396
821.167	19346
821.307	19419
821.447	19381
821.588	19141
821.728	19152
821.868	19088
822.008	18806
822.149	18802
822.289	18741
822.429	18612
822.569	18525
822.709	18452
822.849	18311
822.99	18365
823.13	18308
823.27	18327
823.41	18152
823.55	18110
823.69	18163
823.83	18049
823.97	18098
824.11	17935
824.25	17908
824.389	17870
824.529	17931
824.669	17912
824.809	17912
824.949	17931
825.089	17923
825.228	17843
825.368	17741
825.508	17729
825.648	17657
825.787	17809
825.927	17687
826.067	17600
826.206	17615
826.346	17589
826.485	17710
826.625	17691
826.765	17805
826.904	17707
827.044	17402
827.183	17478
827.323	17398
827.462	17509
827.601	17261
827.741	17288
827.88	17299
828.02	17231
828.159	17379
828.298	17280
828.437	17463
828.577	17334
828.716	17341
828.855	17368
828.994	17132
829.134	17102
829.273	17296
829.412	17102
829.551	17162
829.69	17102
829.829	17246
829.968	17284
830.107	17170
830.246	17159
830.385	17075
830.524	17128
830.663	16873
830.802	16866
830.941	16691
831.08	16679
831.219	16778
831.357	16713
831.496	16984
831.635	16717
831.774	16618
831.913	16679
832.051	16565
832.19	16356
832.329	16527
832.467	16428
832.606	16379
832.744	16455
832.883	16379
833.022	16344
833.16	16451
833.299	16455
833.437	16447
833.576	16462
833.714	16478
833.852	16516
833.991	16546
834.129	16611
834.267	16577
834.406	16500
834.544	16493
834.682	16561
834.821	16485
834.959	16584
835.097	16478
835.235	16558
835.373	16565
835.511	16561
835.65	16402
835.788	16375
835.926	16249
836.064	16162
836.202	16211
836.34	16356
836.478	16508
836.615	16413
836.753	16443
836.891	16580
837.029	16432
837.167	16371
837.305	16333
837.443	16322
837.58	16242
837.718	16306
837.856	16337
837.993	16177
838.131	16284
838.269	16154
838.406	16150
838.544	16135
838.681	16101
838.819	15979
838.956	15869
839.094	15793
839.231	15835
839.369	16112
839.506	16238
839.643	16124
839.781	15812
839.918	15762
840.055	15899
840.193	15842
840.33	15762
840.467	15781
840.604	15827
840.742	16048
840.879	15698
841.016	15762
841.153	15701
841.29	16025
841.427	15838
841.564	15915
841.701	15831
841.838	15698
841.975	15774
842.112	15800
842.249	15633
842.385	15519
842.522	15774
842.659	15606
842.796	15557
842.933	15663
843.069	15587
843.206	15523
843.343	15762
843.479	15629
843.616	15682
843.752	15412
843.889	15454
844.025	15504
844.162	15367
844.298	15580
844.435	15454
844.571	15344
844.708	15443
844.844	15587
844.98	15492
845.117	15481
845.253	15359
845.389	15370
845.525	15359
845.661	15359
845.798	15173
845.934	15294
846.07	15104
846.206	15249
846.342	15291
846.478	15154
846.614	15020
846.75	14998
846.886	15009
847.022	15085
847.158	14960
847.294	14982
847.429	14998
847.565	14982
847.701	15237
847.837	14712
847.972	14777
848.108	14902
848.244	14792
848.379	14610
848.515	14579
848.65	14571
848.786	14533
848.921	14594
849.057	14686
849.192	14659
849.328	14716
849.463	14583
849.598	14484
849.734	14488
849.869	14427
850.004	14412
850.14	14347
850.275	14320
850.41	14138
850.545	14317
850.68	14244
850.815	14434
850.95	14362
851.085	14492
851.22	14404
851.355	14374
851.49	14271
851.625	14381
851.76	14282
851.895	14214
852.03	14218
852.165	14385
852.299	14389
852.434	14438
852.569	14377
852.703	14317
852.838	14442
852.973	14434
853.107	14492
853.242	14381
853.376	14145
853.511	14142
853.645	14115
853.78	14396
853.914	14161
854.048	14187
854.183	14183
854.317	14259
854.451	14434
854.585	14180
854.72	14142
854.854	14336
854.988	14126
855.122	14214
855.256	14062
855.39	14248
855.524	14317
855.658	14244
855.792	14286
855.926	14298
856.06	14248
856.194	14324
856.327	14210
856.461	14164
856.595	14119
856.729	14183
856.862	14320
856.996	14301
857.13	14286
857.263	14320
857.397	14313
857.53	14237
857.664	14404
857.797	14309
857.931	14476
858.064	14278
858.197	14328
858.331	14248
858.464	14233
858.597	14081
858.731	14195
858.864	14180
858.997	14142
859.13	14168
859.263	14248
859.396	14237
859.529	14275
859.662	14256
859.795	14298
859.928	14339
860.061	14454
860.194	14423
860.327	14309
860.46	14195
860.592	14431
860.725	14427
860.858	14381
860.99	14252
861.123	14240
861.256	14199
861.388	14229
861.521	14872
861.653	14206
861.786	14145
861.918	14187
862.05	14164
862.183	14286
862.315	14244
862.447	14244
862.58	14187
862.712	14069
862.844	14005
862.976	14157
863.108	14065
863.24	14571
863.372	13997
863.504	14046
863.636	14050
863.768	14096
863.9	14107
864.032	13921
864.164	13947
864.296	14073
864.428	14134
864.559	14134
864.691	14145
864.823	14134
864.954	14081
865.086	13982
865.217	14088
865.349	13955
865.48	13970
865.612	14035
865.743	14123
865.875	13993
866.006	13932
866.137	14031
866.269	14024
866.4	14001
866.531	13963
866.662	13986
866.793	14073
866.924	13978
867.055	13955
867.186	14024
867.317	13947
867.448	13879
867.579	13894
867.71	13967
867.841	13963
867.972	14039
868.103	14043
868.233	14111
868.364	13963
868.495	14119
868.625	14294
868.756	14434
868.886	14180
869.017	14187
869.147	14339
869.278	14374
869.408	14286
869.539	14286
869.669	14328
869.799	14343
869.929	14317
870.06	14381
870.19	14583
870.32	14571
870.45	14518
870.58	14610
870.71	14826
870.84	14765
870.97	14667
871.1	14617
871.23	14800
871.36	14853
871.489	14743
871.619	14861
871.749	14895
871.879	14952
872.008	14967
872.138	14906
872.267	14891
872.397	14754
872.526	14659
872.656	14670
872.785	14765
872.915	14967
873.044	14982
873.173	14830
873.303	14880
873.432	15005
873.561	14956
873.69	14902
873.819	14902
873.948	15013
874.077	14971
874.206	14800
874.335	14960
874.464	15036
874.593	15241
874.722	15127
874.851	15233
874.979	15192
875.108	15260
875.237	15218
875.365	15176
875.494	15176
875.623	15325
875.751	15199
875.88	15294
876.008	15370
876.136	15473
876.265	15622
876.393	15755
876.521	15755
876.65	15808
876.778	15637
876.906	15633
877.034	15629
877.162	15603
877.29	15473
877.418	15652
877.546	15568
877.674	15637
877.802	15652
877.93	15652
878.058	15625
878.185	15511
878.313	15549
878.441	15656
878.568	15443
878.696	15625
878.824	15720
878.951	15774
879.079	15789
879.206	15880
879.333	15816
879.461	15682
879.588	15812
879.715	15766
879.842	15907
879.97	15709
880.097	15473
880.224	15443
880.351	15450
880.478	15534
880.605	15443
880.732	15435
880.859	15724
880.986	15538
881.112	15485
881.239	15401
881.366	15192
881.493	15214
881.619	15157
881.746	15199
881.872	15055
881.999	15097
882.125	15112
882.252	15233
882.378	15249
882.505	15325
882.631	15165
882.757	15020
882.883	15036
883.01	15020
883.136	15032
883.262	14796
883.388	14876
883.514	14990
883.64	14986
883.766	14895
883.892	14876
884.018	14948
884.143	14963
884.269	15074
884.395	14758
884.52	14697
884.646	14640
884.772	14537
884.897	14735
885.023	14731
885.148	14819
885.274	14781
885.399	14682
885.524	14708
885.65	14636
885.775	14689
885.9	14590
886.025	14743
886.15	14781
886.275	14514
886.4	14629
886.525	14693
886.65	14594
886.775	14693
886.9	14773
887.025	14914
887.149	14594
887.274	14522
887.399	14545
887.523	14537
887.648	14370
887.773	14427
887.897	14587
888.021	14530
888.146	14423
888.27	14686
888.395	14590
888.519	14575
888.643	14590
888.767	14610
888.891	14450
889.015	14267
889.139	14415
889.263	14301
889.387	14431
889.511	14621
889.635	14564
889.759	14275
889.883	14370
890.006	14313
890.13	14545
890.254	14362
890.377	14286
890.501	14199
890.624	14172
890.748	14206
890.871	14157
890.995	14020
891.118	14043
891.241	14077
891.364	14001
891.488	14096
891.611	14126
891.734	14062
891.857	14157
891.98	14084
892.103	14130
892.226	14149
892.349	13989
892.471	13902
892.594	14020
892.717	13989
892.839	14111
892.962	14168
893.085	14138
893.207	14119
893.33	13959
893.452	13963
893.575	14149
893.697	14005
893.819	14237
893.941	14275
894.064	14263
894.186	14043
894.308	13974
894.43	14142
894.552	14218
894.674	14259
894.796	14039
894.918	14077
895.04	14020
895.161	14233
895.283	14256
895.405	14039
895.526	14088
895.648	14233
895.769	14298
895.891	14199
896.012	14278
896.134	14290
896.255	14164
896.376	14263
896.498	14142
896.619	14317
896.74	14256
896.861	14278
896.982	14632
897.103	14746
897.224	14526
897.345	14568
897.466	14366
897.587	14533
897.708	14602
897.828	14556
897.949	14473
898.07	14336
898.19	14522
898.311	14636
898.431	14518
898.552	14507
898.672	14655
898.792	14610
898.913	14632
899.033	14488
899.153	14404
899.273	14278
899.393	14419
899.513	14465
899.633	14415
899.753	14442
899.873	14450
899.993	14480
900.113	14514
900.232	14446
900.352	14442
900.472	14381
900.591	14298
900.711	14309
900.83	14183
900.95	14309
901.069	14396
901.189	14259
901.308	14027
901.427	13951
901.546	13982
901.665	13951
901.784	14008
901.904	13902
902.023	13917
902.141	13628
902.26	13544
902.379	13693
902.498	13533
902.617	13548
902.735	13639
902.854	13483
902.973	13556
903.091	13320
903.21	13327
903.328	13278
903.446	13236
903.565	13168
903.683	13209
903.801	13118
903.919	13072
904.038	13209
904.156	12913
904.274	13027
904.392	12920
904.51	12920
904.627	12977
904.745	12962
904.863	12886
904.981	12730
905.098	12642
905.216	12654
905.334	12722
905.451	12608
905.569	12627
905.686	12673
905.803	12608
905.921	12445
906.038	12612
906.155	12433
906.272	12384
906.389	12403
906.506	12216
906.623	12201
906.74	12205
906.857	12201
906.974	12197
907.091	12281
907.208	12395
907.324	12319
907.441	12254
907.557	12045
907.674	11984
907.79	11946
907.907	11996
908.023	11916
908.139	11866
908.256	11927
908.372	11878
908.488	11840
908.604	11832
908.72	11752
908.836	11745
908.952	11684
909.068	11688
909.184	11809
909.3	11741
909.415	11809
909.531	11790
909.647	11440
909.762	11543
909.878	11486
909.993	11543
910.108	11516
910.224	11486
910.339	11535
910.454	11406
910.57	11334
910.685	11315
910.8	11600
910.915	11509
911.03	11459
911.145	11193
911.259	11201
911.374	11201
911.489	11136
911.604	11109
911.718	10930
911.833	11022
911.947	10847
912.062	10816
912.176	10911
912.291	10908
912.405	10946
912.519	11193
912.633	11136
912.748	11060
912.862	10934
912.976	10843
913.09	10752
913.204	10854
913.318	10892
913.431	10904
913.545	10938
913.659	10930
913.772	10869
913.886	10698
914	10664
914.113	10714
914.226	10824
914.34	10801
914.453	10656
914.566	10847
914.68	10641
914.793	10698
914.906	10478
915.019	10405
915.132	10417
915.245	10386
915.358	10485
915.47	10462
915.583	10546
915.696	10573
915.809	10649
915.921	10603
916.034	10443
916.146	10394
916.259	10409
916.371	10538
916.483	10508
916.595	10360
916.708	10413
916.82	10398
916.932	10352
917.044	10230
917.156	10367
917.268	10295
917.38	10348
917.491	10253
917.603	10303
917.715	10394
917.826	10333
917.938	10265
918.049	10063
918.161	10344
918.272	10436
918.384	10455
918.495	10249
918.606	10196
918.717	10063
918.828	10181
918.939	10188
919.05	10131
919.161	10177
919.272	10002
919.383	10044
919.494	10268
919.604	10440
919.715	10223
919.826	10074
919.936	10078
920.047	10268
920.157	10207
920.267	10405
920.378	10211
920.488	10223
920.598	10348
920.708	10504
920.818	10413
920.928	10447
921.038	10550
921.148	10398
921.258	10204
921.368	10105
921.477	10154
921.587	10051
921.697	9911
921.806	10063
921.916	9972
922.025	9755
922.134	9755
922.244	9705
922.353	9819
922.462	9644
922.571	9618
922.68	9523
922.789	9424
922.898	9428
923.007	9416
923.116	9519
923.224	9405
923.333	9515
923.442	9389
923.55	9321
923.659	9443
923.767	9473
923.876	9329
923.984	9466
924.092	9283
924.201	9264
924.309	9336
924.417	9359
924.525	9332
924.633	9275
924.741	10055
924.849	9127
924.956	9268
925.064	9100
925.172	9024
925.279	9055
925.387	9180
925.494	9173
925.602	9279
925.709	9184
925.816	9047
925.924	9199
926.031	9256
926.138	9154
926.245	9192
926.352	9020
926.459	9302
926.566	9256
926.673	9142
926.779	8979
926.886	8982
926.993	8830
927.099	8857
927.206	8834
927.312	8815
927.419	8933
927.525	8842
927.631	8975
927.737	8743
927.843	8689
927.95	8678
928.056	8811
928.162	8689
928.267	8826
928.373	9302
928.479	8838
928.585	8613
928.69	8739
928.796	8766
928.901	8659
929.007	8571
929.112	8693
929.218	8644
929.323	8670
929.428	8629
929.533	8766
929.638	8476
929.743	8545
929.848	8583
929.953	8518
930.058	8473
930.163	8328
930.267	8396
930.372	8514
930.477	8305
930.581	8556
930.685	8461
930.79	8286
930.894	8305
930.998	8256
931.103	8423
931.207	8096
931.311	7997
931.415	7928
931.519	7746
931.623	7811
