Data from test_V78500241_2647.txt Node
Date: Fri Mar 25 14:52:08 CST 2022
User: usil
Spectrometer: V785-0024
Trigger mode: 0
Integration Time (sec): 4.000000E-1
Scans to average: 1
Nonlinearity correction enabled: false
Boxcar width: 0
Storing dark spectrum: false
XAxis mode: Wavelengths
Number of Pixels in Spectrum: 1024
>>>>>Begin Spectral Data<<<<<
801.071	21998
801.214	21850
801.356	21667
801.499	21500
801.641	21397
801.783	21294
801.926	21401
802.068	21180
802.211	21264
802.353	21214
802.496	20948
802.638	20963
802.78	20838
802.923	20765
803.065	20598
803.208	20590
803.35	20720
803.492	20849
803.635	20902
803.777	20632
803.919	20807
804.061	21058
804.204	20792
804.346	20792
804.488	20552
804.63	20632
804.773	20575
804.915	20724
805.057	20743
805.199	20522
805.341	20644
805.483	20689
805.626	20629
805.768	20552
805.91	20689
806.052	20613
806.194	20499
806.336	20735
806.478	20560
806.62	20545
806.762	20545
806.904	20823
807.046	21039
807.188	20887
807.33	20952
807.472	20971
807.614	20807
807.756	20853
807.898	20712
808.04	20693
808.182	20625
808.324	20705
808.465	20708
808.607	20872
808.749	21009
808.891	21135
809.033	21260
809.174	21036
809.316	20891
809.458	20948
809.6	20971
809.741	21074
809.883	20944
810.025	21150
810.166	21226
810.308	21150
810.45	21074
810.591	20899
810.733	20796
810.875	20693
811.016	20644
811.158	20530
811.299	20845
811.441	20830
811.582	20773
811.724	20727
811.865	20659
812.007	20720
812.148	20781
812.29	20670
812.431	20925
812.573	21119
812.714	21093
812.855	21154
812.997	21332
813.138	21458
813.279	21260
813.421	21264
813.562	21119
813.703	21009
813.845	20941
813.986	20594
814.127	20469
814.268	20309
814.41	20393
814.551	20290
814.692	20358
814.833	20229
814.974	20305
815.115	20328
815.256	20161
815.397	20134
815.539	20092
815.68	19963
815.821	19902
815.962	19845
816.103	20005
816.244	19822
816.385	19708
816.526	19715
816.666	19651
816.807	19476
816.948	19529
817.089	19563
817.23	19350
817.371	19491
817.512	19472
817.653	19419
817.793	19331
817.934	19362
818.075	19377
818.216	19358
818.356	19430
818.497	19244
818.638	19141
818.778	19027
818.919	18947
819.06	19065
819.2	19289
819.341	19415
819.481	19320
819.622	19445
819.762	19658
819.903	19548
820.043	19521
820.184	19308
820.324	19396
820.465	19468
820.605	19411
820.746	19407
820.886	19190
821.026	19422
821.167	19358
821.307	19464
821.447	19320
821.588	19221
821.728	19057
821.868	18852
822.008	18795
822.149	18848
822.289	18833
822.429	18498
822.569	18399
822.709	18429
822.849	18258
822.99	18388
823.13	18243
823.27	18197
823.41	18129
823.55	18038
823.69	18064
823.83	18038
823.97	18011
824.11	17859
824.25	17878
824.389	17752
824.529	17874
824.669	17870
824.809	17942
824.949	17916
825.089	17878
825.228	17901
825.368	17581
825.508	17710
825.648	17687
825.787	17589
825.927	17649
826.067	17528
826.206	17684
826.346	17775
826.485	17745
826.625	17604
826.765	17745
826.904	17798
827.044	17501
827.183	17372
827.323	17337
827.462	17345
827.601	17356
827.741	17379
827.88	17372
828.02	17197
828.159	17250
828.298	17349
828.437	17448
828.577	17284
828.716	17410
828.855	17330
828.994	17128
829.134	17166
829.273	17250
829.412	17079
829.551	17022
829.69	17041
829.829	17181
829.968	17303
830.107	17143
830.246	17140
830.385	17075
830.524	17079
830.663	17029
830.802	16908
830.941	16790
831.08	16778
831.219	16793
831.357	16820
831.496	17048
831.635	16835
831.774	16672
831.913	16626
832.051	16531
832.19	16641
832.329	16645
832.467	16379
832.606	16287
832.744	16535
832.883	16382
833.022	16329
833.16	16474
833.299	16535
833.437	16565
833.576	16485
833.714	16622
833.852	16527
833.991	16584
834.129	16618
834.267	16588
834.406	16489
834.544	16516
834.682	16584
834.821	16493
834.959	16774
835.097	16497
835.235	16634
835.373	16611
835.511	16523
835.65	16500
835.788	16382
835.926	16325
836.064	16246
836.202	16291
836.34	16481
836.478	16592
836.615	16512
836.753	16554
836.891	16489
837.029	16371
837.167	16363
837.305	16299
837.443	16367
837.58	16204
837.718	16440
837.856	16257
837.993	16363
838.131	16318
838.269	16192
838.406	16295
838.544	16143
838.681	16063
838.819	16006
838.956	15930
839.094	15770
839.231	15941
839.369	15983
839.506	16276
839.643	16101
839.781	15835
839.918	15835
840.055	15854
840.193	15793
840.33	15743
840.467	15816
840.604	15949
840.742	16101
840.879	15762
841.016	15842
841.153	15778
841.29	15968
841.427	15827
841.564	15926
841.701	15846
841.838	15732
841.975	15789
842.112	15797
842.249	15690
842.385	15724
842.522	15812
842.659	15698
842.796	15709
842.933	15686
843.069	15564
843.206	15603
843.343	15755
843.479	15633
843.616	15610
843.752	15454
843.889	15374
844.025	15644
844.162	15416
844.298	15466
844.435	15408
844.571	15450
844.708	15431
844.844	15523
844.98	15542
845.117	15564
845.253	15408
845.389	15332
845.525	15386
845.661	15306
845.798	15176
845.934	15317
846.07	15161
846.206	15351
846.342	15462
846.478	15230
846.614	15058
846.75	14975
846.886	14971
847.022	15116
847.158	14994
847.294	15066
847.429	15089
847.565	14971
847.701	15245
847.837	14769
847.972	14712
848.108	14918
848.244	14838
848.379	14636
848.515	14621
848.65	14571
848.786	14629
848.921	14644
849.057	14720
849.192	14708
849.328	14632
849.463	14541
849.598	14648
849.734	14568
849.869	14415
850.004	14377
850.14	14431
850.275	14461
850.41	14320
850.545	14305
850.68	14336
850.815	14275
850.95	14301
851.085	14556
851.22	14545
851.355	14431
851.49	14366
851.625	14298
851.76	14393
851.895	14309
852.03	14313
852.165	14412
852.299	14438
852.434	14469
852.569	14442
852.703	14370
852.838	14389
852.973	14522
853.107	14457
853.242	14286
853.376	14294
853.511	14111
853.645	14149
853.78	14366
853.914	14240
854.048	14271
854.183	14164
854.317	14324
854.451	14442
854.585	14145
854.72	14172
854.854	14317
854.988	14073
855.122	14206
855.256	14024
855.39	14191
855.524	14282
855.658	14271
855.792	14263
855.926	14309
856.06	14427
856.194	14381
856.327	14180
856.461	14206
856.595	14176
856.729	14134
856.862	14358
856.996	14259
857.13	14282
857.263	14275
857.397	14393
857.53	14282
857.664	14298
857.797	14377
857.931	14412
858.064	14355
858.197	14393
858.331	14282
858.464	14206
858.597	14149
858.731	14123
858.864	14180
858.997	14187
859.13	14294
859.263	14324
859.396	14256
859.529	14180
859.662	14244
859.795	14210
859.928	14244
860.061	14427
860.194	14461
860.327	14271
860.46	14320
860.592	14427
860.725	14271
860.858	14320
860.99	14199
861.123	14164
861.256	14210
861.388	14286
861.521	14910
861.653	14119
861.786	14035
861.918	14164
862.05	14187
862.183	14157
862.315	14237
862.447	14259
862.58	14214
862.712	14031
862.844	14020
862.976	14100
863.108	14073
863.24	14381
863.372	14031
863.504	13978
863.636	14046
863.768	14008
863.9	14142
864.032	13902
864.164	13959
864.296	14103
864.428	14119
864.559	14153
864.691	14126
864.823	14065
864.954	14096
865.086	14161
865.217	14081
865.349	13940
865.48	13928
865.612	14096
865.743	14054
865.875	14020
866.006	13982
866.137	14039
866.269	13989
866.4	14001
866.531	13974
866.662	13833
866.793	13959
866.924	13936
867.055	14088
867.186	14043
867.317	13963
867.448	13982
867.579	13963
867.71	14027
867.841	13932
867.972	13997
868.103	14050
868.233	14058
868.364	14008
868.495	14084
868.625	14191
868.756	14252
868.886	14244
869.017	14130
869.147	14434
869.278	14389
869.408	14240
869.539	14332
869.669	14381
869.799	14328
869.929	14419
870.06	14412
870.19	14579
870.32	14598
870.45	14575
870.58	14640
870.71	14754
870.84	14853
870.97	14644
871.1	14640
871.23	14819
871.36	14853
871.489	14788
871.619	14826
871.749	14933
871.879	14861
872.008	15051
872.138	14834
872.267	14830
872.397	14697
872.526	14743
872.656	14697
872.785	14575
872.915	14918
873.044	14986
873.173	14971
873.303	14887
873.432	14876
873.561	14910
873.69	14921
873.819	14944
873.948	15005
874.077	14937
874.206	14971
874.335	14918
874.464	15123
874.593	15127
874.722	15039
874.851	15340
874.979	15211
875.108	15268
875.237	15222
875.365	15146
875.494	15241
875.623	15237
875.751	15169
875.88	15268
876.008	15488
876.136	15454
876.265	15656
876.393	15732
876.521	15629
876.65	15827
876.778	15614
876.906	15610
877.034	15606
877.162	15663
877.29	15637
877.418	15660
877.546	15682
877.674	15614
877.802	15705
877.93	15622
878.058	15591
878.185	15526
878.313	15568
878.441	15690
878.568	15507
878.696	15618
878.824	15587
878.951	15720
879.079	15751
879.206	15987
879.333	15846
879.461	15652
879.588	15781
879.715	15800
879.842	15797
879.97	15720
880.097	15534
880.224	15412
880.351	15561
880.478	15488
880.605	15496
880.732	15454
880.859	15759
880.986	15564
881.112	15606
881.239	15359
881.366	15161
881.493	15123
881.619	15093
881.746	15180
881.872	15119
881.999	15211
882.125	15081
882.252	15176
882.378	15272
882.505	15317
882.631	15070
882.757	14929
882.883	15085
883.01	15017
883.136	15081
883.262	14864
883.388	14777
883.514	15055
883.64	15062
883.766	14838
883.892	14754
884.018	14887
884.143	14941
884.269	15013
884.395	14765
884.52	14606
884.646	14571
884.772	14526
884.897	14613
885.023	14689
885.148	14686
885.274	14819
885.399	14743
885.524	14659
885.65	14659
885.775	14659
885.9	14678
886.025	14902
886.15	14621
886.275	14670
886.4	14434
886.525	14674
886.65	14568
886.775	14617
886.9	14804
887.025	14849
887.149	14693
887.274	14545
887.399	14507
887.523	14389
887.648	14480
887.773	14377
887.897	14549
888.021	14590
888.146	14503
888.27	14617
888.395	14560
888.519	14537
888.643	14552
888.767	14564
888.891	14415
889.015	14400
889.139	14320
889.263	14320
889.387	14499
889.511	14568
889.635	14495
889.759	14317
889.883	14381
890.006	14419
890.13	14492
890.254	14309
890.377	14339
890.501	14168
890.624	14142
890.748	14286
890.871	14191
890.995	13986
891.118	13993
891.241	14142
891.364	14058
891.488	14153
891.611	14005
891.734	14035
891.857	14134
891.98	14115
892.103	14176
892.226	14176
892.349	14058
892.471	13902
892.594	14062
892.717	14043
892.839	14039
892.962	14058
893.085	14183
893.207	14073
893.33	13993
893.452	13951
893.575	14123
893.697	13978
893.819	14244
893.941	14313
894.064	14214
894.186	14088
894.308	14043
894.43	14191
894.552	14252
894.674	14202
894.796	14126
894.918	14092
895.04	13997
895.161	14176
895.283	14202
895.405	14024
895.526	14142
895.648	14180
895.769	14069
895.891	14214
896.012	14248
896.134	14301
896.255	14221
896.376	14282
896.498	14347
896.619	14282
896.74	14149
896.861	14229
896.982	14651
897.103	14754
897.224	14610
897.345	14556
897.466	14374
897.587	14484
897.708	14648
897.828	14533
897.949	14480
898.07	14412
898.19	14446
898.311	14617
898.431	14461
898.552	14625
898.672	14659
898.792	14655
898.913	14621
899.033	14526
899.153	14488
899.273	14320
899.393	14446
899.513	14385
899.633	14419
899.753	14374
899.873	14317
899.993	14541
900.113	14400
900.232	14469
900.352	14400
900.472	14362
900.591	14206
900.711	14351
900.83	14195
900.95	14339
901.069	14419
901.189	14294
901.308	13997
901.427	13951
901.546	14008
901.665	14065
901.784	13909
901.904	13883
902.023	13761
902.141	13529
902.26	13567
902.379	13670
902.498	13514
902.617	13518
902.735	13552
902.854	13495
902.973	13407
903.091	13339
903.21	13278
903.328	13259
903.446	13194
903.565	13133
903.683	13187
903.801	12920
903.919	13126
904.038	13015
904.156	12913
904.274	13019
904.392	12928
904.51	12947
904.627	12962
904.745	12935
904.863	13038
904.981	12707
905.098	12585
905.216	12631
905.334	12650
905.451	12684
905.569	12551
905.686	12654
905.803	12650
905.921	12483
906.038	12593
906.155	12391
906.272	12338
906.389	12395
906.506	12270
906.623	12258
906.74	12182
906.857	12053
906.974	12140
907.091	12232
907.208	12388
907.324	12273
907.441	12110
907.557	11961
907.674	11935
907.79	11935
907.907	11992
908.023	12011
908.139	11897
908.256	11912
908.372	11901
908.488	11942
908.604	11809
908.72	11630
908.836	11729
908.952	11707
909.068	11699
909.184	11760
909.3	11592
909.415	11802
909.531	11821
909.647	11539
909.762	11608
909.878	11452
909.993	11474
910.108	11482
910.224	11467
910.339	11524
910.454	11376
910.57	11376
910.685	11269
910.8	11630
910.915	11562
911.03	11307
911.145	11258
911.259	11185
911.374	11227
911.489	11117
911.604	10995
911.718	10965
911.833	10957
911.947	10866
912.062	10744
912.176	10965
912.291	10949
912.405	10980
912.519	11181
912.633	11113
912.748	11071
912.862	10923
912.976	10786
913.09	10714
913.204	10839
913.318	10850
913.431	10972
913.545	10850
913.659	10961
913.772	10835
913.886	10725
914	10626
914.113	10797
914.226	10805
914.34	10862
914.453	10611
914.566	10793
914.68	10645
914.793	10599
914.906	10451
915.019	10466
915.132	10436
915.245	10432
915.358	10481
915.47	10428
915.583	10569
915.696	10455
915.809	10588
915.921	10649
916.034	10405
916.146	10375
916.259	10413
916.371	10535
916.483	10478
916.595	10379
916.708	10417
916.82	10306
916.932	10287
917.044	10436
917.156	10424
917.268	10325
917.38	10306
917.491	10196
917.603	10310
917.715	10352
917.826	10363
917.938	10261
918.049	10200
918.161	10344
918.272	10382
918.384	10497
918.495	10310
918.606	10166
918.717	10090
918.828	10219
918.939	10200
919.05	10162
919.161	10120
919.272	9888
919.383	10044
919.494	10242
919.604	10489
919.715	10227
919.826	10090
919.936	10150
920.047	10280
920.157	10158
920.267	10390
920.378	10219
920.488	10223
920.598	10459
920.708	10508
920.818	10390
920.928	10367
921.038	10497
921.148	10527
921.258	10246
921.368	10116
921.477	10090
921.587	10044
921.697	9960
921.806	10059
921.916	9892
922.025	9774
922.134	9804
922.244	9690
922.353	9686
922.462	9660
922.571	9633
922.68	9473
922.789	9370
922.898	9500
923.007	9344
923.116	9443
923.224	9428
923.333	9401
923.442	9355
923.55	9355
923.659	9325
923.767	9382
923.876	9313
923.984	9340
924.092	9253
924.201	9298
924.309	9279
924.417	9256
924.525	9268
924.633	9233
924.741	10006
924.849	9077
924.956	9226
925.064	9097
925.172	9013
925.279	9116
925.387	9108
925.494	9089
925.602	9268
925.709	9188
925.816	9077
925.924	9112
926.031	9176
926.138	9104
926.245	9135
926.352	9001
926.459	9146
926.566	9199
926.673	9051
926.779	8975
926.886	8914
926.993	8899
927.099	8766
927.206	8800
927.312	8796
927.419	8933
927.525	8826
927.631	8823
927.737	8769
927.843	8697
927.95	8568
928.056	8651
928.162	8754
928.267	8788
928.373	9348
928.479	8815
928.585	8590
928.69	8712
928.796	8708
928.901	8587
929.007	8465
929.112	8606
929.218	8579
929.323	8575
929.428	8549
929.533	8667
929.638	8457
929.743	8556
929.848	8568
929.953	8583
930.058	8355
930.163	8298
930.267	8324
930.372	8404
930.477	8240
930.581	8522
930.685	8324
930.79	8240
930.894	8286
930.998	8218
931.103	8370
931.207	8024
931.311	7986
931.415	8024
931.519	7715
931.623	7750
