Data from test_V78500241_477.txt Node
Date: Fri Mar 25 14:37:02 CST 2022
User: usil
Spectrometer: V785-0024
Trigger mode: 0
Integration Time (sec): 4.000000E-1
Scans to average: 1
Nonlinearity correction enabled: false
Boxcar width: 0
Storing dark spectrum: false
XAxis mode: Wavelengths
Number of Pixels in Spectrum: 1024
>>>>>Begin Spectral Data<<<<<
801.071	26575
801.214	26358
801.356	26145
801.499	26096
801.641	25947
801.783	26001
801.926	26084
802.068	25925
802.211	25849
802.353	25761
802.496	25552
802.638	25571
802.78	25483
802.923	25514
803.065	25434
803.208	25403
803.35	25388
803.492	25521
803.635	25502
803.777	25460
803.919	25483
804.061	25868
804.204	25499
804.346	25510
804.488	25434
804.63	25426
804.773	25354
804.915	25426
805.057	25590
805.199	25472
805.341	25411
805.483	25415
805.626	25537
805.768	25362
805.91	25556
806.052	25472
806.194	25419
806.336	25727
806.478	25441
806.62	25491
806.762	25548
806.904	25799
807.046	25925
807.188	25860
807.33	25879
807.472	25833
807.614	25894
807.756	25772
807.898	25719
808.04	25540
808.182	25750
808.324	25685
808.465	25780
808.607	25868
808.749	25982
808.891	26199
809.033	26229
809.174	25909
809.316	26035
809.458	26046
809.6	25947
809.741	26077
809.883	25993
810.025	26149
810.166	26214
810.308	26157
810.45	26058
810.591	26073
810.733	25936
810.875	25753
811.016	25704
811.158	25677
811.299	25753
811.441	26001
811.582	25799
811.724	25811
811.865	25826
812.007	25704
812.148	25681
812.29	25799
812.431	25978
812.573	25974
812.714	26191
812.855	26229
812.997	26370
813.138	26518
813.279	26434
813.421	26278
813.562	26225
813.703	26115
813.845	25894
813.986	25624
814.127	25510
814.268	25411
814.41	25324
814.551	25346
814.692	25453
814.833	25274
814.974	25335
815.115	25339
815.256	25103
815.397	25285
815.539	25228
815.68	25015
815.821	24992
815.962	25141
816.103	24989
816.244	24913
816.385	24859
816.526	24669
816.666	24700
816.807	24528
816.948	24566
817.089	24551
817.23	24464
817.371	24479
817.512	24559
817.653	24490
817.793	24350
817.934	24334
818.075	24547
818.216	24437
818.356	24330
818.497	24216
818.638	24243
818.778	24159
818.919	24114
819.06	24110
819.2	24285
819.341	24266
819.481	24388
819.622	24536
819.762	24658
819.903	24646
820.043	24650
820.184	24437
820.324	24627
820.465	24604
820.605	24479
820.746	24498
820.886	24338
821.026	24304
821.167	24395
821.307	24486
821.447	24353
821.588	24209
821.728	24110
821.868	23893
822.008	23882
822.149	23840
822.289	23634
822.429	23608
822.569	23478
822.709	23493
822.849	23273
822.99	23277
823.13	23231
823.27	23231
823.41	23208
823.55	22858
823.69	23117
823.83	23044
823.97	23014
824.11	22816
824.25	22873
824.389	22927
824.529	22927
824.669	22885
824.809	22968
824.949	22881
825.089	22908
825.228	22854
825.368	22626
825.508	22626
825.648	22733
825.787	22675
825.927	22748
826.067	22637
826.206	22653
826.346	22649
826.485	22725
826.625	22542
826.765	22725
826.904	22519
827.044	22394
827.183	22436
827.323	22348
827.462	22386
827.601	22287
827.741	22310
827.88	22257
828.02	22188
828.159	22280
828.298	22299
828.437	22223
828.577	22188
828.716	22356
828.855	22105
828.994	22017
829.134	21998
829.273	22166
829.412	21972
829.551	21991
829.69	21869
829.829	21937
829.968	22055
830.107	22078
830.246	21987
830.385	21934
830.524	21945
830.663	21918
830.802	21648
830.941	21542
831.08	21595
831.219	21637
831.357	21709
831.496	21892
831.635	21568
831.774	21504
831.913	21378
832.051	21351
832.19	21363
832.329	21264
832.467	21256
832.606	21123
832.744	21173
832.883	21173
833.022	21302
833.16	21142
833.299	21264
833.437	21237
833.576	21176
833.714	21192
833.852	21176
833.991	21268
834.129	21374
834.267	21321
834.406	21222
834.544	21184
834.682	21260
834.821	21291
834.959	21378
835.097	21184
835.235	21268
835.373	21184
835.511	21283
835.65	21161
835.788	21165
835.926	20952
836.064	20918
836.202	20918
836.34	21047
836.478	21119
836.615	20994
836.753	21154
836.891	21066
837.029	21211
837.167	21100
837.305	21005
837.443	21039
837.58	20872
837.718	21047
837.856	21047
837.993	20895
838.131	20842
838.269	20769
838.406	20804
838.544	20705
838.681	20568
838.819	20708
838.956	20442
839.094	20408
839.231	20438
839.369	20488
839.506	20887
839.643	20579
839.781	20404
839.918	20259
840.055	20377
840.193	20294
840.33	20282
840.467	20317
840.604	20434
840.742	20590
840.879	20153
841.016	20267
841.153	20248
841.29	20415
841.427	20298
841.564	20278
841.701	20267
841.838	20191
841.975	20237
842.112	20142
842.249	20130
842.385	20054
842.522	20122
842.659	20005
842.796	20046
842.933	19913
843.069	19906
843.206	20039
843.343	20069
843.479	19970
843.616	20043
843.752	19826
843.889	19841
844.025	19845
844.162	19742
844.298	19788
844.435	19753
844.571	19712
844.708	19852
844.844	19898
844.98	19822
845.117	19818
845.253	19658
845.389	19704
845.525	19639
845.661	19746
845.798	19533
845.934	19795
846.07	19616
846.206	19708
846.342	19761
846.478	19514
846.614	19445
846.75	19381
846.886	19190
847.022	19358
847.158	19118
847.294	19244
847.429	19274
847.565	19240
847.701	19445
847.837	18981
847.972	18924
848.108	19110
848.244	19015
848.379	18859
848.515	18920
848.65	18764
848.786	18791
848.921	18859
849.057	18897
849.192	18943
849.328	18825
849.463	18837
849.598	18776
849.734	18776
849.869	18631
850.004	18532
850.14	18639
850.275	18627
850.41	18525
850.545	18513
850.68	18506
850.815	18593
850.95	18544
851.085	18684
851.22	18597
851.355	18563
851.49	18570
851.625	18540
851.76	18509
851.895	18414
852.03	18437
852.165	18502
852.299	18570
852.434	18517
852.569	18521
852.703	18547
852.838	18570
852.973	18673
853.107	18570
853.242	18494
853.376	18460
853.511	18220
853.645	18281
853.78	18506
853.914	18315
854.048	18361
854.183	18270
854.317	18369
854.451	18517
854.585	18429
854.72	18388
854.854	18418
854.988	18209
855.122	18277
855.256	18201
855.39	18319
855.524	18395
855.658	18380
855.792	18433
855.926	18296
856.06	18304
856.194	18369
856.327	18410
856.461	18350
856.595	18311
856.729	18308
856.862	18509
856.996	18292
857.13	18448
857.263	18365
857.397	18452
857.53	18296
857.664	18391
857.797	18391
857.931	18506
858.064	18441
858.197	18414
858.331	18296
858.464	18239
858.597	18277
858.731	18285
858.864	18251
858.997	18281
859.13	18270
859.263	18277
859.396	18281
859.529	18213
859.662	18232
859.795	18323
859.928	18258
860.061	18445
860.194	18483
860.327	18292
860.46	18384
860.592	18395
860.725	18357
860.858	18422
860.99	18300
861.123	18251
861.256	18197
861.388	18209
861.521	19050
861.653	18300
861.786	18049
861.918	18228
862.05	18365
862.183	18285
862.315	18285
862.447	18395
862.58	18254
862.712	18144
862.844	17973
862.976	18133
863.108	18098
863.24	18388
863.372	17935
863.504	18022
863.636	17999
863.768	18060
863.9	18121
864.032	17946
864.164	17999
864.296	17973
864.428	18174
864.559	18163
864.691	18152
864.823	18076
864.954	18053
865.086	18003
865.217	17988
865.349	17813
865.48	18003
865.612	18076
865.743	18019
865.875	18129
866.006	17958
866.137	17950
866.269	17908
866.4	17901
866.531	17931
866.662	17741
866.793	17817
866.924	17817
867.055	17901
867.186	18015
867.317	17859
867.448	17756
867.579	17863
867.71	17904
867.841	17828
867.972	17870
868.103	17893
868.233	17923
868.364	17912
868.495	17961
868.625	18015
868.756	18251
868.886	18060
869.017	18133
869.147	18182
869.278	18270
869.408	18117
869.539	18045
869.669	18159
869.799	18159
869.929	18285
870.06	18163
870.19	18445
870.32	18403
870.45	18479
870.58	18559
870.71	18631
870.84	18673
870.97	18578
871.1	18418
871.23	18684
871.36	18741
871.489	18540
871.619	18593
871.749	18757
871.879	18749
872.008	18844
872.138	18677
872.267	18700
872.397	18604
872.526	18471
872.656	18494
872.785	18738
872.915	18715
873.044	18825
873.173	18772
873.303	18783
873.432	18738
873.561	18783
873.69	18768
873.819	18776
873.948	18848
874.077	18768
874.206	18753
874.335	18696
874.464	18871
874.593	18924
874.722	19046
874.851	19019
874.979	19129
875.108	19126
875.237	18939
875.365	19038
875.494	18985
875.623	19095
875.751	18981
875.88	19103
876.008	19050
876.136	19232
876.265	19434
876.393	19426
876.521	19476
876.65	19480
876.778	19457
876.906	19483
877.034	19502
877.162	19434
877.29	19339
877.418	19327
877.546	19430
877.674	19415
877.802	19430
877.93	19468
878.058	19373
878.185	19354
878.313	19434
878.441	19388
878.568	19297
878.696	19426
878.824	19567
878.951	19487
879.079	19616
879.206	19769
879.333	19628
879.461	19685
879.588	19559
879.715	19666
879.842	19769
879.97	19563
880.097	19316
880.224	19308
880.351	19228
880.478	19331
880.605	19202
880.732	19278
880.859	19358
880.986	19285
881.112	19373
881.239	19259
881.366	19027
881.493	19023
881.619	18840
881.746	18958
881.872	18909
881.999	18772
882.125	18924
882.252	19004
882.378	18985
882.505	19034
882.631	18852
882.757	18585
882.883	18787
883.01	18692
883.136	18517
883.262	18456
883.388	18517
883.514	18719
883.64	18623
883.766	18642
883.892	18372
884.018	18464
884.143	18570
884.269	18677
884.395	18403
884.52	18220
884.646	18308
884.772	18342
884.897	18251
885.023	18228
885.148	18509
885.274	18391
885.399	18403
885.524	18391
885.65	18388
885.775	18289
885.9	18376
886.025	18319
886.15	18391
886.275	18228
886.4	18152
886.525	18243
886.65	18277
886.775	18148
886.9	18243
887.025	18479
887.149	18266
887.274	18167
887.399	18186
887.523	18102
887.648	18007
887.773	17946
887.897	18186
888.021	18083
888.146	17999
888.27	18205
888.395	18186
888.519	18148
888.643	17999
888.767	18136
888.891	18034
889.015	17973
889.139	17977
889.263	17908
889.387	18007
889.511	18060
889.635	17977
889.759	17958
889.883	17843
890.006	17946
890.13	17977
890.254	17809
890.377	17828
890.501	17642
890.624	17649
890.748	17703
890.871	17509
890.995	17429
891.118	17395
891.241	17570
891.364	17573
891.488	17703
891.611	17444
891.734	17471
891.857	17634
891.98	17497
892.103	17657
892.226	17581
892.349	17463
892.471	17379
892.594	17490
892.717	17551
892.839	17482
892.962	17467
893.085	17532
893.207	17433
893.33	17265
893.452	17360
893.575	17562
893.697	17368
893.819	17634
893.941	17566
894.064	17570
894.186	17356
894.308	17436
894.43	17592
894.552	17581
894.674	17623
894.796	17425
894.918	17440
895.04	17493
895.161	17505
895.283	17482
895.405	17486
895.526	17558
895.648	17455
895.769	17554
895.891	17512
896.012	17543
896.134	17505
896.255	17448
896.376	17634
896.498	17490
896.619	17722
896.74	17676
896.861	17646
896.982	17961
897.103	18041
897.224	17775
897.345	17813
897.466	17741
897.587	17775
897.708	17927
897.828	17824
897.949	17775
898.07	17687
898.19	17798
898.311	17832
898.431	17790
898.552	17756
898.672	17885
898.792	17737
898.913	17809
899.033	17615
899.153	17524
899.273	17528
899.393	17558
899.513	17551
899.633	17543
899.753	17661
899.873	17455
899.993	17566
900.113	17566
900.232	17509
900.352	17463
900.472	17433
900.591	17345
900.711	17474
900.83	17284
900.95	17391
901.069	17497
901.189	17311
901.308	17132
901.427	17071
901.546	16961
901.665	17025
901.784	17064
901.904	16843
902.023	16824
902.141	16656
902.26	16577
902.379	16607
902.498	16443
902.617	16527
902.735	16584
902.854	16535
902.973	16394
903.091	16230
903.21	16261
903.328	16200
903.446	16246
903.565	16120
903.683	16093
903.801	15911
903.919	15998
904.038	16025
904.156	15808
904.274	15934
904.392	15819
904.51	15827
904.627	15876
904.745	15937
904.863	15903
904.981	15576
905.098	15496
905.216	15431
905.334	15523
905.451	15511
905.569	15477
905.686	15610
905.803	15534
905.921	15355
906.038	15382
906.155	15245
906.272	15199
906.389	15279
906.506	15188
906.623	15001
906.74	15077
906.857	14925
906.974	14994
907.091	15142
907.208	15214
907.324	15135
907.441	14929
907.557	14910
907.674	14769
907.79	14807
907.907	14781
908.023	14815
908.139	14807
908.256	14648
908.372	14575
908.488	14670
908.604	14552
908.72	14454
908.836	14484
908.952	14431
909.068	14427
909.184	14655
909.3	14457
909.415	14476
909.531	14419
909.647	14309
909.762	14233
909.878	14119
909.993	14267
910.108	14065
910.224	14153
910.339	14134
910.454	14077
910.57	13993
910.685	13932
910.8	14278
910.915	14191
911.03	13947
911.145	13860
911.259	13871
911.374	13860
911.489	13731
911.604	13738
911.718	13537
911.833	13567
911.947	13419
912.062	13400
912.176	13529
912.291	13460
912.405	13632
912.519	13784
912.633	13727
912.748	13578
912.862	13552
912.976	13377
913.09	13270
913.204	13346
913.318	13468
913.431	13502
913.545	13460
913.659	13616
913.772	13358
913.886	13263
914	13164
914.113	13320
914.226	13396
914.34	13285
914.453	13107
914.566	13293
914.68	13179
914.793	13202
914.906	13023
915.019	12848
915.132	12920
915.245	12863
915.358	12882
915.47	12954
915.583	12993
915.696	12993
915.809	12996
915.921	13069
916.034	12878
916.146	12905
916.259	12795
916.371	12905
916.483	13012
916.595	12825
916.708	12753
916.82	12814
916.932	12738
917.044	12764
917.156	12722
917.268	12608
917.38	12684
917.491	12585
917.603	12612
917.715	12715
917.826	12764
917.938	12540
918.049	12433
918.161	12578
918.272	12779
918.384	12757
918.495	12608
918.606	12350
918.717	12407
918.828	12441
918.939	12521
919.05	12452
919.161	12376
919.272	12239
919.383	12315
919.494	12445
919.604	12589
919.715	12365
919.826	12361
919.936	12445
920.047	12426
920.157	12391
920.267	12654
920.378	12452
920.488	12475
920.598	12642
920.708	12665
920.818	12513
920.928	12578
921.038	12688
921.148	12646
921.258	12372
921.368	12270
921.477	12182
921.587	12209
921.697	12034
921.806	12209
921.916	12007
922.025	11851
922.134	11923
922.244	11760
922.353	11809
922.462	11733
922.571	11657
922.68	11577
922.789	11535
922.898	11566
923.007	11444
923.116	11566
923.224	11539
923.333	11436
923.442	11406
923.55	11368
923.659	11353
923.767	11391
923.876	11322
923.984	11391
924.092	11292
924.201	11433
924.309	11254
924.417	11345
924.525	11337
924.633	11254
924.741	12125
924.849	11109
924.956	11216
925.064	11189
925.172	10968
925.279	11037
925.387	11128
925.494	11064
925.602	11151
925.709	11170
925.816	10995
925.924	10999
926.031	11143
926.138	11018
926.245	11098
926.352	10942
926.459	11075
926.566	11048
926.673	10991
926.779	10900
926.886	10816
926.993	10755
927.099	10721
927.206	10622
927.312	10573
927.419	10736
927.525	10611
927.631	10729
927.737	10611
927.843	10462
927.95	10470
928.056	10512
928.162	10626
928.267	10611
928.373	11147
928.479	10569
928.585	10356
928.69	10516
928.796	10550
928.901	10516
929.007	10257
929.112	10489
929.218	10379
929.323	10287
929.428	10341
929.533	10508
929.638	10261
929.743	10253
929.848	10367
929.953	10325
930.058	10166
930.163	10025
930.267	10097
930.372	10086
930.477	9964
930.581	10234
930.685	10067
930.79	9873
930.894	9941
930.998	9960
931.103	10109
931.207	9770
931.311	9663
931.415	9587
931.519	9389
931.623	9378
