Data from test_V78500241_2660.txt Node
Date: Fri Mar 25 14:52:14 CST 2022
User: usil
Spectrometer: V785-0024
Trigger mode: 0
Integration Time (sec): 4.000000E-1
Scans to average: 1
Nonlinearity correction enabled: false
Boxcar width: 0
Storing dark spectrum: false
XAxis mode: Wavelengths
Number of Pixels in Spectrum: 1024
>>>>>Begin Spectral Data<<<<<
801.071	22082
801.214	21800
801.356	21663
801.499	21530
801.641	21370
801.783	21416
801.926	21359
802.068	21359
802.211	21192
802.353	21207
802.496	21013
802.638	20918
802.78	20773
802.923	20838
803.065	20632
803.208	20575
803.35	20621
803.492	20743
803.635	20792
803.777	20686
803.919	20804
804.061	20963
804.204	20792
804.346	20606
804.488	20682
804.63	20682
804.773	20594
804.915	20693
805.057	20750
805.199	20541
805.341	20697
805.483	20853
805.626	20655
805.768	20514
805.91	20514
806.052	20629
806.194	20552
806.336	20823
806.478	20526
806.62	20575
806.762	20693
806.904	20872
807.046	21024
807.188	20887
807.33	20864
807.472	21005
807.614	20853
807.756	20777
807.898	20758
808.04	20712
808.182	20716
808.324	20667
808.465	20659
808.607	20834
808.749	20982
808.891	21005
809.033	21154
809.174	21051
809.316	20842
809.458	20918
809.6	20876
809.741	20952
809.883	20971
810.025	21032
810.166	21089
810.308	20994
810.45	21104
810.591	20910
810.733	20910
810.875	20655
811.016	20670
811.158	20655
811.299	20788
811.441	20811
811.582	20819
811.724	20727
811.865	20606
812.007	20781
812.148	20785
812.29	20670
812.431	20925
812.573	21013
812.714	21112
812.855	21222
812.997	21374
813.138	21447
813.279	21340
813.421	21256
813.562	21146
813.703	20937
813.845	20823
813.986	20655
814.127	20400
814.268	20301
814.41	20320
814.551	20336
814.692	20328
814.833	20271
814.974	20229
815.115	20221
815.256	20069
815.397	20065
815.539	20145
815.68	20119
815.821	19989
815.962	20046
816.103	20081
816.244	19841
816.385	19723
816.526	19628
816.666	19506
816.807	19529
816.948	19499
817.089	19544
817.23	19483
817.371	19422
817.512	19483
817.653	19369
817.793	19346
817.934	19308
818.075	19335
818.216	19373
818.356	19422
818.497	19160
818.638	19057
818.778	19065
818.919	18993
819.06	19046
819.2	19156
819.341	19365
819.481	19445
819.622	19487
819.762	19597
819.903	19544
820.043	19445
820.184	19449
820.324	19343
820.465	19548
820.605	19350
820.746	19365
820.886	19107
821.026	19365
821.167	19285
821.307	19381
821.447	19316
821.588	19282
821.728	19015
821.868	18935
822.008	18795
822.149	18837
822.289	18760
822.429	18502
822.569	18445
822.709	18536
822.849	18308
822.99	18239
823.13	18281
823.27	18201
823.41	18148
823.55	18102
823.69	18068
823.83	18102
823.97	18019
824.11	17859
824.25	17866
824.389	17847
824.529	17878
824.669	17836
824.809	17935
824.949	17897
825.089	18030
825.228	17805
825.368	17760
825.508	17539
825.648	17786
825.787	17684
825.927	17714
826.067	17676
826.206	17512
826.346	17718
826.485	17649
826.625	17619
826.765	17672
826.904	17638
827.044	17410
827.183	17425
827.323	17277
827.462	17341
827.601	17360
827.741	17181
827.88	17433
828.02	17239
828.159	17376
828.298	17284
828.437	17368
828.577	17307
828.716	17414
828.855	17326
828.994	17094
829.134	17132
829.273	17086
829.412	16987
829.551	17060
829.69	17086
829.829	17181
829.968	17223
830.107	17113
830.246	17029
830.385	17033
830.524	16946
830.663	16923
830.802	16850
830.941	16706
831.08	16687
831.219	16778
831.357	16793
831.496	17029
831.635	16687
831.774	16588
831.913	16531
832.051	16546
832.19	16451
832.329	16542
832.467	16394
832.606	16421
832.744	16367
832.883	16409
833.022	16379
833.16	16470
833.299	16367
833.437	16493
833.576	16500
833.714	16413
833.852	16478
833.991	16523
834.129	16630
834.267	16531
834.406	16497
834.544	16394
834.682	16584
834.821	16451
834.959	16588
835.097	16421
835.235	16637
835.373	16500
835.511	16466
835.65	16382
835.788	16382
835.926	16253
836.064	16223
836.202	16204
836.34	16478
836.478	16569
836.615	16409
836.753	16493
836.891	16546
837.029	16375
837.167	16329
837.305	16280
837.443	16322
837.58	16196
837.718	16299
837.856	16219
837.993	16249
838.131	16295
838.269	16139
838.406	16219
838.544	16219
838.681	16036
838.819	15865
838.956	15823
839.094	15846
839.231	15831
839.369	15964
839.506	16272
839.643	16120
839.781	15876
839.918	15709
840.055	15850
840.193	15812
840.33	15675
840.467	15804
840.604	15823
840.742	16181
840.879	15728
841.016	15724
841.153	15648
841.29	16013
841.427	15880
841.564	15876
841.701	15842
841.838	15816
841.975	15701
842.112	15736
842.249	15603
842.385	15652
842.522	15861
842.659	15717
842.796	15595
842.933	15576
843.069	15572
843.206	15488
843.343	15705
843.479	15686
843.616	15682
843.752	15454
843.889	15386
844.025	15595
844.162	15420
844.298	15530
844.435	15340
844.571	15279
844.708	15473
844.844	15530
844.98	15572
845.117	15549
845.253	15249
845.389	15275
845.525	15431
845.661	15176
845.798	15157
845.934	15252
846.07	15135
846.206	15287
846.342	15249
846.478	15336
846.614	15131
846.75	14956
846.886	14944
847.022	15024
847.158	14982
847.294	14986
847.429	15039
847.565	14941
847.701	15245
847.837	14792
847.972	14727
848.108	14811
848.244	14819
848.379	14648
848.515	14533
848.65	14590
848.786	14564
848.921	14651
849.057	14762
849.192	14716
849.328	14670
849.463	14667
849.598	14514
849.734	14571
849.869	14381
850.004	14415
850.14	14381
850.275	14336
850.41	14317
850.545	14305
850.68	14412
850.815	14415
850.95	14320
851.085	14495
851.22	14423
851.355	14396
851.49	14320
851.625	14259
851.76	14309
851.895	14210
852.03	14252
852.165	14237
852.299	14294
852.434	14427
852.569	14351
852.703	14374
852.838	14404
852.973	14514
853.107	14518
853.242	14381
853.376	14210
853.511	14088
853.645	14157
853.78	14313
853.914	14202
854.048	14244
854.183	14240
854.317	14282
854.451	14317
854.585	14145
854.72	14157
854.854	14256
854.988	14149
855.122	14180
855.256	14084
855.39	14180
855.524	14298
855.658	14161
855.792	14248
855.926	14267
856.06	14347
856.194	14244
856.327	14176
856.461	14195
856.595	14157
856.729	14199
856.862	14298
856.996	14214
857.13	14377
857.263	14301
857.397	14309
857.53	14202
857.664	14263
857.797	14263
857.931	14351
858.064	14290
858.197	14263
858.331	14218
858.464	14187
858.597	14183
858.731	14256
858.864	14119
858.997	14225
859.13	14210
859.263	14240
859.396	14271
859.529	14275
859.662	14199
859.795	14191
859.928	14138
860.061	14393
860.194	14351
860.327	14271
860.46	14233
860.592	14347
860.725	14343
860.858	14370
860.99	14202
861.123	14199
861.256	14126
861.388	14244
861.521	14853
861.653	14012
861.786	13917
861.918	14065
862.05	14077
862.183	14126
862.315	14206
862.447	14237
862.58	14191
862.712	13986
862.844	13913
862.976	14043
863.108	14039
863.24	14423
863.372	13871
863.504	14046
863.636	13959
863.768	14100
863.9	13974
864.032	13879
864.164	13928
864.296	14084
864.428	14058
864.559	14054
864.691	14180
864.823	14107
864.954	14050
865.086	14077
865.217	13871
865.349	13928
865.48	13909
865.612	14005
865.743	14145
865.875	14008
866.006	13944
866.137	13932
866.269	13986
866.4	13974
866.531	13936
866.662	13940
866.793	13944
866.924	13951
867.055	14001
867.186	13932
867.317	13837
867.448	13963
867.579	14035
867.71	13947
867.841	13982
867.972	14043
868.103	13967
868.233	14005
868.364	14043
868.495	14058
868.625	14206
868.756	14286
868.886	14168
869.017	14240
869.147	14271
869.278	14370
869.408	14328
869.539	14282
869.669	14301
869.799	14221
869.929	14339
870.06	14343
870.19	14579
870.32	14499
870.45	14518
870.58	14659
870.71	14727
870.84	14765
870.97	14655
871.1	14613
871.23	14796
871.36	14857
871.489	14762
871.619	14823
871.749	14788
871.879	14929
872.008	14918
872.138	14842
872.267	14910
872.397	14727
872.526	14667
872.656	14560
872.785	14674
872.915	14788
873.044	14990
873.173	14921
873.303	14975
873.432	14804
873.561	14872
873.69	14941
873.819	14857
873.948	14948
874.077	14880
874.206	14895
874.335	14937
874.464	15077
874.593	15108
874.722	15104
874.851	15233
874.979	15184
875.108	15230
875.237	15188
875.365	15218
875.494	15252
875.623	15351
875.751	15138
875.88	15188
876.008	15348
876.136	15485
876.265	15679
876.393	15671
876.521	15812
876.65	15774
876.778	15610
876.906	15568
877.034	15549
877.162	15576
877.29	15557
877.418	15606
877.546	15603
877.674	15656
877.802	15652
877.93	15530
878.058	15622
878.185	15439
878.313	15625
878.441	15610
878.568	15549
878.696	15557
878.824	15618
878.951	15698
879.079	15831
879.206	15968
879.333	15804
879.461	15553
879.588	15713
879.715	15728
879.842	15907
879.97	15717
880.097	15386
880.224	15523
880.351	15568
880.478	15538
880.605	15416
880.732	15454
880.859	15755
880.986	15534
881.112	15481
881.239	15447
881.366	15302
881.493	15230
881.619	15123
881.746	15135
881.872	15085
881.999	15112
882.125	15032
882.252	15127
882.378	15055
882.505	15279
882.631	15173
882.757	14944
882.883	15058
883.01	14891
883.136	14910
883.262	14891
883.388	14743
883.514	14990
883.64	15017
883.766	14948
883.892	14765
884.018	14804
884.143	14883
884.269	15005
884.395	14724
884.52	14644
884.646	14632
884.772	14640
884.897	14533
885.023	14579
885.148	14758
885.274	14914
885.399	14883
885.524	14720
885.65	14674
885.775	14735
885.9	14727
886.025	14731
886.15	14746
886.275	14503
886.4	14606
886.525	14705
886.65	14533
886.775	14465
886.9	14785
887.025	14834
887.149	14689
887.274	14457
887.399	14332
887.523	14476
887.648	14381
887.773	14431
887.897	14499
888.021	14530
888.146	14488
888.27	14560
888.395	14564
888.519	14530
888.643	14488
888.767	14423
888.891	14377
889.015	14343
889.139	14377
889.263	14358
889.387	14476
889.511	14644
889.635	14533
889.759	14244
889.883	14271
890.006	14355
890.13	14495
890.254	14347
890.377	14324
890.501	14263
890.624	14046
890.748	14298
890.871	14054
890.995	13944
891.118	13868
891.241	14065
891.364	14012
891.488	14221
891.611	14096
891.734	14077
891.857	14183
891.98	14005
892.103	14126
892.226	14035
892.349	14092
892.471	13887
892.594	14012
892.717	13955
892.839	14134
892.962	14005
893.085	14142
893.207	14069
893.33	14005
893.452	13997
893.575	14073
893.697	14008
893.819	14126
893.941	14313
894.064	14084
894.186	13921
894.308	13993
894.43	14130
894.552	14233
894.674	14176
894.796	14008
894.918	14077
895.04	14130
895.161	14206
895.283	14218
895.405	14096
895.526	14157
895.648	14126
895.769	14081
895.891	14187
896.012	14275
896.134	14187
896.255	14126
896.376	14187
896.498	14225
896.619	14298
896.74	14248
896.861	14309
896.982	14469
897.103	14754
897.224	14579
897.345	14438
897.466	14442
897.587	14514
897.708	14636
897.828	14590
897.949	14412
898.07	14396
898.19	14476
898.311	14644
898.431	14461
898.552	14663
898.672	14648
898.792	14701
898.913	14590
899.033	14488
899.153	14343
899.273	14442
899.393	14374
899.513	14434
899.633	14473
899.753	14503
899.873	14355
899.993	14457
900.113	14366
900.232	14412
900.352	14385
900.472	14431
900.591	14271
900.711	14313
900.83	14237
900.95	14336
901.069	14393
901.189	14206
901.308	14005
901.427	13898
901.546	14008
901.665	13947
901.784	13970
901.904	13864
902.023	13765
902.141	13605
902.26	13533
902.379	13559
902.498	13449
902.617	13499
902.735	13594
902.854	13575
902.973	13441
903.091	13240
903.21	13183
903.328	13316
903.446	13194
903.565	13202
903.683	13095
903.801	12973
903.919	13114
904.038	13149
904.156	12863
904.274	12939
904.392	12962
904.51	12909
904.627	12859
904.745	12939
904.863	13050
904.981	12703
905.098	12604
905.216	12601
905.334	12646
905.451	12776
905.569	12540
905.686	12677
905.803	12608
905.921	12479
906.038	12536
906.155	12460
906.272	12391
906.389	12338
906.506	12155
906.623	12220
906.74	12129
906.857	12072
906.974	12175
907.091	12277
907.208	12357
907.324	12304
907.441	12117
907.557	12053
907.674	11965
907.79	11885
907.907	11931
908.023	11977
908.139	11920
908.256	11954
908.372	11980
908.488	11824
908.604	11718
908.72	11684
908.836	11680
908.952	11585
909.068	11710
909.184	11817
909.3	11699
909.415	11646
909.531	11748
909.647	11532
909.762	11467
909.878	11467
909.993	11486
910.108	11459
910.224	11429
910.339	11425
910.454	11398
910.57	11368
910.685	11288
910.8	11516
910.915	11497
911.03	11356
911.145	11269
911.259	11235
911.374	11231
911.489	11117
911.604	11075
911.718	10984
911.833	10908
911.947	10793
912.062	10736
912.176	11010
912.291	10923
912.405	10949
912.519	11162
912.633	11102
912.748	10968
912.862	10999
912.976	10843
913.09	10649
913.204	10740
913.318	10881
913.431	10953
913.545	10892
913.659	11010
913.772	10672
913.886	10637
914	10725
914.113	10721
914.226	10889
914.34	10793
914.453	10611
914.566	10824
914.68	10641
914.793	10611
914.906	10478
915.019	10367
915.132	10402
915.245	10500
915.358	10481
915.47	10474
915.583	10527
915.696	10493
915.809	10596
915.921	10550
916.034	10440
916.146	10371
916.259	10417
916.371	10428
916.483	10519
916.595	10386
916.708	10402
916.82	10417
916.932	10375
917.044	10352
917.156	10322
917.268	10204
917.38	10333
917.491	10306
917.603	10287
917.715	10356
917.826	10322
917.938	10356
918.049	10200
918.161	10344
918.272	10455
918.384	10390
918.495	10367
918.606	10196
918.717	10162
918.828	10147
918.939	10128
919.05	10093
919.161	10101
919.272	9922
919.383	10071
919.494	10238
919.604	10341
919.715	10238
919.826	10120
919.936	10196
920.047	10310
920.157	10120
920.267	10344
920.378	10287
920.488	10230
920.598	10386
920.708	10485
920.818	10421
920.928	10402
921.038	10607
921.148	10508
921.258	10246
921.368	10101
921.477	10093
921.587	10013
921.697	9934
921.806	10044
921.916	9960
922.025	9797
922.134	9785
922.244	9686
922.353	9835
922.462	9595
922.571	9576
922.68	9458
922.789	9382
922.898	9469
923.007	9424
923.116	9500
923.224	9435
923.333	9378
923.442	9325
923.55	9302
923.659	9359
923.767	9477
923.876	9275
923.984	9431
924.092	9306
924.201	9245
924.309	9321
924.417	9325
924.525	9199
924.633	9287
924.741	9975
924.849	9081
924.956	9268
925.064	9055
925.172	8933
925.279	9081
925.387	9161
925.494	9089
925.602	9249
925.709	9207
925.816	8990
925.924	9104
926.031	9074
926.138	9119
926.245	9195
926.352	8975
926.459	9157
926.566	9226
926.673	9036
926.779	8971
926.886	9024
926.993	8895
927.099	8826
927.206	8804
927.312	8727
927.419	8823
927.525	8796
927.631	8864
927.737	8758
927.843	8716
927.95	8571
928.056	8686
928.162	8670
928.267	8807
928.373	9370
928.479	8735
928.585	8617
928.69	8701
928.796	8712
928.901	8632
929.007	8533
929.112	8629
929.218	8594
929.323	8606
929.428	8522
929.533	8625
929.638	8492
929.743	8499
929.848	8457
929.953	8469
930.058	8412
930.163	8263
930.267	8309
930.372	8454
930.477	8271
930.581	8488
930.685	8396
930.79	8286
930.894	8256
930.998	8191
931.103	8336
931.207	8050
931.311	7997
931.415	7879
931.519	7738
931.623	7731
