Data from test_V78500241_834.txt Node
Date: Fri Mar 25 14:39:31 CST 2022
User: usil
Spectrometer: V785-0024
Trigger mode: 0
Integration Time (sec): 4.000000E-1
Scans to average: 1
Nonlinearity correction enabled: false
Boxcar width: 0
Storing dark spectrum: false
XAxis mode: Wavelengths
Number of Pixels in Spectrum: 1024
>>>>>Begin Spectral Data<<<<<
801.071	26122
801.214	26043
801.356	25795
801.499	25723
801.641	25407
801.783	25411
801.926	25457
802.068	25304
802.211	25217
802.353	25126
802.496	25008
802.638	24928
802.78	24932
802.923	24848
803.065	24867
803.208	24821
803.35	24901
803.492	25110
803.635	25008
803.777	24890
803.919	25091
804.061	25362
804.204	24962
804.346	24992
804.488	24962
804.63	24935
804.773	24992
804.915	25122
805.057	25255
805.199	25099
805.341	25240
805.483	25441
805.626	25335
805.768	25171
805.91	25278
806.052	25400
806.194	25388
806.336	25875
806.478	25731
806.62	25944
806.762	26103
806.904	26309
807.046	26800
807.188	26899
807.33	27199
807.472	27800
807.614	28139
807.756	28554
807.898	29455
808.04	30182
808.182	31582
808.324	33192
808.465	35029
808.607	37095
808.749	39039
808.891	40067
809.033	40013
809.174	38982
809.316	37202
809.458	35189
809.6	32819
809.741	31282
809.883	29878
810.025	29086
810.166	28341
810.308	27884
810.45	27443
810.591	27047
810.733	26613
810.875	26461
811.016	26084
811.158	25955
811.299	26073
811.441	25833
811.582	26005
811.724	25658
811.865	25670
812.007	25594
812.148	25479
812.29	25590
812.431	25651
812.573	25693
812.714	25879
812.855	25864
812.997	26035
813.138	26145
813.279	25940
813.421	25864
813.562	25723
813.703	25594
813.845	25468
813.986	25019
814.127	24791
814.268	24734
814.41	24810
814.551	24722
814.692	24665
814.833	24661
814.974	24677
815.115	24635
815.256	24243
815.397	24445
815.539	24399
815.68	24311
815.821	24311
815.962	24311
816.103	24319
816.244	24114
816.385	23927
816.526	23977
816.666	23737
816.807	23497
816.948	23638
817.089	23741
817.23	23649
817.371	23680
817.512	23630
817.653	23676
817.793	23516
817.934	23566
818.075	23596
818.216	23482
818.356	23402
818.497	23474
818.638	23193
818.778	23197
818.919	23121
819.06	23265
819.2	23311
819.341	23334
819.481	23376
819.622	23452
819.762	23722
819.903	23566
820.043	23619
820.184	23600
820.324	23501
820.465	23448
820.605	23497
820.746	23497
820.886	23299
821.026	23383
821.167	23391
821.307	23425
821.447	23265
821.588	23181
821.728	22980
821.868	22843
822.008	22713
822.149	22675
822.289	22607
822.429	22474
822.569	22375
822.709	22398
822.849	22238
822.99	22135
823.13	22131
823.27	22067
823.41	21869
823.55	21816
823.69	21831
823.83	21987
823.97	21827
824.11	21698
824.25	21713
824.389	21781
824.529	21835
824.669	21762
824.809	21831
824.949	21827
825.089	21762
825.228	21679
825.368	21599
825.508	21648
825.648	21488
825.787	21568
825.927	21587
826.067	21454
826.206	21458
826.346	21622
826.485	21549
826.625	21458
826.765	21580
826.904	21625
827.044	21313
827.183	21237
827.323	21077
827.462	21214
827.601	21104
827.741	21211
827.88	21230
828.02	20975
828.159	21173
828.298	21275
828.437	21252
828.577	21058
828.716	21173
828.855	21020
828.994	20921
829.134	20921
829.273	20899
829.412	20769
829.551	20857
829.69	20815
829.829	20971
829.968	20933
830.107	20910
830.246	20845
830.385	20834
830.524	20773
830.663	20617
830.802	20602
830.941	20526
831.08	20438
831.219	20492
831.357	20473
831.496	20655
831.635	20530
831.774	20412
831.913	20415
832.051	20214
832.19	20199
832.329	20278
832.467	20206
832.606	20119
832.744	20206
832.883	20263
833.022	20221
833.16	20290
833.299	20446
833.437	20617
833.576	20670
833.714	20746
833.852	20819
833.991	20902
834.129	20979
834.267	20925
834.406	20906
834.544	20864
834.682	20887
834.821	20609
834.959	20758
835.097	20480
835.235	20571
835.373	20442
835.511	20419
835.65	20187
835.788	20077
835.926	19902
836.064	19951
836.202	19894
836.34	19974
836.478	20126
836.615	19993
836.753	19997
836.891	20050
837.029	19978
837.167	19967
837.305	19833
837.443	19925
837.58	19685
837.718	19826
837.856	19837
837.993	19700
838.131	19830
838.269	19651
838.406	19799
838.544	19624
838.681	19506
838.819	19407
838.956	19221
839.094	19327
839.231	19358
839.369	19331
839.506	19643
839.643	19422
839.781	19369
839.918	19194
840.055	19266
840.193	19289
840.33	19171
840.467	19221
840.604	19282
840.742	19403
840.879	19164
841.016	19133
841.153	19225
841.29	19327
841.427	19228
841.564	19213
841.701	19190
841.838	19175
841.975	19209
842.112	19225
842.249	19031
842.385	18947
842.522	19244
842.659	19042
842.796	19046
842.933	19072
843.069	18939
843.206	18905
843.343	19156
843.479	18985
843.616	19057
843.752	18859
843.889	19008
844.025	19122
844.162	18962
844.298	19225
844.435	19118
844.571	19255
844.708	19407
844.844	19795
844.98	20103
845.117	20442
845.253	20990
845.389	21972
845.525	24140
845.661	27679
845.798	31814
845.934	35292
846.07	36570
846.206	35882
846.342	33306
846.478	28877
846.614	25156
846.75	22512
846.886	21089
847.022	20210
847.158	19674
847.294	19285
847.429	19103
847.565	18779
847.701	19023
847.837	18380
847.972	18304
848.108	18365
848.244	18315
848.379	18171
848.515	18034
848.65	17935
848.786	18057
848.921	17889
849.057	18045
849.192	18117
849.328	17935
849.463	17980
849.598	17882
849.734	17851
849.869	17699
850.004	17687
850.14	17657
850.275	17714
850.41	17718
850.545	17611
850.68	17573
850.815	17680
850.95	17661
851.085	17733
851.22	17760
851.355	17638
851.49	17638
851.625	17733
851.76	17566
851.895	17570
852.03	17520
852.165	17623
852.299	17672
852.434	17893
852.569	17733
852.703	17657
852.838	17756
852.973	17866
853.107	17821
853.242	17695
853.376	17668
853.511	17505
853.645	17619
853.78	17680
853.914	17745
854.048	17592
854.183	17786
854.317	17745
854.451	17824
854.585	17661
854.72	17733
854.854	17767
854.988	17566
855.122	17684
855.256	17433
855.39	17619
855.524	17665
855.658	17596
855.792	17627
855.926	17627
856.06	17573
856.194	17665
856.327	17532
856.461	17467
856.595	17505
856.729	17535
856.862	17668
856.996	17516
857.13	17505
857.263	17638
857.397	17554
857.53	17433
857.664	17455
857.797	17589
857.931	17444
858.064	17554
858.197	17528
858.331	17364
858.464	17288
858.597	17307
858.731	17387
858.864	17292
858.997	17410
859.13	17383
859.263	17524
859.396	17455
859.529	17246
859.662	17284
859.795	17246
859.928	17383
860.061	17577
860.194	17543
860.327	17368
860.46	17341
860.592	17467
860.725	17467
860.858	17406
860.99	17345
861.123	17273
861.256	17212
861.388	17337
861.521	17958
861.653	17197
861.786	17159
861.918	17136
862.05	17303
862.183	17349
862.315	17254
862.447	17391
862.58	17288
862.712	17025
862.844	17064
862.976	17117
863.108	17075
863.24	17414
863.372	17022
863.504	16965
863.636	16999
863.768	16995
863.9	17067
864.032	16934
864.164	17010
864.296	17071
864.428	17197
864.559	17117
864.691	17128
864.823	17132
864.954	17064
865.086	17117
865.217	16972
865.349	16812
865.48	17052
865.612	17018
865.743	17155
865.875	16999
866.006	17060
866.137	17060
866.269	16961
866.4	16949
866.531	16915
866.662	16942
866.793	16957
866.924	16953
867.055	17010
867.186	16885
867.317	16976
867.448	16816
867.579	16862
867.71	16930
867.841	16889
867.972	16980
868.103	16934
868.233	16892
868.364	16972
868.495	17071
868.625	17277
868.756	17280
868.886	17102
869.017	17292
869.147	17322
869.278	17288
869.408	17227
869.539	17242
869.669	17277
869.799	17299
869.929	17178
870.06	17292
870.19	17551
870.32	17539
870.45	17680
870.58	17764
870.71	17783
870.84	17756
870.97	17680
871.1	17653
871.23	17836
871.36	17870
871.489	17828
871.619	17813
871.749	17851
871.879	17935
872.008	17931
872.138	17889
872.267	17946
872.397	17764
872.526	17707
872.656	17699
872.785	17684
872.915	17931
873.044	18038
873.173	18003
873.303	18125
873.432	18087
873.561	18201
873.69	18163
873.819	18030
873.948	18117
874.077	18095
874.206	18182
874.335	18178
874.464	18254
874.593	18471
874.722	18513
874.851	18513
874.979	18574
875.108	18547
875.237	18407
875.365	18494
875.494	18528
875.623	18570
875.751	18551
875.88	18692
876.008	18764
876.136	18837
876.265	19213
876.393	19282
876.521	19327
876.65	19388
876.778	19354
876.906	19324
877.034	19244
877.162	19350
877.29	19415
877.418	19544
877.546	19480
877.674	19491
877.802	19746
877.93	19765
878.058	19807
878.185	19928
878.313	20092
878.441	20347
878.568	20545
878.696	20842
878.824	21511
878.951	22124
879.079	23117
879.206	24509
879.333	25845
879.461	26883
879.588	27675
879.715	27732
879.842	27135
879.97	25784
880.097	24292
880.224	23387
880.351	22409
880.478	21854
880.605	21652
880.732	21287
880.859	21382
880.986	21104
881.112	21062
881.239	20941
881.366	20731
881.493	20678
881.619	20727
881.746	20769
881.872	20727
881.999	20670
882.125	20712
882.252	20895
882.378	20705
882.505	20842
882.631	20796
882.757	20625
882.883	20724
883.01	20697
883.136	20613
883.262	20503
883.388	20522
883.514	20636
883.64	20682
883.766	20575
883.892	20518
884.018	20461
884.143	20511
884.269	20701
884.395	20408
884.52	20404
884.646	20431
884.772	20278
884.897	20263
885.023	20400
885.148	20450
885.274	20290
885.399	20370
885.524	20263
885.65	20149
885.775	20016
885.9	19871
886.025	19902
886.15	19731
886.275	19647
886.4	19491
886.525	19449
886.65	19407
886.775	19343
886.9	19422
887.025	19426
887.149	19148
887.274	18989
887.399	18829
887.523	18734
887.648	18726
887.773	18585
887.897	18764
888.021	18635
888.146	18593
888.27	18616
888.395	18658
888.519	18585
888.643	18490
888.767	18467
888.891	18323
889.015	18216
889.139	18224
889.263	18117
889.387	18243
889.511	18292
889.635	18213
889.759	18114
889.883	18053
890.006	18083
890.13	18098
890.254	17863
890.377	17813
890.501	17676
890.624	17687
890.748	17722
890.871	17642
890.995	17505
891.118	17455
891.241	17516
891.364	17463
891.488	17668
891.611	17455
891.734	17497
891.857	17459
891.98	17372
892.103	17471
892.226	17353
892.349	17326
892.471	17166
892.594	17315
892.717	17345
892.839	17277
892.962	17334
893.085	17330
893.207	17227
893.33	17098
893.452	17022
893.575	17235
893.697	17064
893.819	17258
893.941	17322
894.064	17212
894.186	17029
894.308	17056
894.43	17231
894.552	17315
894.674	17162
894.796	16927
894.918	17018
895.04	17037
895.161	16953
895.283	17045
895.405	16968
895.526	16991
895.648	17045
895.769	17006
895.891	17025
896.012	17033
896.134	17128
896.255	17060
896.376	17006
896.498	17033
896.619	17048
896.74	16984
896.861	17098
896.982	17425
897.103	17528
897.224	17185
897.345	17102
897.466	17136
897.587	17178
897.708	17269
897.828	17170
897.949	17136
898.07	17083
898.19	17193
898.311	17322
898.431	17105
898.552	17326
898.672	17326
898.792	17273
898.913	17193
899.033	17178
899.153	17086
899.273	16930
899.393	17052
899.513	17083
899.633	17037
899.753	17079
899.873	16961
899.993	17143
900.113	16999
900.232	17052
900.352	17006
900.472	16991
900.591	16904
900.711	16923
900.83	16911
900.95	17029
901.069	16957
901.189	16763
901.308	16512
901.427	16386
901.546	16451
901.665	16379
901.784	16341
901.904	16303
902.023	16310
902.141	16071
902.26	15915
902.379	16017
902.498	15975
902.617	15930
902.735	15968
902.854	15953
902.973	15880
903.091	15656
903.21	15629
903.328	15603
903.446	15606
903.565	15485
903.683	15382
903.801	15374
903.919	15424
904.038	15401
904.156	15161
904.274	15252
904.392	15157
904.51	15131
904.627	15195
904.745	15222
904.863	15199
904.981	15005
905.098	14910
905.216	14765
905.334	14960
905.451	14880
905.569	14830
905.686	14883
905.803	14853
905.921	14712
906.038	14716
906.155	14716
906.272	14564
906.389	14552
906.506	14427
906.623	14301
906.74	14328
906.857	14294
906.974	14286
907.091	14358
907.208	14541
907.324	14374
907.441	14267
907.557	14126
907.674	14081
907.79	14142
907.907	14065
908.023	14046
908.139	14043
908.256	14065
908.372	13913
908.488	13906
908.604	13883
908.72	13727
908.836	13769
908.952	13776
909.068	13822
909.184	13913
909.3	13814
909.415	13883
909.531	13826
909.647	13563
909.762	13567
909.878	13491
909.993	13616
910.108	13552
910.224	13480
910.339	13575
910.454	13438
910.57	13369
910.685	13365
910.8	13548
910.915	13525
911.03	13426
911.145	13190
911.259	13129
911.374	13194
911.489	13107
911.604	13000
911.718	12867
911.833	12985
911.947	12837
912.062	12768
912.176	13038
912.291	13034
912.405	12962
912.519	13164
912.633	13160
912.748	13057
912.862	13008
912.976	12795
913.09	12646
913.204	12741
913.318	12837
913.431	12875
913.545	12897
913.659	12875
913.772	12814
913.886	12665
914	12665
914.113	12764
914.226	12764
914.34	12703
914.453	12627
914.566	12726
914.68	12612
914.793	12582
914.906	12429
915.019	12334
915.132	12311
915.245	12399
915.358	12327
915.47	12327
915.583	12346
915.696	12395
915.809	12547
915.921	12547
916.034	12388
916.146	12388
916.259	12258
916.371	12353
916.483	12403
916.595	12220
916.708	12315
916.82	12292
916.932	12243
917.044	12258
917.156	12338
917.268	12216
917.38	12136
917.491	12102
917.603	12159
917.715	12197
917.826	12254
917.938	12019
918.049	11950
918.161	12072
918.272	12197
918.384	12159
918.495	12083
918.606	11961
918.717	11893
918.828	12015
918.939	12019
919.05	11813
919.161	11840
919.272	11760
919.383	11779
919.494	11958
919.604	12175
919.715	11870
919.826	11863
919.936	11935
920.047	12019
920.157	11920
920.267	12178
920.378	11923
920.488	11882
920.598	12057
920.708	12228
920.818	12098
920.928	12102
921.038	12266
921.148	12243
921.258	11863
921.368	11809
921.477	11703
921.587	11695
921.697	11642
921.806	11748
921.916	11649
922.025	11425
922.134	11341
922.244	11364
922.353	11459
922.462	11315
922.571	11231
922.68	11025
922.789	11056
922.898	10961
923.007	11025
923.116	11121
923.224	11090
923.333	11064
923.442	10930
923.55	10915
923.659	10873
923.767	10976
923.876	10820
923.984	11056
924.092	10854
924.201	10847
924.309	10904
924.417	10824
924.525	10862
924.633	10801
924.741	11805
924.849	10630
924.956	10786
925.064	10630
925.172	10569
925.279	10546
925.387	10664
925.494	10687
925.602	10721
925.709	10660
925.816	10550
925.924	10660
926.031	10634
926.138	10554
926.245	10607
926.352	10607
926.459	10577
926.566	10641
926.673	10550
926.779	10451
926.886	10382
926.993	10211
927.099	10196
927.206	10257
927.312	10204
927.419	10337
927.525	10295
927.631	10272
927.737	10234
927.843	10128
927.95	10017
928.056	10124
928.162	10173
928.267	10177
928.373	10706
928.479	10276
928.585	9998
928.69	10139
928.796	10120
928.901	10105
929.007	9945
929.112	10025
929.218	10063
929.323	9979
929.428	9827
929.533	9972
929.638	9789
929.743	9945
929.848	9892
929.953	9953
930.058	9762
930.163	9644
930.267	9679
930.372	9808
930.477	9671
930.581	9861
930.685	9690
930.79	9564
930.894	9679
930.998	9526
931.103	9713
931.207	9351
931.311	9294
931.415	9173
931.519	9017
931.623	8986
