Data from test_V78500241_395.txt Node
Date: Fri Mar 25 14:36:28 CST 2022
User: usil
Spectrometer: V785-0024
Trigger mode: 0
Integration Time (sec): 4.000000E-1
Scans to average: 1
Nonlinearity correction enabled: false
Boxcar width: 0
Storing dark spectrum: false
XAxis mode: Wavelengths
Number of Pixels in Spectrum: 1024
>>>>>Begin Spectral Data<<<<<
801.071	26716
801.214	26602
801.356	26408
801.499	26294
801.641	26210
801.783	26221
801.926	26206
802.068	26134
802.211	25978
802.353	26008
802.496	25845
802.638	25803
802.78	25719
802.923	25677
803.065	25594
803.208	25742
803.35	25734
803.492	25921
803.635	25814
803.777	25776
803.919	25811
804.061	26073
804.204	25871
804.346	25620
804.488	25719
804.63	25639
804.773	25537
804.915	25655
805.057	25746
805.199	25693
805.341	25696
805.483	25769
805.626	25753
805.768	25666
805.91	25616
806.052	25871
806.194	25757
806.336	25818
806.478	25655
806.62	25712
806.762	25799
806.904	25833
807.046	26180
807.188	25928
807.33	26138
807.472	26149
807.614	26005
807.756	25959
807.898	26039
808.04	25909
808.182	25879
808.324	25909
808.465	25799
808.607	25997
808.749	26130
808.891	26434
809.033	26415
809.174	26343
809.316	26180
809.458	26240
809.6	26206
809.741	26278
809.883	26210
810.025	26385
810.166	26442
810.308	26484
810.45	26324
810.591	26370
810.733	26039
810.875	26073
811.016	26008
811.158	25791
811.299	26100
811.441	26199
811.582	26039
811.724	26069
811.865	26096
812.007	25963
812.148	26115
812.29	25989
812.431	26153
812.573	26290
812.714	26423
812.855	26465
812.997	26522
813.138	26937
813.279	26667
813.421	26632
813.562	26476
813.703	26237
813.845	26290
813.986	25883
814.127	25780
814.268	25559
814.41	25556
814.551	25704
814.692	25597
814.833	25514
814.974	25624
815.115	25597
815.256	25407
815.397	25472
815.539	25491
815.68	25540
815.821	25278
815.962	25365
816.103	25217
816.244	25137
816.385	25069
816.526	24932
816.666	24920
816.807	24715
816.948	24688
817.089	24882
817.23	24730
817.371	24734
817.512	24719
817.653	24703
817.793	24715
817.934	24741
818.075	24711
818.216	24677
818.356	24692
818.497	24486
818.638	24467
818.778	24429
818.919	24528
819.06	24490
819.2	24547
819.341	24661
819.481	24703
819.622	24757
819.762	25015
819.903	24951
820.043	24905
820.184	24734
820.324	24810
820.465	24760
820.605	24734
820.746	24696
820.886	24635
821.026	24639
821.167	24608
821.307	24772
821.447	24635
821.588	24445
821.728	24410
821.868	24300
822.008	24038
822.149	24110
822.289	23996
822.429	23775
822.569	23733
822.709	23783
822.849	23490
822.99	23649
823.13	23543
823.27	23573
823.41	23296
823.55	23265
823.69	23341
823.83	23288
823.97	23337
824.11	23128
824.25	23117
824.389	23178
824.529	23242
824.669	23147
824.809	23166
824.949	23318
825.089	23200
825.228	23181
825.368	22896
825.508	22972
825.648	22858
825.787	22965
825.927	22850
826.067	22911
826.206	22786
826.346	22965
826.485	22866
826.625	22915
826.765	22930
826.904	22904
827.044	22664
827.183	22618
827.323	22466
827.462	22599
827.601	22554
827.741	22542
827.88	22592
828.02	22348
828.159	22402
828.298	22405
828.437	22478
828.577	22424
828.716	22569
828.855	22538
828.994	22322
829.134	22207
829.273	22287
829.412	22135
829.551	22280
829.69	22188
829.829	22287
829.968	22306
830.107	22299
830.246	22200
830.385	22185
830.524	22074
830.663	21979
830.802	22044
830.941	21720
831.08	21728
831.219	21880
831.357	21812
831.496	22017
831.635	21766
831.774	21743
831.913	21679
832.051	21591
832.19	21534
832.329	21675
832.467	21496
832.606	21450
832.744	21420
832.883	21450
833.022	21435
833.16	21450
833.299	21481
833.437	21386
833.576	21435
833.714	21443
833.852	21549
833.991	21485
834.129	21580
834.267	21561
834.406	21477
834.544	21469
834.682	21344
834.821	21374
834.959	21568
835.097	21443
835.235	21500
835.373	21408
835.511	21424
835.65	21389
835.788	21477
835.926	21135
836.064	21131
836.202	21131
836.34	21249
836.478	21450
836.615	21237
836.753	21237
836.891	21374
837.029	21268
837.167	21180
837.305	21195
837.443	21241
837.58	21154
837.718	21211
837.856	21131
837.993	21131
838.131	21184
838.269	21096
838.406	21013
838.544	20979
838.681	20826
838.819	20743
838.956	20587
839.094	20613
839.231	20663
839.369	20682
839.506	20868
839.643	20838
839.781	20594
839.918	20495
840.055	20545
840.193	20568
840.33	20571
840.467	20480
840.604	20594
840.742	20693
840.879	20408
841.016	20385
841.153	20465
841.29	20568
841.427	20499
841.564	20488
841.701	20469
841.838	20389
841.975	20469
842.112	20450
842.249	20347
842.385	20374
842.522	20503
842.659	20298
842.796	20130
842.933	20298
843.069	20233
843.206	20145
843.343	20324
843.479	20336
843.616	20214
843.752	19921
843.889	19940
844.025	20161
844.162	19898
844.298	20100
844.435	19997
844.571	20024
844.708	19951
844.844	20138
844.98	19959
845.117	20065
845.253	19909
845.389	19947
845.525	19868
845.661	19883
845.798	19864
845.934	19860
846.07	19761
846.206	19906
846.342	19856
846.478	19807
846.614	19491
846.75	19384
846.886	19521
847.022	19651
847.158	19658
847.294	19422
847.429	19567
847.565	19422
847.701	19753
847.837	19206
847.972	19129
848.108	19213
848.244	19228
848.379	19019
848.515	18966
848.65	19008
848.786	18947
848.921	19072
849.057	18985
849.192	19202
849.328	18989
849.463	19088
849.598	18867
849.734	18943
849.869	18954
850.004	18806
850.14	18890
850.275	18814
850.41	18700
850.545	18707
850.68	18711
850.815	18734
850.95	18665
851.085	18973
851.22	18806
851.355	18715
851.49	18661
851.625	18631
851.76	18764
851.895	18631
852.03	18661
852.165	18642
852.299	18650
852.434	18806
852.569	18764
852.703	18760
852.838	18776
852.973	18833
853.107	18878
853.242	18669
853.376	18654
853.511	18441
853.645	18547
853.78	18692
853.914	18642
854.048	18585
854.183	18502
854.317	18604
854.451	18821
854.585	18608
854.72	18471
854.854	18681
854.988	18410
855.122	18585
855.256	18475
855.39	18547
855.524	18658
855.658	18604
855.792	18532
855.926	18635
856.06	18722
856.194	18764
856.327	18631
856.461	18445
856.595	18486
856.729	18544
856.862	18566
856.996	18703
857.13	18711
857.263	18601
857.397	18684
857.53	18441
857.664	18589
857.797	18665
857.931	18677
858.064	18559
858.197	18589
858.331	18528
858.464	18452
858.597	18399
858.731	18464
858.864	18460
858.997	18540
859.13	18555
859.263	18509
859.396	18521
859.529	18563
859.662	18323
859.795	18407
859.928	18536
860.061	18623
860.194	18635
860.327	18490
860.46	18517
860.592	18593
860.725	18631
860.858	18635
860.99	18509
861.123	18376
861.256	18403
861.388	18490
861.521	19297
861.653	18426
861.786	18228
861.918	18338
862.05	18601
862.183	18467
862.315	18445
862.447	18673
862.58	18376
862.712	18239
862.844	18300
862.976	18395
863.108	18399
863.24	18570
863.372	18228
863.504	18228
863.636	18220
863.768	18247
863.9	18319
864.032	18114
864.164	18144
864.296	18190
864.428	18277
864.559	18273
864.691	18243
864.823	18300
864.954	18213
865.086	18209
865.217	18243
865.349	18030
865.48	18205
865.612	18049
865.743	18384
865.875	18258
866.006	18095
866.137	18152
866.269	18114
866.4	18197
866.531	18148
866.662	17969
866.793	18087
866.924	18098
867.055	18106
867.186	18034
867.317	17988
867.448	17958
867.579	17973
867.71	18034
867.841	18079
867.972	18144
868.103	18091
868.233	18060
868.364	18072
868.495	18136
868.625	18292
868.756	18437
868.886	18167
869.017	18194
869.147	18365
869.278	18433
869.408	18285
869.539	18384
869.669	18517
869.799	18357
869.929	18407
870.06	18395
870.19	18665
870.32	18627
870.45	18681
870.58	18673
870.71	18783
870.84	18821
870.97	18772
871.1	18726
871.23	18798
871.36	18856
871.489	18840
871.619	18905
871.749	18837
871.879	18905
872.008	19038
872.138	18909
872.267	18939
872.397	18783
872.526	18772
872.656	18776
872.785	18734
872.915	18863
873.044	19000
873.173	18970
873.303	18973
873.432	18970
873.561	18985
873.69	18970
873.819	18958
873.948	19015
874.077	18947
874.206	18852
874.335	18954
874.464	18993
874.593	19228
874.722	19122
874.851	19190
874.979	19244
875.108	19263
875.237	19156
875.365	19095
875.494	19209
875.623	19255
875.751	19126
875.88	19324
876.008	19259
876.136	19388
876.265	19655
876.393	19734
876.521	19719
876.65	19666
876.778	19639
876.906	19548
877.034	19571
877.162	19590
877.29	19540
877.418	19613
877.546	19616
877.674	19723
877.802	19605
877.93	19487
878.058	19590
878.185	19472
878.313	19552
878.441	19597
878.568	19468
878.696	19590
878.824	19658
878.951	19708
879.079	19750
879.206	19913
879.333	19814
879.461	19670
879.588	19807
879.715	19769
879.842	19917
879.97	19765
880.097	19400
880.224	19544
880.351	19495
880.478	19533
880.605	19400
880.732	19396
880.859	19750
880.986	19529
881.112	19529
881.239	19297
881.366	19247
881.493	19164
881.619	19091
881.746	19061
881.872	19061
881.999	19091
882.125	19069
882.252	19069
882.378	19046
882.505	19293
882.631	19107
882.757	18776
882.883	18920
883.01	18837
883.136	18802
883.262	18677
883.388	18688
883.514	18703
883.64	18840
883.766	18753
883.892	18608
884.018	18776
884.143	18840
884.269	18871
884.395	18445
884.52	18650
884.646	18555
884.772	18471
884.897	18452
885.023	18528
885.148	18642
885.274	18654
885.399	18525
885.524	18441
885.65	18441
885.775	18506
885.9	18483
886.025	18669
886.15	18460
886.275	18464
886.4	18369
886.525	18422
886.65	18342
886.775	18391
886.9	18502
887.025	18612
887.149	18445
887.274	18388
887.399	18209
887.523	18292
887.648	18171
887.773	18201
887.897	18357
888.021	18330
888.146	18174
888.27	18304
888.395	18422
888.519	18342
888.643	18209
888.767	18334
888.891	18072
889.015	18022
889.139	18144
889.263	18041
889.387	18270
889.511	18285
889.635	18110
889.759	18163
889.883	17927
890.006	18129
890.13	18220
890.254	18060
890.377	17935
890.501	17946
890.624	17764
890.748	17893
890.871	17726
890.995	17733
891.118	17672
891.241	17767
891.364	17710
891.488	17832
891.611	17684
891.734	17619
891.857	17714
891.98	17714
892.103	17790
892.226	17672
892.349	17585
892.471	17634
892.594	17627
892.717	17642
892.839	17516
892.962	17642
893.085	17722
893.207	17707
893.33	17592
893.452	17649
893.575	17687
893.697	17623
893.819	17798
893.941	17775
894.064	17737
894.186	17573
894.308	17512
894.43	17657
894.552	17722
894.674	17794
894.796	17589
894.918	17638
895.04	17627
895.161	17741
895.283	17703
895.405	17566
895.526	17581
895.648	17714
895.769	17714
895.891	17630
896.012	17680
896.134	17832
896.255	17760
896.376	17638
896.498	17600
896.619	17794
896.74	17707
896.861	17741
896.982	18057
897.103	18178
897.224	17973
897.345	17950
897.466	17840
897.587	17950
897.708	18026
897.828	17999
897.949	17904
898.07	17779
898.19	17939
898.311	17958
898.431	18057
898.552	17980
898.672	18026
898.792	18064
898.913	18030
899.033	17840
899.153	17745
899.273	17634
899.393	17589
899.513	17748
899.633	17634
899.753	17760
899.873	17707
899.993	17760
900.113	17729
900.232	17729
900.352	17642
900.472	17615
900.591	17512
900.711	17501
900.83	17379
900.95	17558
901.069	17611
901.189	17539
901.308	17220
901.427	17185
901.546	17296
901.665	17212
901.784	17250
901.904	17041
902.023	16908
902.141	16721
902.26	16698
902.379	16812
902.498	16759
902.617	16698
902.735	16691
902.854	16596
902.973	16546
903.091	16402
903.21	16341
903.328	16386
903.446	16306
903.565	16242
903.683	16181
903.801	16067
903.919	16154
904.038	16249
904.156	15968
904.274	16116
904.392	16017
904.51	15956
904.627	15899
904.745	16036
904.863	16051
904.981	15686
905.098	15671
905.216	15641
905.334	15679
905.451	15648
905.569	15652
905.686	15698
905.803	15599
905.921	15428
906.038	15542
906.155	15443
906.272	15321
906.389	15401
906.506	15272
906.623	15336
906.74	15237
906.857	15131
906.974	15081
907.091	15207
907.208	15359
907.324	15226
907.441	15230
907.557	15020
907.674	14944
907.79	14937
907.907	14929
908.023	14944
908.139	14944
908.256	14746
908.372	14826
908.488	14632
908.604	14674
908.72	14613
908.836	14613
908.952	14552
909.068	14613
909.184	14746
909.3	14689
909.415	14533
909.531	14511
909.647	14385
909.762	14317
909.878	14271
909.993	14305
910.108	14275
910.224	14256
910.339	14385
910.454	14225
910.57	14119
910.685	14107
910.8	14362
910.915	14408
911.03	14180
911.145	13997
911.259	14035
911.374	13963
911.489	13913
911.604	13738
911.718	13788
911.833	13738
911.947	13670
912.062	13559
912.176	13651
912.291	13750
912.405	13544
912.519	13837
912.633	13974
912.748	13689
912.862	13753
912.976	13582
913.09	13426
913.204	13460
913.318	13616
913.431	13639
913.545	13628
913.659	13658
913.772	13521
913.886	13335
914	13324
914.113	13430
914.226	13521
914.34	13419
914.453	13312
914.566	13453
914.68	13362
914.793	13187
914.906	13145
915.019	13057
915.132	12996
915.245	13042
915.358	13080
915.47	13156
915.583	13000
915.696	13164
915.809	13187
915.921	13202
916.034	13008
916.146	12924
916.259	12985
916.371	13000
916.483	12954
916.595	12920
916.708	12951
916.82	12909
916.932	12875
917.044	12958
917.156	12920
917.268	12776
917.38	12776
917.491	12795
917.603	12848
917.715	12772
917.826	12856
917.938	12779
918.049	12707
918.161	12696
918.272	12844
918.384	12901
918.495	12669
918.606	12620
918.717	12623
918.828	12597
918.939	12616
919.05	12361
919.161	12631
919.272	12441
919.383	12479
919.494	12601
919.604	12817
919.715	12608
919.826	12502
919.936	12506
920.047	12574
920.157	12559
920.267	12753
920.378	12589
920.488	12467
920.598	12707
920.708	12776
920.818	12753
920.928	12711
921.038	12760
921.148	12787
921.258	12506
921.368	12388
921.477	12342
921.587	12395
921.697	12220
921.806	12414
921.916	12201
922.025	12038
922.134	11980
922.244	11927
922.353	12022
922.462	11874
922.571	11828
922.68	11657
922.789	11627
922.898	11710
923.007	11634
923.116	11688
923.224	11570
923.333	11566
923.442	11520
923.55	11467
923.659	11547
923.767	11547
923.876	11467
923.984	11558
924.092	11372
924.201	11482
924.309	11501
924.417	11429
924.525	11326
924.633	11280
924.741	12342
924.849	11254
924.956	11337
925.064	11201
925.172	11071
925.279	11170
925.387	11166
925.494	11166
925.602	11326
925.709	11235
925.816	11079
925.924	11246
926.031	11315
926.138	11189
926.245	11223
926.352	11086
926.459	11140
926.566	11162
926.673	11029
926.779	11094
926.886	10965
926.993	10793
927.099	10839
927.206	10843
927.312	10801
927.419	10854
927.525	10816
927.631	10824
927.737	10729
927.843	10710
927.95	10561
928.056	10683
928.162	10702
928.267	10618
928.373	11417
928.479	10755
928.585	10462
928.69	10653
928.796	10691
928.901	10588
929.007	10356
929.112	10569
929.218	10523
929.323	10428
929.428	10455
929.533	10466
929.638	10341
929.743	10341
929.848	10432
929.953	10371
930.058	10272
930.163	10105
930.267	10143
930.372	10246
930.477	10154
930.581	10318
930.685	10169
930.79	9960
930.894	10044
930.998	9998
931.103	10090
931.207	9789
931.311	9690
931.415	9648
931.519	9412
931.623	9485
