Data from test_V78500241_2892.txt Node
Date: Fri Mar 25 14:53:51 CST 2022
User: usil
Spectrometer: V785-0024
Trigger mode: 0
Integration Time (sec): 4.000000E-1
Scans to average: 1
Nonlinearity correction enabled: false
Boxcar width: 0
Storing dark spectrum: false
XAxis mode: Wavelengths
Number of Pixels in Spectrum: 1024
>>>>>Begin Spectral Data<<<<<
801.071	22116
801.214	22010
801.356	21663
801.499	21572
801.641	21530
801.783	21485
801.926	21553
802.068	21321
802.211	21462
802.353	21256
802.496	21100
802.638	20960
802.78	20902
802.923	20883
803.065	20701
803.208	20876
803.35	20769
803.492	20887
803.635	21066
803.777	20743
803.919	20864
804.061	21127
804.204	20902
804.346	20773
804.488	20678
804.63	20834
804.773	20743
804.915	20670
805.057	20651
805.199	20602
805.341	20598
805.483	20731
805.626	20731
805.768	20594
805.91	20659
806.052	20727
806.194	20720
806.336	20804
806.478	20659
806.62	20689
806.762	20693
806.904	20815
807.046	21127
807.188	20982
807.33	20872
807.472	20998
807.614	20982
807.756	20960
807.898	20769
808.04	20708
808.182	20918
808.324	20807
808.465	20788
808.607	21001
808.749	21081
808.891	21188
809.033	21302
809.174	21123
809.316	21104
809.458	20998
809.6	21009
809.741	21180
809.883	21119
810.025	21199
810.166	21169
810.308	21298
810.45	21119
810.591	21150
810.733	20925
810.875	20823
811.016	20655
811.158	20724
811.299	20895
811.441	20952
811.582	20864
811.724	20853
811.865	20731
812.007	20823
812.148	20891
812.29	20849
812.431	20845
812.573	21089
812.714	21245
812.855	21336
812.997	21397
813.138	21526
813.279	21420
813.421	21416
813.562	21291
813.703	21184
813.845	20952
813.986	20674
814.127	20629
814.268	20446
814.41	20370
814.551	20339
814.692	20556
814.833	20214
814.974	20400
815.115	20400
815.256	20229
815.397	20149
815.539	20225
815.68	20142
815.821	20012
815.962	20157
816.103	20069
816.244	20012
816.385	19769
816.526	19845
816.666	19712
816.807	19521
816.948	19548
817.089	19525
817.23	19586
817.371	19544
817.512	19483
817.653	19422
817.793	19339
817.934	19430
818.075	19506
818.216	19540
818.356	19457
818.497	19320
818.638	19228
818.778	19129
818.919	19209
819.06	19339
819.2	19301
819.341	19434
819.481	19464
819.622	19487
819.762	19643
819.903	19578
820.043	19533
820.184	19472
820.324	19521
820.465	19476
820.605	19472
820.746	19468
820.886	19400
821.026	19430
821.167	19373
821.307	19525
821.447	19384
821.588	19381
821.728	19137
821.868	19076
822.008	18943
822.149	18970
822.289	18939
822.429	18650
822.569	18631
822.709	18540
822.849	18365
822.99	18391
823.13	18357
823.27	18292
823.41	18209
823.55	18060
823.69	18197
823.83	18273
823.97	18228
824.11	17954
824.25	17878
824.389	17920
824.529	18007
824.669	17923
824.809	17980
824.949	17965
825.089	17958
825.228	17977
825.368	17882
825.508	17824
825.648	17809
825.787	17908
825.927	17767
826.067	17687
826.206	17779
826.346	17729
826.485	17779
826.625	17714
826.765	17809
826.904	17691
827.044	17532
827.183	17406
827.323	17482
827.462	17398
827.601	17501
827.741	17368
827.88	17448
828.02	17322
828.159	17353
828.298	17455
828.437	17414
828.577	17425
828.716	17547
828.855	17315
828.994	17231
829.134	17200
829.273	17318
829.412	17029
829.551	17067
829.69	17105
829.829	17204
829.968	17311
830.107	17216
830.246	17170
830.385	17140
830.524	17041
830.663	17060
830.802	16892
830.941	16782
831.08	16786
831.219	16869
831.357	16812
831.496	17018
831.635	16740
831.774	16713
831.913	16649
832.051	16565
832.19	16607
832.329	16603
832.467	16542
832.606	16466
832.744	16478
832.883	16489
833.022	16550
833.16	16440
833.299	16561
833.437	16497
833.576	16542
833.714	16561
833.852	16535
833.991	16542
834.129	16630
834.267	16588
834.406	16516
834.544	16493
834.682	16584
834.821	16516
834.959	16668
835.097	16443
835.235	16706
835.373	16626
835.511	16577
835.65	16470
835.788	16558
835.926	16409
836.064	16234
836.202	16360
836.34	16455
836.478	16527
836.615	16421
836.753	16375
836.891	16622
837.029	16565
837.167	16409
837.305	16333
837.443	16367
837.58	16348
837.718	16360
837.856	16314
837.993	16333
838.131	16447
838.269	16284
838.406	16306
838.544	16169
838.681	16082
838.819	16017
838.956	15850
839.094	15793
839.231	15930
839.369	16010
839.506	16253
839.643	16059
839.781	15888
839.918	15895
840.055	16006
840.193	15876
840.33	15755
840.467	15838
840.604	15918
840.742	16219
840.879	15732
841.016	15808
841.153	15778
841.29	15907
841.427	15808
841.564	15937
841.701	15922
841.838	15819
841.975	15793
842.112	15842
842.249	15618
842.385	15595
842.522	15793
842.659	15698
842.796	15564
842.933	15656
843.069	15591
843.206	15587
843.343	15682
843.479	15584
843.616	15701
843.752	15382
843.889	15355
844.025	15568
844.162	15348
844.298	15466
844.435	15523
844.571	15416
844.708	15469
844.844	15587
844.98	15519
845.117	15553
845.253	15447
845.389	15260
845.525	15340
845.661	15329
845.798	15264
845.934	15279
846.07	15131
846.206	15321
846.342	15416
846.478	15233
846.614	15051
846.75	14952
846.886	14895
847.022	15077
847.158	14979
847.294	14979
847.429	14967
847.565	14944
847.701	15154
847.837	14758
847.972	14701
848.108	14853
848.244	14777
848.379	14583
848.515	14575
848.65	14556
848.786	14606
848.921	14594
849.057	14697
849.192	14556
849.328	14560
849.463	14590
849.598	14499
849.734	14556
849.869	14476
850.004	14442
850.14	14381
850.275	14393
850.41	14309
850.545	14290
850.68	14229
850.815	14362
850.95	14328
851.085	14583
851.22	14522
851.355	14336
851.49	14282
851.625	14358
851.76	14347
851.895	14286
852.03	14199
852.165	14328
852.299	14355
852.434	14423
852.569	14381
852.703	14457
852.838	14476
852.973	14488
853.107	14533
853.242	14431
853.376	14271
853.511	14187
853.645	14195
853.78	14282
853.914	14195
854.048	14256
854.183	14199
854.317	14191
854.451	14374
854.585	14206
854.72	14176
854.854	14259
854.988	14172
855.122	14176
855.256	14134
855.39	14187
855.524	14298
855.658	14267
855.792	14259
855.926	14385
856.06	14252
856.194	14313
856.327	14271
856.461	14237
856.595	14126
856.729	14149
856.862	14263
856.996	14332
857.13	14237
857.263	14294
857.397	14298
857.53	14244
857.664	14320
857.797	14351
857.931	14298
858.064	14248
858.197	14347
858.331	14142
858.464	14328
858.597	14176
858.731	14218
858.864	14195
858.997	14130
859.13	14240
859.263	14309
859.396	14301
859.529	14195
859.662	14199
859.795	14153
859.928	14278
860.061	14408
860.194	14511
860.327	14206
860.46	14237
860.592	14362
860.725	14385
860.858	14351
860.99	14195
861.123	14081
861.256	14111
861.388	14172
861.521	14887
861.653	14088
861.786	14012
861.918	14103
862.05	14168
862.183	14199
862.315	14168
862.447	14221
862.58	14123
862.712	13955
862.844	14058
862.976	14073
863.108	14069
863.24	14450
863.372	13921
863.504	13906
863.636	14005
863.768	14107
863.9	13978
864.032	13921
864.164	13913
864.296	14134
864.428	14157
864.559	14084
864.691	14103
864.823	14126
864.954	14054
865.086	14081
865.217	14008
865.349	13974
865.48	14043
865.612	13978
865.743	14237
865.875	14035
866.006	13928
866.137	14008
866.269	14020
866.4	14046
866.531	13986
866.662	13978
866.793	14020
866.924	13936
867.055	13974
867.186	13955
867.317	13909
867.448	13947
867.579	13917
867.71	13856
867.841	13890
867.972	14008
868.103	14012
868.233	13974
868.364	14046
868.495	14001
868.625	14206
868.756	14286
868.886	14069
869.017	14240
869.147	14320
869.278	14267
869.408	14199
869.539	14237
869.669	14278
869.799	14290
869.929	14404
870.06	14271
870.19	14571
870.32	14492
870.45	14549
870.58	14651
870.71	14632
870.84	14754
870.97	14590
871.1	14613
871.23	14876
871.36	14899
871.489	14682
871.619	14800
871.749	14750
871.879	14845
872.008	15024
872.138	14914
872.267	14861
872.397	14693
872.526	14625
872.656	14613
872.785	14739
872.915	14849
873.044	14937
873.173	14773
873.303	14921
873.432	14960
873.561	14948
873.69	14899
873.819	14944
873.948	14994
874.077	14941
874.206	14872
874.335	14990
874.464	15028
874.593	15157
874.722	15093
874.851	15256
874.979	15226
875.108	15199
875.237	15169
875.365	15039
875.494	15237
875.623	15272
875.751	15180
875.88	15245
876.008	15329
876.136	15416
876.265	15576
876.393	15770
876.521	15641
876.65	15713
876.778	15648
876.906	15561
877.034	15606
877.162	15580
877.29	15488
877.418	15599
877.546	15561
877.674	15648
877.802	15656
877.93	15644
878.058	15511
878.185	15504
878.313	15561
878.441	15641
878.568	15526
878.696	15549
878.824	15633
878.951	15622
879.079	15812
879.206	15937
879.333	15682
879.461	15618
879.588	15694
879.715	15827
879.842	15941
879.97	15686
880.097	15450
880.224	15454
880.351	15568
880.478	15526
880.605	15443
880.732	15538
880.859	15629
880.986	15534
881.112	15492
881.239	15397
881.366	15218
881.493	15116
881.619	15119
881.746	15165
881.872	15077
881.999	15051
882.125	15127
882.252	15138
882.378	15214
882.505	15306
882.631	15017
882.757	14960
882.883	14952
883.01	14933
883.136	14944
883.262	14826
883.388	14781
883.514	14807
883.64	15036
883.766	14956
883.892	14701
884.018	14785
884.143	14902
884.269	15127
884.395	14731
884.52	14632
884.646	14663
884.772	14651
884.897	14621
885.023	14632
885.148	14769
885.274	14800
885.399	14727
885.524	14743
885.65	14720
885.775	14655
885.9	14617
886.025	14686
886.15	14663
886.275	14689
886.4	14564
886.525	14648
886.65	14587
886.775	14590
886.9	14758
887.025	14853
887.149	14644
887.274	14480
887.399	14492
887.523	14404
887.648	14454
887.773	14454
887.897	14575
888.021	14507
888.146	14377
888.27	14594
888.395	14571
888.519	14488
888.643	14571
888.767	14526
888.891	14480
889.015	14343
889.139	14290
889.263	14298
889.387	14423
889.511	14625
889.635	14454
889.759	14248
889.883	14343
890.006	14396
890.13	14370
890.254	14115
890.377	14252
890.501	14191
890.624	14081
890.748	14324
890.871	14084
890.995	14020
891.118	13845
891.241	13967
891.364	14092
891.488	14024
891.611	14016
891.734	14027
891.857	14035
891.98	14020
892.103	14115
892.226	14081
892.349	14005
892.471	13947
892.594	14054
892.717	14035
892.839	14084
892.962	14077
893.085	14103
893.207	14103
893.33	13967
893.452	13978
893.575	14100
893.697	14046
893.819	14183
893.941	14294
894.064	14256
894.186	13959
894.308	13982
894.43	14225
894.552	14305
894.674	14256
894.796	14088
894.918	14024
895.04	14123
895.161	14164
895.283	14130
895.405	14111
895.526	14088
895.648	14202
895.769	14199
895.891	14176
896.012	14309
896.134	14248
896.255	14229
896.376	14145
896.498	14221
896.619	14252
896.74	14282
896.861	14343
896.982	14514
897.103	14697
897.224	14522
897.345	14377
897.466	14419
897.587	14499
897.708	14606
897.828	14610
897.949	14537
898.07	14309
898.19	14526
898.311	14648
898.431	14579
898.552	14526
898.672	14632
898.792	14644
898.913	14663
899.033	14465
899.153	14389
899.273	14419
899.393	14396
899.513	14423
899.633	14442
899.753	14503
899.873	14415
899.993	14526
900.113	14427
900.232	14434
900.352	14431
900.472	14396
900.591	14332
900.711	14275
900.83	14221
900.95	14362
901.069	14393
901.189	14290
901.308	14027
901.427	13925
901.546	14031
901.665	14081
901.784	13913
901.904	13951
902.023	13807
902.141	13689
902.26	13510
902.379	13666
902.498	13464
902.617	13491
902.735	13586
902.854	13537
902.973	13491
903.091	13244
903.21	13228
903.328	13190
903.446	13187
903.565	13080
903.683	13145
903.801	13015
903.919	13046
904.038	13046
904.156	12890
904.274	12935
904.392	12928
904.51	12840
904.627	12848
904.745	12939
904.863	12935
904.981	12669
905.098	12544
905.216	12654
905.334	12635
905.451	12688
905.569	12612
905.686	12692
905.803	12692
905.921	12429
906.038	12544
906.155	12426
906.272	12289
906.389	12365
906.506	12175
906.623	12216
906.74	12155
906.857	12022
906.974	12144
907.091	12209
907.208	12327
907.324	12201
907.441	12083
907.557	11999
907.674	11885
907.79	11851
907.907	11950
908.023	11992
908.139	11885
908.256	11912
908.372	11942
908.488	11767
908.604	11688
908.72	11634
908.836	11657
908.952	11707
909.068	11695
909.184	11783
909.3	11665
909.415	11764
909.531	11771
909.647	11497
909.762	11436
909.878	11349
909.993	11551
910.108	11410
910.224	11452
910.339	11471
910.454	11383
910.57	11296
910.685	11353
910.8	11505
910.915	11459
911.03	11337
911.145	11227
911.259	11189
911.374	11159
911.489	11155
911.604	11136
911.718	10957
911.833	10919
911.947	10885
912.062	10774
912.176	10858
912.291	10934
912.405	10862
912.519	11025
912.633	11060
912.748	10953
912.862	10930
912.976	10809
913.09	10679
913.204	10755
913.318	10831
913.431	10980
913.545	10866
913.659	10862
913.772	10778
913.886	10672
914	10714
914.113	10793
914.226	10820
914.34	10801
914.453	10615
914.566	10752
914.68	10637
914.793	10641
914.906	10455
915.019	10398
915.132	10402
915.245	10413
915.358	10474
915.47	10318
915.583	10485
915.696	10523
915.809	10630
915.921	10675
916.034	10405
916.146	10402
916.259	10363
916.371	10451
916.483	10466
916.595	10417
916.708	10409
916.82	10348
916.932	10322
917.044	10348
917.156	10413
917.268	10242
917.38	10276
917.491	10276
917.603	10192
917.715	10348
917.826	10329
917.938	10230
918.049	10090
918.161	10253
918.272	10363
918.384	10459
918.495	10287
918.606	10158
918.717	10097
918.828	10135
918.939	10139
919.05	10078
919.161	10105
919.272	9979
919.383	10097
919.494	10215
919.604	10421
919.715	10135
919.826	10143
919.936	10135
920.047	10322
920.157	10169
920.267	10253
920.378	10215
920.488	10200
920.598	10341
920.708	10596
920.818	10314
920.928	10329
921.038	10573
921.148	10523
921.258	10223
921.368	10105
921.477	10059
921.587	10044
921.697	9907
921.806	10051
921.916	9960
922.025	9762
922.134	9778
922.244	9698
922.353	9762
922.462	9633
922.571	9545
922.68	9473
922.789	9405
922.898	9447
923.007	9359
923.116	9408
923.224	9473
923.333	9439
923.442	9275
923.55	9260
923.659	9291
923.767	9348
923.876	9275
923.984	9332
924.092	9176
924.201	9222
924.309	9264
924.417	9291
924.525	9302
924.633	9233
924.741	10215
924.849	9005
924.956	9283
925.064	9036
925.172	8986
925.279	9024
925.387	9077
925.494	9093
925.602	9222
925.709	9176
925.816	9051
925.924	9047
926.031	9146
926.138	9104
926.245	9123
926.352	9024
926.459	9165
926.566	9184
926.673	8952
926.779	8845
926.886	8933
926.993	8762
927.099	8785
927.206	8731
927.312	8750
927.419	8815
927.525	8807
927.631	8868
927.737	8716
927.843	8705
927.95	8632
928.056	8750
928.162	8705
928.267	8712
928.373	9382
928.479	8804
928.585	8583
928.69	8724
928.796	8678
928.901	8663
929.007	8457
929.112	8648
929.218	8602
929.323	8511
929.428	8473
929.533	8644
929.638	8514
929.743	8484
929.848	8526
929.953	8518
930.058	8442
930.163	8252
930.267	8320
930.372	8408
930.477	8279
930.581	8526
930.685	8358
930.79	8248
930.894	8259
930.998	8176
931.103	8347
931.207	8054
931.311	7986
931.415	7913
931.519	7742
931.623	7708
