Data from test_V78500241_88.txt Node
Date: Fri Mar 25 14:34:20 CST 2022
User: usil
Spectrometer: V785-0024
Trigger mode: 0
Integration Time (sec): 4.000000E-1
Scans to average: 1
Nonlinearity correction enabled: false
Boxcar width: 0
Storing dark spectrum: false
XAxis mode: Wavelengths
Number of Pixels in Spectrum: 1024
>>>>>Begin Spectral Data<<<<<
801.071	28877
801.214	28786
801.356	28478
801.499	28409
801.641	28272
801.783	28192
801.926	28333
802.068	28204
802.211	28154
802.353	28086
802.496	27956
802.638	27911
802.78	27800
802.923	27797
803.065	27743
803.208	27850
803.35	27895
803.492	27983
803.635	27968
803.777	27850
803.919	27941
804.061	28333
804.204	27934
804.346	27823
804.488	27846
804.63	27903
804.773	27633
804.915	27865
805.057	27983
805.199	27850
805.341	28021
805.483	28101
805.626	27884
805.768	27789
805.91	27800
806.052	27998
806.194	27804
806.336	28021
806.478	28109
806.62	27941
806.762	28120
806.904	28147
807.046	28360
807.188	28421
807.33	28268
807.472	28394
807.614	28223
807.756	28299
807.898	28257
808.04	28238
808.182	28249
808.324	28135
808.465	28337
808.607	28440
808.749	28561
808.891	28580
809.033	28687
809.174	28592
809.316	28596
809.458	28565
809.6	28569
809.741	28580
809.883	28519
810.025	28790
810.166	28748
810.308	28683
810.45	28615
810.591	28626
810.733	28557
810.875	28451
811.016	28413
811.158	28295
811.299	28493
811.441	28554
811.582	28432
811.724	28295
811.865	28367
812.007	28386
812.148	28360
812.29	28455
812.431	28470
812.573	28755
812.714	28782
812.855	28858
812.997	28828
813.138	29037
813.279	28961
813.421	28843
813.562	28790
813.703	28592
813.845	28626
813.986	28428
814.127	28169
814.268	27972
814.41	28109
814.551	28032
814.692	27968
814.833	27903
814.974	27797
815.115	27949
815.256	27797
815.397	27812
815.539	27895
815.68	27568
815.821	27618
815.962	27759
816.103	27770
816.244	27561
816.385	27412
816.526	27370
816.666	27211
816.807	26876
816.948	27150
817.089	27169
817.23	27096
817.371	27142
817.512	27226
817.653	26986
817.793	27017
817.934	27150
818.075	27184
818.216	26891
818.356	26899
818.497	26872
818.638	26804
818.778	26876
818.919	26838
819.06	26712
819.2	26876
819.341	26979
819.481	26952
819.622	27077
819.762	27397
819.903	27249
820.043	27032
820.184	27039
820.324	27119
820.465	26998
820.605	27039
820.746	27096
820.886	26990
821.026	26921
821.167	27009
821.307	26952
821.447	26842
821.588	26716
821.728	26659
821.868	26579
822.008	26461
822.149	26324
822.289	26263
822.429	26130
822.569	26024
822.709	26016
822.849	25765
822.99	25841
823.13	25708
823.27	25799
823.41	25548
823.55	25578
823.69	25563
823.83	25495
823.97	25586
824.11	25388
824.25	25331
824.389	25407
824.529	25339
824.669	25434
824.809	25426
824.949	25453
825.089	25365
825.228	25491
825.368	25107
825.508	25103
825.648	25240
825.787	25255
825.927	25259
826.067	25137
826.206	25175
826.346	25263
826.485	25190
826.625	25202
826.765	25270
826.904	25244
827.044	25000
827.183	24958
827.323	24833
827.462	24852
827.601	24817
827.741	24795
827.88	24916
828.02	24814
828.159	24825
828.298	24730
828.437	24783
828.577	24703
828.716	24829
828.855	24798
828.994	24597
829.134	24551
829.273	24532
829.412	24460
829.551	24540
829.69	24426
829.829	24505
829.968	24540
830.107	24536
830.246	24407
830.385	24418
830.524	24338
830.663	24281
830.802	24251
830.941	24163
831.08	24102
831.219	24095
831.357	24049
831.496	24232
831.635	23950
831.774	23935
831.913	23901
832.051	23809
832.19	23737
832.329	23821
832.467	23786
832.606	23779
832.744	23729
832.883	23707
833.022	23566
833.16	23657
833.299	23642
833.437	23680
833.576	23680
833.714	23748
833.852	23707
833.991	23798
834.129	23684
834.267	23764
834.406	23718
834.544	23790
834.682	23646
834.821	23589
834.959	23794
835.097	23630
835.235	23623
835.373	23642
835.511	23646
835.65	23516
835.788	23539
835.926	23391
836.064	23383
836.202	23330
836.34	23444
836.478	23627
836.615	23425
836.753	23334
836.891	23516
837.029	23520
837.167	23493
837.305	23444
837.443	23417
837.58	23303
837.718	23448
837.856	23227
837.993	23235
838.131	23337
838.269	23132
838.406	23147
838.544	23151
838.681	22995
838.819	22965
838.956	22710
839.094	22759
839.231	22713
839.369	22862
839.506	23029
839.643	23010
839.781	22755
839.918	22603
840.055	22660
840.193	22550
840.33	22573
840.467	22653
840.604	22603
840.742	22774
840.879	22500
841.016	22592
841.153	22436
841.29	22687
841.427	22546
841.564	22561
841.701	22584
841.838	22390
841.975	22402
842.112	22500
842.249	22371
842.385	22299
842.522	22421
842.659	22379
842.796	22265
842.933	22371
843.069	22211
843.206	22196
843.343	22390
843.479	22230
843.616	22344
843.752	22238
843.889	22025
844.025	22162
844.162	22010
844.298	22143
844.435	21979
844.571	21823
844.708	22044
844.844	22276
844.98	22188
845.117	22032
845.253	21918
845.389	21888
845.525	21903
845.661	21945
845.798	21876
845.934	21941
846.07	21831
846.206	21876
846.342	21926
846.478	21831
846.614	21469
846.75	21378
846.886	21378
847.022	21507
847.158	21420
847.294	21530
847.429	21462
847.565	21382
847.701	21656
847.837	21222
847.972	21062
848.108	21279
848.244	21294
848.379	21077
848.515	21020
848.65	20998
848.786	21112
848.921	21070
849.057	21203
849.192	21081
849.328	21043
849.463	20994
849.598	20967
849.734	20956
849.869	20807
850.004	20754
850.14	20834
850.275	20701
850.41	20686
850.545	20686
850.68	20727
850.815	20758
850.95	20568
851.085	20868
851.22	20811
851.355	20743
851.49	20689
851.625	20697
851.76	20705
851.895	20473
852.03	20621
852.165	20651
852.299	20693
852.434	20807
852.569	20746
852.703	20682
852.838	20727
852.973	20853
853.107	20937
853.242	20636
853.376	20636
853.511	20438
853.645	20454
853.78	20682
853.914	20575
854.048	20484
854.183	20476
854.317	20560
854.451	20507
854.585	20465
854.72	20590
854.854	20640
854.988	20400
855.122	20457
855.256	20332
855.39	20514
855.524	20655
855.658	20629
855.792	20480
855.926	20427
856.06	20552
856.194	20564
856.327	20495
856.461	20415
856.595	20495
856.729	20495
856.862	20533
856.996	20549
857.13	20598
857.263	20625
857.397	20541
857.53	20393
857.664	20560
857.797	20492
857.931	20640
858.064	20461
858.197	20518
858.331	20431
858.464	20294
858.597	20328
858.731	20454
858.864	20377
858.997	20457
859.13	20362
859.263	20431
859.396	20446
859.529	20366
859.662	20389
859.795	20328
859.928	20431
860.061	20571
860.194	20655
860.327	20431
860.46	20473
860.592	20419
860.725	20476
860.858	20495
860.99	20298
861.123	20332
861.256	20252
861.388	20366
861.521	21001
861.653	20263
861.786	20214
861.918	20347
862.05	20374
862.183	20454
862.315	20457
862.447	20503
862.58	20492
862.712	20252
862.844	20225
862.976	20172
863.108	20183
863.24	20495
863.372	20107
863.504	20164
863.636	20069
863.768	20046
863.9	20164
864.032	20001
864.164	20005
864.296	20054
864.428	20206
864.559	20233
864.691	20180
864.823	20195
864.954	20126
865.086	20122
865.217	20077
865.349	19894
865.48	19917
865.612	19989
865.743	20126
865.875	19894
866.006	19909
866.137	20126
866.269	20027
866.4	19970
866.531	19970
866.662	19856
866.793	20001
866.924	19830
867.055	20005
867.186	19826
867.317	19940
867.448	19811
867.579	19921
867.71	19795
867.841	19925
867.972	19887
868.103	19913
868.233	19951
868.364	20016
868.495	20050
868.625	20069
868.756	20256
868.886	20096
869.017	20202
869.147	20149
869.278	20294
869.408	20191
869.539	20126
869.669	20229
869.799	20164
869.929	20355
870.06	20313
870.19	20473
870.32	20347
870.45	20537
870.58	20590
870.71	20640
870.84	20602
870.97	20495
871.1	20454
871.23	20678
871.36	20689
871.489	20602
871.619	20644
871.749	20861
871.879	20765
872.008	20724
872.138	20830
872.267	20659
872.397	20609
872.526	20522
872.656	20545
872.785	20545
872.915	20788
873.044	20895
873.173	20823
873.303	20823
873.432	20876
873.561	20902
873.69	20697
873.819	20708
873.948	20773
874.077	20792
874.206	20750
874.335	20735
874.464	20876
874.593	20998
874.722	20941
874.851	21013
874.979	20990
875.108	21100
875.237	21051
875.365	21055
875.494	21047
875.623	21104
875.751	21074
875.88	21119
876.008	21188
876.136	21279
876.265	21382
876.393	21637
876.521	21447
876.65	21530
876.778	21382
876.906	21321
877.034	21344
877.162	21279
877.29	21321
877.418	21397
877.546	21466
877.674	21485
877.802	21408
877.93	21450
878.058	21408
878.185	21386
878.313	21397
878.441	21408
878.568	21249
878.696	21401
878.824	21405
878.951	21405
879.079	21583
879.206	21774
879.333	21629
879.461	21526
879.588	21606
879.715	21629
879.842	21743
879.97	21591
880.097	21211
880.224	21294
880.351	21344
880.478	21264
880.605	21188
880.732	21188
880.859	21393
880.986	21306
881.112	21184
881.239	21005
881.366	21066
881.493	20906
881.619	20941
881.746	20960
881.872	20739
881.999	20804
882.125	20891
882.252	20921
882.378	20823
882.505	20952
882.631	20735
882.757	20526
882.883	20659
883.01	20621
883.136	20651
883.262	20499
883.388	20366
883.514	20689
883.64	20545
883.766	20461
883.892	20370
884.018	20393
884.143	20621
884.269	20556
884.395	20309
884.52	20244
884.646	20275
884.772	20259
884.897	20233
885.023	20233
885.148	20275
885.274	20294
885.399	20271
885.524	20229
885.65	20107
885.775	20244
885.9	20119
886.025	20263
886.15	20153
886.275	20005
886.4	20092
886.525	20058
886.65	20069
886.775	20069
886.9	20153
887.025	20339
887.149	20134
887.274	20092
887.399	19921
887.523	19875
887.648	20024
887.773	19925
887.897	19974
888.021	19856
888.146	19940
888.27	20138
888.395	19921
888.519	19959
888.643	19868
888.767	19967
888.891	19807
889.015	19723
889.139	19811
889.263	19704
889.387	19822
889.511	19887
889.635	19864
889.759	19776
889.883	19666
890.006	19841
890.13	19803
890.254	19715
890.377	19575
890.501	19468
890.624	19396
890.748	19571
890.871	19483
890.995	19320
891.118	19289
891.241	19350
891.364	19343
891.488	19460
891.611	19293
891.734	19324
891.857	19350
891.98	19244
892.103	19343
892.226	19373
892.349	19266
892.471	19129
892.594	19251
892.717	19335
892.839	19145
892.962	19263
893.085	19217
893.207	19297
893.33	19076
893.452	19118
893.575	19392
893.697	19160
893.819	19285
893.941	19415
894.064	19324
894.186	19141
894.308	19183
894.43	19255
894.552	19449
894.674	19373
894.796	19148
894.918	19312
895.04	19278
895.161	19244
895.283	19312
895.405	19148
895.526	19179
895.648	19175
895.769	19228
895.891	19225
896.012	19377
896.134	19232
896.255	19266
896.376	19247
896.498	19190
896.619	19343
896.74	19388
896.861	19415
896.982	19719
897.103	19883
897.224	19552
897.345	19495
897.466	19411
897.587	19559
897.708	19506
897.828	19552
897.949	19483
898.07	19335
898.19	19499
898.311	19499
898.431	19472
898.552	19518
898.672	19559
898.792	19552
898.913	19457
899.033	19327
899.153	19373
899.273	19278
899.393	19293
899.513	19225
899.633	19236
899.753	19289
899.873	19168
899.993	19217
900.113	19160
900.232	19198
900.352	19164
900.472	19156
900.591	19091
900.711	19164
900.83	19004
900.95	19183
901.069	19156
901.189	19031
901.308	18791
901.427	18627
901.546	18627
901.665	18623
901.784	18692
901.904	18570
902.023	18346
902.141	18247
902.26	18239
902.379	18327
902.498	18136
902.617	18190
902.735	18038
902.854	18186
902.973	18079
903.091	17836
903.21	17775
903.328	17908
903.446	17745
903.565	17646
903.683	17733
903.801	17497
903.919	17566
904.038	17589
904.156	17414
904.274	17471
904.392	17360
904.51	17364
904.627	17315
904.745	17334
904.863	17387
904.981	17143
905.098	17128
905.216	17117
905.334	17162
905.451	17067
905.569	16946
905.686	17079
905.803	17006
905.921	16835
906.038	16942
906.155	16763
906.272	16752
906.389	16713
906.506	16474
906.623	16569
906.74	16561
906.857	16432
906.974	16405
907.091	16527
907.208	16649
907.324	16596
907.441	16531
907.557	16329
907.674	16249
907.79	16223
907.907	16162
908.023	16234
908.139	16299
908.256	16185
908.372	16059
908.488	16139
908.604	15876
908.72	15926
908.836	15903
908.952	15728
909.068	15945
909.184	16051
909.3	15804
909.415	15926
909.531	15892
909.647	15755
909.762	15587
909.878	15603
909.993	15717
910.108	15557
910.224	15545
910.339	15572
910.454	15412
910.57	15500
910.685	15340
910.8	15587
910.915	15599
911.03	15344
911.145	15351
911.259	15173
911.374	15279
911.489	15077
911.604	15039
911.718	15036
911.833	14910
911.947	14861
912.062	14701
912.176	14883
912.291	14944
912.405	14956
912.519	15142
912.633	15036
912.748	15039
912.862	14910
912.976	14788
913.09	14640
913.204	14697
913.318	14651
913.431	14872
913.545	14815
913.659	14876
913.772	14777
913.886	14552
914	14431
914.113	14678
914.226	14739
914.34	14655
914.453	14503
914.566	14610
914.68	14545
914.793	14476
914.906	14332
915.019	14221
915.132	14138
915.245	14267
915.358	14199
915.47	14221
915.583	14180
915.696	14244
915.809	14332
915.921	14374
916.034	14164
916.146	14199
916.259	14077
916.371	14134
916.483	14138
916.595	14005
916.708	14130
916.82	14008
916.932	13982
917.044	13940
917.156	13982
917.268	13879
917.38	13989
917.491	13993
917.603	13830
917.715	13932
917.826	14001
917.938	13890
918.049	13693
918.161	13769
918.272	13909
918.384	13894
918.495	13814
918.606	13609
918.717	13571
918.828	13734
918.939	13575
919.05	13537
919.161	13624
919.272	13441
919.383	13430
919.494	13601
919.604	13780
919.715	13643
919.826	13460
919.936	13575
920.047	13666
920.157	13582
920.267	13807
920.378	13693
920.488	13651
920.598	13799
920.708	13845
920.818	13685
920.928	13616
921.038	13841
921.148	13906
921.258	13499
921.368	13483
921.477	13396
921.587	13331
921.697	13285
921.806	13346
921.916	13183
922.025	12977
922.134	12939
922.244	12875
922.353	12973
922.462	12913
922.571	12840
922.68	12623
922.789	12696
922.898	12673
923.007	12566
923.116	12700
923.224	12738
923.333	12681
923.442	12498
923.55	12445
923.659	12563
923.767	12563
923.876	12452
923.984	12502
924.092	12372
924.201	12445
924.309	12365
924.417	12365
924.525	12388
924.633	12266
924.741	13381
924.849	12220
924.956	12262
925.064	12155
925.172	12106
925.279	12095
925.387	12106
925.494	12125
925.602	12262
925.709	12136
925.816	11969
925.924	12057
926.031	12232
926.138	12079
926.245	12038
926.352	11908
926.459	12114
926.566	12076
926.673	12003
926.779	11843
926.886	11843
926.993	11741
927.099	11760
927.206	11718
927.312	11642
927.419	11608
927.525	11642
927.631	11653
927.737	11512
927.843	11493
927.95	11490
928.056	11478
928.162	11547
928.267	11547
928.373	12072
928.479	11577
928.585	11391
928.69	11383
928.796	11478
928.901	11376
929.007	11246
929.112	11440
929.218	11311
929.323	11334
929.428	11178
929.533	11356
929.638	11220
929.743	11136
929.848	11330
929.953	11166
930.058	11075
930.163	11014
930.267	10991
930.372	11064
930.477	10930
930.581	11185
930.685	11037
930.79	10900
930.894	10908
930.998	10748
931.103	10984
931.207	10607
931.311	10584
931.415	10470
931.519	10200
931.623	10261
