Data from test_V78500241_2920.txt Node
Date: Fri Mar 25 14:54:02 CST 2022
User: usil
Spectrometer: V785-0024
Trigger mode: 0
Integration Time (sec): 4.000000E-1
Scans to average: 1
Nonlinearity correction enabled: false
Boxcar width: 0
Storing dark spectrum: false
XAxis mode: Wavelengths
Number of Pixels in Spectrum: 1024
>>>>>Begin Spectral Data<<<<<
801.071	22101
801.214	22010
801.356	21682
801.499	21682
801.641	21424
801.783	21466
801.926	21355
802.068	21325
802.211	21237
802.353	21207
802.496	21112
802.638	20842
802.78	20944
802.923	20853
803.065	20686
803.208	20705
803.35	20758
803.492	20925
803.635	20800
803.777	20758
803.919	20788
804.061	21085
804.204	20777
804.346	20705
804.488	20731
804.63	20716
804.773	20644
804.915	20648
805.057	20773
805.199	20602
805.341	20682
805.483	20914
805.626	20834
805.768	20689
805.91	20746
806.052	20765
806.194	20579
806.336	20781
806.478	20571
806.62	20564
806.762	20811
806.904	20830
807.046	21146
807.188	21066
807.33	21077
807.472	21135
807.614	20960
807.756	20944
807.898	20838
808.04	20746
808.182	20796
808.324	20807
808.465	20849
808.607	20925
808.749	21009
808.891	21218
809.033	21195
809.174	21013
809.316	21036
809.458	21096
809.6	21028
809.741	21112
809.883	21096
810.025	21135
810.166	21184
810.308	21272
810.45	21233
810.591	21176
810.733	20921
810.875	20975
811.016	20682
811.158	20754
811.299	20933
811.441	20956
811.582	20811
811.724	20815
811.865	20895
812.007	20758
812.148	20902
812.29	20876
812.431	21058
812.573	20979
812.714	21150
812.855	21382
812.997	21336
813.138	21523
813.279	21393
813.421	21348
813.562	21169
813.703	21188
813.845	20990
813.986	20708
814.127	20541
814.268	20484
814.41	20454
814.551	20320
814.692	20473
814.833	20278
814.974	20415
815.115	20415
815.256	20187
815.397	20290
815.539	20199
815.68	20069
815.821	19986
815.962	20096
816.103	20058
816.244	20035
816.385	19746
816.526	19704
816.666	19696
816.807	19384
816.948	19586
817.089	19559
817.23	19540
817.371	19460
817.512	19457
817.653	19403
817.793	19350
817.934	19502
818.075	19483
818.216	19445
818.356	19384
818.497	19339
818.638	19129
818.778	19228
818.919	19156
819.06	19263
819.2	19335
819.341	19293
819.481	19400
819.622	19563
819.762	19750
819.903	19712
820.043	19552
820.184	19472
820.324	19639
820.465	19537
820.605	19506
820.746	19597
820.886	19297
821.026	19521
821.167	19476
821.307	19571
821.447	19480
821.588	19377
821.728	19198
821.868	18996
822.008	18973
822.149	18875
822.289	18924
822.429	18646
822.569	18566
822.709	18532
822.849	18403
822.99	18319
823.13	18350
823.27	18327
823.41	18281
823.55	18190
823.69	18224
823.83	18281
823.97	18053
824.11	17878
824.25	17954
824.389	17984
824.529	18034
824.669	17897
824.809	17954
824.949	17969
825.089	18038
825.228	17958
825.368	17771
825.508	17828
825.648	17794
825.787	17760
825.927	17790
826.067	17600
826.206	17707
826.346	17821
826.485	17786
826.625	17684
826.765	17737
826.904	17634
827.044	17524
827.183	17455
827.323	17341
827.462	17543
827.601	17383
827.741	17284
827.88	17383
828.02	17242
828.159	17334
828.298	17395
828.437	17433
828.577	17307
828.716	17543
828.855	17356
828.994	17162
829.134	17109
829.273	17178
829.412	17155
829.551	17162
829.69	17136
829.829	17128
829.968	17345
830.107	17265
830.246	17181
830.385	17170
830.524	17006
830.663	17041
830.802	16843
830.941	16782
831.08	16736
831.219	16824
831.357	16797
831.496	17048
831.635	16725
831.774	16561
831.913	16698
832.051	16622
832.19	16679
832.329	16668
832.467	16390
832.606	16462
832.744	16375
832.883	16428
833.022	16474
833.16	16493
833.299	16546
833.437	16466
833.576	16485
833.714	16527
833.852	16565
833.991	16577
834.129	16459
834.267	16497
834.406	16531
834.544	16523
834.682	16478
834.821	16516
834.959	16573
835.097	16493
835.235	16580
835.373	16508
835.511	16634
835.65	16367
835.788	16363
835.926	16329
836.064	16207
836.202	16226
836.34	16432
836.478	16421
836.615	16322
836.753	16405
836.891	16386
837.029	16440
837.167	16405
837.305	16265
837.443	16314
837.58	16234
837.718	16386
837.856	16325
837.993	16223
838.131	16360
838.269	16200
838.406	16246
838.544	16169
838.681	16048
838.819	15983
838.956	15770
839.094	15823
839.231	15880
839.369	15930
839.506	16166
839.643	16025
839.781	15774
839.918	15778
840.055	15793
840.193	15831
840.33	15854
840.467	15899
840.604	15903
840.742	16044
840.879	15663
841.016	15739
841.153	15800
841.29	15949
841.427	15812
841.564	15819
841.701	15846
841.838	15827
841.975	15743
842.112	15701
842.249	15667
842.385	15561
842.522	15709
842.659	15629
842.796	15610
842.933	15641
843.069	15587
843.206	15580
843.343	15644
843.479	15606
843.616	15584
843.752	15355
843.889	15374
844.025	15473
844.162	15359
844.298	15557
844.435	15420
844.571	15351
844.708	15401
844.844	15507
844.98	15572
845.117	15485
845.253	15310
845.389	15393
845.525	15378
845.661	15222
845.798	15142
845.934	15256
846.07	15142
846.206	15180
846.342	15317
846.478	15142
846.614	15066
846.75	14967
846.886	14834
847.022	15039
847.158	14998
847.294	14952
847.429	15066
847.565	14826
847.701	15214
847.837	14765
847.972	14651
848.108	14815
848.244	14705
848.379	14636
848.515	14583
848.65	14537
848.786	14560
848.921	14549
849.057	14670
849.192	14625
849.328	14621
849.463	14598
849.598	14526
849.734	14480
849.869	14358
850.004	14404
850.14	14419
850.275	14423
850.41	14195
850.545	14385
850.68	14317
850.815	14324
850.95	14256
851.085	14568
851.22	14423
851.355	14320
851.49	14278
851.625	14252
851.76	14301
851.895	14233
852.03	14256
852.165	14271
852.299	14282
852.434	14484
852.569	14358
852.703	14332
852.838	14377
852.973	14499
853.107	14457
853.242	14351
853.376	14176
853.511	14153
853.645	14092
853.78	14271
853.914	14259
854.048	14164
854.183	14145
854.317	14214
854.451	14267
854.585	14161
854.72	14073
854.854	14168
854.988	14092
855.122	14195
855.256	14210
855.39	14244
855.524	14275
855.658	14168
855.792	14298
855.926	14309
856.06	14298
856.194	14248
856.327	14142
856.461	14199
856.595	14145
856.729	14176
856.862	14271
856.996	14240
857.13	14237
857.263	14328
857.397	14415
857.53	14142
857.664	14252
857.797	14336
857.931	14263
858.064	14263
858.197	14267
858.331	14221
858.464	14130
858.597	14134
858.731	14164
858.864	14058
858.997	14195
859.13	14164
859.263	14180
859.396	14313
859.529	14199
859.662	14240
859.795	14202
859.928	14134
860.061	14339
860.194	14438
860.327	14176
860.46	14130
860.592	14202
860.725	14324
860.858	14229
860.99	14225
861.123	14130
861.256	14119
861.388	14088
861.521	14785
861.653	14039
861.786	14058
861.918	14054
862.05	14107
862.183	14134
862.315	14100
862.447	14282
862.58	14054
862.712	13993
862.844	13928
862.976	13989
863.108	14024
863.24	14294
863.372	13989
863.504	13982
863.636	13902
863.768	13997
863.9	13982
864.032	13978
864.164	13955
864.296	14027
864.428	14016
864.559	14164
864.691	14081
864.823	14077
864.954	14130
865.086	14027
865.217	13925
865.349	13902
865.48	13917
865.612	13989
865.743	14054
865.875	13959
866.006	13974
866.137	13909
866.269	13928
866.4	13917
866.531	13898
866.662	13826
866.793	13951
866.924	13974
867.055	13951
867.186	13967
867.317	13993
867.448	13837
867.579	13917
867.71	13841
867.841	13955
867.972	14058
868.103	13997
868.233	14058
868.364	13955
868.495	14084
868.625	14332
868.756	14290
868.886	14084
869.017	14134
869.147	14362
869.278	14298
869.408	14195
869.539	14202
869.669	14252
869.799	14313
869.929	14347
870.06	14248
870.19	14514
870.32	14465
870.45	14514
870.58	14632
870.71	14705
870.84	14708
870.97	14743
871.1	14564
871.23	14815
871.36	14750
871.489	14689
871.619	14804
871.749	14906
871.879	14864
872.008	14883
872.138	14830
872.267	14758
872.397	14674
872.526	14670
872.656	14640
872.785	14590
872.915	14724
873.044	14921
873.173	14914
873.303	14925
873.432	14952
873.561	14807
873.69	14872
873.819	14762
873.948	14941
874.077	14792
874.206	14735
874.335	14845
874.464	15039
874.593	15211
874.722	15116
874.851	15291
874.979	15176
875.108	15173
875.237	15157
875.365	15058
875.494	15074
875.623	15207
875.751	15119
875.88	15218
876.008	15401
876.136	15336
876.265	15542
876.393	15686
876.521	15698
876.65	15682
876.778	15603
876.906	15534
877.034	15504
877.162	15614
877.29	15485
877.418	15587
877.546	15564
877.674	15572
877.802	15663
877.93	15591
878.058	15496
878.185	15530
878.313	15610
878.441	15507
878.568	15367
878.696	15530
878.824	15572
878.951	15625
879.079	15808
879.206	15876
879.333	15854
879.461	15637
879.588	15686
879.715	15675
879.842	15808
879.97	15671
880.097	15500
880.224	15428
880.351	15523
880.478	15477
880.605	15492
880.732	15454
880.859	15675
880.986	15447
881.112	15549
881.239	15462
881.366	15233
881.493	15176
881.619	15097
881.746	15005
881.872	15058
881.999	15100
882.125	15112
882.252	15176
882.378	15173
882.505	15188
882.631	15005
882.757	14914
882.883	14971
883.01	14906
883.136	14921
883.262	14819
883.388	14727
883.514	14956
883.64	15043
883.766	14773
883.892	14686
884.018	14743
884.143	14880
884.269	15005
884.395	14697
884.52	14533
884.646	14648
884.772	14590
884.897	14579
885.023	14625
885.148	14735
885.274	14834
885.399	14686
885.524	14518
885.65	14564
885.775	14655
885.9	14613
886.025	14712
886.15	14705
886.275	14606
886.4	14499
886.525	14514
886.65	14545
886.775	14514
886.9	14644
887.025	14902
887.149	14617
887.274	14514
887.399	14320
887.523	14434
887.648	14431
887.773	14275
887.897	14503
888.021	14488
888.146	14347
888.27	14541
888.395	14560
888.519	14419
888.643	14598
888.767	14503
888.891	14377
889.015	14244
889.139	14358
889.263	14488
889.387	14393
889.511	14511
889.635	14381
889.759	14256
889.883	14362
890.006	14355
890.13	14503
890.254	14294
890.377	14263
890.501	14202
890.624	14130
890.748	14130
890.871	14031
890.995	13978
891.118	13887
891.241	14039
891.364	14084
891.488	14081
891.611	14062
891.734	14073
891.857	14043
891.98	14024
892.103	14069
892.226	14008
892.349	13940
892.471	13795
892.594	14035
892.717	14084
892.839	14020
892.962	14046
893.085	14043
893.207	13997
893.33	13784
893.452	13917
893.575	13970
893.697	14054
893.819	14214
893.941	14206
894.064	14187
894.186	14001
894.308	14024
894.43	14145
894.552	14195
894.674	14271
894.796	14073
894.918	13944
895.04	14081
895.161	14229
895.283	14199
895.405	14008
895.526	14157
895.648	14153
895.769	14202
895.891	14176
896.012	14252
896.134	14290
896.255	14138
896.376	14088
896.498	14157
896.619	14164
896.74	14240
896.861	14267
896.982	14518
897.103	14701
897.224	14442
897.345	14393
897.466	14465
897.587	14442
897.708	14674
897.828	14549
897.949	14423
898.07	14358
898.19	14355
898.311	14648
898.431	14469
898.552	14598
898.672	14594
898.792	14651
898.913	14617
899.033	14431
899.153	14332
899.273	14339
899.393	14442
899.513	14347
899.633	14336
899.753	14389
899.873	14412
899.993	14514
900.113	14377
900.232	14495
900.352	14442
900.472	14275
900.591	14278
900.711	14305
900.83	14161
900.95	14366
901.069	14374
901.189	14225
901.308	14031
901.427	13921
901.546	13906
901.665	14012
901.784	13974
901.904	13776
902.023	13799
902.141	13559
902.26	13457
902.379	13567
902.498	13464
902.617	13422
902.735	13594
902.854	13438
902.973	13453
903.091	13225
903.21	13240
903.328	13278
903.446	13168
903.565	13008
903.683	13095
903.801	13069
903.919	13088
904.038	13076
904.156	12905
904.274	13061
904.392	12867
904.51	12837
904.627	12928
904.745	12977
904.863	12932
904.981	12692
905.098	12582
905.216	12570
905.334	12525
905.451	12635
905.569	12528
905.686	12612
905.803	12612
905.921	12410
906.038	12563
906.155	12506
906.272	12308
906.389	12338
906.506	12232
906.623	12178
906.74	12155
906.857	12117
906.974	12201
907.091	12239
907.208	12327
907.324	12190
907.441	12064
907.557	11870
907.674	11916
907.79	11866
907.907	11855
908.023	11984
908.139	11961
908.256	11897
908.372	11824
908.488	11786
908.604	11684
908.72	11661
908.836	11695
908.952	11733
909.068	11615
909.184	11832
909.3	11634
909.415	11752
909.531	11726
909.647	11425
909.762	11490
909.878	11414
909.993	11520
910.108	11471
910.224	11455
910.339	11459
910.454	11337
910.57	11288
910.685	11296
910.8	11474
910.915	11467
911.03	11337
911.145	11212
911.259	11170
911.374	11067
911.489	11121
911.604	11067
911.718	10889
911.833	10835
911.947	10782
912.062	10812
912.176	10942
912.291	10976
912.405	10892
912.519	11098
912.633	11197
912.748	10987
912.862	10991
912.976	10831
913.09	10759
913.204	10710
913.318	10767
913.431	10934
913.545	10850
913.659	10961
913.772	10824
913.886	10744
914	10675
914.113	10725
914.226	10793
914.34	10664
914.453	10683
914.566	10759
914.68	10626
914.793	10599
914.906	10402
915.019	10432
915.132	10348
915.245	10440
915.358	10440
915.47	10432
915.583	10550
915.696	10489
915.809	10584
915.921	10626
916.034	10382
916.146	10409
916.259	10306
916.371	10519
916.483	10493
916.595	10424
916.708	10360
916.82	10382
916.932	10413
917.044	10337
917.156	10344
917.268	10234
917.38	10253
917.491	10322
917.603	10249
917.715	10310
917.826	10314
917.938	10253
918.049	10124
918.161	10246
918.272	10443
918.384	10443
918.495	10310
918.606	10192
918.717	10097
918.828	10173
918.939	10200
919.05	10029
919.161	10169
919.272	9911
919.383	9975
919.494	10242
919.604	10402
919.715	10215
919.826	10131
919.936	10143
920.047	10257
920.157	10147
920.267	10367
920.378	10147
920.488	10147
920.598	10303
920.708	10440
920.818	10375
920.928	10352
921.038	10538
921.148	10474
921.258	10204
921.368	10093
921.477	10021
921.587	10002
921.697	9846
921.806	10074
921.916	9975
922.025	9736
922.134	9781
922.244	9625
922.353	9778
922.462	9675
922.571	9545
922.68	9424
922.789	9408
922.898	9401
923.007	9340
923.116	9454
923.224	9424
923.333	9374
923.442	9321
923.55	9325
923.659	9332
923.767	9302
923.876	9218
923.984	9370
924.092	9173
924.201	9260
924.309	9313
924.417	9313
924.525	9302
924.633	9222
924.741	10177
924.849	9100
924.956	9218
925.064	9036
925.172	8979
925.279	9077
925.387	9119
925.494	9089
925.602	9226
925.709	9150
925.816	9020
925.924	9104
926.031	9226
926.138	9173
926.245	9085
926.352	8941
926.459	9169
926.566	9154
926.673	9074
926.779	8944
926.886	8982
926.993	8815
927.099	8746
927.206	8697
927.312	8720
927.419	8891
927.525	8819
927.631	8853
927.737	8762
927.843	8701
927.95	8610
928.056	8731
928.162	8659
928.267	8796
928.373	9344
928.479	8842
928.585	8587
928.69	8705
928.796	8693
928.901	8655
929.007	8492
929.112	8579
929.218	8602
929.323	8552
929.428	8526
929.533	8617
929.638	8476
929.743	8461
929.848	8495
929.953	8438
930.058	8408
930.163	8279
930.267	8267
930.372	8469
930.477	8267
930.581	8514
930.685	8400
930.79	8172
930.894	8199
930.998	8225
931.103	8305
931.207	8046
931.311	7932
931.415	7986
931.519	7696
931.623	7750
