Data from test_V78500241_1915.txt Node
Date: Fri Mar 25 14:47:02 CST 2022
User: usil
Spectrometer: V785-0024
Trigger mode: 0
Integration Time (sec): 4.000000E-1
Scans to average: 1
Nonlinearity correction enabled: false
Boxcar width: 0
Storing dark spectrum: false
XAxis mode: Wavelengths
Number of Pixels in Spectrum: 1024
>>>>>Begin Spectral Data<<<<<
801.071	22097
801.214	21960
801.356	21698
801.499	21667
801.641	21545
801.783	21420
801.926	21553
802.068	21523
802.211	21348
802.353	21211
802.496	20982
802.638	20967
802.78	20971
802.923	20895
803.065	20864
803.208	20781
803.35	20842
803.492	20956
803.635	21005
803.777	20876
803.919	20857
804.061	21150
804.204	20914
804.346	20788
804.488	20678
804.63	20758
804.773	20682
804.915	20746
805.057	21001
805.199	20731
805.341	20838
805.483	20762
805.626	20739
805.768	20674
805.91	20724
806.052	20781
806.194	20670
806.336	20971
806.478	20705
806.62	20697
806.762	20746
806.904	20937
807.046	21108
807.188	20929
807.33	21009
807.472	21074
807.614	20887
807.756	20982
807.898	20880
808.04	20674
808.182	20796
808.324	20842
808.465	20826
808.607	21028
808.749	20925
808.891	21180
809.033	21272
809.174	21047
809.316	21024
809.458	21062
809.6	21108
809.741	21157
809.883	21214
810.025	21233
810.166	21203
810.308	21112
810.45	21199
810.591	21077
810.733	20937
810.875	20910
811.016	20773
811.158	20705
811.299	20933
811.441	21009
811.582	20910
811.724	20861
811.865	20830
812.007	20807
812.148	20788
812.29	20804
812.431	20963
812.573	21203
812.714	21176
812.855	21329
812.997	21530
813.138	21637
813.279	21439
813.421	21283
813.562	21351
813.703	21096
813.845	21032
813.986	20746
814.127	20400
814.268	20419
814.41	20473
814.551	20427
814.692	20545
814.833	20355
814.974	20419
815.115	20419
815.256	20225
815.397	20275
815.539	20199
815.68	20084
815.821	20077
815.962	20191
816.103	20027
816.244	19909
816.385	19894
816.526	19852
816.666	19647
816.807	19499
816.948	19571
817.089	19719
817.23	19605
817.371	19514
817.512	19616
817.653	19575
817.793	19445
817.934	19480
818.075	19586
818.216	19666
818.356	19487
818.497	19301
818.638	19282
818.778	19156
818.919	19244
819.06	19289
819.2	19320
819.341	19472
819.481	19491
819.622	19514
819.762	19590
819.903	19769
820.043	19552
820.184	19537
820.324	19537
820.465	19540
820.605	19544
820.746	19609
820.886	19354
821.026	19502
821.167	19582
821.307	19540
821.447	19499
821.588	19468
821.728	19156
821.868	19084
822.008	18905
822.149	18894
822.289	18939
822.429	18661
822.569	18578
822.709	18654
822.849	18471
822.99	18399
823.13	18346
823.27	18414
823.41	18205
823.55	18155
823.69	18296
823.83	18243
823.97	18190
824.11	18064
824.25	18003
824.389	18060
824.529	17988
824.669	18083
824.809	18060
824.949	18121
825.089	18190
825.228	17939
825.368	17851
825.508	17870
825.648	17764
825.787	17828
825.927	17726
826.067	17775
826.206	17836
826.346	17821
826.485	17836
826.625	17779
826.765	17824
826.904	17813
827.044	17581
827.183	17589
827.323	17532
827.462	17520
827.601	17520
827.741	17448
827.88	17547
828.02	17436
828.159	17467
828.298	17497
828.437	17512
828.577	17467
828.716	17566
828.855	17387
828.994	17299
829.134	17288
829.273	17353
829.412	17261
829.551	17147
829.69	17307
829.829	17311
829.968	17315
830.107	17341
830.246	17261
830.385	17086
830.524	17132
830.663	17067
830.802	16995
830.941	16904
831.08	16904
831.219	16942
831.357	16991
831.496	17086
831.635	16862
831.774	16839
831.913	16645
832.051	16694
832.19	16687
832.329	16641
832.467	16519
832.606	16569
832.744	16569
832.883	16485
833.022	16599
833.16	16538
833.299	16626
833.437	16558
833.576	16561
833.714	16584
833.852	16710
833.991	16615
834.129	16824
834.267	16664
834.406	16596
834.544	16740
834.682	16592
834.821	16713
834.959	16698
835.097	16653
835.235	16835
835.373	16611
835.511	16736
835.65	16538
835.788	16554
835.926	16474
836.064	16417
836.202	16363
836.34	16573
836.478	16580
836.615	16500
836.753	16538
836.891	16622
837.029	16641
837.167	16527
837.305	16485
837.443	16432
837.58	16447
837.718	16500
837.856	16459
837.993	16325
838.131	16428
838.269	16344
838.406	16470
838.544	16284
838.681	16063
838.819	16204
838.956	15991
839.094	16029
839.231	16021
839.369	16135
839.506	16375
839.643	16204
839.781	15994
839.918	15892
840.055	16029
840.193	15983
840.33	15850
840.467	15926
840.604	15994
840.742	16135
840.879	15873
841.016	15884
841.153	15838
841.29	16196
841.427	16002
841.564	15979
841.701	15934
841.838	15869
841.975	15842
842.112	15781
842.249	15682
842.385	15660
842.522	15884
842.659	15812
842.796	15800
842.933	15743
843.069	15652
843.206	15701
843.343	15804
843.479	15797
843.616	15656
843.752	15515
843.889	15542
844.025	15682
844.162	15576
844.298	15629
844.435	15477
844.571	15378
844.708	15542
844.844	15732
844.98	15660
845.117	15648
845.253	15538
845.389	15454
845.525	15549
845.661	15408
845.798	15367
845.934	15348
846.07	15230
846.206	15447
846.342	15454
846.478	15382
846.614	15146
846.75	15085
846.886	15009
847.022	15188
847.158	15165
847.294	15039
847.429	15188
847.565	14990
847.701	15218
847.837	14929
847.972	14811
848.108	14902
848.244	14891
848.379	14823
848.515	14777
848.65	14651
848.786	14735
848.921	14735
849.057	14792
849.192	14815
849.328	14788
849.463	14785
849.598	14746
849.734	14663
849.869	14575
850.004	14446
850.14	14457
850.275	14530
850.41	14465
850.545	14393
850.68	14393
850.815	14377
850.95	14514
851.085	14659
851.22	14530
851.355	14526
851.49	14454
851.625	14492
851.76	14511
851.895	14419
852.03	14313
852.165	14389
852.299	14526
852.434	14499
852.569	14560
852.703	14537
852.838	14697
852.973	14625
853.107	14640
853.242	14461
853.376	14309
853.511	14233
853.645	14248
853.78	14419
853.914	14309
854.048	14263
854.183	14214
854.317	14393
854.451	14526
854.585	14301
854.72	14286
854.854	14256
854.988	14202
855.122	14385
855.256	14157
855.39	14267
855.524	14393
855.658	14427
855.792	14419
855.926	14320
856.06	14362
856.194	14469
856.327	14328
856.461	14218
856.595	14256
856.729	14320
856.862	14408
856.996	14317
857.13	14370
857.263	14480
857.397	14358
857.53	14336
857.664	14488
857.797	14446
857.931	14511
858.064	14419
858.197	14442
858.331	14305
858.464	14233
858.597	14267
858.731	14298
858.864	14336
858.997	14351
859.13	14278
859.263	14404
859.396	14377
859.529	14252
859.662	14339
859.795	14290
859.928	14404
860.061	14427
860.194	14469
860.327	14343
860.46	14362
860.592	14484
860.725	14408
860.858	14473
860.99	14305
861.123	14290
861.256	14313
861.388	14385
861.521	15142
861.653	14233
861.786	14172
861.918	14210
862.05	14259
862.183	14294
862.315	14271
862.447	14393
862.58	14252
862.712	14149
862.844	14096
862.976	14176
863.108	14138
863.24	14545
863.372	14164
863.504	14092
863.636	14069
863.768	14214
863.9	14149
864.032	13993
864.164	14100
864.296	14195
864.428	14271
864.559	14259
864.691	14210
864.823	14134
864.954	14278
865.086	14123
865.217	14012
865.349	14008
865.48	14050
865.612	14084
865.743	14161
865.875	14111
866.006	14046
866.137	14103
866.269	14103
866.4	14092
866.531	14142
866.662	14035
866.793	14065
866.924	14058
867.055	14161
867.186	14126
867.317	14100
867.448	13944
867.579	13993
867.71	13959
867.841	14008
867.972	14138
868.103	14046
868.233	14054
868.364	14161
868.495	14180
868.625	14286
868.756	14400
868.886	14244
869.017	14286
869.147	14442
869.278	14438
869.408	14396
869.539	14450
869.669	14412
869.799	14385
869.929	14499
870.06	14412
870.19	14629
870.32	14575
870.45	14720
870.58	14697
870.71	14815
870.84	14830
870.97	14739
871.1	14849
871.23	14899
871.36	14826
871.489	14765
871.619	14849
871.749	14819
871.879	15013
872.008	15039
872.138	15020
872.267	14902
872.397	14819
872.526	14758
872.656	14819
872.785	14811
872.915	15020
873.044	14986
873.173	14986
873.303	14933
873.432	15070
873.561	15165
873.69	15039
873.819	14933
873.948	15028
874.077	14986
874.206	14921
874.335	14975
874.464	15142
874.593	15268
874.722	15195
874.851	15313
874.979	15374
875.108	15443
875.237	15222
875.365	15157
875.494	15439
875.623	15492
875.751	15279
875.88	15393
876.008	15496
876.136	15542
876.265	15751
876.393	15884
876.521	15842
876.65	15854
876.778	15625
876.906	15720
877.034	15614
877.162	15679
877.29	15663
877.418	15720
877.546	15732
877.674	15747
877.802	15698
877.93	15690
878.058	15675
878.185	15580
878.313	15751
878.441	15762
878.568	15519
878.696	15686
878.824	15766
878.951	15785
879.079	15926
879.206	15987
879.333	15926
879.461	15793
879.588	15781
879.715	15911
879.842	16017
879.97	15808
880.097	15561
880.224	15599
880.351	15690
880.478	15625
880.605	15557
880.732	15492
880.859	15781
880.986	15606
881.112	15561
881.239	15576
881.366	15386
881.493	15310
881.619	15252
881.746	15287
881.872	15233
881.999	15241
882.125	15211
882.252	15241
882.378	15260
882.505	15378
882.631	15135
882.757	14990
882.883	15097
883.01	15062
883.136	14963
883.262	14944
883.388	14929
883.514	15066
883.64	15051
883.766	14990
883.892	14883
884.018	14918
884.143	14971
884.269	15131
884.395	14868
884.52	14708
884.646	14758
884.772	14750
884.897	14598
885.023	14777
885.148	14800
885.274	14826
885.399	14834
885.524	14880
885.65	14830
885.775	14739
885.9	14739
886.025	14861
886.15	14830
886.275	14739
886.4	14670
886.525	14739
886.65	14693
886.775	14754
886.9	14941
887.025	14921
887.149	14826
887.274	14579
887.399	14518
887.523	14518
887.648	14545
887.773	14431
887.897	14530
888.021	14583
888.146	14644
888.27	14701
888.395	14659
888.519	14629
888.643	14530
888.767	14564
888.891	14530
889.015	14511
889.139	14473
889.263	14370
889.387	14533
889.511	14697
889.635	14533
889.759	14514
889.883	14412
890.006	14461
890.13	14446
890.254	14412
890.377	14362
890.501	14168
890.624	14191
890.748	14366
890.871	14157
890.995	14119
891.118	14123
891.241	14103
891.364	14191
891.488	14309
891.611	14103
891.734	14191
891.857	14157
891.98	14153
892.103	14221
892.226	14138
892.349	14111
892.471	14005
892.594	14100
892.717	14065
892.839	14084
892.962	14100
893.085	14157
893.207	14172
893.33	13978
893.452	14161
893.575	14275
893.697	14100
893.819	14324
893.941	14389
894.064	14191
894.186	14130
894.308	13974
894.43	14290
894.552	14362
894.674	14244
894.796	14134
894.918	14221
895.04	14176
895.161	14259
895.283	14153
895.405	14138
895.526	14267
895.648	14374
895.769	14248
895.891	14286
896.012	14290
896.134	14362
896.255	14309
896.376	14259
896.498	14294
896.619	14237
896.74	14275
896.861	14355
896.982	14674
897.103	14762
897.224	14731
897.345	14457
897.466	14522
897.587	14632
897.708	14705
897.828	14625
897.949	14549
898.07	14552
898.19	14404
898.311	14602
898.431	14621
898.552	14678
898.672	14648
898.792	14743
898.913	14686
899.033	14499
899.153	14484
899.273	14408
899.393	14484
899.513	14560
899.633	14484
899.753	14518
899.873	14423
899.993	14541
900.113	14522
900.232	14602
900.352	14484
900.472	14393
900.591	14259
900.711	14393
900.83	14328
900.95	14408
901.069	14473
901.189	14248
901.308	14065
901.427	13989
901.546	14001
901.665	14043
901.784	14005
901.904	13940
902.023	13750
902.141	13544
902.26	13639
902.379	13681
902.498	13540
902.617	13559
902.735	13670
902.854	13518
902.973	13548
903.091	13320
903.21	13236
903.328	13358
903.446	13190
903.565	13164
903.683	13255
903.801	13091
903.919	13133
904.038	13168
904.156	12954
904.274	13072
904.392	12993
904.51	12958
904.627	13061
904.745	13091
904.863	13088
904.981	12867
905.098	12662
905.216	12734
905.334	12757
905.451	12684
905.569	12684
905.686	12684
905.803	12616
905.921	12483
906.038	12570
906.155	12555
906.272	12361
906.389	12376
906.506	12330
906.623	12289
906.74	12247
906.857	12148
906.974	12251
907.091	12357
907.208	12467
907.324	12369
907.441	12190
907.557	12076
907.674	12030
907.79	11950
907.907	12026
908.023	12049
908.139	11992
908.256	11946
908.372	11977
908.488	11954
908.604	11745
908.72	11733
908.836	11878
908.952	11840
909.068	11779
909.184	11882
909.3	11767
909.415	11889
909.531	11836
909.647	11554
909.762	11486
909.878	11551
909.993	11608
910.108	11516
910.224	11497
910.339	11558
910.454	11486
910.57	11417
910.685	11353
910.8	11684
910.915	11509
911.03	11482
911.145	11193
911.259	11227
911.374	11254
911.489	11174
911.604	11166
911.718	11003
911.833	11098
911.947	10995
912.062	10786
912.176	11075
912.291	11041
912.405	10984
912.519	11220
912.633	11223
912.748	11132
912.862	11121
912.976	10850
913.09	10702
913.204	10869
913.318	10904
913.431	10980
913.545	10957
913.659	11022
913.772	10862
913.886	10881
914	10767
914.113	10847
914.226	10927
914.34	10843
914.453	10763
914.566	10896
914.68	10668
914.793	10710
914.906	10630
915.019	10535
915.132	10474
915.245	10523
915.358	10459
915.47	10615
915.583	10466
915.696	10577
915.809	10694
915.921	10740
916.034	10462
916.146	10493
916.259	10440
916.371	10535
916.483	10577
916.595	10440
916.708	10516
916.82	10485
916.932	10447
917.044	10417
917.156	10504
917.268	10272
917.38	10432
917.491	10417
917.603	10497
917.715	10455
917.826	10519
917.938	10386
918.049	10246
918.161	10436
918.272	10535
918.384	10474
918.495	10432
918.606	10211
918.717	10147
918.828	10249
918.939	10265
919.05	10162
919.161	10192
919.272	10013
919.383	10082
919.494	10261
919.604	10481
919.715	10287
919.826	10188
919.936	10253
920.047	10375
920.157	10341
920.267	10417
920.378	10280
920.488	10253
920.598	10424
920.708	10474
920.818	10512
920.928	10314
921.038	10653
921.148	10592
921.258	10291
921.368	10196
921.477	10139
921.587	10185
921.697	10002
921.806	10204
921.916	9998
922.025	9831
922.134	9804
922.244	9800
922.353	9865
922.462	9660
922.571	9720
922.68	9549
922.789	9538
922.898	9507
923.007	9447
923.116	9492
923.224	9553
923.333	9576
923.442	9378
923.55	9302
923.659	9408
923.767	9386
923.876	9359
923.984	9408
924.092	9298
924.201	9313
924.309	9393
924.417	9397
924.525	9272
924.633	9321
924.741	10238
924.849	9138
924.956	9332
925.064	9112
925.172	9070
925.279	9070
925.387	9173
925.494	9131
925.602	9260
925.709	9241
925.816	9039
925.924	9135
926.031	9272
926.138	9176
926.245	9207
926.352	9043
926.459	9199
926.566	9256
926.673	9123
926.779	9024
926.886	8914
926.993	8826
927.099	8853
927.206	8849
927.312	8792
927.419	8830
927.525	8826
927.631	8967
927.737	8838
927.843	8773
927.95	8640
928.056	8735
928.162	8754
928.267	8754
928.373	9431
928.479	8834
928.585	8693
928.69	8743
928.796	8739
928.901	8640
929.007	8579
929.112	8648
929.218	8632
929.323	8590
929.428	8537
929.533	8762
929.638	8469
929.743	8518
929.848	8610
929.953	8621
930.058	8412
930.163	8294
930.267	8294
930.372	8571
930.477	8320
930.581	8526
930.685	8412
930.79	8259
930.894	8336
930.998	8279
931.103	8450
931.207	8187
931.311	8046
931.415	7982
931.519	7807
931.623	7803
