Data from test_V78500241_1495.txt Node
Date: Fri Mar 25 14:44:07 CST 2022
User: usil
Spectrometer: V785-0024
Trigger mode: 0
Integration Time (sec): 4.000000E-1
Scans to average: 1
Nonlinearity correction enabled: false
Boxcar width: 0
Storing dark spectrum: false
XAxis mode: Wavelengths
Number of Pixels in Spectrum: 1024
>>>>>Begin Spectral Data<<<<<
801.071	22417
801.214	22291
801.356	22105
801.499	21960
801.641	21888
801.783	21827
801.926	21720
802.068	21842
802.211	21675
802.353	21599
802.496	21306
802.638	21397
802.78	21237
802.923	21154
803.065	21173
803.208	21062
803.35	21119
803.492	21188
803.635	21287
803.777	21127
803.919	21260
804.061	21492
804.204	21150
804.346	21165
804.488	21043
804.63	21070
804.773	20998
804.915	21024
805.057	21150
805.199	21066
805.341	21043
805.483	21199
805.626	21096
805.768	20929
805.91	21043
806.052	21036
806.194	21100
806.336	21291
806.478	21112
806.62	20963
806.762	21001
806.904	21272
807.046	21401
807.188	21447
807.33	21462
807.472	21534
807.614	21439
807.756	21401
807.898	21348
808.04	21081
808.182	21325
808.324	21294
808.465	21416
808.607	21538
808.749	21610
808.891	21694
809.033	21934
809.174	21606
809.316	21610
809.458	21568
809.6	21492
809.741	21538
809.883	21595
810.025	21720
810.166	21583
810.308	21614
810.45	21701
810.591	21542
810.733	21424
810.875	21321
811.016	21146
811.158	21207
811.299	21302
811.441	21351
811.582	21340
811.724	21355
811.865	21195
812.007	21142
812.148	21173
812.29	21389
812.431	21473
812.573	21515
812.714	21671
812.855	21724
812.997	21728
813.138	21953
813.279	21827
813.421	21720
813.562	21671
813.703	21504
813.845	21359
813.986	21058
814.127	20994
814.268	20861
814.41	20880
814.551	20864
814.692	20952
814.833	20758
814.974	20716
815.115	20811
815.256	20564
815.397	20640
815.539	20571
815.68	20492
815.821	20522
815.962	20613
816.103	20480
816.244	20415
816.385	20336
816.526	20374
816.666	20084
816.807	19856
816.948	20039
817.089	20035
817.23	20020
817.371	19913
817.512	19947
817.653	20024
817.793	20043
817.934	19986
818.075	19902
818.216	20050
818.356	19807
818.497	19784
818.638	19674
818.778	19658
818.919	19635
819.06	19715
819.2	19704
819.341	19868
819.481	19826
819.622	19997
819.762	20065
819.903	20043
820.043	19936
820.184	19959
820.324	19932
820.465	19993
820.605	19906
820.746	19841
820.886	19742
821.026	19928
821.167	19723
821.307	19925
821.447	19879
821.588	19753
821.728	19677
821.868	19521
822.008	19388
822.149	19240
822.289	19339
822.429	19122
822.569	19027
822.709	18833
822.849	18871
822.99	18806
823.13	18798
823.27	18795
823.41	18574
823.55	18509
823.69	18665
823.83	18612
823.97	18513
824.11	18365
824.25	18330
824.389	18384
824.529	18445
824.669	18441
824.809	18407
824.949	18433
825.089	18418
825.228	18460
825.368	18247
825.508	18167
825.648	18213
825.787	18266
825.927	18262
826.067	18140
826.206	18102
826.346	18216
826.485	18308
826.625	18121
826.765	18121
826.904	18209
827.044	17973
827.183	17893
827.323	17802
827.462	17916
827.601	17843
827.741	17965
827.88	17809
828.02	17790
828.159	17722
828.298	17893
828.437	17904
828.577	17863
828.716	17973
828.855	17741
828.994	17505
829.134	17630
829.273	17562
829.412	17524
829.551	17596
829.69	17543
829.829	17611
829.968	17668
830.107	17703
830.246	17608
830.385	17490
830.524	17554
830.663	17417
830.802	17273
830.941	17155
831.08	17280
831.219	17220
831.357	17322
831.496	17288
831.635	17181
831.774	17189
831.913	17117
832.051	16965
832.19	17014
832.329	17105
832.467	16896
832.606	16866
832.744	16904
832.883	16915
833.022	16835
833.16	16938
833.299	16858
833.437	16908
833.576	17064
833.714	16919
833.852	17018
833.991	16942
834.129	16999
834.267	16995
834.406	17041
834.544	16873
834.682	16961
834.821	16927
834.959	17041
835.097	16847
835.235	17037
835.373	16938
835.511	16999
835.65	16824
835.788	16820
835.926	16687
836.064	16759
836.202	16729
836.34	16873
836.478	16984
836.615	16774
836.753	16793
836.891	16908
837.029	16854
837.167	16717
837.305	16736
837.443	16687
837.58	16702
837.718	16873
837.856	16839
837.993	16717
838.131	16675
838.269	16672
838.406	16649
838.544	16493
838.681	16379
838.819	16329
838.956	16234
839.094	16291
839.231	16246
839.369	16394
839.506	16618
839.643	16428
839.781	16242
839.918	16257
840.055	16226
840.193	16219
840.33	16135
840.467	16188
840.604	16287
840.742	16436
840.879	16128
841.016	16101
841.153	16188
841.29	16219
841.427	16272
841.564	16211
841.701	16314
841.838	16154
841.975	16131
842.112	16223
842.249	16071
842.385	15895
842.522	16249
842.659	16090
842.796	15991
842.933	16040
843.069	15899
843.206	15964
843.343	16093
843.479	16021
843.616	15979
843.752	15827
843.889	15751
844.025	15960
844.162	15850
844.298	15922
844.435	15850
844.571	15732
844.708	15941
844.844	15895
844.98	16051
845.117	15964
845.253	15888
845.389	15766
845.525	15808
845.661	15819
845.798	15781
845.934	15926
846.07	15781
846.206	15892
846.342	15987
846.478	15724
846.614	15397
846.75	15329
846.886	15374
847.022	15523
847.158	15492
847.294	15336
847.429	15344
847.565	15291
847.701	15534
847.837	15062
847.972	15104
848.108	15237
848.244	15237
848.379	14925
848.515	15077
848.65	15009
848.786	14937
848.921	14925
849.057	15028
849.192	15127
849.328	15047
849.463	15039
849.598	14937
849.734	14979
849.869	14811
850.004	14792
850.14	14811
850.275	14689
850.41	14712
850.545	14735
850.68	14701
850.815	14781
850.95	14712
851.085	14956
851.22	14743
851.355	14792
851.49	14648
851.625	14629
851.76	14724
851.895	14621
852.03	14613
852.165	14674
852.299	14788
852.434	14857
852.569	14887
852.703	14880
852.838	14762
852.973	14861
853.107	14895
853.242	14682
853.376	14636
853.511	14503
853.645	14537
853.78	14754
853.914	14613
854.048	14598
854.183	14686
854.317	14598
854.451	14819
854.585	14606
854.72	14632
854.854	14750
854.988	14530
855.122	14606
855.256	14457
855.39	14670
855.524	14651
855.658	14610
855.792	14598
855.926	14705
856.06	14644
856.194	14720
856.327	14594
856.461	14495
856.595	14560
856.729	14575
856.862	14765
856.996	14678
857.13	14621
857.263	14648
857.397	14655
857.53	14552
857.664	14587
857.797	14667
857.931	14724
858.064	14602
858.197	14731
858.331	14560
858.464	14530
858.597	14457
858.731	14522
858.864	14583
858.997	14545
859.13	14629
859.263	14632
859.396	14606
859.529	14659
859.662	14598
859.795	14488
859.928	14708
860.061	14807
860.194	14716
860.327	14545
860.46	14663
860.592	14762
860.725	14750
860.858	14735
860.99	14594
861.123	14514
861.256	14579
861.388	14632
861.521	15203
861.653	14613
861.786	14427
861.918	14465
862.05	14545
862.183	14526
862.315	14587
862.447	14693
862.58	14541
862.712	14385
862.844	14278
862.976	14503
863.108	14484
863.24	14743
863.372	14240
863.504	14408
863.636	14377
863.768	14355
863.9	14377
864.032	14301
864.164	14343
864.296	14366
864.428	14495
864.559	14465
864.691	14511
864.823	14396
864.954	14431
865.086	14393
865.217	14358
865.349	14244
865.48	14362
865.612	14324
865.743	14476
865.875	14313
866.006	14370
866.137	14263
866.269	14320
866.4	14278
866.531	14404
866.662	14294
866.793	14343
866.924	14271
867.055	14381
867.186	14317
867.317	14351
867.448	14248
867.579	14347
867.71	14313
867.841	14263
867.972	14290
868.103	14389
868.233	14336
868.364	14415
868.495	14404
868.625	14522
868.756	14613
868.886	14473
869.017	14583
869.147	14663
869.278	14621
869.408	14617
869.539	14640
869.669	14640
869.799	14625
869.929	14777
870.06	14750
870.19	14941
870.32	14948
870.45	15024
870.58	15074
870.71	15104
870.84	15165
870.97	15024
871.1	15036
871.23	15207
871.36	15131
871.489	15142
871.619	15131
871.749	15154
871.879	15355
872.008	15348
872.138	15241
872.267	15222
872.397	15062
872.526	15009
872.656	14948
872.785	15104
872.915	15173
873.044	15245
873.173	15173
873.303	15332
873.432	15173
873.561	15245
873.69	15176
873.819	15310
873.948	15386
874.077	15306
874.206	15241
874.335	15249
874.464	15359
874.593	15405
874.722	15481
874.851	15485
874.979	15587
875.108	15606
875.237	15595
875.365	15477
875.494	15500
875.623	15709
875.751	15496
875.88	15603
876.008	15675
876.136	15743
876.265	16029
876.393	16074
876.521	16063
876.65	16082
876.778	15941
876.906	15918
877.034	15869
877.162	15964
877.29	15895
877.418	16017
877.546	15972
877.674	15975
877.802	15934
877.93	16040
878.058	15915
878.185	15846
878.313	16021
878.441	16074
878.568	15747
878.696	15956
878.824	16036
878.951	16128
879.079	16276
879.206	16371
879.333	16284
879.461	16124
879.588	16226
879.715	16360
879.842	16322
879.97	16124
880.097	15983
880.224	15899
880.351	15835
880.478	15960
880.605	15854
880.732	15766
880.859	16131
880.986	15854
881.112	15873
881.239	15804
881.366	15568
881.493	15564
881.619	15492
881.746	15496
881.872	15477
881.999	15466
882.125	15580
882.252	15523
882.378	15534
882.505	15694
882.631	15485
882.757	15287
882.883	15412
883.01	15367
883.136	15272
883.262	15184
883.388	15203
883.514	15367
883.64	15279
883.766	15233
883.892	15017
884.018	15112
884.143	15203
884.269	15325
884.395	15062
884.52	14982
884.646	15077
884.772	14975
884.897	14979
885.023	15104
885.148	15135
885.274	15161
885.399	15150
885.524	15028
885.65	15036
885.775	15070
885.9	15036
886.025	15146
886.15	14986
886.275	14990
886.4	14830
886.525	14979
886.65	14921
886.775	14941
886.9	15123
887.025	15256
887.149	15051
887.274	14849
887.399	14857
887.523	14906
887.648	14754
887.773	14716
887.897	14842
888.021	14937
888.146	14792
888.27	14861
888.395	14925
888.519	14925
888.643	14830
888.767	14914
888.891	14708
889.015	14693
889.139	14716
889.263	14651
889.387	14785
889.511	14830
889.635	14826
889.759	14613
889.883	14697
890.006	14758
890.13	14853
890.254	14610
890.377	14625
890.501	14556
890.624	14434
890.748	14594
890.871	14442
890.995	14351
891.118	14298
891.241	14396
891.364	14290
891.488	14469
891.611	14332
891.734	14286
891.857	14419
891.98	14389
892.103	14393
892.226	14427
892.349	14423
892.471	14202
892.594	14282
892.717	14221
892.839	14412
892.962	14355
893.085	14412
893.207	14400
893.33	14206
893.452	14366
893.575	14377
893.697	14282
893.819	14495
893.941	14514
894.064	14492
894.186	14294
894.308	14328
894.43	14461
894.552	14495
894.674	14492
894.796	14339
894.918	14438
895.04	14351
895.161	14484
895.283	14492
895.405	14282
895.526	14400
895.648	14495
895.769	14526
895.891	14549
896.012	14530
896.134	14533
896.255	14594
896.376	14446
896.498	14514
896.619	14583
896.74	14526
896.861	14625
896.982	14914
897.103	15070
897.224	14819
897.345	14830
897.466	14750
897.587	14758
897.708	14804
897.828	14792
897.949	14823
898.07	14667
898.19	14804
898.311	14956
898.431	14887
898.552	14918
898.672	15009
898.792	14925
898.913	14914
899.033	14807
899.153	14868
899.273	14621
899.393	14708
899.513	14727
899.633	14765
899.753	14758
899.873	14754
899.993	14758
900.113	14735
900.232	14792
900.352	14678
900.472	14644
900.591	14610
900.711	14667
900.83	14575
900.95	14712
901.069	14727
901.189	14530
901.308	14385
901.427	14210
901.546	14259
901.665	14168
901.784	14317
901.904	14187
902.023	14069
902.141	13845
902.26	13826
902.379	13864
902.498	13799
902.617	13822
902.735	13875
902.854	13833
902.973	13738
903.091	13620
903.21	13514
903.328	13548
903.446	13525
903.565	13392
903.683	13388
903.801	13244
903.919	13331
904.038	13327
904.156	13304
904.274	13168
904.392	13232
904.51	13129
904.627	13198
904.745	13282
904.863	13259
904.981	12989
905.098	12882
905.216	12863
905.334	12916
905.451	12951
905.569	12875
905.686	12916
905.803	12886
905.921	12730
906.038	12787
906.155	12654
906.272	12631
906.389	12662
906.506	12479
906.623	12506
906.74	12395
906.857	12399
906.974	12433
907.091	12483
907.208	12627
907.324	12513
907.441	12376
907.557	12186
907.674	12300
907.79	12144
907.907	12190
908.023	12266
908.139	12220
908.256	12159
908.372	12083
908.488	12182
908.604	11999
908.72	11824
908.836	12011
908.952	11961
909.068	11996
909.184	12026
909.3	11977
909.415	12045
909.531	11912
909.647	11779
909.762	11764
909.878	11581
909.993	11851
910.108	11672
910.224	11680
910.339	11680
910.454	11649
910.57	11596
910.685	11657
910.8	11805
910.915	11741
911.03	11649
911.145	11433
911.259	11467
911.374	11398
911.489	11387
911.604	11258
911.718	11170
911.833	11159
911.947	11124
912.062	11003
912.176	11128
912.291	11220
912.405	11155
912.519	11345
912.633	11353
912.748	11296
912.862	11239
912.976	11090
913.09	10961
913.204	11018
913.318	11022
913.431	11239
913.545	11185
913.659	11185
913.772	11037
913.886	10991
914	10961
914.113	11041
914.226	11086
914.34	11117
914.453	10938
914.566	11029
914.68	10866
914.793	10965
914.906	10748
915.019	10714
915.132	10656
915.245	10675
915.358	10660
915.47	10729
915.583	10687
915.696	10797
915.809	10790
915.921	10847
916.034	10603
916.146	10645
916.259	10634
916.371	10706
916.483	10675
916.595	10569
916.708	10744
916.82	10702
916.932	10565
917.044	10573
917.156	10599
917.268	10470
917.38	10588
917.491	10466
917.603	10596
917.715	10561
917.826	10672
917.938	10550
918.049	10356
918.161	10459
918.272	10668
918.384	10592
918.495	10527
918.606	10398
918.717	10257
918.828	10451
918.939	10382
919.05	10272
919.161	10363
919.272	10147
919.383	10329
919.494	10447
919.604	10596
919.715	10478
919.826	10322
919.936	10379
920.047	10497
920.157	10466
920.267	10641
920.378	10421
920.488	10371
920.598	10573
920.708	10767
920.818	10504
920.928	10592
921.038	10839
921.148	10714
921.258	10424
921.368	10352
921.477	10268
921.587	10272
921.697	10143
921.806	10265
921.916	10150
922.025	10025
922.134	9987
922.244	9915
922.353	9991
922.462	9789
922.571	9751
922.68	9690
922.789	9644
922.898	9671
923.007	9561
923.116	9667
923.224	9648
923.333	9633
923.442	9492
923.55	9367
923.659	9519
923.767	9515
923.876	9488
923.984	9595
924.092	9439
924.201	9511
924.309	9496
924.417	9458
924.525	9496
924.633	9481
924.741	10394
924.849	9287
924.956	9386
925.064	9329
925.172	9154
925.279	9211
925.387	9294
925.494	9344
925.602	9386
925.709	9408
925.816	9211
925.924	9310
926.031	9321
926.138	9298
926.245	9340
926.352	9226
926.459	9370
926.566	9397
926.673	9279
926.779	9165
926.886	9100
926.993	8994
927.099	9020
927.206	8963
927.312	8941
927.419	9089
927.525	8960
927.631	9009
927.737	8975
927.843	8872
927.95	8815
928.056	8914
928.162	8838
928.267	8925
928.373	9587
928.479	8914
928.585	8766
928.69	8914
928.796	8918
928.901	8826
929.007	8693
929.112	8727
929.218	8781
929.323	8701
929.428	8724
929.533	8853
929.638	8640
929.743	8697
929.848	8758
929.953	8689
930.058	8610
930.163	8454
930.267	8442
930.372	8651
930.477	8431
930.581	8693
930.685	8522
930.79	8461
930.894	8465
930.998	8408
931.103	8564
931.207	8176
931.311	8088
931.415	8062
931.519	7906
931.623	7883
