Data from test_V78500241_1202.txt Node
Date: Fri Mar 25 14:42:05 CST 2022
User: usil
Spectrometer: V785-0024
Trigger mode: 0
Integration Time (sec): 4.000000E-1
Scans to average: 1
Nonlinearity correction enabled: false
Boxcar width: 0
Storing dark spectrum: false
XAxis mode: Wavelengths
Number of Pixels in Spectrum: 1024
>>>>>Begin Spectral Data<<<<<
801.071	22405
801.214	22230
801.356	22090
801.499	21964
801.641	21785
801.783	21797
801.926	21816
802.068	21720
802.211	21717
802.353	21591
802.496	21256
802.638	21275
802.78	21321
802.923	21241
803.065	21066
803.208	21184
803.35	21184
803.492	21165
803.635	21268
803.777	21096
803.919	21119
804.061	21447
804.204	21199
804.346	20994
804.488	21024
804.63	21127
804.773	21074
804.915	21070
805.057	21161
805.199	21074
805.341	21135
805.483	21077
805.626	21157
805.768	21036
805.91	20994
806.052	21020
806.194	21047
806.336	21218
806.478	21195
806.62	21104
806.762	21123
806.904	21199
807.046	21367
807.188	21473
807.33	21374
807.472	21294
807.614	21226
807.756	21443
807.898	21287
808.04	21070
808.182	21119
808.324	21214
808.465	21230
808.607	21279
808.749	21496
808.891	21724
809.033	21705
809.174	21576
809.316	21401
809.458	21443
809.6	21378
809.741	21511
809.883	21564
810.025	21618
810.166	21641
810.308	21583
810.45	21610
810.591	21488
810.733	21336
810.875	21195
811.016	21138
811.158	21192
811.299	21184
811.441	21488
811.582	21317
811.724	21279
811.865	21207
812.007	21218
812.148	21222
812.29	21241
812.431	21488
812.573	21599
812.714	21477
812.855	21686
812.997	21846
813.138	21945
813.279	21766
813.421	21736
813.562	21583
813.703	21450
813.845	21431
813.986	21116
814.127	20925
814.268	20777
814.41	20819
814.551	20819
814.692	20872
814.833	20727
814.974	20796
815.115	20621
815.256	20678
815.397	20583
815.539	20632
815.68	20404
815.821	20339
815.962	20492
816.103	20423
816.244	20282
816.385	20298
816.526	20157
816.666	20161
816.807	19974
816.948	19997
817.089	20039
817.23	19959
817.371	19913
817.512	20005
817.653	19989
817.793	19841
817.934	19864
818.075	19928
818.216	19887
818.356	19841
818.497	19757
818.638	19559
818.778	19597
818.919	19731
819.06	19708
819.2	19879
819.341	19784
819.481	19746
819.622	19955
819.762	20043
819.903	20024
820.043	20016
820.184	19875
820.324	19967
820.465	20031
820.605	20001
820.746	19803
820.886	19765
821.026	19879
821.167	19875
821.307	19982
821.447	19719
821.588	19704
821.728	19495
821.868	19419
822.008	19327
822.149	19327
822.289	19236
822.429	19072
822.569	19038
822.709	18947
822.849	18863
822.99	18779
823.13	18738
823.27	18779
823.41	18601
823.55	18570
823.69	18642
823.83	18582
823.97	18582
824.11	18441
824.25	18395
824.389	18456
824.529	18441
824.669	18388
824.809	18544
824.949	18448
825.089	18490
825.228	18391
825.368	18072
825.508	18220
825.648	18117
825.787	18201
825.927	18319
826.067	18213
826.206	18216
826.346	18152
826.485	18133
826.625	18182
826.765	18197
826.904	18194
827.044	17923
827.183	17889
827.323	17809
827.462	17973
827.601	17840
827.741	17828
827.88	17920
828.02	17741
828.159	17832
828.298	17950
828.437	17996
828.577	17821
828.716	18019
828.855	17863
828.994	17802
829.134	17623
829.273	17653
829.412	17619
829.551	17478
829.69	17547
829.829	17649
829.968	17802
830.107	17630
830.246	17718
830.385	17649
830.524	17490
830.663	17425
830.802	17433
830.941	17258
831.08	17231
831.219	17223
831.357	17341
831.496	17520
831.635	17242
831.774	17197
831.913	17185
832.051	17022
832.19	16984
832.329	17166
832.467	17060
832.606	16850
832.744	16972
832.883	16965
833.022	16923
833.16	16961
833.299	17048
833.437	16980
833.576	16915
833.714	17006
833.852	17033
833.991	17037
834.129	17132
834.267	17109
834.406	16995
834.544	17029
834.682	17048
834.821	16957
834.959	17181
835.097	16934
835.235	17132
835.373	17022
835.511	16961
835.65	16816
835.788	16790
835.926	16812
836.064	16649
836.202	16824
836.34	16934
836.478	16957
836.615	16885
836.753	16889
836.891	17006
837.029	17033
837.167	16987
837.305	16831
837.443	16866
837.58	16774
837.718	16820
837.856	16824
837.993	16771
838.131	16786
838.269	16694
838.406	16706
838.544	16767
838.681	16497
838.819	16436
838.956	16322
839.094	16382
839.231	16322
839.369	16402
839.506	16687
839.643	16558
839.781	16440
839.918	16310
840.055	16394
840.193	16352
840.33	16344
840.467	16356
840.604	16322
840.742	16691
840.879	16295
841.016	16177
841.153	16230
841.29	16386
841.427	16417
841.564	16310
841.701	16367
841.838	16409
841.975	16284
842.112	16147
842.249	16131
842.385	16154
842.522	16295
842.659	16086
842.796	16169
842.933	16093
843.069	15960
843.206	16109
843.343	16090
843.479	16120
843.616	16143
843.752	15850
843.889	15880
844.025	16128
844.162	15922
844.298	16013
844.435	15934
844.571	15797
844.708	15903
844.844	16002
844.98	15994
845.117	15979
845.253	15876
845.389	15770
845.525	15808
845.661	15850
845.798	15835
845.934	15831
846.07	15762
846.206	15831
846.342	15888
846.478	15709
846.614	15572
846.75	15545
846.886	15542
847.022	15595
847.158	15515
847.294	15504
847.429	15542
847.565	15443
847.701	15660
847.837	15268
847.972	15207
848.108	15317
848.244	15291
848.379	15135
848.515	15043
848.65	15093
848.786	15051
848.921	15043
849.057	15176
849.192	15150
849.328	15154
849.463	15108
849.598	14990
849.734	15005
849.869	14952
850.004	14849
850.14	14910
850.275	14883
850.41	14853
850.545	14682
850.68	14830
850.815	14910
850.95	14758
851.085	15001
851.22	14750
851.355	14792
851.49	14785
851.625	14788
851.76	14754
851.895	14769
852.03	14845
852.165	14876
852.299	14807
852.434	14925
852.569	14785
852.703	14941
852.838	14872
852.973	15005
853.107	14963
853.242	14811
853.376	14811
853.511	14651
853.645	14590
853.78	14838
853.914	14762
854.048	14621
854.183	14632
854.317	14632
854.451	14845
854.585	14686
854.72	14613
854.854	14708
854.988	14667
855.122	14659
855.256	14492
855.39	14693
855.524	14762
855.658	14804
855.792	14705
855.926	14792
856.06	14667
856.194	14792
856.327	14693
856.461	14693
856.595	14564
856.729	14594
856.862	14864
856.996	14663
857.13	14781
857.263	14868
857.397	14785
857.53	14743
857.664	14754
857.797	14777
857.931	14788
858.064	14667
858.197	14861
858.331	14712
858.464	14590
858.597	14541
858.731	14773
858.864	14655
858.997	14689
859.13	14701
859.263	14743
859.396	14785
859.529	14648
859.662	14693
859.795	14629
859.928	14663
860.061	14807
860.194	14830
860.327	14758
860.46	14644
860.592	14830
860.725	14842
860.858	14838
860.99	14686
861.123	14686
861.256	14674
861.388	14651
861.521	15401
861.653	14587
861.786	14503
861.918	14598
862.05	14560
862.183	14545
862.315	14644
862.447	14777
862.58	14651
862.712	14488
862.844	14347
862.976	14526
863.108	14545
863.24	14906
863.372	14381
863.504	14404
863.636	14480
863.768	14541
863.9	14393
864.032	14400
864.164	14469
864.296	14537
864.428	14560
864.559	14583
864.691	14560
864.823	14465
864.954	14492
865.086	14526
865.217	14419
865.349	14412
865.48	14530
865.612	14526
865.743	14651
865.875	14473
866.006	14366
866.137	14412
866.269	14431
866.4	14514
866.531	14450
866.662	14419
866.793	14412
866.924	14408
867.055	14503
867.186	14400
867.317	14374
867.448	14442
867.579	14332
867.71	14381
867.841	14317
867.972	14476
868.103	14415
868.233	14488
868.364	14446
868.495	14511
868.625	14667
868.756	14773
868.886	14514
869.017	14625
869.147	14845
869.278	14872
869.408	14750
869.539	14720
869.669	14785
869.799	14743
869.929	14781
870.06	14819
870.19	15020
870.32	14975
870.45	15005
870.58	14990
870.71	15070
870.84	15268
870.97	15074
871.1	15058
871.23	15222
871.36	15351
871.489	15146
871.619	15249
871.749	15230
871.879	15359
872.008	15428
872.138	15370
872.267	15260
872.397	15214
872.526	15058
872.656	15176
872.785	15093
872.915	15325
873.044	15313
873.173	15317
873.303	15355
873.432	15359
873.561	15485
873.69	15317
873.819	15393
873.948	15428
874.077	15302
874.206	15351
874.335	15458
874.464	15389
874.593	15576
874.722	15534
874.851	15675
874.979	15717
875.108	15667
875.237	15637
875.365	15584
875.494	15644
875.623	15743
875.751	15629
875.88	15762
876.008	15781
876.136	15842
876.265	15968
876.393	16173
876.521	16067
876.65	16147
876.778	16101
876.906	16044
877.034	15972
877.162	16090
877.29	16040
877.418	16051
877.546	16074
877.674	16017
877.802	16093
877.93	15987
878.058	16082
878.185	16013
878.313	16006
878.441	16059
878.568	15899
878.696	15998
878.824	16116
878.951	16112
879.079	16295
879.206	16394
879.333	16242
879.461	16128
879.588	16177
879.715	16268
879.842	16310
879.97	16207
880.097	16101
880.224	15785
880.351	16017
880.478	15869
880.605	15823
880.732	15865
880.859	16147
880.986	15907
881.112	15892
881.239	15781
881.366	15641
881.493	15534
881.619	15637
881.746	15530
881.872	15599
881.999	15496
882.125	15587
882.252	15660
882.378	15603
882.505	15766
882.631	15584
882.757	15340
882.883	15405
883.01	15393
883.136	15302
883.262	15268
883.388	15249
883.514	15382
883.64	15428
883.766	15416
883.892	15131
884.018	15207
884.143	15405
884.269	15561
884.395	15188
884.52	15039
884.646	15108
884.772	14967
884.897	14986
885.023	15066
885.148	15207
885.274	15237
885.399	15275
885.524	15017
885.65	15070
885.775	15081
885.9	15062
886.025	15203
886.15	15192
886.275	15051
886.4	14960
886.525	15013
886.65	15070
886.775	15058
886.9	15348
887.025	15310
887.149	15043
887.274	14941
887.399	14830
887.523	14792
887.648	14868
887.773	14819
887.897	14933
888.021	14956
888.146	14921
888.27	15001
888.395	15093
888.519	14982
888.643	14918
888.767	14921
888.891	14811
889.015	14800
889.139	14868
889.263	14731
889.387	14902
889.511	14925
889.635	14906
889.759	14746
889.883	14769
890.006	14762
890.13	14876
890.254	14682
890.377	14773
890.501	14419
890.624	14537
890.748	14594
890.871	14488
890.995	14396
891.118	14374
891.241	14511
891.364	14552
891.488	14503
891.611	14469
891.734	14511
891.857	14514
891.98	14583
892.103	14587
892.226	14438
892.349	14480
892.471	14336
892.594	14438
892.717	14522
892.839	14488
892.962	14423
893.085	14457
893.207	14427
893.33	14317
893.452	14313
893.575	14530
893.697	14503
893.819	14686
893.941	14693
894.064	14526
894.186	14454
894.308	14381
894.43	14545
894.552	14720
894.674	14621
894.796	14358
894.918	14503
895.04	14465
895.161	14625
895.283	14594
895.405	14492
895.526	14530
895.648	14587
895.769	14503
895.891	14590
896.012	14667
896.134	14746
896.255	14564
896.376	14526
896.498	14537
896.619	14674
896.74	14568
896.861	14765
896.982	14883
897.103	15131
897.224	14941
897.345	14933
897.466	14686
897.587	14845
897.708	14925
897.828	14891
897.949	14826
898.07	14804
898.19	14762
898.311	14994
898.431	14895
898.552	15047
898.672	15108
898.792	15020
898.913	15062
899.033	14937
899.153	14743
899.273	14731
899.393	14727
899.513	14758
899.633	14857
899.753	14743
899.873	14781
899.993	14872
900.113	14823
900.232	14807
900.352	14842
900.472	14731
900.591	14648
900.711	14583
900.83	14625
900.95	14708
901.069	14777
901.189	14602
901.308	14351
901.427	14252
901.546	14263
901.665	14252
901.784	14252
901.904	14164
902.023	14134
902.141	13917
902.26	13906
902.379	13890
902.498	13860
902.617	13879
902.735	13928
902.854	13936
902.973	13784
903.091	13628
903.21	13605
903.328	13514
903.446	13548
903.565	13403
903.683	13476
903.801	13430
903.919	13369
904.038	13297
904.156	13259
904.274	13346
904.392	13339
904.51	13190
904.627	13240
904.745	13316
904.863	13285
904.981	13023
905.098	13065
905.216	12985
905.334	13008
905.451	13012
905.569	12829
905.686	12951
905.803	13027
905.921	12783
906.038	12745
906.155	12757
906.272	12608
906.389	12707
906.506	12532
906.623	12555
906.74	12608
906.857	12467
906.974	12391
907.091	12631
907.208	12635
907.324	12502
907.441	12509
907.557	12300
907.674	12323
907.79	12175
907.907	12311
908.023	12270
908.139	12304
908.256	12201
908.372	12273
908.488	12186
908.604	12026
908.72	12102
908.836	12076
908.952	11999
909.068	12034
909.184	12114
909.3	12053
909.415	12091
909.531	12125
909.647	11809
909.762	11832
909.878	11737
909.993	11813
910.108	11817
910.224	11680
910.339	11855
910.454	11798
910.57	11562
910.685	11585
910.8	11836
910.915	11741
911.03	11661
911.145	11551
911.259	11444
911.374	11509
911.489	11356
911.604	11383
911.718	11315
911.833	11353
911.947	11143
912.062	11048
912.176	11254
912.291	11261
912.405	11174
912.519	11474
912.633	11455
912.748	11387
912.862	11299
912.976	11132
913.09	11006
913.204	11075
913.318	11140
913.431	11269
913.545	11334
913.659	11254
913.772	11166
913.886	11056
914	11014
914.113	11140
914.226	11105
914.34	11006
914.453	10991
914.566	11128
914.68	10968
914.793	10889
914.906	10782
915.019	10790
915.132	10641
915.245	10744
915.358	10710
915.47	10748
915.583	10911
915.696	10725
915.809	10892
915.921	10961
916.034	10752
916.146	10809
916.259	10656
916.371	10828
916.483	10816
916.595	10618
916.708	10694
916.82	10675
916.932	10664
917.044	10664
917.156	10656
917.268	10527
917.38	10588
917.491	10592
917.603	10592
917.715	10607
917.826	10664
917.938	10615
918.049	10493
918.161	10546
918.272	10710
918.384	10660
918.495	10535
918.606	10405
918.717	10333
918.828	10466
918.939	10474
919.05	10413
919.161	10519
919.272	10219
919.383	10310
919.494	10519
919.604	10637
919.715	10459
919.826	10432
919.936	10390
920.047	10504
920.157	10428
920.267	10656
920.378	10363
920.488	10443
920.598	10672
920.708	10877
920.818	10668
920.928	10599
921.038	10847
921.148	10774
921.258	10417
921.368	10405
921.477	10329
921.587	10322
921.697	10166
921.806	10325
921.916	10162
922.025	10055
922.134	9941
922.244	9983
922.353	10074
922.462	9911
922.571	9865
922.68	9679
922.789	9603
922.898	9675
923.007	9652
923.116	9762
923.224	9599
923.333	9622
923.442	9584
923.55	9538
923.659	9656
923.767	9629
923.876	9507
923.984	9595
924.092	9492
924.201	9599
924.309	9557
924.417	9523
924.525	9496
924.633	9507
924.741	10318
924.849	9325
924.956	9443
925.064	9355
925.172	9256
925.279	9298
925.387	9412
925.494	9382
925.602	9492
925.709	9466
925.816	9241
925.924	9363
926.031	9416
926.138	9428
926.245	9386
926.352	9222
926.459	9378
926.566	9477
926.673	9329
926.779	9226
926.886	9214
926.993	9104
927.099	9093
927.206	9062
927.312	9036
927.419	9199
927.525	9081
927.631	9173
927.737	8971
927.843	8956
927.95	8910
928.056	8914
928.162	8994
928.267	9039
928.373	9660
928.479	8986
928.585	8792
928.69	8872
928.796	9005
928.901	8811
929.007	8743
929.112	8849
929.218	8857
929.323	8792
929.428	8743
929.533	8921
929.638	8670
929.743	8781
929.848	8769
929.953	8777
930.058	8689
930.163	8590
930.267	8617
930.372	8693
930.477	8518
930.581	8727
930.685	8617
930.79	8522
930.894	8579
930.998	8484
931.103	8610
931.207	8305
931.311	8221
931.415	8199
931.519	8001
931.623	8012
