Data from test_V78500241_1582.txt Node
Date: Fri Mar 25 14:44:43 CST 2022
User: usil
Spectrometer: V785-0024
Trigger mode: 0
Integration Time (sec): 4.000000E-1
Scans to average: 1
Nonlinearity correction enabled: false
Boxcar width: 0
Storing dark spectrum: false
XAxis mode: Wavelengths
Number of Pixels in Spectrum: 1024
>>>>>Begin Spectral Data<<<<<
801.071	22428
801.214	22287
801.356	22025
801.499	21895
801.641	21778
801.783	21682
801.926	21766
802.068	21644
802.211	21500
802.353	21614
802.496	21306
802.638	21359
802.78	21245
802.923	21017
803.065	21142
803.208	21051
803.35	21036
803.492	21081
803.635	21275
803.777	20986
803.919	21192
804.061	21435
804.204	21192
804.346	21009
804.488	21001
804.63	21104
804.773	21066
804.915	20948
805.057	21131
805.199	20963
805.341	21058
805.483	21302
805.626	21157
805.768	20857
805.91	20998
806.052	21074
806.194	20944
806.336	21199
806.478	20941
806.62	20967
806.762	21135
806.904	21302
807.046	21515
807.188	21408
807.33	21393
807.472	21553
807.614	21283
807.756	21401
807.898	21214
808.04	21116
808.182	21211
808.324	21108
808.465	21256
808.607	21447
808.749	21580
808.891	21519
809.033	21713
809.174	21599
809.316	21424
809.458	21473
809.6	21473
809.741	21428
809.883	21538
810.025	21568
810.166	21500
810.308	21542
810.45	21439
810.591	21431
810.733	21332
810.875	21199
811.016	21184
811.158	21055
811.299	21154
811.441	21382
811.582	21382
811.724	21272
811.865	21195
812.007	21157
812.148	21203
812.29	21176
812.431	21431
812.573	21496
812.714	21519
812.855	21701
812.997	21869
813.138	21876
813.279	21804
813.421	21724
813.562	21660
813.703	21389
813.845	21374
813.986	21062
814.127	20834
814.268	20815
814.41	20868
814.551	20754
814.692	20746
814.833	20625
814.974	20727
815.115	20678
815.256	20530
815.397	20613
815.539	20518
815.68	20339
815.821	20454
815.962	20689
816.103	20549
816.244	20290
816.385	20275
816.526	20271
816.666	20103
816.807	19940
816.948	19997
817.089	19978
817.23	19906
817.371	19856
817.512	19913
817.653	19940
817.793	19913
817.934	19769
818.075	20008
818.216	19955
818.356	19799
818.497	19712
818.638	19613
818.778	19632
818.919	19537
819.06	19746
819.2	19696
819.341	19769
819.481	19753
819.622	19807
819.762	20031
819.903	19959
820.043	19917
820.184	19788
820.324	19932
820.465	19932
820.605	19742
820.746	19833
820.886	19662
821.026	19898
821.167	19807
821.307	19906
821.447	19875
821.588	19674
821.728	19525
821.868	19422
822.008	19293
822.149	19232
822.289	19148
822.429	18894
822.569	18981
822.709	19023
822.849	18715
822.99	18734
823.13	18768
823.27	18768
823.41	18509
823.55	18479
823.69	18422
823.83	18608
823.97	18376
824.11	18315
824.25	18330
824.389	18353
824.529	18391
824.669	18342
824.809	18353
824.949	18486
825.089	18338
825.228	18292
825.368	18178
825.508	18163
825.648	18110
825.787	18110
825.927	18194
826.067	18098
826.206	18041
826.346	18163
826.485	18106
826.625	18087
826.765	18273
826.904	18159
827.044	17889
827.183	17897
827.323	17779
827.462	17927
827.601	17779
827.741	17668
827.88	17889
828.02	17779
828.159	17741
828.298	17866
828.437	17836
828.577	17676
828.716	17923
828.855	17756
828.994	17547
829.134	17619
829.273	17535
829.412	17585
829.551	17345
829.69	17505
829.829	17516
829.968	17497
830.107	17558
830.246	17440
830.385	17459
830.524	17372
830.663	17341
830.802	17265
830.941	17113
831.08	17185
831.219	17155
831.357	17193
831.496	17322
831.635	17025
831.774	17056
831.913	17006
832.051	16995
832.19	16911
832.329	16991
832.467	16877
832.606	16683
832.744	16885
832.883	16786
833.022	16717
833.16	16752
833.299	16873
833.437	16881
833.576	16858
833.714	16862
833.852	16927
833.991	17003
834.129	16839
834.267	16999
834.406	16881
834.544	16869
834.682	16858
834.821	16771
834.959	16995
835.097	16873
835.235	16873
835.373	16919
835.511	16839
835.65	16725
835.788	16744
835.926	16554
836.064	16478
836.202	16683
836.34	16729
836.478	16831
836.615	16717
836.753	16706
836.891	16850
837.029	16862
837.167	16744
837.305	16611
837.443	16649
837.58	16535
837.718	16637
837.856	16717
837.993	16645
838.131	16596
838.269	16405
838.406	16531
838.544	16500
838.681	16356
838.819	16287
838.956	16223
839.094	16112
839.231	16120
839.369	16295
839.506	16546
839.643	16462
839.781	16246
839.918	16169
840.055	16173
840.193	16109
840.33	16177
840.467	16128
840.604	16147
840.742	16394
840.879	15987
841.016	16044
841.153	16112
841.29	16249
841.427	16181
841.564	16162
841.701	16128
841.838	16154
841.975	15960
842.112	16139
842.249	15873
842.385	16006
842.522	16181
842.659	15964
842.796	15911
842.933	15884
843.069	15945
843.206	15956
843.343	16055
843.479	15937
843.616	15922
843.752	15876
843.889	15667
844.025	15937
844.162	15724
844.298	15842
844.435	15682
844.571	15644
844.708	15759
844.844	15918
844.98	15785
845.117	15751
845.253	15614
845.389	15606
845.525	15591
845.661	15698
845.798	15462
845.934	15637
846.07	15675
846.206	15736
846.342	15724
846.478	15595
846.614	15420
846.75	15275
846.886	15218
847.022	15317
847.158	15306
847.294	15237
847.429	15264
847.565	15256
847.701	15526
847.837	14990
847.972	14914
848.108	15074
848.244	15077
848.379	14853
848.515	14868
848.65	14861
848.786	14971
848.921	14948
849.057	14883
849.192	15131
849.328	14979
849.463	14891
849.598	14849
849.734	14876
849.869	14632
850.004	14644
850.14	14727
850.275	14693
850.41	14590
850.545	14575
850.68	14579
850.815	14625
850.95	14571
851.085	14796
851.22	14735
851.355	14610
851.49	14613
851.625	14625
851.76	14621
851.895	14495
852.03	14552
852.165	14511
852.299	14724
852.434	14705
852.569	14667
852.703	14716
852.838	14853
852.973	14716
853.107	14765
853.242	14579
853.376	14476
853.511	14469
853.645	14465
853.78	14682
853.914	14602
854.048	14469
854.183	14450
854.317	14514
854.451	14617
854.585	14427
854.72	14442
854.854	14488
854.988	14431
855.122	14541
855.256	14396
855.39	14476
855.524	14575
855.658	14518
855.792	14537
855.926	14442
856.06	14526
856.194	14583
856.327	14564
856.461	14351
856.595	14393
856.729	14431
856.862	14632
856.996	14511
857.13	14583
857.263	14507
857.397	14674
857.53	14514
857.664	14678
857.797	14598
857.931	14590
858.064	14590
858.197	14701
858.331	14503
858.464	14545
858.597	14427
858.731	14549
858.864	14461
858.997	14503
859.13	14549
859.263	14552
859.396	14663
859.529	14423
859.662	14450
859.795	14480
859.928	14552
860.061	14659
860.194	14720
860.327	14469
860.46	14545
860.592	14636
860.725	14644
860.858	14613
860.99	14454
861.123	14431
861.256	14473
861.388	14552
861.521	15287
861.653	14473
861.786	14423
861.918	14358
862.05	14484
862.183	14480
862.315	14431
862.447	14560
862.58	14450
862.712	14301
862.844	14229
862.976	14419
863.108	14408
863.24	14880
863.372	14286
863.504	14358
863.636	14221
863.768	14343
863.9	14290
864.032	14298
864.164	14332
864.296	14332
864.428	14446
864.559	14396
864.691	14393
864.823	14404
864.954	14358
865.086	14259
865.217	14290
865.349	14221
865.48	14294
865.612	14317
865.743	14362
865.875	14271
866.006	14199
866.137	14240
866.269	14218
866.4	14278
866.531	14362
866.662	14161
866.793	14237
866.924	14202
867.055	14138
867.186	14248
867.317	14168
867.448	14145
867.579	14149
867.71	14119
867.841	14126
867.972	14278
868.103	14282
868.233	14278
868.364	14248
868.495	14415
868.625	14514
868.756	14552
868.886	14408
869.017	14492
869.147	14495
869.278	14598
869.408	14511
869.539	14492
869.669	14571
869.799	14571
869.929	14724
870.06	14617
870.19	14739
870.32	14754
870.45	14796
870.58	14857
870.71	14998
870.84	15017
870.97	14887
871.1	14883
871.23	15085
871.36	15070
871.489	14948
871.619	15005
871.749	15085
871.879	15116
872.008	15230
872.138	15093
872.267	15123
872.397	14937
872.526	14963
872.656	14849
872.785	14975
872.915	15184
873.044	15298
873.173	15123
873.303	15119
873.432	15116
873.561	15272
873.69	15169
873.819	15233
873.948	15291
874.077	15192
874.206	15173
874.335	15043
874.464	15374
874.593	15435
874.722	15386
874.851	15526
874.979	15420
875.108	15485
875.237	15378
875.365	15370
875.494	15511
875.623	15397
875.751	15351
875.88	15561
876.008	15686
876.136	15682
876.265	15903
876.393	16063
876.521	15975
876.65	15979
876.778	15880
876.906	15789
877.034	15808
877.162	15816
877.29	15861
877.418	16006
877.546	15861
877.674	15804
877.802	15846
877.93	15819
878.058	15808
878.185	15865
878.313	15861
878.441	15846
878.568	15846
878.696	15835
878.824	15899
878.951	15907
879.079	16090
879.206	16234
879.333	15998
879.461	16143
879.588	16021
879.715	16086
879.842	16226
879.97	16090
880.097	15766
880.224	15736
880.351	15774
880.478	15842
880.605	15743
880.732	15755
880.859	15960
880.986	15785
881.112	15854
881.239	15698
881.366	15564
881.493	15363
881.619	15378
881.746	15340
881.872	15428
881.999	15386
882.125	15359
882.252	15523
882.378	15424
882.505	15519
882.631	15291
882.757	15203
882.883	15279
883.01	15386
883.136	15188
883.262	15070
883.388	15085
883.514	15313
883.64	15275
883.766	15157
883.892	15077
884.018	15100
884.143	15154
884.269	15298
884.395	15039
884.52	14857
884.646	14891
884.772	14792
884.897	14861
885.023	14960
885.148	14990
885.274	14925
885.399	15058
885.524	14914
885.65	14948
885.775	14933
885.9	14883
886.025	15070
886.15	14906
886.275	14872
886.4	14872
886.525	14777
886.65	14788
886.775	14876
886.9	15058
887.025	15173
887.149	14906
887.274	14716
887.399	14739
887.523	14659
887.648	14815
887.773	14678
887.897	14838
888.021	14743
888.146	14556
888.27	14765
888.395	14899
888.519	14750
888.643	14762
888.767	14834
888.891	14636
889.015	14537
889.139	14674
889.263	14484
889.387	14712
889.511	14697
889.635	14701
889.759	14469
889.883	14602
890.006	14640
890.13	14701
890.254	14560
890.377	14568
890.501	14370
890.624	14423
890.748	14465
890.871	14298
890.995	14320
891.118	14256
891.241	14339
891.364	14278
891.488	14442
891.611	14252
891.734	14317
891.857	14370
891.98	14294
892.103	14473
892.226	14301
892.349	14259
892.471	14077
892.594	14286
892.717	14328
892.839	14309
892.962	14328
893.085	14351
893.207	14263
893.33	14088
893.452	14168
893.575	14336
893.697	14202
893.819	14457
893.941	14499
894.064	14396
894.186	14244
894.308	14244
894.43	14476
894.552	14549
894.674	14396
894.796	14252
894.918	14267
895.04	14259
895.161	14454
895.283	14454
895.405	14362
895.526	14355
895.648	14355
895.769	14374
895.891	14454
896.012	14442
896.134	14442
896.255	14442
896.376	14446
896.498	14488
896.619	14526
896.74	14457
896.861	14526
896.982	14872
897.103	14937
897.224	14693
897.345	14659
897.466	14503
897.587	14773
897.708	14876
897.828	14804
897.949	14769
898.07	14587
898.19	14708
898.311	14887
898.431	14716
898.552	14724
898.672	14838
898.792	14880
898.913	14819
899.033	14739
899.153	14670
899.273	14476
899.393	14648
899.513	14693
899.633	14697
899.753	14655
899.873	14651
899.993	14750
900.113	14644
900.232	14648
900.352	14625
900.472	14503
900.591	14575
900.711	14530
900.83	14503
900.95	14556
901.069	14632
901.189	14450
901.308	14263
901.427	14172
901.546	14237
901.665	14202
901.784	14248
901.904	14077
902.023	14130
902.141	13784
902.26	13807
902.379	13799
902.498	13799
902.617	13734
902.735	13833
902.854	13788
902.973	13715
903.091	13453
903.21	13441
903.328	13476
903.446	13460
903.565	13278
903.683	13346
903.801	13289
903.919	13247
904.038	13396
904.156	13183
904.274	13149
904.392	13145
904.51	13065
904.627	12989
904.745	13156
904.863	13225
904.981	13000
905.098	12707
905.216	12844
905.334	12840
905.451	12875
905.569	12696
905.686	12852
905.803	12810
905.921	12658
906.038	12768
906.155	12601
906.272	12517
906.389	12517
906.506	12498
906.623	12437
906.74	12426
906.857	12239
906.974	12281
907.091	12494
907.208	12566
907.324	12517
907.441	12270
907.557	12205
907.674	12182
907.79	12076
907.907	12140
908.023	12197
908.139	12068
908.256	12053
908.372	12060
908.488	12041
908.604	11988
908.72	11863
908.836	11912
908.952	11828
909.068	11988
909.184	11973
909.3	11893
909.415	11923
909.531	11859
909.647	11615
909.762	11695
909.878	11691
909.993	11752
910.108	11573
910.224	11592
910.339	11688
910.454	11676
910.57	11535
910.685	11455
910.8	11684
910.915	11676
911.03	11623
911.145	11490
911.259	11364
911.374	11364
911.489	11387
911.604	11242
911.718	11132
911.833	11166
911.947	10987
912.062	10957
912.176	11204
912.291	11143
912.405	11132
912.519	11250
912.633	11334
912.748	11223
912.862	11181
912.976	11022
913.09	10946
913.204	11018
913.318	10999
913.431	11128
913.545	11090
913.659	11143
913.772	11018
913.886	10904
914	10862
914.113	10995
914.226	11029
914.34	10923
914.453	10755
914.566	10927
914.68	10839
914.793	10866
914.906	10672
915.019	10634
915.132	10531
915.245	10580
915.358	10630
915.47	10615
915.583	10698
915.696	10649
915.809	10698
915.921	10767
916.034	10611
916.146	10519
916.259	10546
916.371	10683
916.483	10679
916.595	10580
916.708	10508
916.82	10584
916.932	10500
917.044	10535
917.156	10531
917.268	10485
917.38	10561
917.491	10405
917.603	10538
917.715	10596
917.826	10542
917.938	10485
918.049	10360
918.161	10443
918.272	10649
918.384	10569
918.495	10489
918.606	10314
918.717	10287
918.828	10291
918.939	10402
919.05	10188
919.161	10337
919.272	10211
919.383	10135
919.494	10417
919.604	10558
919.715	10360
919.826	10246
919.936	10348
920.047	10497
920.157	10405
920.267	10596
920.378	10398
920.488	10329
920.598	10554
920.708	10702
920.818	10519
920.928	10504
921.038	10710
921.148	10603
921.258	10394
921.368	10344
921.477	10223
921.587	10211
921.697	10025
921.806	10188
921.916	10051
922.025	9968
922.134	9918
922.244	9888
922.353	9880
922.462	9831
922.571	9762
922.68	9572
922.789	9557
922.898	9553
923.007	9614
923.116	9587
923.224	9584
923.333	9610
923.442	9485
923.55	9545
923.659	9481
923.767	9534
923.876	9431
923.984	9561
924.092	9401
924.201	9389
924.309	9481
924.417	9431
924.525	9401
924.633	9469
924.741	10303
924.849	9218
924.956	9420
925.064	9291
925.172	9173
925.279	9173
925.387	9180
925.494	9184
925.602	9389
925.709	9355
925.816	9214
925.924	9275
926.031	9310
926.138	9218
926.245	9287
926.352	9207
926.459	9336
926.566	9359
926.673	9184
926.779	9047
926.886	9146
926.993	9058
927.099	8910
927.206	8918
927.312	8891
927.419	8982
927.525	8944
927.631	9024
927.737	8891
927.843	8895
927.95	8750
928.056	8842
928.162	8842
928.267	8914
928.373	9469
928.479	8895
928.585	8678
928.69	8804
928.796	8933
928.901	8762
929.007	8621
929.112	8777
929.218	8701
929.323	8606
929.428	8705
929.533	8823
929.638	8625
929.743	8621
929.848	8705
929.953	8705
930.058	8571
930.163	8518
930.267	8419
930.372	8549
930.477	8438
930.581	8590
930.685	8480
930.79	8408
930.894	8431
930.998	8355
931.103	8526
931.207	8157
931.311	8134
931.415	8062
931.519	7955
931.623	7917
