Data from test_V78500241_261.txt Node
Date: Fri Mar 25 14:35:32 CST 2022
User: usil
Spectrometer: V785-0024
Trigger mode: 0
Integration Time (sec): 4.000000E-1
Scans to average: 1
Nonlinearity correction enabled: false
Boxcar width: 0
Storing dark spectrum: false
XAxis mode: Wavelengths
Number of Pixels in Spectrum: 1024
>>>>>Begin Spectral Data<<<<<
801.071	27466
801.214	27389
801.356	27116
801.499	26937
801.641	26785
801.783	26872
801.926	26864
802.068	26769
802.211	26735
802.353	26644
802.496	26526
802.638	26473
802.78	26351
802.923	26385
803.065	26218
803.208	26256
803.35	26358
803.492	26438
803.635	26522
803.777	26518
803.919	26415
804.061	26754
804.204	26442
804.346	26317
804.488	26240
804.63	26415
804.773	26275
804.915	26301
805.057	26469
805.199	26370
805.341	26389
805.483	26408
805.626	26339
805.768	26301
805.91	26499
806.052	26629
806.194	26400
806.336	26716
806.478	26499
806.62	26499
806.762	26533
806.904	26636
807.046	26830
807.188	26720
807.33	26804
807.472	26872
807.614	26735
807.756	26674
807.898	26655
808.04	26522
808.182	26727
808.324	26701
808.465	26594
808.607	26914
808.749	27077
808.891	27093
809.033	27268
809.174	27100
809.316	27005
809.458	27074
809.6	26925
809.741	27032
809.883	27100
810.025	26998
810.166	27173
810.308	27169
810.45	27169
810.591	27089
810.733	26906
810.875	26804
811.016	26762
811.158	26697
811.299	26940
811.441	26864
811.582	26861
811.724	26731
811.865	26796
812.007	26720
812.148	26773
812.29	26807
812.431	27001
812.573	27085
812.714	26982
812.855	27302
812.997	27386
813.138	27431
813.279	27382
813.421	27237
813.562	27237
813.703	27157
813.845	26944
813.986	26488
814.127	26423
814.268	26282
814.41	26290
814.551	26214
814.692	26385
814.833	26259
814.974	26240
815.115	26286
815.256	26237
815.397	26240
815.539	26202
815.68	26157
815.821	25936
815.962	26157
816.103	26039
816.244	26008
816.385	25951
816.526	25746
816.666	25616
816.807	25476
816.948	25556
817.089	25499
817.23	25567
817.371	25533
817.512	25518
817.653	25537
817.793	25407
817.934	25358
818.075	25514
818.216	25324
818.356	25502
818.497	25369
818.638	25171
818.778	25129
818.919	25122
819.06	25217
819.2	25403
819.341	25441
819.481	25381
819.622	25441
819.762	25814
819.903	25708
820.043	25479
820.184	25312
820.324	25491
820.465	25529
820.605	25381
820.746	25438
820.886	25487
821.026	25384
821.167	25384
821.307	25396
821.447	25236
821.588	25335
821.728	25107
821.868	24932
822.008	24875
822.149	24700
822.289	24806
822.429	24502
822.569	24414
822.709	24460
822.849	24277
822.99	24194
823.13	24228
823.27	24174
823.41	24057
823.55	23908
823.69	24041
823.83	23988
823.97	23824
824.11	23775
824.25	23775
824.389	23771
824.529	23912
824.669	23855
824.809	23874
824.949	23790
825.089	23824
825.228	23828
825.368	23581
825.508	23714
825.648	23630
825.787	23699
825.927	23653
826.067	23570
826.206	23608
826.346	23566
826.485	23638
826.625	23558
826.765	23581
826.904	23699
827.044	23455
827.183	23277
827.323	23227
827.462	23406
827.601	23189
827.741	23239
827.88	23223
828.02	23174
828.159	23155
828.298	23216
828.437	23345
828.577	23242
828.716	23296
828.855	23151
828.994	23025
829.134	23006
829.273	23064
829.412	22923
829.551	22923
829.69	23010
829.829	22965
829.968	22946
830.107	23098
830.246	22900
830.385	22793
830.524	22904
830.663	22717
830.802	22744
830.941	22542
831.08	22512
831.219	22561
831.357	22603
831.496	22626
831.635	22512
831.774	22398
831.913	22344
832.051	22257
832.19	22280
832.329	22295
832.467	22131
832.606	22078
832.744	22150
832.883	22268
833.022	22192
833.16	22215
833.299	22166
833.437	22128
833.576	22234
833.714	22204
833.852	22158
833.991	22143
834.129	22299
834.267	22128
834.406	22253
834.544	22230
834.682	22223
834.821	22116
834.959	22379
835.097	22078
835.235	22166
835.373	22173
835.511	22116
835.65	22086
835.788	22070
835.926	22036
836.064	21781
836.202	21842
836.34	21865
836.478	22086
836.615	21911
836.753	21960
836.891	22147
837.029	21937
837.167	21937
837.305	21895
837.443	21808
837.58	21781
837.718	21819
837.856	21861
837.993	21808
838.131	21880
838.269	21610
838.406	21690
838.544	21526
838.681	21481
838.819	21481
838.956	21123
839.094	21180
839.231	21443
839.369	21401
839.506	21671
839.643	21458
839.781	21348
839.918	21070
840.055	21291
840.193	21260
840.33	21203
840.467	21298
840.604	21275
840.742	21367
840.879	21093
841.016	21055
841.153	21009
841.29	21306
841.427	21252
841.564	21203
841.701	21154
841.838	21093
841.975	21077
842.112	21081
842.249	20925
842.385	20861
842.522	21036
842.659	20963
842.796	20853
842.933	20872
843.069	20804
843.206	20853
843.343	20883
843.479	20880
843.616	20914
843.752	20697
843.889	20746
844.025	20716
844.162	20617
844.298	20648
844.435	20636
844.571	20522
844.708	20621
844.844	20674
844.98	20811
845.117	20708
845.253	20609
845.389	20613
845.525	20697
845.661	20530
845.798	20556
845.934	20606
846.07	20552
846.206	20602
846.342	20648
846.478	20408
846.614	20225
846.75	20149
846.886	20100
847.022	20134
847.158	20161
847.294	20126
847.429	20191
847.565	20138
847.701	20183
847.837	19894
847.972	19647
848.108	19833
848.244	19822
848.379	19734
848.515	19715
848.65	19723
848.786	19674
848.921	19651
849.057	19742
849.192	19814
849.328	19647
849.463	19556
849.598	19616
849.734	19601
849.869	19495
850.004	19472
850.14	19518
850.275	19282
850.41	19244
850.545	19358
850.68	19419
850.815	19373
850.95	19282
851.085	19586
851.22	19556
851.355	19407
851.49	19316
851.625	19232
851.76	19346
851.895	19297
852.03	19278
852.165	19430
852.299	19377
852.434	19403
852.569	19285
852.703	19320
852.838	19460
852.973	19525
853.107	19571
853.242	19388
853.376	19118
853.511	19114
853.645	19057
853.78	19331
853.914	19156
854.048	19091
854.183	19076
854.317	19187
854.451	19331
854.585	19160
854.72	19156
854.854	19206
854.988	19209
855.122	19209
855.256	19122
855.39	19175
855.524	19213
855.658	19198
855.792	19228
855.926	19133
856.06	19282
856.194	19274
856.327	19091
856.461	19213
856.595	19141
856.729	19129
856.862	19278
856.996	19202
857.13	19179
857.263	19285
857.397	19289
857.53	19091
857.664	19171
857.797	19240
857.931	19327
858.064	19221
858.197	19369
858.331	19217
858.464	19050
858.597	19042
858.731	19023
858.864	19084
858.997	19133
859.13	19069
859.263	19103
859.396	19175
859.529	19152
859.662	19099
859.795	18973
859.928	19148
860.061	19179
860.194	19175
860.327	19084
860.46	19061
860.592	19187
860.725	19240
860.858	19190
860.99	19110
861.123	19042
861.256	18993
861.388	19080
861.521	19738
861.653	18913
861.786	18947
861.918	18989
862.05	19019
862.183	19008
862.315	19019
862.447	19282
862.58	19190
862.712	18817
862.844	18844
862.976	18821
863.108	18871
863.24	19095
863.372	18772
863.504	18829
863.636	18905
863.768	18791
863.9	18970
864.032	18711
864.164	18749
864.296	18798
864.428	18924
864.559	18837
864.691	18905
864.823	18787
864.954	18772
865.086	18814
865.217	18700
865.349	18642
865.48	18639
865.612	18669
865.743	18837
865.875	18779
866.006	18749
866.137	18783
866.269	18669
866.4	18715
866.531	18661
866.662	18669
866.793	18658
866.924	18719
867.055	18783
867.186	18585
867.317	18623
867.448	18601
867.579	18631
867.71	18551
867.841	18612
867.972	18700
868.103	18623
868.233	18700
868.364	18726
868.495	18707
868.625	18905
868.756	18913
868.886	18897
869.017	18867
869.147	18909
869.278	19042
869.408	18977
869.539	18787
869.669	18913
869.799	18932
869.929	18863
870.06	19088
870.19	19145
870.32	19236
870.45	19251
870.58	19293
870.71	19422
870.84	19400
870.97	19247
871.1	19293
871.23	19373
871.36	19453
871.489	19396
871.619	19434
871.749	19377
871.879	19510
872.008	19635
872.138	19514
872.267	19483
872.397	19358
872.526	19308
872.656	19316
872.785	19434
872.915	19514
873.044	19548
873.173	19483
873.303	19628
873.432	19609
873.561	19696
873.69	19632
873.819	19533
873.948	19578
874.077	19518
874.206	19407
874.335	19464
874.464	19681
874.593	19635
874.722	19731
874.851	19791
874.979	19803
875.108	19712
875.237	19868
875.365	19704
875.494	19746
875.623	19830
875.751	19738
875.88	19830
876.008	19799
876.136	19894
876.265	20062
876.393	20294
876.521	20252
876.65	20240
876.778	20142
876.906	20237
877.034	20138
877.162	20115
877.29	20073
877.418	20111
877.546	20153
877.674	20195
877.802	20237
877.93	20115
878.058	20122
878.185	20119
878.313	20161
878.441	20119
878.568	19978
878.696	20221
878.824	20221
878.951	20332
879.079	20309
879.206	20514
879.333	20476
879.461	20294
879.588	20370
879.715	20423
879.842	20507
879.97	20206
880.097	20149
880.224	19898
880.351	20031
880.478	20081
880.605	20001
880.732	20008
880.859	20233
880.986	20050
881.112	20138
881.239	19887
881.366	19769
881.493	19696
881.619	19681
881.746	19639
881.872	19715
881.999	19708
882.125	19590
882.252	19791
882.378	19601
882.505	19772
882.631	19548
882.757	19365
882.883	19472
883.01	19354
883.136	19335
883.262	19217
883.388	19190
883.514	19430
883.64	19460
883.766	19316
883.892	19137
884.018	19274
884.143	19422
884.269	19518
884.395	19160
884.52	19084
884.646	19095
884.772	19034
884.897	18848
885.023	19148
885.148	19103
885.274	19244
885.399	19228
885.524	19141
885.65	19023
885.775	19122
885.9	19095
886.025	19107
886.15	19168
886.275	18970
886.4	18810
886.525	19034
886.65	18935
886.775	18916
886.9	19122
887.025	19240
887.149	19057
887.274	18924
887.399	18722
887.523	18700
887.648	18734
887.773	18684
887.897	18837
888.021	18894
888.146	18798
888.27	18939
888.395	18863
888.519	18875
888.643	18924
888.767	18840
888.891	18757
889.015	18692
889.139	18677
889.263	18639
889.387	18776
889.511	18734
889.635	18764
889.759	18509
889.883	18597
890.006	18627
890.13	18673
890.254	18456
890.377	18551
890.501	18304
890.624	18471
890.748	18418
890.871	18216
890.995	18266
891.118	18235
891.241	18224
891.364	18140
891.488	18262
891.611	18300
891.734	18190
891.857	18197
891.98	18323
892.103	18201
892.226	18216
892.349	18121
892.471	18076
892.594	18144
892.717	18167
892.839	18194
892.962	18125
893.085	18304
893.207	18251
893.33	18053
893.452	18110
893.575	18228
893.697	18114
893.819	18209
893.941	18289
894.064	18346
894.186	18060
894.308	17984
894.43	18277
894.552	18205
894.674	18243
894.796	18098
894.918	18201
895.04	18076
895.161	18266
895.283	18171
895.405	18117
895.526	18114
895.648	18049
895.769	18197
895.891	18095
896.012	18243
896.134	18247
896.255	18228
896.376	18205
896.498	18114
896.619	18330
896.74	18232
896.861	18289
896.982	18464
897.103	18608
897.224	18464
897.345	18509
897.466	18429
897.587	18483
897.708	18700
897.828	18391
897.949	18346
898.07	18281
898.19	18422
898.311	18566
898.431	18338
898.552	18486
898.672	18517
898.792	18540
898.913	18414
899.033	18357
899.153	18281
899.273	18140
899.393	18239
899.513	18213
899.633	18194
899.753	18251
899.873	18114
899.993	18239
900.113	18182
900.232	18251
900.352	18060
900.472	18034
900.591	18011
900.711	18125
900.83	17935
900.95	18087
901.069	18102
901.189	17939
901.308	17680
901.427	17661
901.546	17668
901.665	17733
901.784	17668
901.904	17585
902.023	17425
902.141	17223
902.26	17124
902.379	17280
902.498	17185
902.617	17143
902.735	17197
902.854	17128
902.973	17102
903.091	16942
903.21	16831
903.328	16858
903.446	16759
903.565	16675
903.683	16679
903.801	16588
903.919	16687
904.038	16637
904.156	16470
904.274	16512
904.392	16325
904.51	16440
904.627	16451
904.745	16443
904.863	16554
904.981	16333
905.098	16067
905.216	16169
905.334	16128
905.451	16055
905.569	16063
905.686	16223
905.803	16109
905.921	15899
906.038	15934
906.155	15975
906.272	15816
906.389	15800
906.506	15667
906.623	15652
906.74	15663
906.857	15504
906.974	15504
907.091	15629
907.208	15728
907.324	15629
907.441	15481
907.557	15363
907.674	15412
907.79	15298
907.907	15367
908.023	15317
908.139	15283
908.256	15165
908.372	15241
908.488	15108
908.604	14979
908.72	15036
908.836	15077
908.952	14952
909.068	15039
909.184	15138
909.3	14960
909.415	15112
909.531	14948
909.647	14617
909.762	14739
909.878	14731
909.993	14811
910.108	14750
910.224	14674
910.339	14712
910.454	14602
910.57	14568
910.685	14533
910.8	14735
910.915	14724
911.03	14495
911.145	14400
911.259	14396
911.374	14412
911.489	14347
911.604	14237
911.718	14077
911.833	14218
911.947	14046
912.062	13925
912.176	14119
912.291	14103
912.405	14126
912.519	14305
912.633	14275
912.748	14130
912.862	14077
912.976	13944
913.09	13852
913.204	13868
913.318	13932
913.431	13982
913.545	13982
913.659	14001
913.772	13826
913.886	13769
914	13837
914.113	13780
914.226	13890
914.34	13830
914.453	13639
914.566	13822
914.68	13685
914.793	13609
914.906	13518
915.019	13426
915.132	13350
915.245	13438
915.358	13407
915.47	13487
915.583	13430
915.696	13438
915.809	13578
915.921	13582
916.034	13301
916.146	13358
916.259	13308
916.371	13346
916.483	13293
916.595	13362
916.708	13206
916.82	13278
916.932	13206
917.044	13213
917.156	13202
917.268	13072
917.38	13145
917.491	13042
917.603	13114
917.715	13175
917.826	13320
917.938	13042
918.049	12973
918.161	13072
918.272	13190
918.384	13152
918.495	13137
918.606	12989
918.717	12882
918.828	12989
918.939	12935
919.05	12890
919.161	12821
919.272	12783
919.383	12681
919.494	12954
919.604	13080
919.715	12905
919.826	12753
919.936	12848
920.047	12886
920.157	12814
920.267	13053
920.378	12958
920.488	12856
920.598	13023
920.708	13168
920.818	13110
920.928	13015
921.038	13225
921.148	13118
921.258	12878
921.368	12688
921.477	12559
921.587	12623
921.697	12464
921.806	12612
921.916	12498
922.025	12407
922.134	12292
922.244	12167
922.353	12308
922.462	12273
922.571	12068
922.68	12083
922.789	11973
922.898	11939
923.007	11882
923.116	11912
923.224	11904
923.333	11904
923.442	11775
923.55	11779
923.659	11805
923.767	11863
923.876	11688
923.984	11824
924.092	11657
924.201	11741
924.309	11798
924.417	11756
924.525	11611
924.633	11748
924.741	12525
924.849	11497
924.956	11661
925.064	11482
925.172	11486
925.279	11524
925.387	11459
925.494	11501
925.602	11573
925.709	11440
925.816	11387
925.924	11455
926.031	11543
926.138	11376
926.245	11459
926.352	11356
926.459	11501
926.566	11551
926.673	11421
926.779	11250
926.886	11349
926.993	11117
927.099	11124
927.206	11037
927.312	11037
927.419	11067
927.525	11037
927.631	11113
927.737	10942
927.843	10965
927.95	10778
928.056	10877
928.162	10957
928.267	10938
928.373	11558
928.479	11025
928.585	10801
928.69	10854
928.796	10991
928.901	10774
929.007	10698
929.112	10752
929.218	10729
929.323	10675
929.428	10656
929.533	10828
929.638	10592
929.743	10603
929.848	10645
929.953	10767
930.058	10554
930.163	10284
930.267	10344
930.372	10596
930.477	10318
930.581	10573
930.685	10413
930.79	10249
930.894	10299
930.998	10246
931.103	10379
931.207	10017
931.311	9960
931.415	9895
931.519	9736
931.623	9679
