Data from test_V78500241_490.txt Node
Date: Fri Mar 25 14:37:07 CST 2022
User: usil
Spectrometer: V785-0024
Trigger mode: 0
Integration Time (sec): 4.000000E-1
Scans to average: 1
Nonlinearity correction enabled: false
Boxcar width: 0
Storing dark spectrum: false
XAxis mode: Wavelengths
Number of Pixels in Spectrum: 1024
>>>>>Begin Spectral Data<<<<<
801.071	26625
801.214	26522
801.356	26176
801.499	26267
801.641	26134
801.783	26122
801.926	26199
802.068	26008
802.211	25940
802.353	25807
802.496	25765
802.638	25727
802.78	25632
802.923	25468
803.065	25514
803.208	25464
803.35	25552
803.492	25719
803.635	25700
803.777	25590
803.919	25681
804.061	26001
804.204	25662
804.346	25457
804.488	25407
804.63	25479
804.773	25373
804.915	25457
805.057	25616
805.199	25575
805.341	25434
805.483	25674
805.626	25605
805.768	25438
805.91	25445
806.052	25529
806.194	25556
806.336	25723
806.478	25601
806.62	25468
806.762	25670
806.904	25845
807.046	26062
807.188	25986
807.33	25944
807.472	26005
807.614	25826
807.756	25921
807.898	25814
808.04	25708
808.182	25875
808.324	25951
808.465	26195
808.607	26237
808.749	26503
808.891	26503
809.033	26629
809.174	26355
809.316	26358
809.458	26248
809.6	26111
809.741	26248
809.883	26142
810.025	26301
810.166	26457
810.308	26176
810.45	26199
810.591	26164
810.733	25982
810.875	25959
811.016	25734
811.158	25757
811.299	25940
811.441	26107
811.582	26043
811.724	25833
811.865	25879
812.007	25818
812.148	25909
812.29	25917
812.431	25955
812.573	26084
812.714	26301
812.855	26309
812.997	26427
813.138	26549
813.279	26549
813.421	26336
813.562	26180
813.703	26176
813.845	25947
813.986	25750
814.127	25506
814.268	25384
814.41	25373
814.551	25472
814.692	25476
814.833	25339
814.974	25392
815.115	25449
815.256	25202
815.397	25331
815.539	25255
815.68	25133
815.821	25084
815.962	25213
816.103	25164
816.244	24928
816.385	24825
816.526	24825
816.666	24696
816.807	24566
816.948	24684
817.089	24692
817.23	24570
817.371	24505
817.512	24612
817.653	24391
817.793	24292
817.934	24566
818.075	24536
818.216	24490
818.356	24441
818.497	24235
818.638	24091
818.778	24220
818.919	24239
819.06	24167
819.2	24289
819.341	24426
819.481	24452
819.622	24517
819.762	24620
819.903	24612
820.043	24642
820.184	24464
820.324	24521
820.465	24498
820.605	24517
820.746	24513
820.886	24342
821.026	24464
821.167	24407
821.307	24422
821.447	24384
821.588	24171
821.728	24117
821.868	23961
822.008	23874
822.149	23783
822.289	23764
822.429	23516
822.569	23581
822.709	23448
822.849	23436
822.99	23349
823.13	23235
823.27	23231
823.41	23025
823.55	23136
823.69	23117
823.83	23098
823.97	23014
824.11	22786
824.25	22927
824.389	22968
824.529	23010
824.669	22942
824.809	22843
824.949	22854
825.089	22957
825.228	22972
825.368	22649
825.508	22691
825.648	22656
825.787	22744
825.927	22668
826.067	22607
826.206	22596
826.346	22637
826.485	22653
826.625	22664
826.765	22698
826.904	22679
827.044	22333
827.183	22333
827.323	22348
827.462	22356
827.601	22257
827.741	22333
827.88	22268
828.02	22112
828.159	22261
828.298	22280
828.437	22360
828.577	22257
828.716	22394
828.855	22124
828.994	22078
829.134	22055
829.273	22051
829.412	22017
829.551	21934
829.69	21987
829.829	21994
829.968	22032
830.107	22036
830.246	21994
830.385	21998
830.524	21827
830.663	21709
830.802	21679
830.941	21481
831.08	21473
831.219	21671
831.357	21686
831.496	21876
831.635	21477
831.774	21530
831.913	21340
832.051	21336
832.19	21401
832.329	21408
832.467	21165
832.606	21230
832.744	21233
832.883	21245
833.022	21199
833.16	21173
833.299	21382
833.437	21252
833.576	21298
833.714	21260
833.852	21264
833.991	21332
834.129	21291
834.267	21310
834.406	21264
834.544	21348
834.682	21287
834.821	21298
834.959	21496
835.097	21074
835.235	21272
835.373	21237
835.511	21218
835.65	21074
835.788	21024
835.926	20868
836.064	20921
836.202	20864
836.34	21081
836.478	21070
836.615	21039
836.753	21085
836.891	21207
837.029	21123
837.167	21024
837.305	20986
837.443	20963
837.58	20944
837.718	20925
837.856	21077
837.993	20914
838.131	20944
838.269	20815
838.406	20830
838.544	20804
838.681	20678
838.819	20530
838.956	20358
839.094	20271
839.231	20446
839.369	20488
839.506	20785
839.643	20594
839.781	20400
839.918	20301
840.055	20339
840.193	20404
840.33	20218
840.467	20298
840.604	20233
840.742	20495
840.879	20218
841.016	20164
841.153	20237
841.29	20480
841.427	20290
841.564	20244
841.701	20294
841.838	20237
841.975	20058
842.112	20138
842.249	20008
842.385	19913
842.522	20271
842.659	20172
842.796	19963
842.933	20012
843.069	19955
843.206	19997
843.343	20043
843.479	20039
843.616	20005
843.752	19845
843.889	19734
844.025	19989
844.162	19734
844.298	19849
844.435	19719
844.571	19746
844.708	19875
844.844	19875
844.98	19868
845.117	19887
845.253	19803
845.389	19727
845.525	19826
845.661	19845
845.798	19959
845.934	20024
846.07	20081
846.206	20035
846.342	20081
846.478	19795
846.614	19529
846.75	19491
846.886	19350
847.022	19392
847.158	19293
847.294	19289
847.429	19225
847.565	19244
847.701	19468
847.837	19038
847.972	18894
848.108	19088
848.244	19050
848.379	18928
848.515	18856
848.65	18719
848.786	18844
848.921	18856
849.057	18958
849.192	18901
849.328	18810
849.463	18802
849.598	18795
849.734	18711
849.869	18661
850.004	18589
850.14	18547
850.275	18631
850.41	18509
850.545	18502
850.68	18559
850.815	18589
850.95	18544
851.085	18582
851.22	18620
851.355	18559
851.49	18445
851.625	18376
851.76	18521
851.895	18460
852.03	18407
852.165	18513
852.299	18483
852.434	18582
852.569	18566
852.703	18521
852.838	18483
852.973	18692
853.107	18544
853.242	18528
853.376	18369
853.511	18319
853.645	18308
853.78	18494
853.914	18391
854.048	18232
854.183	18155
854.317	18311
854.451	18551
854.585	18311
854.72	18308
854.854	18407
854.988	18319
855.122	18319
855.256	18251
855.39	18277
855.524	18471
855.658	18388
855.792	18342
855.926	18266
856.06	18334
856.194	18403
856.327	18426
856.461	18186
856.595	18292
856.729	18391
856.862	18574
856.996	18224
857.13	18429
857.263	18414
857.397	18296
857.53	18422
857.664	18346
857.797	18300
857.931	18422
858.064	18452
858.197	18289
858.331	18323
858.464	18262
858.597	18136
858.731	18251
858.864	18273
858.997	18273
859.13	18304
859.263	18285
859.396	18254
859.529	18171
859.662	18292
859.795	18266
859.928	18239
860.061	18414
860.194	18376
860.327	18254
860.46	18258
860.592	18433
860.725	18300
860.858	18407
860.99	18311
861.123	18152
861.256	18388
861.388	18270
861.521	18913
861.653	18296
861.786	18011
861.918	18060
862.05	18232
862.183	18194
862.315	18365
862.447	18334
862.58	18258
862.712	17961
862.844	18087
862.976	18007
863.108	18041
863.24	18536
863.372	17954
863.504	18034
863.636	18022
863.768	18087
863.9	18057
864.032	17977
864.164	17969
864.296	17897
864.428	17999
864.559	17965
864.691	18098
864.823	18049
864.954	17942
865.086	17969
865.217	17992
865.349	17794
865.48	17912
865.612	17939
865.743	18121
865.875	17973
866.006	17878
866.137	17965
866.269	17878
866.4	18007
866.531	17779
866.662	17824
866.793	17851
866.924	17794
867.055	17904
867.186	17863
867.317	17847
867.448	17741
867.579	17859
867.71	17756
867.841	17843
867.972	17893
868.103	17798
868.233	17916
868.364	17908
868.495	17897
868.625	18106
868.756	18140
868.886	17935
869.017	17927
869.147	18327
869.278	18235
869.408	18155
869.539	18038
869.669	18315
869.799	18121
869.929	18209
870.06	18216
870.19	18433
870.32	18418
870.45	18403
870.58	18460
870.71	18513
870.84	18456
870.97	18544
871.1	18559
871.23	18604
871.36	18749
871.489	18684
871.619	18532
871.749	18635
871.879	18688
872.008	18817
872.138	18703
872.267	18642
872.397	18646
872.526	18429
872.656	18566
872.785	18570
872.915	18661
873.044	18833
873.173	18776
873.303	18829
873.432	18928
873.561	18757
873.69	18795
873.819	18741
873.948	18772
874.077	18772
874.206	18787
874.335	18734
874.464	18863
874.593	18989
874.722	18932
874.851	19133
874.979	19133
875.108	19061
875.237	18996
875.365	18928
875.494	18947
875.623	19072
875.751	19126
875.88	18951
876.008	19137
876.136	19187
876.265	19362
876.393	19567
876.521	19556
876.65	19472
876.778	19518
876.906	19449
877.034	19426
877.162	19403
877.29	19365
877.418	19384
877.546	19445
877.674	19377
877.802	19320
877.93	19411
878.058	19445
878.185	19308
878.313	19476
878.441	19304
878.568	19331
878.696	19457
878.824	19563
878.951	19537
879.079	19677
879.206	19795
879.333	19674
879.461	19772
879.588	19776
879.715	19833
879.842	19852
879.97	19666
880.097	19335
880.224	19358
880.351	19460
880.478	19411
880.605	19324
880.732	19327
880.859	19620
880.986	19343
881.112	19415
881.239	19213
881.366	19091
881.493	19061
881.619	18856
881.746	18882
881.872	18939
881.999	18848
882.125	18802
882.252	19057
882.378	18993
882.505	19042
882.631	18871
882.757	18768
882.883	18821
883.01	18760
883.136	18715
883.262	18574
883.388	18604
883.514	18757
883.64	18730
883.766	18547
883.892	18422
884.018	18585
884.143	18722
884.269	18776
884.395	18380
884.52	18471
884.646	18342
884.772	18247
884.897	18197
885.023	18346
885.148	18494
885.274	18486
885.399	18494
885.524	18422
885.65	18410
885.775	18380
885.9	18334
886.025	18456
886.15	18536
886.275	18197
886.4	18277
886.525	18323
886.65	18178
886.775	18209
886.9	18403
887.025	18475
887.149	18216
887.274	18133
887.399	18064
887.523	18015
887.648	18030
887.773	17973
887.897	18247
888.021	18205
888.146	17946
888.27	18182
888.395	18209
888.519	18197
888.643	18102
888.767	18102
888.891	18011
889.015	17866
889.139	17908
889.263	17794
889.387	17961
889.511	17984
889.635	18057
889.759	17897
889.883	17855
890.006	17885
890.13	17992
890.254	17752
890.377	17843
890.501	17672
890.624	17547
890.748	17699
890.871	17665
890.995	17585
891.118	17452
891.241	17566
891.364	17634
891.488	17684
891.611	17516
891.734	17406
891.857	17573
891.98	17509
892.103	17577
892.226	17448
892.349	17524
892.471	17372
892.594	17554
892.717	17425
892.839	17516
892.962	17459
893.085	17322
893.207	17638
893.33	17246
893.452	17425
893.575	17570
893.697	17459
893.819	17509
893.941	17627
894.064	17661
894.186	17467
894.308	17410
894.43	17570
894.552	17600
894.674	17585
894.796	17330
894.918	17315
895.04	17356
895.161	17570
895.283	17543
895.405	17421
895.526	17474
895.648	17535
895.769	17501
895.891	17524
896.012	17551
896.134	17611
896.255	17535
896.376	17501
896.498	17554
896.619	17585
896.74	17596
896.861	17676
896.982	17863
897.103	18060
897.224	17874
897.345	17851
897.466	17737
897.587	17821
897.708	17832
897.828	17752
897.949	17642
898.07	17707
898.19	17680
898.311	17931
898.431	17691
898.552	17756
898.672	17805
898.792	17843
898.913	17752
899.033	17676
899.153	17642
899.273	17558
899.393	17440
899.513	17516
899.633	17505
899.753	17573
899.873	17509
899.993	17611
900.113	17410
900.232	17649
900.352	17486
900.472	17474
900.591	17280
900.711	17383
900.83	17322
900.95	17505
901.069	17436
901.189	17258
901.308	17147
901.427	17052
901.546	16984
901.665	17102
901.784	17064
901.904	16847
902.023	16839
902.141	16691
902.26	16504
902.379	16725
902.498	16508
902.617	16470
902.735	16565
902.854	16485
902.973	16367
903.091	16234
903.21	16390
903.328	16173
903.446	16211
903.565	16067
903.683	16086
903.801	15899
903.919	16143
904.038	16010
904.156	15918
904.274	15937
904.392	15728
904.51	15854
904.627	15800
904.745	15899
904.863	15869
904.981	15572
905.098	15481
905.216	15481
905.334	15507
905.451	15408
905.569	15500
905.686	15515
905.803	15538
905.921	15332
906.038	15317
906.155	15298
906.272	15291
906.389	15207
906.506	15077
906.623	15013
906.74	15062
906.857	15020
906.974	14933
907.091	15131
907.208	15142
907.324	15097
907.441	14979
907.557	14773
907.674	14777
907.79	14720
907.907	14693
908.023	14746
908.139	14739
908.256	14640
908.372	14587
908.488	14522
908.604	14431
908.72	14438
908.836	14492
908.952	14469
909.068	14366
909.184	14488
909.3	14415
909.415	14389
909.531	14389
909.647	14248
909.762	14157
909.878	14149
909.993	14157
910.108	14107
910.224	14168
910.339	14164
910.454	14065
910.57	13997
910.685	13970
910.8	14172
910.915	14172
911.03	14088
911.145	13811
911.259	13788
911.374	13928
911.489	13662
911.604	13613
911.718	13476
911.833	13616
911.947	13453
912.062	13388
912.176	13552
912.291	13483
912.405	13556
912.519	13750
912.633	13807
912.748	13628
912.862	13624
912.976	13331
913.09	13171
913.204	13270
913.318	13445
913.431	13540
913.545	13445
913.659	13499
913.772	13362
913.886	13312
914	13194
914.113	13316
914.226	13419
914.34	13266
914.453	13080
914.566	13320
914.68	13164
914.793	13179
914.906	12947
915.019	13012
915.132	12772
915.245	12909
915.358	12943
915.47	12916
915.583	12901
915.696	12878
915.809	13053
915.921	13019
916.034	12802
916.146	12730
916.259	12787
916.371	12890
916.483	12844
916.595	12711
916.708	12734
916.82	12772
916.932	12749
917.044	12696
917.156	12703
917.268	12650
917.38	12684
917.491	12608
917.603	12551
917.715	12654
917.826	12738
917.938	12639
918.049	12483
918.161	12677
918.272	12776
918.384	12681
918.495	12574
918.606	12464
918.717	12410
918.828	12490
918.939	12490
919.05	12334
919.161	12429
919.272	12254
919.383	12296
919.494	12528
919.604	12681
919.715	12399
919.826	12380
919.936	12403
920.047	12498
920.157	12452
920.267	12677
920.378	12388
920.488	12380
920.598	12642
920.708	12639
920.818	12559
920.928	12574
921.038	12684
921.148	12688
921.258	12410
921.368	12369
921.477	12319
921.587	12087
921.697	12072
921.806	12098
921.916	12045
922.025	11931
922.134	11779
922.244	11821
922.353	11866
922.462	11714
922.571	11638
922.68	11573
922.789	11543
922.898	11554
923.007	11471
923.116	11452
923.224	11448
923.333	11395
923.442	11410
923.55	11345
923.659	11395
923.767	11414
923.876	11353
923.984	11372
924.092	11250
924.201	11307
924.309	11307
924.417	11311
924.525	11273
924.633	11261
924.741	12163
924.849	11113
924.956	11216
925.064	11037
925.172	10946
925.279	11067
925.387	11098
925.494	11033
925.602	11166
925.709	11048
925.816	10980
925.924	11025
926.031	11102
926.138	11056
926.245	11102
926.352	10965
926.459	11094
926.566	11060
926.673	10999
926.779	10896
926.886	10942
926.993	10702
927.099	10649
927.206	10649
927.312	10618
927.419	10694
927.525	10622
927.631	10706
927.737	10584
927.843	10603
927.95	10398
928.056	10516
928.162	10542
928.267	10630
928.373	11143
928.479	10599
928.585	10447
928.69	10554
928.796	10519
928.901	10417
929.007	10280
929.112	10405
929.218	10352
929.323	10341
929.428	10253
929.533	10440
929.638	10230
929.743	10249
929.848	10325
929.953	10367
930.058	10211
930.163	10063
930.267	10017
930.372	10204
930.477	10002
930.581	10246
930.685	10067
930.79	9968
930.894	9953
930.998	9819
931.103	10162
931.207	9709
931.311	9637
931.415	9606
931.519	9435
931.623	9405
