Data from test_V78500241_1046.txt Node
Date: Fri Mar 25 14:41:00 CST 2022
User: usil
Spectrometer: V785-0024
Trigger mode: 0
Integration Time (sec): 4.000000E-1
Scans to average: 1
Nonlinearity correction enabled: false
Boxcar width: 0
Storing dark spectrum: false
XAxis mode: Wavelengths
Number of Pixels in Spectrum: 1024
>>>>>Begin Spectral Data<<<<<
801.071	22759
801.214	22835
801.356	22451
801.499	22481
801.641	22291
801.783	22204
801.926	22173
802.068	22238
802.211	22055
802.353	21975
802.496	21797
802.638	21747
802.78	21652
802.923	21682
803.065	21572
803.208	21561
803.35	21473
803.492	21515
803.635	21705
803.777	21606
803.919	21625
804.061	21998
804.204	21755
804.346	21439
804.488	21515
804.63	21416
804.773	21477
804.915	21450
805.057	21713
805.199	21416
805.341	21675
805.483	21469
805.626	21629
805.768	21458
805.91	21572
806.052	21519
806.194	21420
806.336	21797
806.478	21492
806.62	21561
806.762	21641
806.904	21880
807.046	21960
807.188	21876
807.33	21808
807.472	22025
807.614	21960
807.756	22124
807.898	21975
808.04	21823
808.182	21922
808.324	21983
808.465	22074
808.607	22284
808.749	22500
808.891	22759
809.033	22736
809.174	22653
809.316	22577
809.458	22379
809.6	22223
809.741	22295
809.883	22287
810.025	22276
810.166	22284
810.308	22131
810.45	22090
810.591	22188
810.733	21835
810.875	21884
811.016	21686
811.158	21675
811.299	21785
811.441	22036
811.582	21857
811.724	21739
811.865	21785
812.007	21667
812.148	21641
812.29	21789
812.431	21846
812.573	22074
812.714	22215
812.855	22219
812.997	22295
813.138	22493
813.279	22295
813.421	22234
813.562	22169
813.703	21991
813.845	21964
813.986	21553
814.127	21435
814.268	21340
814.41	21485
814.551	21268
814.692	21321
814.833	21218
814.974	21226
815.115	21154
815.256	21036
815.397	21154
815.539	21055
815.68	21039
815.821	20918
815.962	20979
816.103	20880
816.244	20887
816.385	20880
816.526	20697
816.666	20609
816.807	20355
816.948	20518
817.089	20701
817.23	20461
817.371	20541
817.512	20492
817.653	20457
817.793	20320
817.934	20476
818.075	20381
818.216	20450
818.356	20370
818.497	20309
818.638	20180
818.778	20153
818.919	20024
819.06	20035
819.2	20218
819.341	20301
819.481	20256
819.622	20473
819.762	20617
819.903	20575
820.043	20465
820.184	20415
820.324	20393
820.465	20450
820.605	20495
820.746	20282
820.886	20286
821.026	20457
821.167	20450
821.307	20492
821.447	20317
821.588	20187
821.728	20149
821.868	19982
822.008	19753
822.149	19795
822.289	19655
822.429	19559
822.569	19548
822.709	19426
822.849	19324
822.99	19225
823.13	19259
823.27	19217
823.41	19164
823.55	18970
823.69	19114
823.83	19053
823.97	19050
824.11	18913
824.25	18867
824.389	18878
824.529	18962
824.669	18795
824.809	18958
824.949	18928
825.089	18905
825.228	18886
825.368	18715
825.508	18783
825.648	18726
825.787	18749
825.927	18700
826.067	18639
826.206	18585
826.346	18734
826.485	18559
826.625	18559
826.765	18719
826.904	18677
827.044	18448
827.183	18437
827.323	18376
827.462	18448
827.601	18239
827.741	18186
827.88	18391
828.02	18270
828.159	18262
828.298	18437
828.437	18346
828.577	18304
828.716	18403
828.855	18273
828.994	18106
829.134	18155
829.273	18068
829.412	18034
829.551	18045
829.69	18110
829.829	18079
829.968	18095
830.107	18083
830.246	18117
830.385	18030
830.524	17999
830.663	17855
830.802	17760
830.941	17756
831.08	17657
831.219	17775
831.357	17741
831.496	17904
831.635	17638
831.774	17634
831.913	17554
832.051	17615
832.19	17425
832.329	17634
832.467	17478
832.606	17292
832.744	17364
832.883	17429
833.022	17303
833.16	17417
833.299	17467
833.437	17452
833.576	17512
833.714	17543
833.852	17482
833.991	17532
834.129	17562
834.267	17539
834.406	17368
834.544	17482
834.682	17478
834.821	17417
834.959	17551
835.097	17349
835.235	17547
835.373	17429
835.511	17509
835.65	17284
835.788	17349
835.926	17277
836.064	17124
836.202	17185
836.34	17372
836.478	17398
836.615	17330
836.753	17311
836.891	17368
837.029	17292
837.167	17288
837.305	17235
837.443	17288
837.58	17086
837.718	17360
837.856	17185
837.993	17136
838.131	17193
838.269	17162
838.406	17083
838.544	17132
838.681	16919
838.819	16946
838.956	16717
839.094	16771
839.231	16683
839.369	16927
839.506	17060
839.643	17010
839.781	16759
839.918	16599
840.055	16615
840.193	16843
840.33	16660
840.467	16721
840.604	16626
840.742	17003
840.879	16622
841.016	16626
841.153	16641
841.29	16862
841.427	16801
841.564	16710
841.701	16740
841.838	16679
841.975	16630
842.112	16668
842.249	16611
842.385	16531
842.522	16607
842.659	16535
842.796	16424
842.933	16409
843.069	16603
843.206	16424
843.343	16618
843.479	16542
843.616	16443
843.752	16303
843.889	16306
844.025	16432
844.162	16280
844.298	16409
844.435	16211
844.571	16261
844.708	16318
844.844	16348
844.98	16584
845.117	16535
845.253	16432
845.389	16371
845.525	16500
845.661	16588
845.798	16641
845.934	16892
846.07	16984
846.206	16991
846.342	16904
846.478	16569
846.614	16284
846.75	15972
846.886	15934
847.022	16067
847.158	15778
847.294	15816
847.429	15835
847.565	15869
847.701	16082
847.837	15641
847.972	15580
848.108	15713
848.244	15686
848.379	15435
848.515	15306
848.65	15511
848.786	15485
848.921	15443
849.057	15557
849.192	15500
849.328	15485
849.463	15370
849.598	15439
849.734	15538
849.869	15317
850.004	15272
850.14	15313
850.275	15165
850.41	15138
850.545	15260
850.68	15135
850.815	15233
850.95	15116
851.085	15355
851.22	15252
851.355	15264
851.49	15245
851.625	15093
851.76	15150
851.895	15138
852.03	15036
852.165	15161
852.299	15272
852.434	15249
852.569	15173
852.703	15329
852.838	15233
852.973	15344
853.107	15397
853.242	15192
853.376	15146
853.511	14960
853.645	15047
853.78	15237
853.914	15077
854.048	15055
854.183	14971
854.317	15123
854.451	15237
854.585	15047
854.72	15028
854.854	15142
854.988	15039
855.122	14952
855.256	15051
855.39	15047
855.524	15093
855.658	15199
855.792	15047
855.926	15146
856.06	15142
856.194	15199
856.327	14982
856.461	15116
856.595	15009
856.729	15001
856.862	15173
856.996	15154
857.13	15165
857.263	15203
857.397	15176
857.53	15081
857.664	15081
857.797	15085
857.931	15211
858.064	15127
858.197	15138
858.331	15013
858.464	15058
858.597	14956
858.731	15032
858.864	15036
858.997	14960
859.13	15089
859.263	15127
859.396	15138
859.529	14929
859.662	14971
859.795	14986
859.928	15066
860.061	15112
860.194	15188
860.327	15154
860.46	14979
860.592	15279
860.725	15138
860.858	15165
860.99	15017
861.123	14941
861.256	15024
861.388	15036
861.521	15637
861.653	15028
861.786	14948
861.918	14906
862.05	15039
862.183	15028
862.315	15089
862.447	15089
862.58	14921
862.712	14861
862.844	14773
862.976	14944
863.108	14849
863.24	15283
863.372	14815
863.504	14727
863.636	14785
863.768	14842
863.9	14823
864.032	14625
864.164	14769
864.296	14838
864.428	14895
864.559	14838
864.691	14830
864.823	14880
864.954	14823
865.086	14910
865.217	14750
865.349	14845
865.48	14773
865.612	14781
865.743	14952
865.875	14868
866.006	14708
866.137	14792
866.269	14815
866.4	14815
866.531	14743
866.662	14735
866.793	14815
866.924	14792
867.055	14758
867.186	14823
867.317	14629
867.448	14621
867.579	14712
867.71	14701
867.841	14739
867.972	14724
868.103	14697
868.233	14781
868.364	14807
868.495	14705
868.625	14918
868.756	15074
868.886	14979
869.017	15001
869.147	15097
869.278	15081
869.408	14986
869.539	15020
869.669	15058
869.799	15104
869.929	15131
870.06	15104
870.19	15359
870.32	15393
870.45	15416
870.58	15431
870.71	15564
870.84	15469
870.97	15473
871.1	15351
871.23	15610
871.36	15523
871.489	15561
871.619	15614
871.749	15530
871.879	15679
872.008	15774
872.138	15603
872.267	15660
872.397	15603
872.526	15466
872.656	15367
872.785	15477
872.915	15686
873.044	15793
873.173	15606
873.303	15751
873.432	15728
873.561	15762
873.69	15656
873.819	15671
873.948	15732
874.077	15743
874.206	15576
874.335	15675
874.464	15724
874.593	15949
874.722	15987
874.851	16090
874.979	16063
875.108	16055
875.237	16036
875.365	15930
875.494	15968
875.623	16017
875.751	15869
875.88	16063
876.008	16071
876.136	16147
876.265	16379
876.393	16626
876.521	16565
876.65	16474
876.778	16470
876.906	16261
877.034	16382
877.162	16489
877.29	16382
877.418	16371
877.546	16451
877.674	16459
877.802	16421
877.93	16299
878.058	16402
878.185	16291
878.313	16421
878.441	16424
878.568	16238
878.696	16428
878.824	16561
878.951	16664
879.079	16763
879.206	16889
879.333	16816
879.461	16786
879.588	16866
879.715	17056
879.842	17136
879.97	16881
880.097	16508
880.224	16466
880.351	16462
880.478	16497
880.605	16249
880.732	16504
880.859	16664
880.986	16443
881.112	16428
881.239	16318
881.366	16185
881.493	16036
881.619	16029
881.746	16040
881.872	16051
881.999	15934
882.125	15945
882.252	15987
882.378	16002
882.505	16131
882.631	15953
882.757	15808
882.883	15865
883.01	15846
883.136	15728
883.262	15759
883.388	15587
883.514	15819
883.64	15762
883.766	15770
883.892	15648
884.018	15724
884.143	15831
884.269	15918
884.395	15530
884.52	15561
884.646	15580
884.772	15340
884.897	15431
885.023	15591
885.148	15587
885.274	15652
885.399	15625
885.524	15561
885.65	15641
885.775	15534
885.9	15545
886.025	15610
886.15	15633
886.275	15397
886.4	15405
886.525	15435
886.65	15439
886.775	15348
886.9	15492
887.025	15663
887.149	15477
887.274	15275
887.399	15275
887.523	15329
887.648	15283
887.773	15226
887.897	15226
888.021	15325
888.146	15310
888.27	15393
888.395	15321
888.519	15313
888.643	15340
888.767	15264
888.891	15203
889.015	15146
889.139	15150
889.263	15085
889.387	15264
889.511	15298
889.635	15249
889.759	15131
889.883	15077
890.006	15214
890.13	15291
890.254	15085
890.377	14971
890.501	14902
890.624	14792
890.748	14880
890.871	14899
890.995	14762
891.118	14689
891.241	14845
891.364	14781
891.488	14956
891.611	14792
891.734	14708
891.857	14899
891.98	14674
892.103	14906
892.226	14811
892.349	14735
892.471	14648
892.594	14773
892.717	14830
892.839	14845
892.962	14823
893.085	14880
893.207	14872
893.33	14712
893.452	14735
893.575	14880
893.697	14762
893.819	14975
893.941	14998
894.064	14872
894.186	14842
894.308	14746
894.43	14800
894.552	14925
894.674	14960
894.796	14758
894.918	14689
895.04	14746
895.161	14880
895.283	14883
895.405	14777
895.526	14861
895.648	14785
895.769	14845
895.891	14864
896.012	14990
896.134	14956
896.255	14872
896.376	14880
896.498	14944
896.619	14933
896.74	14937
896.861	14956
896.982	15351
897.103	15397
897.224	15245
897.345	15142
897.466	15066
897.587	15165
897.708	15272
897.828	15161
897.949	15173
898.07	15039
898.19	15108
898.311	15264
898.431	15161
898.552	15192
898.672	15363
898.792	15382
898.913	15237
899.033	15192
899.153	15062
899.273	15017
899.393	15051
899.513	15074
899.633	15043
899.753	15119
899.873	15119
899.993	15142
900.113	15104
900.232	15142
900.352	15100
900.472	15001
900.591	14929
900.711	15005
900.83	14804
900.95	15028
901.069	15001
901.189	14830
901.308	14727
901.427	14560
901.546	14708
901.665	14533
901.784	14610
901.904	14431
902.023	14419
902.141	14332
902.26	14313
902.379	14278
902.498	14157
902.617	14191
902.735	14191
902.854	14206
902.973	14088
903.091	13944
903.21	13894
903.328	13860
903.446	13791
903.565	13807
903.683	13776
903.801	13632
903.919	13696
904.038	13655
904.156	13537
904.274	13704
904.392	13571
904.51	13453
904.627	13480
904.745	13719
904.863	13502
904.981	13358
905.098	13263
905.216	13251
905.334	13202
905.451	13213
905.569	13156
905.686	13274
905.803	13251
905.921	13095
906.038	13240
906.155	13099
906.272	12973
906.389	12928
906.506	12863
906.623	12894
906.74	12753
906.857	12772
906.974	12753
907.091	12871
907.208	12875
907.324	12840
907.441	12738
907.557	12532
907.674	12566
907.79	12532
907.907	12452
908.023	12525
908.139	12593
908.256	12574
908.372	12506
908.488	12365
908.604	12376
908.72	12300
908.836	12365
908.952	12220
909.068	12323
909.184	12429
909.3	12285
909.415	12342
909.531	12391
909.647	12144
909.762	12148
909.878	11980
909.993	12163
910.108	12011
910.224	12030
910.339	11996
910.454	11923
910.57	11916
910.685	11809
910.8	12117
910.915	12030
911.03	11996
911.145	11817
911.259	11699
911.374	11798
911.489	11710
911.604	11619
911.718	11452
911.833	11482
911.947	11444
912.062	11337
912.176	11509
912.291	11570
912.405	11543
912.519	11627
912.633	11756
912.748	11566
912.862	11387
912.976	11368
913.09	11284
913.204	11212
913.318	11334
913.431	11497
913.545	11497
913.659	11474
913.772	11368
913.886	11208
914	11246
914.113	11376
914.226	11292
914.34	11318
914.453	11151
914.566	11315
914.68	11181
914.793	11208
914.906	10923
915.019	10946
915.132	10904
915.245	10927
915.358	11003
915.47	11048
915.583	10999
915.696	11025
915.809	11102
915.921	11117
916.034	10927
916.146	11010
916.259	10873
916.371	11056
916.483	10984
916.595	10866
916.708	10911
916.82	10911
916.932	10854
917.044	10885
917.156	10858
917.268	10759
917.38	10824
917.491	10786
917.603	10805
917.715	10824
917.826	10915
917.938	10778
918.049	10592
918.161	10771
918.272	11003
918.384	10930
918.495	10771
918.606	10691
918.717	10527
918.828	10675
918.939	10641
919.05	10538
919.161	10694
919.272	10409
919.383	10584
919.494	10698
919.604	10930
919.715	10706
919.826	10542
919.936	10664
920.047	10710
920.157	10683
920.267	10816
920.378	10698
920.488	10622
920.598	10889
920.708	10999
920.818	10843
920.928	10843
921.038	11006
921.148	10976
921.258	10691
921.368	10592
921.477	10615
921.587	10481
921.697	10363
921.806	10512
921.916	10421
922.025	10196
922.134	10227
922.244	10181
922.353	10276
922.462	10135
922.571	10044
922.68	9918
922.789	9907
922.898	9964
923.007	9850
923.116	9892
923.224	9876
923.333	9873
923.442	9785
923.55	9705
923.659	9804
923.767	9778
923.876	9781
923.984	9747
924.092	9656
924.201	9797
924.309	9755
924.417	9759
924.525	9595
924.633	9728
924.741	10554
924.849	9545
924.956	9656
925.064	9526
925.172	9454
925.279	9458
925.387	9523
925.494	9454
925.602	9755
925.709	9580
925.816	9443
925.924	9545
926.031	9553
926.138	9523
926.245	9530
926.352	9424
926.459	9610
926.566	9557
926.673	9481
926.779	9355
926.886	9310
926.993	9237
927.099	9188
927.206	9226
927.312	9214
927.419	9279
927.525	9165
927.631	9275
927.737	9161
927.843	9100
927.95	8975
928.056	9173
928.162	9051
928.267	9180
928.373	9743
928.479	9131
928.585	8921
928.69	9154
928.796	9131
928.901	9055
929.007	8853
929.112	8986
929.218	8979
929.323	8975
929.428	8933
929.533	9032
929.638	8864
929.743	8963
929.848	8990
929.953	8834
930.058	8830
930.163	8651
930.267	8686
930.372	8811
930.477	8571
930.581	8925
930.685	8758
930.79	8598
930.894	8644
930.998	8610
931.103	8735
931.207	8476
931.311	8400
931.415	8279
931.519	8145
931.623	8145
