Data from test_V78500241_3637.txt Node
Date: Fri Mar 25 14:59:02 CST 2022
User: usil
Spectrometer: V785-0024
Trigger mode: 0
Integration Time (sec): 4.000000E-1
Scans to average: 1
Nonlinearity correction enabled: false
Boxcar width: 0
Storing dark spectrum: false
XAxis mode: Wavelengths
Number of Pixels in Spectrum: 1024
>>>>>Begin Spectral Data<<<<<
801.071	21812
801.214	21804
801.356	21545
801.499	21332
801.641	21279
801.783	21272
801.926	21218
802.068	21275
802.211	21203
802.353	21001
802.496	20785
802.638	20693
802.78	20716
802.923	20609
803.065	20598
803.208	20526
803.35	20587
803.492	20727
803.635	20659
803.777	20621
803.919	20606
804.061	20891
804.204	20621
804.346	20590
804.488	20343
804.63	20602
804.773	20389
804.915	20549
805.057	20549
805.199	20495
805.341	20511
805.483	20583
805.626	20651
805.768	20434
805.91	20640
806.052	20511
806.194	20450
806.336	20667
806.478	20461
806.62	20343
806.762	20492
806.904	20640
807.046	20830
807.188	20842
807.33	20883
807.472	20864
807.614	20667
807.756	20769
807.898	20621
808.04	20526
808.182	20613
808.324	20518
808.465	20552
808.607	20716
808.749	20834
808.891	20937
809.033	21096
809.174	20998
809.316	20788
809.458	20910
809.6	20876
809.741	20849
809.883	20845
810.025	20963
810.166	20982
810.308	21024
810.45	20910
810.591	20785
810.733	20853
810.875	20594
811.016	20564
811.158	20484
811.299	20571
811.441	20777
811.582	20796
811.724	20617
811.865	20712
812.007	20621
812.148	20609
812.29	20678
812.431	20632
812.573	20979
812.714	20902
812.855	21020
812.997	21146
813.138	21378
813.279	21237
813.421	21089
813.562	20925
813.703	20830
813.845	20800
813.986	20507
814.127	20305
814.268	20183
814.41	20191
814.551	20142
814.692	20210
814.833	20164
814.974	19978
815.115	20180
815.256	19944
815.397	19947
815.539	20027
815.68	19959
815.821	19791
815.962	19860
816.103	19871
816.244	19635
816.385	19624
816.526	19567
816.666	19411
816.807	19354
816.948	19297
817.089	19369
817.23	19358
817.371	19324
817.512	19263
817.653	19282
817.793	19285
817.934	19171
818.075	19316
818.216	19320
818.356	19221
818.497	19038
818.638	18951
818.778	18966
818.919	18894
819.06	18875
819.2	19069
819.341	19251
819.481	19160
819.622	19266
819.762	19407
819.903	19369
820.043	19304
820.184	19240
820.324	19244
820.465	19346
820.605	19327
820.746	19282
820.886	19194
821.026	19236
821.167	19168
821.307	19282
821.447	19225
821.588	19015
821.728	18871
821.868	18783
822.008	18681
822.149	18631
822.289	18753
822.429	18380
822.569	18418
822.709	18346
822.849	18171
822.99	18235
823.13	18117
823.27	18072
823.41	17969
823.55	17889
823.69	17863
823.83	18053
823.97	18041
824.11	17653
824.25	17737
824.389	17684
824.529	17866
824.669	17790
824.809	17874
824.949	17790
825.089	17882
825.228	17718
825.368	17554
825.508	17539
825.648	17459
825.787	17535
825.927	17528
826.067	17501
826.206	17444
826.346	17516
826.485	17501
826.625	17596
826.765	17642
826.904	17543
827.044	17360
827.183	17379
827.323	17189
827.462	17330
827.601	17227
827.741	17166
827.88	17250
828.02	17140
828.159	17292
828.298	17212
828.437	17265
828.577	17067
828.716	17341
828.855	17208
828.994	16949
829.134	16904
829.273	17052
829.412	16915
829.551	17006
829.69	16930
829.829	16923
829.968	17109
830.107	17075
830.246	16987
830.385	16850
830.524	16847
830.663	16809
830.802	16805
830.941	16542
831.08	16592
831.219	16687
831.357	16752
831.496	16725
831.635	16607
831.774	16538
831.913	16565
832.051	16447
832.19	16379
832.329	16489
832.467	16402
832.606	16188
832.744	16219
832.883	16242
833.022	16188
833.16	16246
833.299	16375
833.437	16318
833.576	16329
833.714	16421
833.852	16386
833.991	16413
834.129	16474
834.267	16299
834.406	16382
834.544	16413
834.682	16360
834.821	16303
834.959	16500
835.097	16280
835.235	16474
835.373	16523
835.511	16379
835.65	16295
835.788	16306
835.926	16086
836.064	16040
836.202	16166
836.34	16337
836.478	16291
836.615	16268
836.753	16219
836.891	16337
837.029	16234
837.167	16226
837.305	16246
837.443	16261
837.58	16177
837.718	16154
837.856	16185
837.993	16059
838.131	16143
838.269	16074
838.406	16116
838.544	16124
838.681	15934
838.819	15861
838.956	15660
839.094	15698
839.231	15641
839.369	15865
839.506	16105
839.643	15892
839.781	15789
839.918	15713
840.055	15641
840.193	15682
840.33	15667
840.467	15675
840.604	15720
840.742	15968
840.879	15599
841.016	15538
841.153	15572
841.29	15804
841.427	15816
841.564	15793
841.701	15694
841.838	15675
841.975	15644
842.112	15603
842.249	15584
842.385	15416
842.522	15724
842.659	15549
842.796	15450
842.933	15595
843.069	15458
843.206	15454
843.343	15534
843.479	15530
843.616	15447
843.752	15386
843.889	15230
844.025	15435
844.162	15230
844.298	15374
844.435	15264
844.571	15237
844.708	15344
844.844	15386
844.98	15382
845.117	15329
845.253	15260
845.389	15089
845.525	15161
845.661	15203
845.798	15039
845.934	15104
846.07	15055
846.206	15165
846.342	15214
846.478	15093
846.614	14838
846.75	14838
846.886	14891
847.022	14956
847.158	14967
847.294	14910
847.429	14883
847.565	14853
847.701	15108
847.837	14644
847.972	14651
848.108	14739
848.244	14651
848.379	14484
848.515	14393
848.65	14412
848.786	14499
848.921	14480
849.057	14667
849.192	14556
849.328	14450
849.463	14412
849.598	14457
849.734	14400
849.869	14229
850.004	14347
850.14	14214
850.275	14237
850.41	14157
850.545	14183
850.68	14145
850.815	14256
850.95	14206
851.085	14412
851.22	14305
851.355	14263
851.49	14282
851.625	14202
851.76	14168
851.895	14077
852.03	14130
852.165	14187
852.299	14332
852.434	14218
852.569	14271
852.703	14237
852.838	14298
852.973	14385
853.107	14343
853.242	14176
853.376	14180
853.511	14024
853.645	14035
853.78	14305
853.914	14058
854.048	14069
854.183	14058
854.317	14065
854.451	14221
854.585	14081
854.72	14027
854.854	14180
854.988	13993
855.122	14069
855.256	13982
855.39	14126
855.524	14191
855.658	14157
855.792	14248
855.926	14058
856.06	14065
856.194	14134
856.327	14054
856.461	14001
856.595	14084
856.729	14008
856.862	14233
856.996	14126
857.13	14218
857.263	14240
857.397	14202
857.53	14107
857.664	14096
857.797	14187
857.931	14233
858.064	14267
858.197	14263
858.331	14145
858.464	13978
858.597	13982
858.731	14077
858.864	14115
858.997	14092
859.13	14084
859.263	14096
859.396	14214
859.529	14058
859.662	14050
859.795	14027
859.928	14115
860.061	14282
860.194	14271
860.327	14157
860.46	14172
860.592	14214
860.725	14218
860.858	14202
860.99	14092
861.123	14073
861.256	13955
861.388	14145
861.521	14864
861.653	14008
861.786	13902
861.918	13898
862.05	13978
862.183	14012
862.315	14123
862.447	14065
862.58	14065
862.712	13947
862.844	13845
862.976	13917
863.108	13928
863.24	14404
863.372	13757
863.504	13830
863.636	13883
863.768	13986
863.9	13902
864.032	13765
864.164	13822
864.296	13898
864.428	13982
864.559	14008
864.691	13883
864.823	13967
864.954	13913
865.086	13921
865.217	13951
865.349	13765
865.48	13852
865.612	13871
865.743	13970
865.875	13791
866.006	13875
866.137	13814
866.269	13947
866.4	13852
866.531	13826
866.662	13765
866.793	13913
866.924	13822
867.055	13959
867.186	13921
867.317	13818
867.448	13871
867.579	13818
867.71	13742
867.841	13734
867.972	13856
868.103	13970
868.233	13849
868.364	13845
868.495	14024
868.625	14043
868.756	14206
868.886	14077
869.017	14138
869.147	14168
869.278	14358
869.408	14172
869.539	14088
869.669	14073
869.799	14134
869.929	14172
870.06	14263
870.19	14427
870.32	14415
870.45	14492
870.58	14587
870.71	14640
870.84	14575
870.97	14518
871.1	14587
871.23	14670
871.36	14739
871.489	14568
871.619	14727
871.749	14781
871.879	14743
872.008	14804
872.138	14735
872.267	14644
872.397	14613
872.526	14552
872.656	14564
872.785	14473
872.915	14792
873.044	14819
873.173	14743
873.303	14906
873.432	14891
873.561	14830
873.69	14823
873.819	14914
873.948	14887
874.077	14788
874.206	14773
874.335	14823
874.464	14906
874.593	15062
874.722	14944
874.851	15146
874.979	15142
875.108	15131
875.237	15013
875.365	14937
875.494	15043
875.623	15157
875.751	15066
875.88	15131
876.008	15199
876.136	15283
876.265	15477
876.393	15705
876.521	15542
876.65	15587
876.778	15538
876.906	15530
877.034	15458
877.162	15374
877.29	15496
877.418	15435
877.546	15595
877.674	15496
877.802	15538
877.93	15485
878.058	15397
878.185	15382
878.313	15519
878.441	15469
878.568	15405
878.696	15523
878.824	15462
878.951	15500
879.079	15667
879.206	15774
879.333	15667
879.461	15610
879.588	15587
879.715	15675
879.842	15812
879.97	15610
880.097	15302
880.224	15378
880.351	15458
880.478	15386
880.605	15302
880.732	15447
880.859	15648
880.986	15367
881.112	15424
881.239	15203
881.366	15245
881.493	14963
881.619	15039
881.746	14990
881.872	14956
881.999	14990
882.125	14963
882.252	15066
882.378	15062
882.505	15207
882.631	14906
882.757	14842
882.883	14792
883.01	14823
883.136	14773
883.262	14636
883.388	14693
883.514	14914
883.64	14899
883.766	14765
883.892	14648
884.018	14701
884.143	14800
884.269	14929
884.395	14663
884.52	14552
884.646	14610
884.772	14492
884.897	14537
885.023	14590
885.148	14621
885.274	14731
885.399	14678
885.524	14568
885.65	14602
885.775	14552
885.9	14507
886.025	14686
886.15	14560
886.275	14503
886.4	14530
886.525	14488
886.65	14427
886.775	14412
886.9	14590
887.025	14815
887.149	14533
887.274	14396
887.399	14282
887.523	14301
887.648	14298
887.773	14362
887.897	14438
888.021	14457
888.146	14320
888.27	14450
888.395	14446
888.519	14366
888.643	14469
888.767	14450
888.891	14317
889.015	14195
889.139	14332
889.263	14191
889.387	14381
889.511	14522
889.635	14389
889.759	14168
889.883	14313
890.006	14309
890.13	14347
890.254	14153
890.377	14237
890.501	14130
890.624	13974
890.748	14062
890.871	13925
890.995	13868
891.118	13795
891.241	13993
891.364	13936
891.488	14092
891.611	13936
891.734	13864
891.857	14088
891.98	13993
892.103	14008
892.226	14062
892.349	13902
892.471	13791
892.594	13868
892.717	13997
892.839	13898
892.962	13967
893.085	14008
893.207	14016
893.33	13864
893.452	13871
893.575	14039
893.697	13974
893.819	14123
893.941	14149
894.064	14001
894.186	13894
894.308	13970
894.43	14005
894.552	14077
894.674	14069
894.796	14027
894.918	13997
895.04	13955
895.161	14134
895.283	13993
895.405	13993
895.526	14027
895.648	14001
895.769	14043
895.891	14126
896.012	14145
896.134	14161
896.255	14062
896.376	13978
896.498	14077
896.619	14161
896.74	14221
896.861	14115
896.982	14507
897.103	14606
897.224	14450
897.345	14366
897.466	14355
897.587	14336
897.708	14442
897.828	14507
897.949	14381
898.07	14278
898.19	14336
898.311	14533
898.431	14400
898.552	14419
898.672	14568
898.792	14503
898.913	14530
899.033	14358
899.153	14347
899.273	14278
899.393	14351
899.513	14248
899.633	14305
899.753	14309
899.873	14309
899.993	14374
900.113	14317
900.232	14434
900.352	14244
900.472	14252
900.591	14145
900.711	14237
900.83	14164
900.95	14218
901.069	14332
901.189	14145
901.308	13932
901.427	13826
901.546	13830
901.665	13944
901.784	13822
901.904	13811
902.023	13765
902.141	13556
902.26	13472
902.379	13567
902.498	13533
902.617	13403
902.735	13472
902.854	13491
902.973	13400
903.091	13141
903.21	13240
903.328	13225
903.446	13099
903.565	13004
903.683	12977
903.801	12916
903.919	13069
904.038	13046
904.156	12840
904.274	13000
904.392	12856
904.51	12856
904.627	12833
904.745	12901
904.863	12871
904.981	12642
905.098	12544
905.216	12536
905.334	12566
905.451	12578
905.569	12563
905.686	12566
905.803	12627
905.921	12353
906.038	12426
906.155	12437
906.272	12175
906.389	12315
906.506	12167
906.623	12235
906.74	12129
906.857	12076
906.974	12140
907.091	12186
907.208	12270
907.324	12163
907.441	12079
907.557	11980
907.674	11885
907.79	11920
907.907	11855
908.023	11927
908.139	11931
908.256	11840
908.372	11802
908.488	11847
908.604	11710
908.72	11581
908.836	11672
908.952	11649
909.068	11680
909.184	11760
909.3	11695
909.415	11805
909.531	11722
909.647	11467
909.762	11471
909.878	11444
909.993	11452
910.108	11372
910.224	11452
910.339	11356
910.454	11326
910.57	11337
910.685	11227
910.8	11402
910.915	11349
911.03	11258
911.145	11204
911.259	11166
911.374	11121
911.489	11029
911.604	10984
911.718	10885
911.833	10927
911.947	10752
912.062	10710
912.176	10972
912.291	10938
912.405	10927
912.519	11052
912.633	11193
912.748	10930
912.862	10972
912.976	10812
913.09	10634
913.204	10729
913.318	10778
913.431	10850
913.545	10839
913.659	10995
913.772	10767
913.886	10687
914	10622
914.113	10729
914.226	10820
914.34	10710
914.453	10603
914.566	10790
914.68	10615
914.793	10660
914.906	10428
915.019	10382
915.132	10356
915.245	10428
915.358	10398
915.47	10360
915.583	10405
915.696	10409
915.809	10565
915.921	10607
916.034	10405
916.146	10375
916.259	10310
916.371	10417
916.483	10470
916.595	10310
916.708	10352
916.82	10424
916.932	10329
917.044	10367
917.156	10344
917.268	10230
917.38	10227
917.491	10215
917.603	10238
917.715	10329
917.826	10325
917.938	10253
918.049	10090
918.161	10196
918.272	10360
918.384	10348
918.495	10261
918.606	10150
918.717	10055
918.828	10177
918.939	10120
919.05	10044
919.161	10139
919.272	9854
919.383	10021
919.494	10173
919.604	10284
919.715	10139
919.826	10048
919.936	10109
920.047	10276
920.157	10185
920.267	10325
920.378	10154
920.488	10120
920.598	10287
920.708	10432
920.818	10394
920.928	10371
921.038	10474
921.148	10443
921.258	10211
921.368	10112
921.477	9960
921.587	10112
921.697	9945
921.806	9968
921.916	9922
922.025	9694
922.134	9720
922.244	9675
922.353	9736
922.462	9606
922.571	9545
922.68	9389
922.789	9374
922.898	9393
923.007	9386
923.116	9412
923.224	9389
923.333	9389
923.442	9351
923.55	9313
923.659	9306
923.767	9355
923.876	9214
923.984	9268
924.092	9157
924.201	9287
924.309	9272
924.417	9222
924.525	9260
924.633	9272
924.741	10017
924.849	9036
924.956	9203
925.064	9074
925.172	8914
925.279	9020
925.387	9051
925.494	9024
925.602	9135
925.709	9135
925.816	9043
925.924	9070
926.031	9104
926.138	9051
926.245	9169
926.352	8990
926.459	9176
926.566	9161
926.673	9051
926.779	8887
926.886	8872
926.993	8735
927.099	8731
927.206	8731
927.312	8697
927.419	8804
927.525	8819
927.631	8838
927.737	8750
927.843	8621
927.95	8583
928.056	8594
928.162	8644
928.267	8689
928.373	9211
928.479	8758
928.585	8545
928.69	8655
928.796	8712
928.901	8651
929.007	8423
929.112	8625
929.218	8564
929.323	8499
929.428	8511
929.533	8644
929.638	8450
929.743	8457
929.848	8560
929.953	8492
930.058	8404
930.163	8282
930.267	8244
930.372	8465
930.477	8286
930.581	8457
930.685	8332
930.79	8305
930.894	8320
930.998	8157
931.103	8393
931.207	7997
931.311	7967
931.415	7887
931.519	7776
931.623	7712
