Data from test_V78500241_322.txt Node
Date: Fri Mar 25 14:35:57 CST 2022
User: usil
Spectrometer: V785-0024
Trigger mode: 0
Integration Time (sec): 4.000000E-1
Scans to average: 1
Nonlinearity correction enabled: false
Boxcar width: 0
Storing dark spectrum: false
XAxis mode: Wavelengths
Number of Pixels in Spectrum: 1024
>>>>>Begin Spectral Data<<<<<
801.071	26914
801.214	27089
801.356	26746
801.499	26598
801.641	26575
801.783	26545
801.926	26568
802.068	26476
802.211	26484
802.353	26393
802.496	26050
802.638	26096
802.78	26088
802.923	25921
803.065	25986
803.208	25963
803.35	25978
803.492	26062
803.635	26001
803.777	26031
803.919	26088
804.061	26309
804.204	25963
804.346	25837
804.488	25845
804.63	25841
804.773	25898
804.915	25875
805.057	25993
805.199	25879
805.341	26024
805.483	25997
805.626	26001
805.768	25917
805.91	26073
806.052	26122
806.194	25879
806.336	26301
806.478	25947
806.62	25921
806.762	26039
806.904	26183
807.046	26609
807.188	26423
807.33	26355
807.472	26347
807.614	26317
807.756	26393
807.898	26172
808.04	26039
808.182	26298
808.324	26240
808.465	26157
808.607	26362
808.749	26503
808.891	26594
809.033	26701
809.174	26655
809.316	26556
809.458	26549
809.6	26507
809.741	26514
809.883	26545
810.025	26785
810.166	26693
810.308	26697
810.45	26590
810.591	26480
810.733	26469
810.875	26343
811.016	26396
811.158	26240
811.299	26431
811.441	26526
811.582	26419
811.724	26313
811.865	26218
812.007	26419
812.148	26412
812.29	26469
812.431	26446
812.573	26594
812.714	26659
812.855	26724
812.997	26849
813.138	26937
813.279	27009
813.421	26864
813.562	26956
813.703	26632
813.845	26389
813.986	26164
814.127	26046
814.268	25955
814.41	25947
814.551	25803
814.692	26001
814.833	25822
814.974	25696
815.115	25966
815.256	25620
815.397	25761
815.539	25712
815.68	25750
815.821	25502
815.962	25723
816.103	25594
816.244	25460
816.385	25354
816.526	25316
816.666	25145
816.807	25095
816.948	25000
817.089	25103
817.23	25004
817.371	25118
817.512	24924
817.653	24909
817.793	24966
817.934	24939
818.075	25072
818.216	25050
818.356	24871
818.497	24913
818.638	24738
818.778	24719
818.919	24677
819.06	24730
819.2	24806
819.341	24970
819.481	24924
819.622	25023
819.762	25221
819.903	25126
820.043	25133
820.184	24939
820.324	25114
820.465	25076
820.605	25019
820.746	25091
820.886	24913
821.026	24935
821.167	24905
821.307	24916
821.447	24848
821.588	24745
821.728	24730
821.868	24486
822.008	24296
822.149	24270
822.289	24334
822.429	23999
822.569	23912
822.709	23988
822.849	23783
822.99	23935
823.13	23699
823.27	23600
823.41	23627
823.55	23619
823.69	23634
823.83	23695
823.97	23490
824.11	23330
824.25	23421
824.389	23353
824.529	23368
824.669	23353
824.809	23459
824.949	23429
825.089	23391
825.228	23288
825.368	23269
825.508	23124
825.648	23250
825.787	23136
825.927	23318
826.067	23109
826.206	23098
826.346	23296
826.485	23200
826.625	23147
826.765	23250
826.904	23136
827.044	22908
827.183	22801
827.323	22801
827.462	22942
827.601	22854
827.741	22809
827.88	22873
828.02	22664
828.159	22774
828.298	22786
828.437	22892
828.577	22713
828.716	22835
828.855	22710
828.994	22592
829.134	22432
829.273	22691
829.412	22440
829.551	22489
829.69	22519
829.829	22538
829.968	22577
830.107	22531
830.246	22474
830.385	22466
830.524	22402
830.663	22272
830.802	22154
830.941	22154
831.08	22078
831.219	22036
831.357	22143
831.496	22314
831.635	22078
831.774	22040
831.913	21956
832.051	21876
832.19	21876
832.329	21785
832.467	21713
832.606	21679
832.744	21747
832.883	21751
833.022	21682
833.16	21747
833.299	21736
833.437	21759
833.576	21705
833.714	21766
833.852	21698
833.991	21739
834.129	21808
834.267	21804
834.406	21751
834.544	21804
834.682	21751
834.821	21652
834.959	21774
835.097	21660
835.235	21724
835.373	21648
835.511	21679
835.65	21572
835.788	21629
835.926	21447
836.064	21321
836.202	21462
836.34	21534
836.478	21629
836.615	21591
836.753	21587
836.891	21667
837.029	21473
837.167	21416
837.305	21504
837.443	21431
837.58	21428
837.718	21469
837.856	21507
837.993	21325
838.131	21275
838.269	21348
838.406	21252
838.544	21131
838.681	21211
838.819	20979
838.956	20887
839.094	20971
839.231	20914
839.369	21032
839.506	21237
839.643	21119
839.781	20792
839.918	20693
840.055	20880
840.193	20754
840.33	20743
840.467	20807
840.604	20910
840.742	20883
840.879	20621
841.016	20689
841.153	20583
841.29	20781
841.427	20857
841.564	20838
841.701	20716
841.838	20735
841.975	20629
842.112	20708
842.249	20564
842.385	20499
842.522	20644
842.659	20667
842.796	20495
842.933	20454
843.069	20454
843.206	20343
843.343	20556
843.479	20587
843.616	20499
843.752	20275
843.889	20187
844.025	20415
844.162	20202
844.298	20431
844.435	20191
844.571	20214
844.708	20180
844.844	20370
844.98	20336
845.117	20168
845.253	20214
845.389	20103
845.525	20081
845.661	20122
845.798	20058
845.934	20100
846.07	20084
846.206	20180
846.342	20138
846.478	20035
846.614	19909
846.75	19795
846.886	19784
847.022	19864
847.158	19795
847.294	19734
847.429	19803
847.565	19689
847.701	19963
847.837	19495
847.972	19403
848.108	19582
848.244	19460
848.379	19369
848.515	19198
848.65	19202
848.786	19297
848.921	19373
849.057	19358
849.192	19308
849.328	19381
849.463	19251
849.598	19206
849.734	19247
849.869	19156
850.004	19069
850.14	19046
850.275	19042
850.41	18897
850.545	18977
850.68	18939
850.815	19046
850.95	18951
851.085	19228
851.22	19110
851.355	19019
851.49	18977
851.625	19019
851.76	19000
851.895	18924
852.03	18924
852.165	18924
852.299	18897
852.434	19171
852.569	19042
852.703	19004
852.838	19065
852.973	18962
853.107	19103
853.242	18886
853.376	18791
853.511	18779
853.645	18791
853.78	18829
853.914	18859
854.048	18795
854.183	18764
854.317	18772
854.451	18954
854.585	18810
854.72	18798
854.854	18916
854.988	18760
855.122	18719
855.256	18604
855.39	18829
855.524	18951
855.658	18802
855.792	18897
855.926	18848
856.06	18882
856.194	18882
856.327	18844
856.461	18692
856.595	18661
856.729	18757
856.862	18878
856.996	18776
857.13	18882
857.263	18901
857.397	18825
857.53	18833
857.664	18817
857.797	18958
857.931	18909
858.064	18787
858.197	18852
858.331	18753
858.464	18677
858.597	18646
858.731	18684
858.864	18665
858.997	18700
859.13	18768
859.263	18715
859.396	18913
859.529	18779
859.662	18707
859.795	18692
859.928	18772
860.061	18973
860.194	18882
860.327	18665
860.46	18654
860.592	18844
860.725	18928
860.858	18798
860.99	18631
861.123	18650
861.256	18661
861.388	18753
861.521	19445
861.653	18597
861.786	18597
861.918	18639
862.05	18627
862.183	18593
862.315	18814
862.447	18878
862.58	18684
862.712	18578
862.844	18547
862.976	18513
863.108	18570
863.24	18798
863.372	18555
863.504	18418
863.636	18506
863.768	18483
863.9	18479
864.032	18494
864.164	18384
864.296	18448
864.428	18467
864.559	18418
864.691	18475
864.823	18532
864.954	18532
865.086	18323
865.217	18433
865.349	18315
865.48	18258
865.612	18361
865.743	18582
865.875	18426
866.006	18315
866.137	18471
866.269	18395
866.4	18509
866.531	18361
866.662	18209
866.793	18365
866.924	18251
867.055	18315
867.186	18258
867.317	18327
867.448	18266
867.579	18140
867.71	18155
867.841	18197
867.972	18426
868.103	18205
868.233	18270
868.364	18334
868.495	18407
868.625	18509
868.756	18593
868.886	18407
869.017	18433
869.147	18661
869.278	18684
869.408	18528
869.539	18540
869.669	18604
869.799	18597
869.929	18684
870.06	18578
870.19	18837
870.32	18859
870.45	18909
870.58	18905
870.71	19072
870.84	18993
870.97	18970
871.1	18970
871.23	19076
871.36	19080
871.489	19080
871.619	19110
871.749	19053
871.879	19202
872.008	19266
872.138	19076
872.267	19057
872.397	19004
872.526	19034
872.656	18993
872.785	18973
872.915	19232
873.044	19202
873.173	19217
873.303	19259
873.432	19244
873.561	19202
873.69	19137
873.819	19053
873.948	19194
874.077	19244
874.206	19141
874.335	19190
874.464	19369
874.593	19502
874.722	19415
874.851	19552
874.979	19464
875.108	19411
875.237	19411
875.365	19415
875.494	19544
875.623	19677
875.751	19365
875.88	19445
876.008	19616
876.136	19571
876.265	19807
876.393	19967
876.521	20043
876.65	19875
876.778	19944
876.906	19837
877.034	19814
877.162	19875
877.29	19772
877.418	19849
877.546	19883
877.674	19791
877.802	19826
877.93	19776
878.058	19875
878.185	19681
878.313	19776
878.441	19772
878.568	19613
878.696	19693
878.824	19849
878.951	19856
879.079	20069
879.206	20058
879.333	20107
879.461	20054
879.588	20054
879.715	20058
879.842	20134
879.97	19967
880.097	19719
880.224	19746
880.351	19776
880.478	19761
880.605	19712
880.732	19662
880.859	19951
880.986	19738
881.112	19616
881.239	19453
881.366	19438
881.493	19324
881.619	19411
881.746	19411
881.872	19213
881.999	19240
882.125	19148
882.252	19358
882.378	19206
882.505	19529
882.631	19179
882.757	19148
882.883	19023
883.01	19107
883.136	19004
883.262	18954
883.388	18909
883.514	19160
883.64	19122
883.766	18966
883.892	18825
884.018	18863
884.143	18962
884.269	19046
884.395	18772
884.52	18673
884.646	18741
884.772	18673
884.897	18639
885.023	18741
885.148	18734
885.274	18890
885.399	18753
885.524	18829
885.65	18837
885.775	18764
885.9	18673
886.025	18719
886.15	18787
886.275	18749
886.4	18559
886.525	18616
886.65	18669
886.775	18589
886.9	18696
887.025	18890
887.149	18696
887.274	18498
887.399	18506
887.523	18448
887.648	18376
887.773	18365
887.897	18639
888.021	18616
888.146	18399
888.27	18608
888.395	18494
888.519	18559
888.643	18464
888.767	18475
888.891	18361
889.015	18205
889.139	18319
889.263	18174
889.387	18304
889.511	18403
889.635	18437
889.759	18289
889.883	18376
890.006	18277
890.13	18422
890.254	18209
890.377	18220
890.501	17984
890.624	18026
890.748	18068
890.871	17901
890.995	17920
891.118	17790
891.241	17794
891.364	17923
891.488	18038
891.611	17965
891.734	17885
891.857	17920
891.98	17904
892.103	17904
892.226	17965
892.349	17878
892.471	17748
892.594	17870
892.717	17904
892.839	17726
892.962	17870
893.085	17961
893.207	17767
893.33	17764
893.452	17703
893.575	17824
893.697	17737
893.819	18026
893.941	18003
894.064	17874
894.186	17775
894.308	17809
894.43	17866
894.552	18049
894.674	17912
894.796	17790
894.918	17874
895.04	17798
895.161	18030
895.283	17863
895.405	17790
895.526	17794
895.648	17954
895.769	17878
895.891	17958
896.012	17977
896.134	17904
896.255	17969
896.376	17851
896.498	17927
896.619	18079
896.74	17954
896.861	17920
896.982	18323
897.103	18357
897.224	18224
897.345	18152
897.466	17980
897.587	18224
897.708	18258
897.828	18239
897.949	18030
898.07	18011
898.19	18110
898.311	18235
898.431	18163
898.552	18133
898.672	18159
898.792	18186
898.913	18171
899.033	18041
899.153	17984
899.273	17855
899.393	17904
899.513	17851
899.633	17927
899.753	17965
899.873	17828
899.993	18011
900.113	17824
900.232	18015
900.352	17863
900.472	17824
900.591	17760
900.711	17737
900.83	17657
900.95	17874
901.069	17901
901.189	17695
901.308	17410
901.427	17448
901.546	17421
901.665	17425
901.784	17372
901.904	17250
902.023	17204
902.141	17006
902.26	16987
902.379	17067
902.498	16904
902.617	16934
902.735	16881
902.854	16923
902.973	16805
903.091	16649
903.21	16656
903.328	16546
903.446	16497
903.565	16459
903.683	16375
903.801	16329
903.919	16360
904.038	16413
904.156	16131
904.274	16226
904.392	16169
904.51	16158
904.627	16120
904.745	16261
904.863	16177
904.981	16128
905.098	15751
905.216	15888
905.334	15869
905.451	15846
905.569	15781
905.686	15816
905.803	15899
905.921	15652
906.038	15770
906.155	15759
906.272	15519
906.389	15557
906.506	15454
906.623	15428
906.74	15454
906.857	15329
906.974	15203
907.091	15504
907.208	15576
907.324	15374
907.441	15283
907.557	15241
907.674	15226
907.79	15123
907.907	15028
908.023	15157
908.139	15119
908.256	15112
908.372	15009
908.488	14868
908.604	14933
908.72	14785
908.836	14834
908.952	14762
909.068	14864
909.184	14941
909.3	14815
909.415	14750
909.531	14777
909.647	14556
909.762	14511
909.878	14473
909.993	14617
910.108	14594
910.224	14545
910.339	14552
910.454	14495
910.57	14286
910.685	14301
910.8	14549
910.915	14423
911.03	14408
911.145	14111
911.259	14142
911.374	14240
911.489	14073
911.604	13982
911.718	13951
911.833	13963
911.947	13822
912.062	13689
912.176	13761
912.291	13906
912.405	13818
912.519	14031
912.633	14016
912.748	13936
912.862	13814
912.976	13636
913.09	13643
913.204	13738
913.318	13719
913.431	13849
913.545	13822
913.659	13826
913.772	13700
913.886	13571
914	13628
914.113	13578
914.226	13696
914.34	13575
914.453	13575
914.566	13643
914.68	13544
914.793	13419
914.906	13274
915.019	13236
915.132	13141
915.245	13221
915.358	13247
915.47	13202
915.583	13228
915.696	13289
915.809	13426
915.921	13426
916.034	13198
916.146	13266
916.259	13183
916.371	13236
916.483	13293
916.595	13008
916.708	13164
916.82	13152
916.932	13171
917.044	13023
917.156	13072
917.268	12981
917.38	13027
917.491	12924
917.603	13069
917.715	13069
917.826	12966
917.938	12905
918.049	12783
918.161	12924
918.272	13019
918.384	13019
918.495	12970
918.606	12730
918.717	12677
918.828	12745
918.939	12753
919.05	12650
919.161	12696
919.272	12528
919.383	12589
919.494	12749
919.604	12993
919.715	12700
919.826	12597
919.936	12692
920.047	12905
920.157	12772
920.267	12897
920.378	12703
920.488	12601
920.598	12901
920.708	13072
920.818	12848
920.928	12768
921.038	13069
921.148	12905
921.258	12692
921.368	12570
921.477	12479
921.587	12506
921.697	12342
921.806	12486
921.916	12414
922.025	12266
922.134	12171
922.244	12129
922.353	12228
922.462	11988
922.571	11908
922.68	11805
922.789	11741
922.898	11790
923.007	11726
923.116	11786
923.224	11764
923.333	11790
923.442	11745
923.55	11551
923.659	11707
923.767	11684
923.876	11528
923.984	11668
924.092	11554
924.201	11634
924.309	11619
924.417	11562
924.525	11528
924.633	11501
924.741	12311
924.849	11258
924.956	11482
925.064	11356
925.172	11292
925.279	11311
925.387	11299
925.494	11277
925.602	11349
925.709	11414
925.816	11265
925.924	11265
926.031	11341
926.138	11269
926.245	11395
926.352	11258
926.459	11330
926.566	11345
926.673	11258
926.779	11075
926.886	11067
926.993	11029
927.099	10904
927.206	10942
927.312	10862
927.419	10949
927.525	10881
927.631	10999
927.737	10809
927.843	10706
927.95	10733
928.056	10774
928.162	10835
928.267	10831
928.373	11277
928.479	10831
928.585	10660
928.69	10717
928.796	10759
928.901	10698
929.007	10538
929.112	10649
929.218	10637
929.323	10626
929.428	10485
929.533	10668
929.638	10504
929.743	10470
929.848	10569
929.953	10523
930.058	10367
930.163	10295
930.267	10303
930.372	10402
930.477	10177
930.581	10432
930.685	10242
930.79	10177
930.894	10211
930.998	10181
931.103	10325
931.207	9960
931.311	9861
931.415	9808
931.519	9576
931.623	9584
