Data from test_V78500241_1251.txt Node
Date: Fri Mar 25 14:42:25 CST 2022
User: usil
Spectrometer: V785-0024
Trigger mode: 0
Integration Time (sec): 4.000000E-1
Scans to average: 1
Nonlinearity correction enabled: false
Boxcar width: 0
Storing dark spectrum: false
XAxis mode: Wavelengths
Number of Pixels in Spectrum: 1024
>>>>>Begin Spectral Data<<<<<
801.071	22459
801.214	22322
801.356	21945
801.499	21934
801.641	21751
801.783	21648
801.926	21861
802.068	21648
802.211	21770
802.353	21519
802.496	21332
802.638	21230
802.78	21275
802.923	21214
803.065	20948
803.208	21028
803.35	21039
803.492	21108
803.635	21355
803.777	21135
803.919	21184
804.061	21450
804.204	21142
804.346	21062
804.488	21081
804.63	21085
804.773	20891
804.915	21036
805.057	21150
805.199	20921
805.341	21104
805.483	21180
805.626	21036
805.768	21017
805.91	21096
806.052	20975
806.194	20963
806.336	21051
806.478	21062
806.62	20937
806.762	21093
806.904	21169
807.046	21313
807.188	21294
807.33	21389
807.472	21447
807.614	21233
807.756	21348
807.898	21176
808.04	21089
808.182	21024
808.324	21070
808.465	21188
808.607	21367
808.749	21587
808.891	21736
809.033	21762
809.174	21648
809.316	21443
809.458	21477
809.6	21450
809.741	21614
809.883	21481
810.025	21591
810.166	21622
810.308	21572
810.45	21580
810.591	21450
810.733	21298
810.875	21195
811.016	21074
811.158	20994
811.299	21169
811.441	21131
811.582	21237
811.724	21249
811.865	21161
812.007	21150
812.148	21085
812.29	21272
812.431	21428
812.573	21580
812.714	21595
812.855	21690
812.997	21686
813.138	21838
813.279	21789
813.421	21648
813.562	21606
813.703	21485
813.845	21405
813.986	21070
814.127	20868
814.268	20861
814.41	20788
814.551	20777
814.692	20883
814.833	20587
814.974	20758
815.115	20693
815.256	20571
815.397	20549
815.539	20541
815.68	20381
815.821	20396
815.962	20473
816.103	20492
816.244	20290
816.385	20183
816.526	20202
816.666	20031
816.807	19864
816.948	19989
817.089	19921
817.23	19814
817.371	19868
817.512	19883
817.653	19818
817.793	19963
817.934	19868
818.075	19845
818.216	19784
818.356	19837
818.497	19700
818.638	19544
818.778	19700
818.919	19563
819.06	19662
819.2	19765
819.341	19753
819.481	19685
819.622	19917
819.762	20065
819.903	20084
820.043	19928
820.184	19795
820.324	19883
820.465	19928
820.605	19879
820.746	19696
820.886	19799
821.026	19921
821.167	19864
821.307	19875
821.447	19818
821.588	19693
821.728	19529
821.868	19434
822.008	19320
822.149	19213
822.289	19312
822.429	19107
822.569	18962
822.709	18985
822.849	18825
822.99	18859
823.13	18726
823.27	18726
823.41	18502
823.55	18506
823.69	18570
823.83	18513
823.97	18521
824.11	18365
824.25	18266
824.389	18369
824.529	18300
824.669	18365
824.809	18536
824.949	18342
825.089	18490
825.228	18403
825.368	18136
825.508	18152
825.648	18144
825.787	18148
825.927	18129
826.067	18087
826.206	18068
826.346	18129
826.485	18289
826.625	18125
826.765	18098
826.904	18209
827.044	17904
827.183	17821
827.323	17855
827.462	17817
827.601	17843
827.741	17775
827.88	17832
828.02	17714
828.159	17889
828.298	17783
828.437	17885
828.577	17748
828.716	17901
828.855	17783
828.994	17672
829.134	17623
829.273	17619
829.412	17524
829.551	17482
829.69	17657
829.829	17562
829.968	17680
830.107	17680
830.246	17630
830.385	17604
830.524	17516
830.663	17372
830.802	17280
830.941	17239
831.08	17220
831.219	17284
831.357	17220
831.496	17414
831.635	17250
831.774	17162
831.913	17155
832.051	17060
832.19	16995
832.329	17067
832.467	17003
832.606	16930
832.744	16858
832.883	16938
833.022	16877
833.16	16938
833.299	16949
833.437	16949
833.576	16949
833.714	16987
833.852	16953
833.991	17067
834.129	16949
834.267	16968
834.406	16900
834.544	17079
834.682	16965
834.821	16881
834.959	17140
835.097	16919
835.235	16991
835.373	17075
835.511	17022
835.65	16904
835.788	16938
835.926	16793
836.064	16584
836.202	16797
836.34	16869
836.478	16927
836.615	16797
836.753	16919
836.891	16930
837.029	16908
837.167	16850
837.305	16889
837.443	16774
837.58	16729
837.718	16809
837.856	16790
837.993	16664
838.131	16820
838.269	16626
838.406	16691
838.544	16645
838.681	16470
838.819	16409
838.956	16226
839.094	16253
839.231	16348
839.369	16348
839.506	16698
839.643	16569
839.781	16268
839.918	16223
840.055	16367
840.193	16303
840.33	16257
840.467	16234
840.604	16257
840.742	16535
840.879	16204
841.016	16230
841.153	16150
841.29	16413
841.427	16310
841.564	16394
841.701	16303
841.838	16291
841.975	16166
842.112	16124
842.249	16154
842.385	16059
842.522	16238
842.659	16207
842.796	16006
842.933	15998
843.069	16006
843.206	15922
843.343	16109
843.479	16105
843.616	16074
843.752	15861
843.889	15808
844.025	16055
844.162	15800
844.298	15975
844.435	15895
844.571	15774
844.708	15838
844.844	16097
844.98	16059
845.117	15972
845.253	15766
845.389	15739
845.525	15934
845.661	15854
845.798	15736
845.934	15861
846.07	15759
846.206	15937
846.342	15945
846.478	15671
846.614	15549
846.75	15485
846.886	15428
847.022	15606
847.158	15340
847.294	15496
847.429	15564
847.565	15401
847.701	15686
847.837	15127
847.972	15150
848.108	15302
848.244	15264
848.379	15119
848.515	15085
848.65	14914
848.786	15032
848.921	15005
849.057	15165
849.192	15077
849.328	15062
849.463	15028
849.598	14998
849.734	14895
849.869	14929
850.004	14864
850.14	14861
850.275	14830
850.41	14720
850.545	14724
850.68	14674
850.815	14792
850.95	14788
851.085	14895
851.22	14826
851.355	14868
851.49	14781
851.625	14727
851.76	14750
851.895	14682
852.03	14746
852.165	14762
852.299	14750
852.434	14834
852.569	14819
852.703	14857
852.838	14880
852.973	14876
853.107	14941
853.242	14785
853.376	14743
853.511	14613
853.645	14655
853.78	14750
853.914	14716
854.048	14689
854.183	14552
854.317	14644
854.451	14849
854.585	14727
854.72	14644
854.854	14606
854.988	14583
855.122	14670
855.256	14552
855.39	14651
855.524	14842
855.658	14765
855.792	14617
855.926	14754
856.06	14746
856.194	14731
856.327	14674
856.461	14602
856.595	14545
856.729	14670
856.862	14792
856.996	14613
857.13	14727
857.263	14663
857.397	14769
857.53	14644
857.664	14693
857.797	14750
857.931	14910
858.064	14712
858.197	14804
858.331	14765
858.464	14606
858.597	14667
858.731	14636
858.864	14663
858.997	14644
859.13	14682
859.263	14724
859.396	14781
859.529	14678
859.662	14571
859.795	14571
859.928	14644
860.061	14807
860.194	14796
860.327	14617
860.46	14686
860.592	14830
860.725	14785
860.858	14769
860.99	14705
861.123	14659
861.256	14613
861.388	14659
861.521	15336
861.653	14514
861.786	14442
861.918	14530
862.05	14571
862.183	14568
862.315	14659
862.447	14693
862.58	14568
862.712	14503
862.844	14336
862.976	14442
863.108	14541
863.24	14800
863.372	14362
863.504	14358
863.636	14415
863.768	14461
863.9	14526
864.032	14374
864.164	14442
864.296	14434
864.428	14602
864.559	14518
864.691	14560
864.823	14442
864.954	14571
865.086	14396
865.217	14469
865.349	14408
865.48	14366
865.612	14457
865.743	14587
865.875	14438
866.006	14393
866.137	14434
866.269	14404
866.4	14355
866.531	14347
866.662	14358
866.793	14381
866.924	14362
867.055	14438
867.186	14396
867.317	14469
867.448	14332
867.579	14366
867.71	14320
867.841	14237
867.972	14377
868.103	14389
868.233	14324
868.364	14347
868.495	14476
868.625	14568
868.756	14785
868.886	14610
869.017	14655
869.147	14720
869.278	14720
869.408	14682
869.539	14663
869.669	14807
869.799	14720
869.929	14765
870.06	14876
870.19	14937
870.32	14887
870.45	15051
870.58	15028
870.71	15146
870.84	15154
870.97	14941
871.1	15058
871.23	15180
871.36	15245
871.489	15195
871.619	15203
871.749	15222
871.879	15252
872.008	15344
872.138	15306
872.267	15275
872.397	15150
872.526	15062
872.656	15066
872.785	15058
872.915	15363
873.044	15458
873.173	15302
873.303	15332
873.432	15370
873.561	15332
873.69	15370
873.819	15302
873.948	15321
874.077	15370
874.206	15249
874.335	15340
874.464	15416
874.593	15542
874.722	15545
874.851	15720
874.979	15679
875.108	15679
875.237	15542
875.365	15530
875.494	15614
875.623	15724
875.751	15682
875.88	15663
876.008	15854
876.136	15838
876.265	16029
876.393	16082
876.521	16074
876.65	16192
876.778	16128
876.906	15991
877.034	16029
877.162	16074
877.29	16002
877.418	16063
877.546	15960
877.674	15960
877.802	16131
877.93	16002
878.058	16025
878.185	15930
878.313	16010
878.441	16101
878.568	15895
878.696	15991
878.824	16166
878.951	16063
879.079	16204
879.206	16455
879.333	16226
879.461	16196
879.588	16192
879.715	16234
879.842	16325
879.97	16177
880.097	15930
880.224	15918
880.351	16112
880.478	15941
880.605	15918
880.732	15903
880.859	16169
880.986	15892
881.112	15915
881.239	15747
881.366	15717
881.493	15603
881.619	15526
881.746	15625
881.872	15458
881.999	15526
882.125	15454
882.252	15568
882.378	15542
882.505	15701
882.631	15519
882.757	15325
882.883	15389
883.01	15405
883.136	15325
883.262	15241
883.388	15294
883.514	15348
883.64	15450
883.766	15302
883.892	15157
884.018	15252
884.143	15363
884.269	15408
884.395	15135
884.52	14975
884.646	15039
884.772	15051
884.897	15055
885.023	15013
885.148	15203
885.274	15310
885.399	15131
885.524	15112
885.65	15020
885.775	15001
885.9	15119
886.025	15249
886.15	15173
886.275	15089
886.4	14906
886.525	15039
886.65	14952
886.775	15077
886.9	15100
887.025	15275
887.149	15028
887.274	14895
887.399	14918
887.523	14876
887.648	14830
887.773	14769
887.897	14998
888.021	14925
888.146	14891
888.27	15062
888.395	15131
888.519	14921
888.643	14918
888.767	14895
888.891	14830
889.015	14823
889.139	14826
889.263	14750
889.387	14830
889.511	14960
889.635	14807
889.759	14712
889.883	14716
890.006	14701
890.13	14807
890.254	14693
890.377	14686
890.501	14579
890.624	14571
890.748	14568
890.871	14545
890.995	14301
891.118	14339
891.241	14423
891.364	14339
891.488	14476
891.611	14473
891.734	14374
891.857	14438
891.98	14522
892.103	14419
892.226	14499
892.349	14381
892.471	14248
892.594	14355
892.717	14461
892.839	14389
892.962	14415
893.085	14450
893.207	14396
893.33	14199
893.452	14374
893.575	14415
893.697	14431
893.819	14674
893.941	14621
894.064	14568
894.186	14286
894.308	14377
894.43	14560
894.552	14564
894.674	14533
894.796	14408
894.918	14404
895.04	14499
895.161	14590
895.283	14476
895.405	14446
895.526	14473
895.648	14499
895.769	14488
895.891	14522
896.012	14606
896.134	14587
896.255	14583
896.376	14560
896.498	14613
896.619	14587
896.74	14530
896.861	14533
896.982	14868
897.103	15051
897.224	14842
897.345	14769
897.466	14769
897.587	14823
897.708	14986
897.828	14944
897.949	14727
898.07	14701
898.19	14792
898.311	15005
898.431	14876
898.552	14842
898.672	14956
898.792	15028
898.913	14880
899.033	14804
899.153	14834
899.273	14667
899.393	14743
899.513	14815
899.633	14815
899.753	14918
899.873	14731
899.993	14720
900.113	14708
900.232	14750
900.352	14807
900.472	14640
900.591	14564
900.711	14655
900.83	14549
900.95	14735
901.069	14739
901.189	14495
901.308	14408
901.427	14282
901.546	14317
901.665	14381
901.784	14259
901.904	14168
902.023	14016
902.141	13974
902.26	13936
902.379	13921
902.498	13795
902.617	13780
902.735	13913
902.854	13906
902.973	13738
903.091	13559
903.21	13487
903.328	13563
903.446	13483
903.565	13396
903.683	13476
903.801	13365
903.919	13373
904.038	13362
904.156	13240
904.274	13339
904.392	13232
904.51	13225
904.627	13259
904.745	13335
904.863	13304
904.981	13091
905.098	12928
905.216	12996
905.334	12954
905.451	13015
905.569	12970
905.686	12996
905.803	13004
905.921	12753
906.038	12886
906.155	12837
906.272	12722
906.389	12677
906.506	12551
906.623	12532
906.74	12532
906.857	12486
906.974	12441
907.091	12589
907.208	12677
907.324	12585
907.441	12399
907.557	12346
907.674	12239
907.79	12216
907.907	12273
908.023	12319
908.139	12281
908.256	12224
908.372	12292
908.488	12136
908.604	11996
908.72	11977
908.836	11977
908.952	12019
909.068	12064
909.184	12060
909.3	11965
909.415	12072
909.531	12076
909.647	11695
909.762	11813
909.878	11707
909.993	11824
910.108	11767
910.224	11729
910.339	11748
910.454	11653
910.57	11638
910.685	11535
910.8	11783
910.915	11775
911.03	11634
911.145	11573
911.259	11524
911.374	11490
911.489	11383
911.604	11417
911.718	11254
911.833	11269
911.947	10991
912.062	11075
912.176	11223
912.291	11159
912.405	11170
912.519	11398
912.633	11425
912.748	11227
912.862	11185
912.976	11075
913.09	10980
913.204	11048
913.318	11105
913.431	11258
913.545	11170
913.659	11185
913.772	11048
913.886	10976
914	11025
914.113	11006
914.226	11239
914.34	11018
914.453	10923
914.566	11033
914.68	10889
914.793	10927
914.906	10721
915.019	10740
915.132	10603
915.245	10771
915.358	10736
915.47	10767
915.583	10672
915.696	10774
915.809	10858
915.921	10923
916.034	10786
916.146	10721
916.259	10656
916.371	10698
916.483	10797
916.595	10546
916.708	10702
916.82	10702
916.932	10645
917.044	10702
917.156	10573
917.268	10516
917.38	10668
917.491	10554
917.603	10523
917.715	10573
917.826	10744
917.938	10466
918.049	10417
918.161	10565
918.272	10645
918.384	10744
918.495	10603
918.606	10417
918.717	10405
918.828	10413
918.939	10386
919.05	10318
919.161	10356
919.272	10200
919.383	10356
919.494	10523
919.604	10649
919.715	10455
919.826	10344
919.936	10462
920.047	10516
920.157	10447
920.267	10687
920.378	10565
920.488	10443
920.598	10592
920.708	10759
920.818	10618
920.928	10584
921.038	10805
921.148	10809
921.258	10580
921.368	10375
921.477	10272
921.587	10204
921.697	10173
921.806	10287
921.916	10150
922.025	10017
922.134	10051
922.244	9945
922.353	9994
922.462	9873
922.571	9865
922.68	9759
922.789	9603
922.898	9694
923.007	9557
923.116	9743
923.224	9724
923.333	9625
923.442	9557
923.55	9530
923.659	9610
923.767	9595
923.876	9504
923.984	9629
924.092	9443
924.201	9557
924.309	9488
924.417	9511
924.525	9466
924.633	9542
924.741	10322
924.849	9287
924.956	9435
925.064	9298
925.172	9283
925.279	9264
925.387	9363
925.494	9370
925.602	9447
925.709	9382
925.816	9260
925.924	9389
926.031	9363
926.138	9298
926.245	9344
926.352	9283
926.459	9363
926.566	9428
926.673	9302
926.779	9249
926.886	9195
926.993	9028
927.099	9058
927.206	9020
927.312	8967
927.419	9020
927.525	8933
927.631	9032
927.737	8956
927.843	8902
927.95	8834
928.056	8948
928.162	8937
928.267	8979
928.373	9538
928.479	9020
928.585	8785
928.69	8906
928.796	8883
928.901	8800
929.007	8705
929.112	8773
929.218	8815
929.323	8682
929.428	8743
929.533	8921
929.638	8655
929.743	8720
929.848	8735
929.953	8701
930.058	8651
930.163	8492
930.267	8461
930.372	8644
930.477	8442
930.581	8746
930.685	8549
930.79	8389
930.894	8522
930.998	8400
931.103	8636
931.207	8256
931.311	8123
931.415	8081
931.519	7947
931.623	7932
