Data from test_V78500241_3446.txt Node
Date: Fri Mar 25 14:57:42 CST 2022
User: usil
Spectrometer: V785-0024
Trigger mode: 0
Integration Time (sec): 4.000000E-1
Scans to average: 1
Nonlinearity correction enabled: false
Boxcar width: 0
Storing dark spectrum: false
XAxis mode: Wavelengths
Number of Pixels in Spectrum: 1024
>>>>>Begin Spectral Data<<<<<
801.071	21918
801.214	21846
801.356	21591
801.499	21473
801.641	21310
801.783	21325
801.926	21336
802.068	21298
802.211	21252
802.353	21146
802.496	20849
802.638	20788
802.78	20716
802.923	20815
803.065	20670
803.208	20663
803.35	20617
803.492	20693
803.635	20746
803.777	20678
803.919	20777
804.061	21047
804.204	20674
804.346	20537
804.488	20476
804.63	20526
804.773	20526
804.915	20450
805.057	20674
805.199	20446
805.341	20511
805.483	20667
805.626	20533
805.768	20492
805.91	20632
806.052	20625
806.194	20355
806.336	20632
806.478	20609
806.62	20457
806.762	20571
806.904	20708
807.046	20960
807.188	20883
807.33	20796
807.472	20990
807.614	20705
807.756	20765
807.898	20598
808.04	20621
808.182	20549
808.324	20617
808.465	20632
808.607	20674
808.749	20918
808.891	21051
809.033	21077
809.174	20811
809.316	20792
809.458	20933
809.6	20857
809.741	20899
809.883	20899
810.025	21074
810.166	21020
810.308	20941
810.45	20849
810.591	20826
810.733	20720
810.875	20648
811.016	20545
811.158	20404
811.299	20651
811.441	20720
811.582	20788
811.724	20651
811.865	20674
812.007	20583
812.148	20579
812.29	20678
812.431	20826
812.573	20925
812.714	20998
812.855	21085
812.997	21222
813.138	21389
813.279	21264
813.421	21226
813.562	21051
813.703	20834
813.845	20701
813.986	20552
814.127	20438
814.268	20206
814.41	20164
814.551	20225
814.692	20107
814.833	20237
814.974	20081
815.115	20199
815.256	20069
815.397	20024
815.539	20065
815.68	19890
815.821	19799
815.962	20005
816.103	19917
816.244	19746
816.385	19670
816.526	19590
816.666	19419
816.807	19346
816.948	19464
817.089	19491
817.23	19373
817.371	19362
817.512	19297
817.653	19304
817.793	19190
817.934	19415
818.075	19316
818.216	19301
818.356	19194
818.497	19156
818.638	19019
818.778	18928
818.919	18966
819.06	19034
819.2	19110
819.341	19213
819.481	19148
819.622	19388
819.762	19578
819.903	19396
820.043	19217
820.184	19194
820.324	19358
820.465	19430
820.605	19304
820.746	19251
820.886	19221
821.026	19263
821.167	19392
821.307	19225
821.447	19213
821.588	19069
821.728	19027
821.868	18825
822.008	18783
822.149	18764
822.289	18688
822.429	18464
822.569	18365
822.709	18369
822.849	18232
822.99	18258
823.13	18125
823.27	18152
823.41	17927
823.55	18011
823.69	18038
823.83	18030
823.97	17984
824.11	17851
824.25	17748
824.389	17642
824.529	17832
824.669	17718
824.809	17904
824.949	17752
825.089	17836
825.228	17882
825.368	17600
825.508	17649
825.648	17646
825.787	17562
825.927	17627
826.067	17562
826.206	17646
826.346	17726
826.485	17467
826.625	17524
826.765	17592
826.904	17570
827.044	17334
827.183	17265
827.323	17185
827.462	17315
827.601	17223
827.741	17162
827.88	17277
828.02	17056
828.159	17250
828.298	17159
828.437	17341
828.577	17162
828.716	17311
828.855	17239
828.994	16999
829.134	16858
829.273	17075
829.412	17006
829.551	16957
829.69	17018
829.829	16965
829.968	17128
830.107	17056
830.246	17060
830.385	16930
830.524	16934
830.663	16790
830.802	16744
830.941	16523
831.08	16603
831.219	16706
831.357	16679
831.496	16809
831.635	16763
831.774	16569
831.913	16443
832.051	16516
832.19	16451
832.329	16344
832.467	16405
832.606	16337
832.744	16276
832.883	16257
833.022	16306
833.16	16238
833.299	16352
833.437	16295
833.576	16333
833.714	16394
833.852	16367
833.991	16432
834.129	16421
834.267	16478
834.406	16276
834.544	16382
834.682	16436
834.821	16303
834.959	16535
835.097	16447
835.235	16417
835.373	16413
835.511	16344
835.65	16314
835.788	16348
835.926	16181
836.064	16139
836.202	16116
836.34	16314
836.478	16379
836.615	16287
836.753	16424
836.891	16409
837.029	16417
837.167	16325
837.305	16219
837.443	16150
837.58	16223
837.718	16272
837.856	16234
837.993	16147
838.131	16230
838.269	16143
838.406	16044
838.544	16063
838.681	15831
838.819	15846
838.956	15667
839.094	15812
839.231	15804
839.369	15865
839.506	16139
839.643	16017
839.781	15641
839.918	15751
840.055	15781
840.193	15770
840.33	15641
840.467	15797
840.604	15698
840.742	15956
840.879	15572
841.016	15633
841.153	15564
841.29	15907
841.427	15709
841.564	15759
841.701	15709
841.838	15648
841.975	15675
842.112	15587
842.249	15576
842.385	15477
842.522	15667
842.659	15584
842.796	15405
842.933	15549
843.069	15507
843.206	15370
843.343	15705
843.479	15507
843.616	15530
843.752	15401
843.889	15397
844.025	15485
844.162	15302
844.298	15458
844.435	15351
844.571	15226
844.708	15431
844.844	15363
844.98	15496
845.117	15374
845.253	15226
845.389	15249
845.525	15287
845.661	15272
845.798	15043
845.934	15195
846.07	15036
846.206	15214
846.342	15264
846.478	15093
846.614	14933
846.75	14826
846.886	14906
847.022	14982
847.158	14948
847.294	14887
847.429	14823
847.565	14891
847.701	15184
847.837	14617
847.972	14693
848.108	14724
848.244	14712
848.379	14537
848.515	14400
848.65	14454
848.786	14427
848.921	14530
849.057	14549
849.192	14556
849.328	14621
849.463	14465
849.598	14526
849.734	14412
849.869	14324
850.004	14256
850.14	14290
850.275	14275
850.41	14275
850.545	14305
850.68	14202
850.815	14271
850.95	14187
851.085	14503
851.22	14328
851.355	14214
851.49	14233
851.625	14278
851.76	14248
851.895	14134
852.03	14187
852.165	14180
852.299	14259
852.434	14259
852.569	14313
852.703	14320
852.838	14366
852.973	14374
853.107	14305
853.242	14294
853.376	14157
853.511	13909
853.645	14096
853.78	14248
853.914	14123
854.048	14172
854.183	14050
854.317	14111
854.451	14267
854.585	14031
854.72	14058
854.854	14176
854.988	13944
855.122	14024
855.256	13947
855.39	14062
855.524	14199
855.658	14252
855.792	14111
855.926	14073
856.06	14218
856.194	14275
856.327	14062
856.461	14058
856.595	14073
856.729	14069
856.862	14225
856.996	14100
857.13	14164
857.263	14233
857.397	14199
857.53	14062
857.664	14225
857.797	14187
857.931	14202
858.064	14172
858.197	14221
858.331	14081
858.464	14062
858.597	14069
858.731	14183
858.864	14164
858.997	14092
859.13	14183
859.263	14172
859.396	14237
859.529	14145
859.662	14054
859.795	14138
859.928	14119
860.061	14385
860.194	14271
860.327	14092
860.46	14183
860.592	14187
860.725	14244
860.858	14286
860.99	14153
861.123	14012
861.256	14183
861.388	14092
861.521	14883
861.653	14046
861.786	13902
861.918	14050
862.05	14065
862.183	14046
862.315	14043
862.447	14157
862.58	14145
862.712	13967
862.844	13909
862.976	14001
863.108	13986
863.24	14317
863.372	13723
863.504	13940
863.636	13856
863.768	14020
863.9	13959
864.032	13864
864.164	13925
864.296	13989
864.428	13963
864.559	14084
864.691	14111
864.823	13951
864.954	14031
865.086	13906
865.217	13928
865.349	13913
865.48	13856
865.612	13826
865.743	14016
865.875	13868
866.006	13841
866.137	13833
866.269	13909
866.4	13955
866.531	13955
866.662	13841
866.793	13868
866.924	13879
867.055	13909
867.186	13963
867.317	13947
867.448	13784
867.579	13932
867.71	13826
867.841	13788
867.972	13925
868.103	13860
868.233	13894
868.364	13868
868.495	14012
868.625	14130
868.756	14187
868.886	14054
869.017	14039
869.147	14244
869.278	14199
869.408	14240
869.539	14214
869.669	14317
869.799	14298
869.929	14286
870.06	14180
870.19	14442
870.32	14549
870.45	14389
870.58	14571
870.71	14648
870.84	14705
870.97	14537
871.1	14484
871.23	14705
871.36	14705
871.489	14640
871.619	14765
871.749	14712
871.879	14754
872.008	14842
872.138	14800
872.267	14678
872.397	14606
872.526	14632
872.656	14537
872.785	14522
872.915	14815
873.044	14811
873.173	14800
873.303	14842
873.432	14914
873.561	14929
873.69	14800
873.819	14868
873.948	14853
874.077	14906
874.206	14781
874.335	14830
874.464	14910
874.593	14982
874.722	14986
874.851	15097
874.979	15131
875.108	15173
875.237	15108
875.365	14944
875.494	15127
875.623	15116
875.751	15123
875.88	15074
876.008	15298
876.136	15275
876.265	15576
876.393	15656
876.521	15576
876.65	15603
876.778	15656
876.906	15507
877.034	15492
877.162	15553
877.29	15359
877.418	15439
877.546	15488
877.674	15542
877.802	15523
877.93	15614
878.058	15412
878.185	15488
878.313	15504
878.441	15530
878.568	15344
878.696	15481
878.824	15458
878.951	15652
879.079	15682
879.206	15778
879.333	15732
879.461	15633
879.588	15606
879.715	15690
879.842	15831
879.97	15595
880.097	15389
880.224	15420
880.351	15443
880.478	15302
880.605	15401
880.732	15287
880.859	15629
880.986	15420
881.112	15363
881.239	15412
881.366	15233
881.493	15013
881.619	15047
881.746	14979
881.872	14960
881.999	15032
882.125	15028
882.252	15070
882.378	15077
882.505	15157
882.631	15032
882.757	14899
882.883	14975
883.01	14872
883.136	14769
883.262	14629
883.388	14762
883.514	14925
883.64	14902
883.766	14842
883.892	14590
884.018	14712
884.143	14929
884.269	14899
884.395	14644
884.52	14556
884.646	14670
884.772	14465
884.897	14480
885.023	14549
885.148	14716
885.274	14712
885.399	14735
885.524	14507
885.65	14617
885.775	14663
885.9	14583
886.025	14610
886.15	14625
886.275	14526
886.4	14522
886.525	14488
886.65	14434
886.775	14499
886.9	14720
887.025	14739
887.149	14667
887.274	14465
887.399	14400
887.523	14351
887.648	14267
887.773	14259
887.897	14404
888.021	14499
888.146	14343
888.27	14495
888.395	14514
888.519	14389
888.643	14461
888.767	14469
888.891	14313
889.015	14263
889.139	14195
889.263	14275
889.387	14362
889.511	14419
889.635	14454
889.759	14214
889.883	14317
890.006	14191
890.13	14442
890.254	14164
890.377	14096
890.501	14031
890.624	14130
890.748	14145
890.871	13993
890.995	13875
891.118	13822
891.241	13936
891.364	13970
891.488	14130
891.611	13890
891.734	13986
891.857	14031
891.98	13928
892.103	14039
892.226	14050
892.349	13928
892.471	13753
892.594	13875
892.717	13967
892.839	13849
892.962	13902
893.085	13997
893.207	13890
893.33	13849
893.452	13917
893.575	14016
893.697	13955
893.819	14035
893.941	14168
894.064	14046
894.186	13913
894.308	13917
894.43	14149
894.552	14157
894.674	14012
894.796	13917
894.918	13989
895.04	13993
895.161	14149
895.283	14077
895.405	13925
895.526	14084
895.648	14027
895.769	14058
895.891	14111
896.012	14294
896.134	14161
896.255	14103
896.376	14092
896.498	14149
896.619	14111
896.74	14229
896.861	14126
896.982	14507
897.103	14708
897.224	14438
897.345	14400
897.466	14328
897.587	14480
897.708	14530
897.828	14320
897.949	14294
898.07	14320
898.19	14347
898.311	14621
898.431	14518
898.552	14522
898.672	14583
898.792	14503
898.913	14583
899.033	14461
899.153	14248
899.273	14225
899.393	14301
899.513	14286
899.633	14332
899.753	14393
899.873	14317
899.993	14412
900.113	14282
900.232	14442
900.352	14313
900.472	14206
900.591	14206
900.711	14210
900.83	14210
900.95	14267
901.069	14305
901.189	14149
901.308	13944
901.427	13913
901.546	13841
901.665	13928
901.784	13947
901.904	13769
902.023	13704
902.141	13518
902.26	13403
902.379	13525
902.498	13419
902.617	13445
902.735	13556
902.854	13415
902.973	13354
903.091	13217
903.21	13152
903.328	13198
903.446	13129
903.565	13095
903.683	13038
903.801	12909
903.919	13008
904.038	13069
904.156	12867
904.274	12894
904.392	12760
904.51	12867
904.627	12825
904.745	12878
904.863	12954
904.981	12620
905.098	12555
905.216	12532
905.334	12540
905.451	12566
905.569	12555
905.686	12570
905.803	12589
905.921	12395
906.038	12475
906.155	12399
906.272	12205
906.389	12254
906.506	12148
906.623	12201
906.74	12148
906.857	12102
906.974	12072
907.091	12213
907.208	12361
907.324	12152
907.441	12045
907.557	11889
907.674	11866
907.79	11859
907.907	11870
908.023	11893
908.139	11859
908.256	11809
908.372	11828
908.488	11802
908.604	11691
908.72	11577
908.836	11710
908.952	11592
909.068	11718
909.184	11699
909.3	11657
909.415	11726
909.531	11657
909.647	11520
909.762	11463
909.878	11398
909.993	11436
910.108	11421
910.224	11471
910.339	11296
910.454	11242
910.57	11292
910.685	11223
910.8	11490
910.915	11455
911.03	11269
911.145	11060
911.259	11143
911.374	11071
911.489	11079
911.604	10995
911.718	10946
911.833	10900
911.947	10740
912.062	10679
912.176	10858
912.291	10908
912.405	10873
912.519	11041
912.633	11075
912.748	10908
912.862	10843
912.976	10774
913.09	10607
913.204	10710
913.318	10831
913.431	10923
913.545	10854
913.659	10904
913.772	10725
913.886	10710
914	10599
914.113	10729
914.226	10778
914.34	10774
914.453	10519
914.566	10729
914.68	10618
914.793	10584
914.906	10421
915.019	10276
915.132	10382
915.245	10390
915.358	10375
915.47	10382
915.583	10382
915.696	10470
915.809	10386
915.921	10588
916.034	10341
916.146	10390
916.259	10379
916.371	10459
916.483	10352
916.595	10257
916.708	10409
916.82	10379
916.932	10306
917.044	10344
917.156	10341
917.268	10196
917.38	10253
917.491	10257
917.603	10291
917.715	10257
917.826	10310
917.938	10230
918.049	10188
918.161	10291
918.272	10318
918.384	10432
918.495	10230
918.606	10158
918.717	10036
918.828	10082
918.939	10162
919.05	10017
919.161	10097
919.272	9888
919.383	10002
919.494	10200
919.604	10348
919.715	10219
919.826	10029
919.936	10021
920.047	10219
920.157	10185
920.267	10424
920.378	10200
920.488	10150
920.598	10333
920.708	10398
920.818	10329
920.928	10325
921.038	10531
921.148	10398
921.258	10154
921.368	10093
921.477	10044
921.587	10067
921.697	9918
921.806	10074
921.916	9983
922.025	9778
922.134	9793
922.244	9694
922.353	9751
922.462	9580
922.571	9538
922.68	9382
922.789	9405
922.898	9420
923.007	9397
923.116	9405
923.224	9382
923.333	9344
923.442	9275
923.55	9348
923.659	9340
923.767	9401
923.876	9268
923.984	9359
924.092	9245
924.201	9344
924.309	9260
924.417	9279
924.525	9325
924.633	9253
924.741	10158
924.849	9123
924.956	9249
925.064	9089
925.172	9017
925.279	9001
925.387	9142
925.494	9043
925.602	9157
925.709	9157
925.816	9077
925.924	9051
926.031	9146
926.138	9104
926.245	9157
926.352	8948
926.459	9131
926.566	9184
926.673	9112
926.779	8933
926.886	8941
926.993	8834
927.099	8826
927.206	8712
927.312	8712
927.419	8849
927.525	8834
927.631	8823
927.737	8762
927.843	8724
927.95	8602
928.056	8629
928.162	8746
928.267	8781
928.373	9310
928.479	8773
928.585	8499
928.69	8632
928.796	8708
928.901	8632
929.007	8465
929.112	8640
929.218	8590
929.323	8564
929.428	8537
929.533	8674
929.638	8450
929.743	8450
929.848	8423
929.953	8461
930.058	8427
930.163	8240
930.267	8298
930.372	8473
930.477	8275
930.581	8476
930.685	8343
930.79	8218
930.894	8252
930.998	8195
931.103	8336
931.207	8031
931.311	7989
931.415	7928
931.519	7723
931.623	7753
