Data from test_V78500241_2808.txt Node
Date: Fri Mar 25 14:53:15 CST 2022
User: usil
Spectrometer: V785-0024
Trigger mode: 0
Integration Time (sec): 4.000000E-1
Scans to average: 1
Nonlinearity correction enabled: false
Boxcar width: 0
Storing dark spectrum: false
XAxis mode: Wavelengths
Number of Pixels in Spectrum: 1024
>>>>>Begin Spectral Data<<<<<
801.071	22006
801.214	21762
801.356	21709
801.499	21690
801.641	21420
801.783	21386
801.926	21412
802.068	21363
802.211	21287
802.353	21287
802.496	21070
802.638	20929
802.78	20941
802.923	20864
803.065	20720
803.208	20659
803.35	20769
803.492	20845
803.635	20998
803.777	20724
803.919	20876
804.061	21195
804.204	20815
804.346	20735
804.488	20609
804.63	20727
804.773	20712
804.915	20644
805.057	20720
805.199	20579
805.341	20754
805.483	20735
805.626	20739
805.768	20594
805.91	20667
806.052	20644
806.194	20514
806.336	20830
806.478	20602
806.62	20625
806.762	20686
806.904	20861
807.046	21009
807.188	20975
807.33	20990
807.472	21077
807.614	20929
807.756	20849
807.898	20682
808.04	20788
808.182	20724
808.324	20785
808.465	20773
808.607	20868
808.749	21108
808.891	21123
809.033	21062
809.174	21146
809.316	21119
809.458	21036
809.6	20971
809.741	21062
809.883	21116
810.025	21218
810.166	21188
810.308	21104
810.45	21180
810.591	21100
810.733	20918
810.875	20807
811.016	20758
811.158	20689
811.299	20815
811.441	20861
811.582	20914
811.724	20788
811.865	20781
812.007	20800
812.148	20689
812.29	20807
812.431	20849
812.573	21207
812.714	21233
812.855	21173
812.997	21397
813.138	21485
813.279	21367
813.421	21351
813.562	21256
813.703	21043
813.845	20883
813.986	20579
814.127	20492
814.268	20358
814.41	20484
814.551	20332
814.692	20408
814.833	20259
814.974	20290
815.115	20324
815.256	20191
815.397	20256
815.539	20161
815.68	20115
815.821	19997
815.962	20035
816.103	20016
816.244	19963
816.385	19704
816.526	19837
816.666	19738
816.807	19628
816.948	19495
817.089	19556
817.23	19491
817.371	19480
817.512	19480
817.653	19472
817.793	19449
817.934	19434
818.075	19407
818.216	19518
818.356	19422
818.497	19316
818.638	19095
818.778	19171
818.919	19160
819.06	19304
819.2	19308
819.341	19316
819.481	19400
819.622	19552
819.762	19704
819.903	19537
820.043	19609
820.184	19449
820.324	19381
820.465	19529
820.605	19449
820.746	19533
820.886	19297
821.026	19381
821.167	19381
821.307	19491
821.447	19362
821.588	19285
821.728	19137
821.868	19004
822.008	18795
822.149	18844
822.289	18863
822.429	18620
822.569	18563
822.709	18593
822.849	18350
822.99	18395
823.13	18365
823.27	18391
823.41	18159
823.55	18034
823.69	18254
823.83	18110
823.97	18041
824.11	17878
824.25	17965
824.389	17908
824.529	18083
824.669	17813
824.809	17977
824.949	17950
825.089	18098
825.228	17893
825.368	17722
825.508	17665
825.648	17790
825.787	17931
825.927	17847
826.067	17665
826.206	17653
826.346	17619
826.485	17824
826.625	17642
826.765	17775
826.904	17642
827.044	17459
827.183	17376
827.323	17330
827.462	17387
827.601	17360
827.741	17265
827.88	17402
828.02	17254
828.159	17326
828.298	17356
828.437	17478
828.577	17436
828.716	17482
828.855	17292
828.994	17185
829.134	17083
829.273	17102
829.412	17010
829.551	17083
829.69	17143
829.829	17208
829.968	17208
830.107	17136
830.246	17254
830.385	17178
830.524	17071
830.663	16915
830.802	16930
830.941	16793
831.08	16793
831.219	16900
831.357	16885
831.496	17033
831.635	16774
831.774	16668
831.913	16679
832.051	16550
832.19	16584
832.329	16558
832.467	16485
832.606	16436
832.744	16436
832.883	16440
833.022	16379
833.16	16508
833.299	16447
833.437	16348
833.576	16519
833.714	16481
833.852	16455
833.991	16474
834.129	16596
834.267	16489
834.406	16500
834.544	16542
834.682	16497
834.821	16519
834.959	16603
835.097	16436
835.235	16527
835.373	16462
835.511	16402
835.65	16421
835.788	16363
835.926	16306
836.064	16204
836.202	16192
836.34	16375
836.478	16470
836.615	16398
836.753	16447
836.891	16565
837.029	16436
837.167	16428
837.305	16443
837.443	16348
837.58	16226
837.718	16379
837.856	16196
837.993	16344
838.131	16234
838.269	16242
838.406	16181
838.544	16192
838.681	16044
838.819	16017
838.956	15827
839.094	15903
839.231	15930
839.369	15972
839.506	16207
839.643	15994
839.781	15865
839.918	15911
840.055	15968
840.193	15857
840.33	15835
840.467	15816
840.604	15884
840.742	16112
840.879	15701
841.016	15743
841.153	15736
841.29	15926
841.427	15808
841.564	15869
841.701	15949
841.838	15781
841.975	15743
842.112	15789
842.249	15629
842.385	15622
842.522	15785
842.659	15660
842.796	15675
842.933	15603
843.069	15553
843.206	15534
843.343	15698
843.479	15625
843.616	15724
843.752	15431
843.889	15450
844.025	15576
844.162	15393
844.298	15428
844.435	15313
844.571	15416
844.708	15412
844.844	15584
844.98	15584
845.117	15557
845.253	15370
845.389	15214
845.525	15245
845.661	15378
845.798	15207
845.934	15313
846.07	15081
846.206	15310
846.342	15329
846.478	15127
846.614	14963
846.75	14899
846.886	14948
847.022	15001
847.158	14986
847.294	14967
847.429	15051
847.565	14941
847.701	15237
847.837	14773
847.972	14739
848.108	14845
848.244	14746
848.379	14644
848.515	14606
848.65	14606
848.786	14537
848.921	14552
849.057	14724
849.192	14648
849.328	14659
849.463	14621
849.598	14537
849.734	14442
849.869	14415
850.004	14393
850.14	14412
850.275	14396
850.41	14282
850.545	14244
850.68	14256
850.815	14423
850.95	14313
851.085	14575
851.22	14469
851.355	14408
851.49	14358
851.625	14298
851.76	14256
851.895	14168
852.03	14244
852.165	14332
852.299	14351
852.434	14412
852.569	14362
852.703	14305
852.838	14389
852.973	14473
853.107	14427
853.242	14339
853.376	14294
853.511	14065
853.645	14180
853.78	14218
853.914	14176
854.048	14195
854.183	14084
854.317	14225
854.451	14339
854.585	14172
854.72	14214
854.854	14275
854.988	14142
855.122	14206
855.256	14054
855.39	14168
855.524	14305
855.658	14233
855.792	14191
855.926	14275
856.06	14278
856.194	14343
856.327	14229
856.461	14218
856.595	14229
856.729	14233
856.862	14362
856.996	14214
857.13	14233
857.263	14286
857.397	14343
857.53	14119
857.664	14309
857.797	14317
857.931	14237
858.064	14206
858.197	14267
858.331	14305
858.464	14153
858.597	14065
858.731	14176
858.864	14225
858.997	14168
859.13	14267
859.263	14294
859.396	14187
859.529	14187
859.662	14263
859.795	14191
859.928	14214
860.061	14434
860.194	14347
860.327	14278
860.46	14187
860.592	14412
860.725	14294
860.858	14301
860.99	14221
861.123	14172
861.256	14176
861.388	14153
861.521	14941
861.653	14081
861.786	14035
861.918	14130
862.05	14161
862.183	14130
862.315	14278
862.447	14240
862.58	14240
862.712	13947
862.844	13932
862.976	14020
863.108	14024
863.24	14313
863.372	13909
863.504	13967
863.636	13974
863.768	13963
863.9	14024
864.032	13917
864.164	13978
864.296	14107
864.428	14081
864.559	14084
864.691	14103
864.823	14012
864.954	14077
865.086	14069
865.217	14016
865.349	13940
865.48	13940
865.612	14012
865.743	14176
865.875	14050
866.006	13871
866.137	13997
866.269	14031
866.4	13909
866.531	13955
866.662	13890
866.793	13974
866.924	14077
867.055	14016
867.186	13989
867.317	13951
867.448	13864
867.579	13883
867.71	13917
867.841	13909
867.972	13982
868.103	13928
868.233	13986
868.364	13947
868.495	13947
868.625	14157
868.756	14317
868.886	14157
869.017	14103
869.147	14347
869.278	14317
869.408	14214
869.539	14225
869.669	14313
869.799	14256
869.929	14290
870.06	14271
870.19	14568
870.32	14537
870.45	14549
870.58	14663
870.71	14682
870.84	14720
870.97	14598
871.1	14613
871.23	14769
871.36	14838
871.489	14689
871.619	14765
871.749	14792
871.879	14845
872.008	14952
872.138	14929
872.267	14785
872.397	14632
872.526	14644
872.656	14667
872.785	14701
872.915	14826
873.044	14990
873.173	14921
873.303	14941
873.432	14883
873.561	14899
873.69	14845
873.819	14948
873.948	14937
874.077	14929
874.206	14834
874.335	14990
874.464	15001
874.593	15161
874.722	15188
874.851	15211
874.979	15184
875.108	15169
875.237	15207
875.365	15161
875.494	15222
875.623	15272
875.751	15161
875.88	15291
876.008	15336
876.136	15329
876.265	15584
876.393	15698
876.521	15610
876.65	15686
876.778	15667
876.906	15530
877.034	15492
877.162	15587
877.29	15591
877.418	15591
877.546	15614
877.674	15591
877.802	15629
877.93	15618
878.058	15595
878.185	15462
878.313	15587
878.441	15572
878.568	15431
878.696	15534
878.824	15545
878.951	15652
879.079	15861
879.206	15937
879.333	15766
879.461	15686
879.588	15671
879.715	15812
879.842	15953
879.97	15720
880.097	15317
880.224	15416
880.351	15466
880.478	15500
880.605	15557
880.732	15439
880.859	15720
880.986	15557
881.112	15580
881.239	15340
881.366	15169
881.493	15173
881.619	15058
881.746	15142
881.872	15195
881.999	15104
882.125	15161
882.252	15222
882.378	15077
882.505	15279
882.631	15017
882.757	14937
882.883	14956
883.01	14925
883.136	14918
883.262	14762
883.388	14792
883.514	14956
883.64	15001
883.766	14823
883.892	14689
884.018	14785
884.143	14937
884.269	15047
884.395	14708
884.52	14701
884.646	14705
884.772	14594
884.897	14537
885.023	14651
885.148	14735
885.274	14727
885.399	14777
885.524	14571
885.65	14693
885.775	14674
885.9	14617
886.025	14746
886.15	14705
886.275	14602
886.4	14511
886.525	14610
886.65	14575
886.775	14583
886.9	14720
887.025	14937
887.149	14697
887.274	14530
887.399	14423
887.523	14476
887.648	14415
887.773	14336
887.897	14473
888.021	14545
888.146	14503
888.27	14606
888.395	14636
888.519	14476
888.643	14514
888.767	14522
888.891	14396
889.015	14214
889.139	14324
889.263	14301
889.387	14450
889.511	14598
889.635	14423
889.759	14263
889.883	14396
890.006	14469
890.13	14400
890.254	14214
890.377	14320
890.501	14221
890.624	14221
890.748	14233
890.871	14088
890.995	13970
891.118	13913
891.241	14081
891.364	14088
891.488	14115
891.611	14073
891.734	14027
891.857	14126
891.98	14050
892.103	14149
892.226	14153
892.349	14054
892.471	13822
892.594	14069
892.717	14054
892.839	14027
892.962	14142
893.085	14054
893.207	14069
893.33	13925
893.452	13928
893.575	14027
893.697	14054
893.819	14218
893.941	14252
894.064	14214
894.186	13906
894.308	14062
894.43	14252
894.552	14229
894.674	14202
894.796	13974
894.918	14187
895.04	14084
895.161	14145
895.283	14176
895.405	14103
895.526	14119
895.648	14103
895.769	14210
895.891	14214
896.012	14233
896.134	14248
896.255	14092
896.376	14214
896.498	14275
896.619	14221
896.74	14252
896.861	14324
896.982	14663
897.103	14651
897.224	14549
897.345	14438
897.466	14336
897.587	14537
897.708	14606
897.828	14644
897.949	14374
898.07	14267
898.19	14492
898.311	14621
898.431	14556
898.552	14446
898.672	14720
898.792	14735
898.913	14617
899.033	14480
899.153	14446
899.273	14290
899.393	14385
899.513	14328
899.633	14362
899.753	14499
899.873	14290
899.993	14385
900.113	14396
900.232	14495
900.352	14320
900.472	14347
900.591	14252
900.711	14313
900.83	14225
900.95	14400
901.069	14419
901.189	14202
901.308	14008
901.427	13940
901.546	13944
901.665	13997
901.784	13928
901.904	13826
902.023	13776
902.141	13662
902.26	13632
902.379	13548
902.498	13613
902.617	13460
902.735	13616
902.854	13552
902.973	13438
903.091	13194
903.21	13259
903.328	13263
903.446	13190
903.565	13046
903.683	13137
903.801	12954
903.919	13012
904.038	13107
904.156	12943
904.274	12951
904.392	12890
904.51	12833
904.627	12821
904.745	12920
904.863	12958
904.981	12719
905.098	12601
905.216	12703
905.334	12654
905.451	12593
905.569	12620
905.686	12616
905.803	12623
905.921	12353
906.038	12517
906.155	12490
906.272	12323
906.389	12334
906.506	12159
906.623	12186
906.74	12220
906.857	12136
906.974	12038
907.091	12311
907.208	12281
907.324	12365
907.441	12068
907.557	11992
907.674	12011
907.79	11855
907.907	11969
908.023	11961
908.139	11988
908.256	11882
908.372	11824
908.488	11866
908.604	11779
908.72	11794
908.836	11726
908.952	11665
909.068	11665
909.184	11855
909.3	11646
909.415	11714
909.531	11707
909.647	11520
909.762	11486
909.878	11410
909.993	11558
910.108	11474
910.224	11478
910.339	11433
910.454	11398
910.57	11242
910.685	11269
910.8	11539
910.915	11459
911.03	11341
911.145	11170
911.259	11136
911.374	11121
911.489	11083
911.604	11113
911.718	11010
911.833	10869
911.947	10793
912.062	10835
912.176	10839
912.291	10866
912.405	10946
912.519	11174
912.633	11174
912.748	10995
912.862	10915
912.976	10862
913.09	10691
913.204	10771
913.318	10843
913.431	10892
913.545	10873
913.659	10889
913.772	10835
913.886	10763
914	10725
914.113	10809
914.226	10805
914.34	10771
914.453	10580
914.566	10725
914.68	10717
914.793	10634
914.906	10538
915.019	10440
915.132	10390
915.245	10436
915.358	10428
915.47	10558
915.583	10466
915.696	10436
915.809	10641
915.921	10561
916.034	10466
916.146	10428
916.259	10379
916.371	10527
916.483	10455
916.595	10390
916.708	10356
916.82	10371
916.932	10428
917.044	10375
917.156	10413
917.268	10306
917.38	10303
917.491	10238
917.603	10295
917.715	10352
917.826	10421
917.938	10306
918.049	10211
918.161	10356
918.272	10352
918.384	10394
918.495	10238
918.606	10188
918.717	10032
918.828	10135
918.939	10238
919.05	10154
919.161	10196
919.272	9972
919.383	10071
919.494	10238
919.604	10337
919.715	10158
919.826	10093
919.936	10192
920.047	10204
920.157	10139
920.267	10310
920.378	10219
920.488	10207
920.598	10341
920.708	10523
920.818	10375
920.928	10306
921.038	10611
921.148	10497
921.258	10185
921.368	10139
921.477	10097
921.587	9987
921.697	9903
921.806	10036
921.916	9926
922.025	9800
922.134	9728
922.244	9686
922.353	9747
922.462	9671
922.571	9564
922.68	9420
922.789	9416
922.898	9431
923.007	9378
923.116	9507
923.224	9389
923.333	9370
923.442	9389
923.55	9302
923.659	9344
923.767	9382
923.876	9214
923.984	9370
924.092	9226
924.201	9283
924.309	9306
924.417	9336
924.525	9302
924.633	9336
924.741	10021
924.849	9108
924.956	9230
925.064	9089
925.172	8948
925.279	9047
925.387	9142
925.494	9077
925.602	9291
925.709	9199
925.816	9009
925.924	9112
926.031	9146
926.138	9142
926.245	9077
926.352	9020
926.459	9108
926.566	9233
926.673	9081
926.779	8956
926.886	8952
926.993	8872
927.099	8705
927.206	8777
927.312	8739
927.419	8766
927.525	8796
927.631	8830
927.737	8682
927.843	8610
927.95	8590
928.056	8678
928.162	8731
928.267	8750
928.373	9310
928.479	8788
928.585	8526
928.69	8686
928.796	8724
928.901	8583
929.007	8533
929.112	8632
929.218	8636
929.323	8549
929.428	8484
929.533	8678
929.638	8495
929.743	8488
929.848	8537
929.953	8533
930.058	8492
930.163	8252
930.267	8256
930.372	8434
930.477	8324
930.581	8541
930.685	8294
930.79	8218
930.894	8275
930.998	8267
931.103	8431
931.207	8161
931.311	7989
931.415	7974
931.519	7788
931.623	7765
