Data from test_V78500241_3308.txt Node
Date: Fri Mar 25 14:56:44 CST 2022
User: usil
Spectrometer: V785-0024
Trigger mode: 0
Integration Time (sec): 4.000000E-1
Scans to average: 1
Nonlinearity correction enabled: false
Boxcar width: 0
Storing dark spectrum: false
XAxis mode: Wavelengths
Number of Pixels in Spectrum: 1024
>>>>>Begin Spectral Data<<<<<
801.071	21964
801.214	21846
801.356	21557
801.499	21431
801.641	21412
801.783	21405
801.926	21401
802.068	21321
802.211	21165
802.353	21028
802.496	20880
802.638	20800
802.78	20785
802.923	20712
803.065	20575
803.208	20606
803.35	20587
803.492	20914
803.635	20735
803.777	20613
803.919	20826
804.061	20906
804.204	20724
804.346	20667
804.488	20613
804.63	20522
804.773	20530
804.915	20632
805.057	20663
805.199	20606
805.341	20613
805.483	20648
805.626	20552
805.768	20678
805.91	20617
806.052	20571
806.194	20450
806.336	20678
806.478	20575
806.62	20556
806.762	20564
806.904	20788
807.046	21032
807.188	20815
807.33	20815
807.472	20982
807.614	20712
807.756	20769
807.898	20739
808.04	20670
808.182	20613
808.324	20689
808.465	20651
808.607	20834
808.749	20906
808.891	20967
809.033	21028
809.174	20960
809.316	20902
809.458	20941
809.6	21009
809.741	21017
809.883	20937
810.025	21112
810.166	21081
810.308	21047
810.45	21036
810.591	20864
810.733	20727
810.875	20613
811.016	20636
811.158	20568
811.299	20762
811.441	20800
811.582	20792
811.724	20750
811.865	20724
812.007	20617
812.148	20727
812.29	20644
812.431	20750
812.573	20944
812.714	21085
812.855	21222
812.997	21374
813.138	21370
813.279	21291
813.421	21233
813.562	21108
813.703	20979
813.845	20754
813.986	20454
814.127	20362
814.268	20244
814.41	20271
814.551	20309
814.692	20282
814.833	20161
814.974	20210
815.115	20339
815.256	19997
815.397	20020
815.539	20077
815.68	19917
815.821	19955
815.962	20046
816.103	20027
816.244	19860
816.385	19712
816.526	19704
816.666	19426
816.807	19422
816.948	19449
817.089	19430
817.23	19468
817.371	19327
817.512	19392
817.653	19335
817.793	19312
817.934	19327
818.075	19331
818.216	19320
818.356	19441
818.497	19247
818.638	18966
818.778	19088
818.919	19076
819.06	19069
819.2	19244
819.341	19278
819.481	19289
819.622	19388
819.762	19609
819.903	19552
820.043	19403
820.184	19331
820.324	19343
820.465	19384
820.605	19289
820.746	19236
820.886	19213
821.026	19266
821.167	19198
821.307	19430
821.447	19278
821.588	19107
821.728	19046
821.868	18939
822.008	18783
822.149	18787
822.289	18661
822.429	18361
822.569	18433
822.709	18498
822.849	18251
822.99	18247
823.13	18201
823.27	18232
823.41	18022
823.55	17893
823.69	18019
823.83	18125
823.97	18026
824.11	17760
824.25	17851
824.389	17832
824.529	17756
824.669	17737
824.809	17901
824.949	17969
825.089	17927
825.228	17824
825.368	17623
825.508	17649
825.648	17634
825.787	17554
825.927	17547
826.067	17608
826.206	17467
826.346	17604
826.485	17619
826.625	17570
826.765	17646
826.904	17608
827.044	17296
827.183	17326
827.323	17204
827.462	17372
827.601	17277
827.741	17356
827.88	17288
828.02	17277
828.159	17212
828.298	17280
828.437	17322
828.577	17235
828.716	17444
828.855	17246
828.994	17170
829.134	17048
829.273	17090
829.412	17014
829.551	16968
829.69	17071
829.829	17151
829.968	17261
830.107	17178
830.246	17079
830.385	17045
830.524	16995
830.663	16843
830.802	16744
830.941	16664
831.08	16752
831.219	16797
831.357	16778
831.496	16919
831.635	16611
831.774	16588
831.913	16573
832.051	16402
832.19	16443
832.329	16466
832.467	16390
832.606	16299
832.744	16341
832.883	16379
833.022	16421
833.16	16409
833.299	16493
833.437	16318
833.576	16443
833.714	16504
833.852	16508
833.991	16451
834.129	16569
834.267	16455
834.406	16459
834.544	16447
834.682	16348
834.821	16451
834.959	16641
835.097	16367
835.235	16611
835.373	16417
835.511	16344
835.65	16405
835.788	16188
835.926	16272
836.064	16169
836.202	16154
836.34	16390
836.478	16474
836.615	16272
836.753	16417
836.891	16455
837.029	16310
837.167	16360
837.305	16185
837.443	16306
837.58	16303
837.718	16306
837.856	16253
837.993	16097
838.131	16242
838.269	16192
838.406	16200
838.544	16097
838.681	15972
838.819	15907
838.956	15857
839.094	15736
839.231	15808
839.369	15960
839.506	16173
839.643	16017
839.781	15774
839.918	15762
840.055	15800
840.193	15739
840.33	15698
840.467	15736
840.604	15876
840.742	15903
840.879	15663
841.016	15667
841.153	15781
841.29	15842
841.427	15766
841.564	15762
841.701	15884
841.838	15663
841.975	15587
842.112	15644
842.249	15603
842.385	15416
842.522	15846
842.659	15492
842.796	15515
842.933	15538
843.069	15519
843.206	15511
843.343	15549
843.479	15549
843.616	15576
843.752	15294
843.889	15355
844.025	15424
844.162	15184
844.298	15302
844.435	15256
844.571	15363
844.708	15329
844.844	15549
844.98	15485
845.117	15458
845.253	15298
845.389	15249
845.525	15169
845.661	15188
845.798	15131
845.934	15146
846.07	15093
846.206	15207
846.342	15268
846.478	15218
846.614	14971
846.75	14872
846.886	14857
847.022	15005
847.158	14963
847.294	14952
847.429	14914
847.565	14952
847.701	15154
847.837	14625
847.972	14621
848.108	14826
848.244	14781
848.379	14606
848.515	14556
848.65	14400
848.786	14552
848.921	14488
849.057	14655
849.192	14632
849.328	14495
849.463	14476
849.598	14442
849.734	14488
849.869	14358
850.004	14366
850.14	14389
850.275	14267
850.41	14229
850.545	14286
850.68	14286
850.815	14320
850.95	14362
851.085	14396
851.22	14362
851.355	14244
851.49	14233
851.625	14172
851.76	14187
851.895	14142
852.03	14206
852.165	14267
852.299	14339
852.434	14298
852.569	14286
852.703	14313
852.838	14278
852.973	14450
853.107	14351
853.242	14259
853.376	14157
853.511	14020
853.645	14145
853.78	14229
853.914	14096
854.048	14176
854.183	14081
854.317	14252
854.451	14400
854.585	14119
854.72	14115
854.854	14153
854.988	14054
855.122	14039
855.256	13982
855.39	14058
855.524	14199
855.658	14240
855.792	14180
855.926	14187
856.06	14107
856.194	14267
856.327	14092
856.461	14073
856.595	14050
856.729	14100
856.862	14206
856.996	14164
857.13	14202
857.263	14233
857.397	14252
857.53	14119
857.664	14317
857.797	14263
857.931	14210
858.064	14138
858.197	14271
858.331	14088
858.464	14035
858.597	14001
858.731	14111
858.864	14149
858.997	14172
859.13	14263
859.263	14187
859.396	14229
859.529	14161
859.662	14103
859.795	14005
859.928	14077
860.061	14256
860.194	14362
860.327	14195
860.46	14210
860.592	14240
860.725	14309
860.858	14317
860.99	14153
861.123	14107
861.256	14084
861.388	14157
861.521	14979
861.653	13978
861.786	14046
861.918	14046
862.05	14046
862.183	14145
862.315	14142
862.447	14130
862.58	14111
862.712	13993
862.844	13887
862.976	14058
863.108	13963
863.24	14237
863.372	13879
863.504	13841
863.636	13906
863.768	14043
863.9	13940
864.032	13879
864.164	13833
864.296	13936
864.428	14123
864.559	14012
864.691	14088
864.823	13951
864.954	13974
865.086	13993
865.217	13909
865.349	13860
865.48	13784
865.612	13917
865.743	14081
865.875	13944
866.006	13967
866.137	13982
866.269	13864
866.4	13875
866.531	13879
866.662	13811
866.793	13864
866.924	13788
867.055	13883
867.186	13925
867.317	13887
867.448	13852
867.579	13811
867.71	13784
867.841	13830
867.972	13887
868.103	13959
868.233	13940
868.364	13875
868.495	13986
868.625	14164
868.756	14233
868.886	14191
869.017	14069
869.147	14328
869.278	14225
869.408	14187
869.539	14145
869.669	14259
869.799	14221
869.929	14275
870.06	14267
870.19	14465
870.32	14503
870.45	14499
870.58	14533
870.71	14594
870.84	14720
870.97	14507
871.1	14552
871.23	14716
871.36	14792
871.489	14686
871.619	14705
871.749	14788
871.879	14792
872.008	14952
872.138	14785
872.267	14823
872.397	14590
872.526	14617
872.656	14511
872.785	14682
872.915	14777
873.044	14849
873.173	14811
873.303	14838
873.432	14918
873.561	14826
873.69	14788
873.819	14800
873.948	14933
874.077	14864
874.206	14743
874.335	14921
874.464	14921
874.593	15150
874.722	15017
874.851	15135
874.979	15150
875.108	15142
875.237	15127
875.365	15097
875.494	15001
875.623	15241
875.751	15127
875.88	15180
876.008	15344
876.136	15348
876.265	15534
876.393	15705
876.521	15603
876.65	15736
876.778	15595
876.906	15561
877.034	15386
877.162	15477
877.29	15477
877.418	15587
877.546	15576
877.674	15542
877.802	15538
877.93	15625
878.058	15431
878.185	15443
878.313	15557
878.441	15511
878.568	15412
878.696	15549
878.824	15549
878.951	15648
879.079	15690
879.206	15789
879.333	15652
879.461	15694
879.588	15648
879.715	15759
879.842	15835
879.97	15686
880.097	15401
880.224	15355
880.351	15431
880.478	15363
880.605	15344
880.732	15321
880.859	15576
880.986	15336
881.112	15500
881.239	15245
881.366	15161
881.493	15009
881.619	15070
881.746	15116
881.872	15131
881.999	15017
882.125	14994
882.252	15112
882.378	15089
882.505	15241
882.631	14979
882.757	14891
882.883	15009
883.01	14853
883.136	14872
883.262	14746
883.388	14689
883.514	14921
883.64	14960
883.766	14868
883.892	14777
884.018	14651
884.143	14754
884.269	14998
884.395	14651
884.52	14533
884.646	14587
884.772	14499
884.897	14507
885.023	14590
885.148	14663
885.274	14655
885.399	14743
885.524	14518
885.65	14533
885.775	14610
885.9	14632
886.025	14663
886.15	14689
886.275	14530
886.4	14522
886.525	14568
886.65	14568
886.775	14480
886.9	14697
887.025	14838
887.149	14590
887.274	14389
887.399	14374
887.523	14393
887.648	14328
887.773	14313
887.897	14480
888.021	14476
888.146	14366
888.27	14492
888.395	14526
888.519	14442
888.643	14541
888.767	14431
888.891	14355
889.015	14259
889.139	14400
889.263	14210
889.387	14332
889.511	14461
889.635	14313
889.759	14377
889.883	14271
890.006	14237
890.13	14442
890.254	14294
890.377	14164
890.501	14130
890.624	14111
890.748	14187
890.871	14027
890.995	13959
891.118	13837
891.241	13959
891.364	13906
891.488	14145
891.611	13959
891.734	14035
891.857	13951
891.98	14054
892.103	14065
892.226	14031
892.349	13982
892.471	13868
892.594	13955
892.717	14024
892.839	13963
892.962	13913
893.085	14092
893.207	14054
893.33	13822
893.452	13925
893.575	14073
893.697	13986
893.819	14065
893.941	14256
894.064	14107
894.186	14020
894.308	13906
894.43	14096
894.552	14103
894.674	14107
894.796	13921
894.918	14016
895.04	13989
895.161	14161
895.283	14100
895.405	14031
895.526	14153
895.648	14084
895.769	14149
895.891	14168
896.012	14145
896.134	14142
896.255	14195
896.376	14130
896.498	14149
896.619	14164
896.74	14183
896.861	14180
896.982	14427
897.103	14659
897.224	14446
897.345	14412
897.466	14434
897.587	14374
897.708	14549
897.828	14518
897.949	14442
898.07	14263
898.19	14412
898.311	14556
898.431	14454
898.552	14511
898.672	14621
898.792	14682
898.913	14556
899.033	14427
899.153	14393
899.273	14278
899.393	14305
899.513	14419
899.633	14396
899.753	14389
899.873	14347
899.993	14434
900.113	14389
900.232	14370
900.352	14286
900.472	14286
900.591	14187
900.711	14259
900.83	14153
900.95	14317
901.069	14320
901.189	14107
901.308	13963
901.427	13913
901.546	13860
901.665	13982
901.784	13936
901.904	13826
902.023	13700
902.141	13613
902.26	13537
902.379	13559
902.498	13457
902.617	13350
902.735	13548
902.854	13464
902.973	13358
903.091	13217
903.21	13206
903.328	13247
903.446	13137
903.565	13050
903.683	13145
903.801	13012
903.919	13027
904.038	13080
904.156	12840
904.274	12973
904.392	12798
904.51	12913
904.627	12848
904.745	12954
904.863	12954
904.981	12776
905.098	12521
905.216	12509
905.334	12635
905.451	12642
905.569	12559
905.686	12513
905.803	12422
905.921	12429
906.038	12544
906.155	12407
906.272	12262
906.389	12262
906.506	12148
906.623	12072
906.74	12197
906.857	12140
906.974	12034
907.091	12167
907.208	12247
907.324	12220
907.441	12007
907.557	11916
907.674	11790
907.79	11790
907.907	11847
908.023	11973
908.139	11954
908.256	11866
908.372	11847
908.488	11767
908.604	11745
908.72	11619
908.836	11699
908.952	11524
909.068	11627
909.184	11809
909.3	11592
909.415	11741
909.531	11695
909.647	11486
909.762	11395
909.878	11398
909.993	11478
910.108	11444
910.224	11315
910.339	11406
910.454	11288
910.57	11303
910.685	11212
910.8	11524
910.915	11417
911.03	11216
911.145	11181
911.259	11124
911.374	11143
911.489	11121
911.604	10984
911.718	10987
911.833	10889
911.947	10786
912.062	10694
912.176	10847
912.291	10930
912.405	10881
912.519	11159
912.633	11090
912.748	11014
912.862	10911
912.976	10733
913.09	10668
913.204	10774
913.318	10782
913.431	10919
913.545	10835
913.659	10904
913.772	10748
913.886	10675
914	10679
914.113	10782
914.226	10812
914.34	10702
914.453	10542
914.566	10740
914.68	10626
914.793	10546
914.906	10333
915.019	10363
915.132	10344
915.245	10432
915.358	10440
915.47	10394
915.583	10379
915.696	10443
915.809	10546
915.921	10565
916.034	10352
916.146	10360
916.259	10409
916.371	10432
916.483	10352
916.595	10299
916.708	10352
916.82	10360
916.932	10356
917.044	10314
917.156	10337
917.268	10265
917.38	10287
917.491	10192
917.603	10204
917.715	10348
917.826	10314
917.938	10249
918.049	10162
918.161	10238
918.272	10386
918.384	10348
918.495	10318
918.606	10036
918.717	10128
918.828	10154
918.939	10219
919.05	10021
919.161	10177
919.272	9884
919.383	10063
919.494	10211
919.604	10402
919.715	10131
919.826	10044
919.936	10143
920.047	10207
920.157	10150
920.267	10337
920.378	10143
920.488	10200
920.598	10306
920.708	10451
920.818	10306
920.928	10295
921.038	10523
921.148	10497
921.258	10196
921.368	10128
921.477	10040
921.587	10063
921.697	9823
921.806	10010
921.916	9880
922.025	9751
922.134	9679
922.244	9637
922.353	9724
922.462	9622
922.571	9545
922.68	9431
922.789	9340
922.898	9393
923.007	9294
923.116	9420
923.224	9412
923.333	9370
923.442	9348
923.55	9283
923.659	9348
923.767	9405
923.876	9218
923.984	9363
924.092	9283
924.201	9279
924.309	9313
924.417	9302
924.525	9195
924.633	9264
924.741	10120
924.849	9036
924.956	9211
925.064	9001
925.172	8944
925.279	9039
925.387	9043
925.494	9062
925.602	9176
925.709	9138
925.816	8929
925.924	9062
926.031	9157
926.138	9062
926.245	9097
926.352	8899
926.459	9123
926.566	9138
926.673	9028
926.779	8944
926.886	8899
926.993	8743
927.099	8724
927.206	8769
927.312	8670
927.419	8766
927.525	8766
927.631	8929
927.737	8785
927.843	8625
927.95	8560
928.056	8693
928.162	8629
928.267	8750
928.373	9389
928.479	8861
928.585	8522
928.69	8598
928.796	8655
928.901	8594
929.007	8446
929.112	8590
929.218	8495
929.323	8511
929.428	8530
929.533	8613
929.638	8339
929.743	8454
929.848	8545
929.953	8465
930.058	8358
930.163	8240
930.267	8275
930.372	8408
930.477	8233
930.581	8446
930.685	8351
930.79	8210
930.894	8191
930.998	8191
931.103	8393
931.207	7993
931.311	7898
931.415	7917
931.519	7655
931.623	7769
