Data from test_V78500241_3660.txt Node
Date: Fri Mar 25 14:59:12 CST 2022
User: usil
Spectrometer: V785-0024
Trigger mode: 0
Integration Time (sec): 4.000000E-1
Scans to average: 1
Nonlinearity correction enabled: false
Boxcar width: 0
Storing dark spectrum: false
XAxis mode: Wavelengths
Number of Pixels in Spectrum: 1024
>>>>>Begin Spectral Data<<<<<
801.071	21979
801.214	21732
801.356	21572
801.499	21492
801.641	21313
801.783	21154
801.926	21348
802.068	21199
802.211	21180
802.353	21024
802.496	20853
802.638	20872
802.78	20686
802.923	20579
803.065	20632
803.208	20423
803.35	20651
803.492	20663
803.635	20640
803.777	20568
803.919	20716
804.061	20918
804.204	20754
804.346	20492
804.488	20366
804.63	20594
804.773	20396
804.915	20568
805.057	20682
805.199	20484
805.341	20465
805.483	20629
805.626	20564
805.768	20495
805.91	20530
806.052	20533
806.194	20328
806.336	20648
806.478	20518
806.62	20480
806.762	20492
806.904	20670
807.046	20872
807.188	20876
807.33	20830
807.472	20880
807.614	20697
807.756	20659
807.898	20568
808.04	20651
808.182	20503
808.324	20590
808.465	20514
808.607	20720
808.749	20800
808.891	21005
809.033	21001
809.174	20921
809.316	20914
809.458	20899
809.6	20853
809.741	20815
809.883	20800
810.025	20994
810.166	21001
810.308	21005
810.45	20914
810.591	21009
810.733	20781
810.875	20625
811.016	20518
811.158	20575
811.299	20689
811.441	20682
811.582	20693
811.724	20621
811.865	20537
812.007	20590
812.148	20659
812.29	20617
812.431	20807
812.573	21009
812.714	21017
812.855	21150
812.997	21233
813.138	21325
813.279	20971
813.421	21116
813.562	20937
813.703	20838
813.845	20705
813.986	20564
814.127	20309
814.268	20210
814.41	20191
814.551	20111
814.692	20244
814.833	20138
814.974	20115
815.115	20172
815.256	20065
815.397	19940
815.539	19967
815.68	20046
815.821	19833
815.962	19875
816.103	19883
816.244	19643
816.385	19632
816.526	19609
816.666	19430
816.807	19259
816.948	19483
817.089	19464
817.23	19297
817.371	19282
817.512	19175
817.653	19293
817.793	19327
817.934	19221
818.075	19282
818.216	19274
818.356	19297
818.497	19251
818.638	19046
818.778	18989
818.919	18973
819.06	19008
819.2	19202
819.341	19187
819.481	19190
819.622	19396
819.762	19483
819.903	19350
820.043	19217
820.184	19324
820.324	19384
820.465	19350
820.605	19217
820.746	19232
820.886	19091
821.026	19244
821.167	19217
821.307	19346
821.447	19133
821.588	19206
821.728	18863
821.868	18909
822.008	18673
822.149	18688
822.289	18669
822.429	18509
822.569	18513
822.709	18258
822.849	18285
822.99	18152
823.13	18289
823.27	18235
823.41	17999
823.55	18015
823.69	17961
823.83	17980
823.97	17912
824.11	17665
824.25	17767
824.389	17642
824.529	17775
824.669	17714
824.809	17878
824.949	17840
825.089	17767
825.228	17786
825.368	17543
825.508	17585
825.648	17608
825.787	17611
825.927	17467
826.067	17482
826.206	17562
826.346	17581
826.485	17520
826.625	17592
826.765	17608
826.904	17570
827.044	17307
827.183	17315
827.323	17284
827.462	17284
827.601	17307
827.741	17174
827.88	17288
828.02	17109
828.159	17239
828.298	17193
828.437	17288
828.577	17204
828.716	17337
828.855	17109
828.994	16900
829.134	16961
829.273	16923
829.412	16885
829.551	16915
829.69	16927
829.829	16991
829.968	17094
830.107	16949
830.246	17029
830.385	16900
830.524	16927
830.663	16824
830.802	16839
830.941	16645
831.08	16599
831.219	16672
831.357	16675
831.496	16839
831.635	16584
831.774	16546
831.913	16531
832.051	16310
832.19	16394
832.329	16337
832.467	16386
832.606	16291
832.744	16249
832.883	16299
833.022	16276
833.16	16200
833.299	16398
833.437	16291
833.576	16314
833.714	16348
833.852	16352
833.991	16333
834.129	16432
834.267	16390
834.406	16402
834.544	16516
834.682	16344
834.821	16299
834.959	16493
835.097	16386
835.235	16455
835.373	16329
835.511	16341
835.65	16261
835.788	16295
835.926	16116
836.064	16063
836.202	16128
836.34	16352
836.478	16352
836.615	16173
836.753	16268
836.891	16455
837.029	16348
837.167	16261
837.305	16177
837.443	16188
837.58	16105
837.718	16272
837.856	16299
837.993	16082
838.131	16169
838.269	16097
838.406	16109
838.544	16059
838.681	15819
838.819	15865
838.956	15690
839.094	15736
839.231	15816
839.369	15842
839.506	16169
839.643	16010
839.781	15720
839.918	15572
840.055	15789
840.193	15778
840.33	15625
840.467	15686
840.604	15667
840.742	16010
840.879	15652
841.016	15545
841.153	15603
841.29	15812
841.427	15732
841.564	15686
841.701	15663
841.838	15686
841.975	15625
842.112	15595
842.249	15564
842.385	15507
842.522	15644
842.659	15572
842.796	15561
842.933	15473
843.069	15363
843.206	15469
843.343	15542
843.479	15523
843.616	15519
843.752	15306
843.889	15325
844.025	15473
844.162	15230
844.298	15408
844.435	15329
844.571	15230
844.708	15401
844.844	15439
844.98	15500
845.117	15355
845.253	15252
845.389	15119
845.525	15207
845.661	15169
845.798	15108
845.934	15127
846.07	14979
846.206	15165
846.342	15222
846.478	15081
846.614	14823
846.75	14811
846.886	14823
847.022	14944
847.158	14918
847.294	14906
847.429	14963
847.565	14838
847.701	15104
847.837	14545
847.972	14564
848.108	14762
848.244	14739
848.379	14469
848.515	14412
848.65	14476
848.786	14465
848.921	14457
849.057	14640
849.192	14583
849.328	14457
849.463	14438
849.598	14476
849.734	14351
849.869	14309
850.004	14256
850.14	14328
850.275	14278
850.41	14172
850.545	14256
850.68	14210
850.815	14324
850.95	14218
851.085	14438
851.22	14374
851.355	14248
851.49	14191
851.625	14210
851.76	14195
851.895	14077
852.03	14107
852.165	14206
852.299	14294
852.434	14252
852.569	14263
852.703	14210
852.838	14267
852.973	14355
853.107	14351
853.242	14206
853.376	14092
853.511	14001
853.645	14088
853.78	14244
853.914	14107
854.048	14035
854.183	14111
854.317	14065
854.451	14187
854.585	14111
854.72	14031
854.854	14149
854.988	13925
855.122	14020
855.256	13967
855.39	14012
855.524	14142
855.658	14172
855.792	14164
855.926	14107
856.06	14172
856.194	14134
856.327	14183
856.461	14039
856.595	14054
856.729	14069
856.862	14142
856.996	14172
857.13	14221
857.263	14225
857.397	14233
857.53	14115
857.664	14115
857.797	14134
857.931	14248
858.064	14191
858.197	14218
858.331	14073
858.464	14062
858.597	14012
858.731	14145
858.864	14081
858.997	14149
859.13	14077
859.263	14123
859.396	14218
859.529	14123
859.662	14103
859.795	14069
859.928	14164
860.061	14134
860.194	14218
860.327	14123
860.46	14111
860.592	14199
860.725	14252
860.858	14134
860.99	14142
861.123	14024
861.256	14027
861.388	14157
861.521	14891
861.653	14054
861.786	13898
861.918	13940
862.05	14016
862.183	14062
862.315	14130
862.447	14161
862.58	13967
862.712	13875
862.844	13803
862.976	13997
863.108	13925
863.24	14263
863.372	13776
863.504	13849
863.636	13795
863.768	13986
863.9	13837
864.032	13849
864.164	13822
864.296	13936
864.428	13963
864.559	14020
864.691	14031
864.823	13936
864.954	13951
865.086	14008
865.217	13856
865.349	13784
865.48	13849
865.612	13951
865.743	13970
865.875	13860
866.006	13833
866.137	13833
866.269	13818
866.4	13917
866.531	13837
866.662	13799
866.793	13837
866.924	13830
867.055	13894
867.186	13890
867.317	13803
867.448	13875
867.579	13784
867.71	13822
867.841	13856
867.972	13852
868.103	13837
868.233	13852
868.364	13864
868.495	14031
868.625	14027
868.756	14191
868.886	14050
869.017	14065
869.147	14271
869.278	14282
869.408	14180
869.539	14092
869.669	14206
869.799	14290
869.929	14305
870.06	14294
870.19	14412
870.32	14423
870.45	14419
870.58	14533
870.71	14621
870.84	14655
870.97	14549
871.1	14480
871.23	14670
871.36	14697
871.489	14648
871.619	14640
871.749	14701
871.879	14746
872.008	14823
872.138	14788
872.267	14708
872.397	14594
872.526	14488
872.656	14644
872.785	14518
872.915	14788
873.044	14929
873.173	14815
873.303	14773
873.432	14792
873.561	14929
873.69	14800
873.819	14826
873.948	14891
874.077	14902
874.206	14777
874.335	14773
874.464	14960
874.593	15043
874.722	15089
874.851	15085
874.979	15024
875.108	15150
875.237	15058
875.365	15077
875.494	15093
875.623	15093
875.751	15001
875.88	15112
876.008	15233
876.136	15317
876.265	15488
876.393	15682
876.521	15564
876.65	15511
876.778	15606
876.906	15466
877.034	15564
877.162	15545
877.29	15370
877.418	15545
877.546	15443
877.674	15462
877.802	15447
877.93	15382
878.058	15481
878.185	15367
878.313	15481
878.441	15428
878.568	15382
878.696	15447
878.824	15538
878.951	15622
879.079	15667
879.206	15926
879.333	15755
879.461	15663
879.588	15504
879.715	15633
879.842	15823
879.97	15618
880.097	15348
880.224	15389
880.351	15340
880.478	15397
880.605	15340
880.732	15393
880.859	15454
880.986	15443
881.112	15382
881.239	15291
881.366	15188
881.493	15058
881.619	14979
881.746	15032
881.872	15047
881.999	14960
882.125	14921
882.252	15009
882.378	15028
882.505	15173
882.631	14975
882.757	14845
882.883	14887
883.01	14834
883.136	14834
883.262	14720
883.388	14651
883.514	14868
883.64	14891
883.766	14765
883.892	14655
884.018	14549
884.143	14815
884.269	14883
884.395	14617
884.52	14476
884.646	14511
884.772	14438
884.897	14442
885.023	14568
885.148	14678
885.274	14640
885.399	14651
885.524	14511
885.65	14530
885.775	14549
885.9	14590
886.025	14636
886.15	14674
886.275	14518
886.4	14419
886.525	14530
886.65	14469
886.775	14533
886.9	14651
887.025	14708
887.149	14537
887.274	14332
887.399	14290
887.523	14362
887.648	14294
887.773	14320
887.897	14526
888.021	14415
888.146	14263
888.27	14423
888.395	14579
888.519	14419
888.643	14415
888.767	14480
888.891	14256
889.015	14134
889.139	14301
889.263	14278
889.387	14358
889.511	14465
889.635	14336
889.759	14233
889.883	14282
890.006	14343
890.13	14347
890.254	14172
890.377	14199
890.501	14069
890.624	14039
890.748	14210
890.871	14050
890.995	13917
891.118	13807
891.241	13944
891.364	13989
891.488	13955
891.611	13959
891.734	13845
891.857	14031
891.98	14031
892.103	14035
892.226	14005
892.349	13909
892.471	13769
892.594	13925
892.717	13963
892.839	13989
892.962	13963
893.085	14027
893.207	13849
893.33	13864
893.452	13913
893.575	14001
893.697	13936
893.819	14031
893.941	14199
894.064	14168
894.186	13951
894.308	13932
894.43	14119
894.552	14229
894.674	14081
894.796	13925
894.918	13970
895.04	13986
895.161	14149
895.283	14145
895.405	13932
895.526	14058
895.648	14092
895.769	14187
895.891	14111
896.012	14233
896.134	14187
896.255	14183
896.376	14107
896.498	14058
896.619	14244
896.74	14123
896.861	14237
896.982	14450
897.103	14686
897.224	14442
897.345	14374
897.466	14256
897.587	14366
897.708	14454
897.828	14389
897.949	14431
898.07	14252
898.19	14332
898.311	14587
898.431	14362
898.552	14648
898.672	14606
898.792	14579
898.913	14469
899.033	14503
899.153	14298
899.273	14210
899.393	14164
899.513	14370
899.633	14332
899.753	14385
899.873	14252
899.993	14358
900.113	14278
900.232	14427
900.352	14271
900.472	14278
900.591	14119
900.711	14206
900.83	13967
900.95	14229
901.069	14328
901.189	14149
901.308	13913
901.427	13826
901.546	13852
901.665	13955
901.784	13928
901.904	13784
902.023	13552
902.141	13537
902.26	13392
902.379	13601
902.498	13506
902.617	13426
902.735	13419
902.854	13411
902.973	13422
903.091	13145
903.21	13137
903.328	13183
903.446	13137
903.565	12993
903.683	13034
903.801	12981
903.919	12939
904.038	12970
904.156	12852
904.274	12970
904.392	12760
904.51	12821
904.627	12821
904.745	12848
904.863	12882
904.981	12608
905.098	12506
905.216	12445
905.334	12555
905.451	12509
905.569	12467
905.686	12597
905.803	12570
905.921	12353
906.038	12506
906.155	12448
906.272	12315
906.389	12296
906.506	12155
906.623	12102
906.74	12049
906.857	12098
906.974	12034
907.091	12243
907.208	12304
907.324	12148
907.441	12079
907.557	11920
907.674	11847
907.79	11748
907.907	11836
908.023	11859
908.139	11832
908.256	11863
908.372	11752
908.488	11771
908.604	11718
908.72	11551
908.836	11707
908.952	11623
909.068	11611
909.184	11729
909.3	11627
909.415	11710
909.531	11649
909.647	11364
909.762	11387
909.878	11402
909.993	11402
910.108	11433
910.224	11391
910.339	11421
910.454	11220
910.57	11235
910.685	11098
910.8	11440
910.915	11406
911.03	11231
911.145	11201
911.259	11132
911.374	11159
911.489	11018
911.604	11052
911.718	10790
911.833	10869
911.947	10725
912.062	10698
912.176	10771
912.291	10858
912.405	10866
912.519	11128
912.633	11060
912.748	10965
912.862	10869
912.976	10809
913.09	10668
913.204	10664
913.318	10721
913.431	10923
913.545	10850
913.659	10839
913.772	10702
913.886	10717
914	10653
914.113	10725
914.226	10797
914.34	10797
914.453	10607
914.566	10721
914.68	10603
914.793	10584
914.906	10409
915.019	10318
915.132	10329
915.245	10333
915.358	10402
915.47	10379
915.583	10329
915.696	10424
915.809	10512
915.921	10523
916.034	10394
916.146	10402
916.259	10284
916.371	10382
916.483	10478
916.595	10287
916.708	10314
916.82	10295
916.932	10272
917.044	10337
917.156	10272
917.268	10173
917.38	10139
917.491	10188
917.603	10219
917.715	10291
917.826	10314
917.938	10188
918.049	10211
918.161	10169
918.272	10329
918.384	10325
918.495	10200
918.606	10128
918.717	10086
918.828	10128
918.939	10185
919.05	10040
919.161	10055
919.272	9911
919.383	9884
919.494	10158
919.604	10242
919.715	10112
919.826	10051
919.936	10074
920.047	10204
920.157	10135
920.267	10253
920.378	10185
920.488	10109
920.598	10265
920.708	10535
920.818	10268
920.928	10303
921.038	10523
921.148	10432
921.258	10143
921.368	10093
921.477	10006
921.587	9998
921.697	9903
921.806	9987
921.916	9953
922.025	9740
922.134	9755
922.244	9530
922.353	9724
922.462	9534
922.571	9477
922.68	9374
922.789	9397
922.898	9405
923.007	9382
923.116	9477
923.224	9382
923.333	9302
923.442	9275
923.55	9169
923.659	9230
923.767	9317
923.876	9207
923.984	9294
924.092	9214
924.201	9222
924.309	9256
924.417	9230
924.525	9180
924.633	9154
924.741	9979
924.849	9009
924.956	9176
925.064	9066
925.172	8918
925.279	9020
925.387	9077
925.494	9036
925.602	9169
925.709	9116
925.816	8883
925.924	8986
926.031	9097
926.138	9013
926.245	9138
926.352	8994
926.459	9104
926.566	9085
926.673	8891
926.779	8876
926.886	8941
926.993	8758
927.099	8727
927.206	8724
927.312	8701
927.419	8830
927.525	8769
927.631	8815
927.737	8636
927.843	8648
927.95	8610
928.056	8598
928.162	8564
928.267	8693
928.373	9245
928.479	8720
928.585	8556
928.69	8651
928.796	8621
928.901	8579
929.007	8408
929.112	8640
929.218	8549
929.323	8522
929.428	8511
929.533	8636
929.638	8381
929.743	8454
929.848	8530
929.953	8457
930.058	8431
930.163	8164
930.267	8233
930.372	8351
930.477	8240
930.581	8396
930.685	8328
930.79	8187
930.894	8225
930.998	8202
931.103	8347
931.207	7970
931.311	7947
931.415	7856
931.519	7727
931.623	7712
