Data from test_V78500241_1001.txt Node
Date: Fri Mar 25 14:40:41 CST 2022
User: usil
Spectrometer: V785-0024
Trigger mode: 0
Integration Time (sec): 4.000000E-1
Scans to average: 1
Nonlinearity correction enabled: false
Boxcar width: 0
Storing dark spectrum: false
XAxis mode: Wavelengths
Number of Pixels in Spectrum: 1024
>>>>>Begin Spectral Data<<<<<
801.071	23090
801.214	22900
801.356	22824
801.499	22698
801.641	22565
801.783	22466
801.926	22436
802.068	22474
802.211	22310
802.353	22173
802.496	21945
802.638	21972
802.78	21857
802.923	21968
803.065	21717
803.208	21774
803.35	21880
803.492	22002
803.635	21949
803.777	21865
803.919	21998
804.061	22147
804.204	21964
804.346	21770
804.488	21728
804.63	21812
804.773	21622
804.915	21739
805.057	21998
805.199	21766
805.341	21789
805.483	21857
805.626	21759
805.768	21705
805.91	21854
806.052	21789
806.194	21766
806.336	22002
806.478	21945
806.62	21781
806.762	21903
806.904	22173
807.046	22344
807.188	22356
807.33	22207
807.472	22333
807.614	22196
807.756	22470
807.898	22382
808.04	22348
808.182	22428
808.324	22577
808.465	22816
808.607	23044
808.749	23345
808.891	23490
809.033	23611
809.174	23318
809.316	23147
809.458	22965
809.6	22778
809.741	22748
809.883	22577
810.025	22664
810.166	22626
810.308	22683
810.45	22489
810.591	22497
810.733	22253
810.875	22261
811.016	22013
811.158	22032
811.299	22101
811.441	22147
811.582	22181
811.724	21979
811.865	21956
812.007	21964
812.148	21968
812.29	22010
812.431	22253
812.573	22325
812.714	22413
812.855	22497
812.997	22691
813.138	22717
813.279	22561
813.421	22493
813.562	22413
813.703	22310
813.845	22211
813.986	21911
814.127	21679
814.268	21530
814.41	21534
814.551	21469
814.692	21523
814.833	21523
814.974	21450
815.115	21458
815.256	21359
815.397	21325
815.539	21507
815.68	21279
815.821	21131
815.962	21298
816.103	21317
816.244	21089
816.385	21032
816.526	20895
816.666	20830
816.807	20667
816.948	20743
817.089	20872
817.23	20781
817.371	20785
817.512	20678
817.653	20743
817.793	20480
817.934	20625
818.075	20682
818.216	20632
818.356	20682
818.497	20438
818.638	20309
818.778	20393
818.919	20358
819.06	20396
819.2	20533
819.341	20575
819.481	20522
819.622	20655
819.762	20857
819.903	20937
820.043	20667
820.184	20663
820.324	20625
820.465	20663
820.605	20613
820.746	20617
820.886	20423
821.026	20545
821.167	20575
821.307	20743
821.447	20598
821.588	20328
821.728	20320
821.868	20244
822.008	20046
822.149	19982
822.289	19909
822.429	19833
822.569	19772
822.709	19765
822.849	19468
822.99	19510
823.13	19373
823.27	19434
823.41	19274
823.55	19228
823.69	19221
823.83	19434
823.97	19240
824.11	19072
824.25	19046
824.389	19072
824.529	19187
824.669	19103
824.809	19179
824.949	19095
825.089	19198
825.228	19080
825.368	18810
825.508	18962
825.648	18806
825.787	19110
825.927	18913
826.067	18844
826.206	18837
826.346	18939
826.485	18878
826.625	18837
826.765	19019
826.904	18863
827.044	18715
827.183	18661
827.323	18635
827.462	18540
827.601	18521
827.741	18486
827.88	18631
828.02	18441
828.159	18536
828.298	18544
828.437	18696
828.577	18441
828.716	18700
828.855	18578
828.994	18376
829.134	18311
829.273	18376
829.412	18308
829.551	18319
829.69	18441
829.829	18296
829.968	18388
830.107	18506
830.246	18296
830.385	18129
830.524	18292
830.663	18060
830.802	17965
830.941	18095
831.08	17893
831.219	18007
831.357	17939
831.496	18182
831.635	17980
831.774	17904
831.913	17859
832.051	17726
832.19	17687
832.329	17748
832.467	17680
832.606	17691
832.744	17570
832.883	17573
833.022	17684
833.16	17684
833.299	17714
833.437	17676
833.576	17748
833.714	17748
833.852	17771
833.991	17836
834.129	17912
834.267	17775
834.406	17752
834.544	17824
834.682	17794
834.821	17684
834.959	17863
835.097	17657
835.235	17779
835.373	17798
835.511	17756
835.65	17691
835.788	17642
835.926	17532
836.064	17410
836.202	17391
836.34	17566
836.478	17611
836.615	17566
836.753	17581
836.891	17653
837.029	17699
837.167	17627
837.305	17486
837.443	17478
837.58	17452
837.718	17524
837.856	17490
837.993	17398
838.131	17391
838.269	17353
838.406	17417
838.544	17337
838.681	17166
838.819	17071
838.956	16911
839.094	16889
839.231	17079
839.369	17086
839.506	17379
839.643	17269
839.781	16942
839.918	16911
840.055	17060
840.193	16919
840.33	16923
840.467	16923
840.604	16938
840.742	17208
840.879	16911
841.016	16869
841.153	16771
841.29	17155
841.427	16957
841.564	16995
841.701	17052
841.838	16896
841.975	16877
842.112	16885
842.249	16755
842.385	16691
842.522	16835
842.659	16729
842.796	16649
842.933	16683
843.069	16668
843.206	16542
843.343	16717
843.479	16805
843.616	16790
843.752	16531
843.889	16497
844.025	16793
844.162	16478
844.298	16622
844.435	16470
844.571	16569
844.708	16603
844.844	16713
844.98	16744
845.117	16584
845.253	16584
845.389	16607
845.525	16771
845.661	17193
845.798	17322
845.934	17733
846.07	17767
846.206	17756
846.342	17497
846.478	17216
846.614	16626
846.75	16341
846.886	16261
847.022	16181
847.158	16196
847.294	16147
847.429	16078
847.565	16090
847.701	16280
847.837	15804
847.972	15747
848.108	15922
848.244	15926
848.379	15728
848.515	15603
848.65	15667
848.786	15606
848.921	15663
849.057	15793
849.192	15698
849.328	15656
849.463	15675
849.598	15557
849.734	15542
849.869	15523
850.004	15473
850.14	15469
850.275	15408
850.41	15348
850.545	15450
850.68	15359
850.815	15416
850.95	15382
851.085	15534
851.22	15534
851.355	15363
851.49	15367
851.625	15310
851.76	15351
851.895	15351
852.03	15340
852.165	15389
852.299	15420
852.434	15572
852.569	15447
852.703	15481
852.838	15523
852.973	15469
853.107	15557
853.242	15397
853.376	15363
853.511	15138
853.645	15165
853.78	15431
853.914	15222
854.048	15256
854.183	15203
854.317	15336
854.451	15481
854.585	15249
854.72	15283
854.854	15363
854.988	15256
855.122	15214
855.256	15184
855.39	15313
855.524	15340
855.658	15302
855.792	15317
855.926	15245
856.06	15412
856.194	15401
856.327	15138
856.461	15233
856.595	15184
856.729	15264
856.862	15348
856.996	15310
857.13	15272
857.263	15439
857.397	15397
857.53	15256
857.664	15332
857.797	15374
857.931	15329
858.064	15306
858.197	15321
858.331	15283
858.464	15287
858.597	15127
858.731	15180
858.864	15199
858.997	15226
859.13	15241
859.263	15256
859.396	15367
859.529	15180
859.662	15218
859.795	15207
859.928	15298
860.061	15412
860.194	15447
860.327	15241
860.46	15256
860.592	15351
860.725	15363
860.858	15382
860.99	15272
861.123	15218
861.256	15226
861.388	15310
861.521	15880
861.653	15176
861.786	15077
861.918	15233
862.05	15142
862.183	15135
862.315	15275
862.447	15302
862.58	15222
862.712	15119
862.844	14971
862.976	15199
863.108	15013
863.24	15469
863.372	14982
863.504	15131
863.636	15017
863.768	15043
863.9	14925
864.032	14956
864.164	14929
864.296	15020
864.428	15108
864.559	15135
864.691	15142
864.823	15093
864.954	15077
865.086	15020
865.217	14925
865.349	14941
865.48	15013
865.612	14971
865.743	15146
865.875	14960
866.006	14990
866.137	15100
866.269	15039
866.4	14906
866.531	15028
866.662	14914
866.793	14944
866.924	15017
867.055	15043
867.186	15055
867.317	14914
867.448	14864
867.579	14929
867.71	14933
867.841	14925
867.972	15081
868.103	14944
868.233	14990
868.364	15005
868.495	15028
868.625	15195
868.756	15298
868.886	15199
869.017	15173
869.147	15294
869.278	15332
869.408	15325
869.539	15268
869.669	15340
869.799	15291
869.929	15302
870.06	15332
870.19	15576
870.32	15523
870.45	15625
870.58	15599
870.71	15717
870.84	15698
870.97	15576
871.1	15614
871.23	15705
871.36	15827
871.489	15717
871.619	15629
871.749	15835
871.879	15755
872.008	15899
872.138	15819
872.267	15812
872.397	15675
872.526	15675
872.656	15660
872.785	15633
872.915	15854
873.044	15865
873.173	15781
873.303	15895
873.432	15922
873.561	15918
873.69	15941
873.819	15892
873.948	15987
874.077	15865
874.206	15964
874.335	15991
874.464	16021
874.593	16234
874.722	16143
874.851	16173
874.979	16158
875.108	16265
875.237	16116
875.365	16086
875.494	16093
875.623	16291
875.751	16120
875.88	16257
876.008	16356
876.136	16440
876.265	16565
876.393	16634
876.521	16702
876.65	16675
876.778	16580
876.906	16611
877.034	16588
877.162	16641
877.29	16538
877.418	16565
877.546	16626
877.674	16569
877.802	16653
877.93	16622
878.058	16649
878.185	16512
878.313	16622
878.441	16683
878.568	16596
878.696	16736
878.824	16892
878.951	16854
879.079	17048
879.206	17444
879.333	17440
879.461	17315
879.588	17414
879.715	17573
879.842	17512
879.97	17261
880.097	16873
880.224	16801
880.351	16786
880.478	16721
880.605	16664
880.732	16634
880.859	16793
880.986	16637
881.112	16630
881.239	16493
881.366	16333
881.493	16261
881.619	16421
881.746	16337
881.872	16238
881.999	16341
882.125	16276
882.252	16295
882.378	16314
882.505	16421
882.631	16246
882.757	16067
882.883	16234
883.01	16090
883.136	16071
883.262	16044
883.388	15903
883.514	16158
883.64	16215
883.766	15987
883.892	15937
884.018	15857
884.143	16063
884.269	16090
884.395	15892
884.52	15747
884.646	15804
884.772	15800
884.897	15648
885.023	15857
885.148	15861
885.274	15915
885.399	15831
885.524	15739
885.65	15736
885.775	15690
885.9	15705
886.025	15797
886.15	15770
886.275	15595
886.4	15751
886.525	15686
886.65	15686
886.775	15663
886.9	15850
887.025	15937
887.149	15694
887.274	15523
887.399	15424
887.523	15545
887.648	15416
887.773	15454
887.897	15561
888.021	15633
888.146	15439
888.27	15595
888.395	15595
888.519	15568
888.643	15553
888.767	15481
888.891	15454
889.015	15268
889.139	15313
889.263	15302
889.387	15416
889.511	15500
889.635	15488
889.759	15245
889.883	15275
890.006	15389
890.13	15408
890.254	15192
890.377	15226
890.501	15142
890.624	15051
890.748	15150
890.871	15077
890.995	14990
891.118	14910
891.241	14960
891.364	14902
891.488	15077
891.611	14921
891.734	14963
891.857	15055
891.98	15032
892.103	15032
892.226	15017
892.349	14880
892.471	14815
892.594	14906
892.717	15009
892.839	14998
892.962	14998
893.085	15024
893.207	14918
893.33	14796
893.452	14921
893.575	15001
893.697	14902
893.819	15214
893.941	15062
894.064	15085
894.186	14918
894.308	14944
894.43	15055
894.552	15127
894.674	14994
894.796	14883
894.918	14944
895.04	15024
895.161	15058
895.283	15104
895.405	15013
895.526	15058
895.648	15036
895.769	15020
895.891	15039
896.012	15058
896.134	15081
896.255	15066
896.376	15089
896.498	15123
896.619	15081
896.74	15127
896.861	15192
896.982	15367
897.103	15488
897.224	15359
897.345	15310
897.466	15211
897.587	15245
897.708	15408
897.828	15283
897.949	15230
898.07	15142
898.19	15302
898.311	15553
898.431	15405
898.552	15408
898.672	15405
898.792	15473
898.913	15355
899.033	15302
899.153	15237
899.273	15081
899.393	15249
899.513	15241
899.633	15306
899.753	15336
899.873	15237
899.993	15218
900.113	15173
900.232	15386
900.352	15264
900.472	15085
900.591	15062
900.711	15157
900.83	15055
900.95	15165
901.069	15214
901.189	15020
901.308	14872
901.427	14800
901.546	14697
901.665	14807
901.784	14743
901.904	14587
902.023	14594
902.141	14408
902.26	14412
902.379	14454
902.498	14267
902.617	14301
902.735	14377
902.854	14328
902.973	14317
903.091	14008
903.21	14058
903.328	14084
903.446	13898
903.565	13765
903.683	13989
903.801	13769
903.919	13811
904.038	13803
904.156	13791
904.274	13803
904.392	13696
904.51	13651
904.627	13643
904.745	13700
904.863	13734
904.981	13556
905.098	13358
905.216	13324
905.334	13445
905.451	13320
905.569	13407
905.686	13396
905.803	13324
905.921	13266
906.038	13179
906.155	13221
906.272	13168
906.389	13057
906.506	12954
906.623	12954
906.74	12932
906.857	12848
906.974	12867
907.091	12920
907.208	13050
907.324	12989
907.441	12935
907.557	12654
907.674	12738
907.79	12707
907.907	12696
908.023	12700
908.139	12703
908.256	12582
908.372	12578
908.488	12536
908.604	12399
908.72	12467
908.836	12471
908.952	12437
909.068	12399
909.184	12498
909.3	12380
909.415	12509
909.531	12464
909.647	12148
909.762	12178
909.878	12102
909.993	12251
910.108	12144
910.224	12140
910.339	12155
910.454	12072
910.57	11996
910.685	11954
910.8	12270
910.915	12102
911.03	12022
911.145	11916
911.259	11821
911.374	11935
911.489	11794
911.604	11771
911.718	11547
911.833	11615
911.947	11524
912.062	11482
912.176	11611
912.291	11604
912.405	11627
912.519	11764
912.633	11748
912.748	11676
912.862	11600
912.976	11512
913.09	11425
913.204	11406
913.318	11436
913.431	11543
913.545	11558
913.659	11581
913.772	11429
913.886	11360
914	11395
914.113	11459
914.226	11505
914.34	11512
914.453	11311
914.566	11429
914.68	11315
914.793	11265
914.906	11113
915.019	11045
915.132	10976
915.245	11052
915.358	11155
915.47	11018
915.583	11079
915.696	11155
915.809	11227
915.921	11231
916.034	11094
916.146	11006
916.259	11048
916.371	11102
916.483	11025
916.595	10991
916.708	10999
916.82	10942
916.932	10953
917.044	10942
917.156	10987
917.268	10869
917.38	10961
917.491	10904
917.603	10900
917.715	11025
917.826	10980
917.938	10953
918.049	10748
918.161	10991
918.272	11025
918.384	10999
918.495	10938
918.606	10778
918.717	10736
918.828	10752
918.939	10752
919.05	10668
919.161	10645
919.272	10542
919.383	10603
919.494	10828
919.604	10927
919.715	10767
919.826	10649
919.936	10748
920.047	10828
920.157	10793
920.267	10953
920.378	10793
920.488	10831
920.598	10900
920.708	11181
920.818	11018
920.928	10946
921.038	11060
921.148	11147
921.258	10812
921.368	10725
921.477	10592
921.587	10592
921.697	10481
921.806	10626
921.916	10508
922.025	10314
922.134	10261
922.244	10268
922.353	10329
922.462	10280
922.571	10055
922.68	9994
922.789	9937
922.898	9994
923.007	9915
923.116	9979
923.224	9968
923.333	9968
923.442	9804
923.55	9808
923.659	9918
923.767	9854
923.876	9823
923.984	9823
924.092	9701
924.201	9816
924.309	9869
924.417	9865
924.525	9770
924.633	9759
924.741	10729
924.849	9549
924.956	9819
925.064	9591
925.172	9572
925.279	9610
925.387	9603
925.494	9610
925.602	9762
925.709	9644
925.816	9542
925.924	9603
926.031	9652
926.138	9580
926.245	9694
926.352	9511
926.459	9698
926.566	9679
926.673	9603
926.779	9435
926.886	9439
926.993	9359
927.099	9306
927.206	9230
927.312	9298
927.419	9279
927.525	9344
927.631	9351
927.737	9264
927.843	9195
927.95	9169
928.056	9173
928.162	9150
928.267	9302
928.373	9808
928.479	9294
928.585	9005
928.69	9169
928.796	9287
928.901	9127
929.007	8982
929.112	9138
929.218	9180
929.323	8963
929.428	9005
929.533	9169
929.638	8914
929.743	8929
929.848	9020
929.953	9013
930.058	8876
930.163	8705
930.267	8773
930.372	8910
930.477	8746
930.581	8925
930.685	8853
930.79	8686
930.894	8682
930.998	8689
931.103	8804
931.207	8514
931.311	8499
931.415	8366
931.519	8149
931.623	8210
