Data from test_V78500241_1010.txt Node
Date: Fri Mar 25 14:40:45 CST 2022
User: usil
Spectrometer: V785-0024
Trigger mode: 0
Integration Time (sec): 4.000000E-1
Scans to average: 1
Nonlinearity correction enabled: false
Boxcar width: 0
Storing dark spectrum: false
XAxis mode: Wavelengths
Number of Pixels in Spectrum: 1024
>>>>>Begin Spectral Data<<<<<
801.071	23041
801.214	22869
801.356	22736
801.499	22504
801.641	22382
801.783	22390
801.926	22413
802.068	22348
802.211	22188
802.353	22150
802.496	21880
802.638	21789
802.78	21861
802.923	21800
803.065	21739
803.208	21709
803.35	21675
803.492	21903
803.635	21873
803.777	21633
803.919	21785
804.061	22196
804.204	21865
804.346	21679
804.488	21576
804.63	21660
804.773	21572
804.915	21698
805.057	21789
805.199	21652
805.341	21679
805.483	21762
805.626	21850
805.768	21656
805.91	21656
806.052	21797
806.194	21709
806.336	21854
806.478	21816
806.62	21762
806.762	21835
806.904	22025
807.046	22124
807.188	22192
807.33	22048
807.472	22173
807.614	22211
807.756	22287
807.898	22295
808.04	22124
808.182	22154
808.324	22329
808.465	22554
808.607	22812
808.749	22976
808.891	23159
809.033	23398
809.174	23098
809.316	22938
809.458	22713
809.6	22550
809.741	22493
809.883	22523
810.025	22580
810.166	22447
810.308	22504
810.45	22459
810.591	22272
810.733	22173
810.875	21934
811.016	21884
811.158	21888
811.299	21907
811.441	22105
811.582	22029
811.724	21846
811.865	21953
812.007	21861
812.148	21960
812.29	21964
812.431	22120
812.573	22246
812.714	22169
812.855	22314
812.997	22535
813.138	22653
813.279	22413
813.421	22424
813.562	22390
813.703	22169
813.845	22002
813.986	21857
814.127	21530
814.268	21469
814.41	21580
814.551	21401
814.692	21587
814.833	21245
814.974	21355
815.115	21431
815.256	21317
815.397	21313
815.539	21116
815.68	21199
815.821	21112
815.962	21104
816.103	21252
816.244	20990
816.385	20880
816.526	20826
816.666	20838
816.807	20636
816.948	20655
817.089	20617
817.23	20750
817.371	20606
817.512	20625
817.653	20659
817.793	20587
817.934	20507
818.075	20556
818.216	20583
818.356	20514
818.497	20446
818.638	20256
818.778	20271
818.919	20298
819.06	20248
819.2	20339
819.341	20450
819.481	20438
819.622	20583
819.762	20758
819.903	20629
820.043	20667
820.184	20609
820.324	20632
820.465	20640
820.605	20537
820.746	20495
820.886	20545
821.026	20503
821.167	20537
821.307	20636
821.447	20446
821.588	20336
821.728	20305
821.868	20012
822.008	19864
822.149	19967
822.289	19879
822.429	19632
822.569	19582
822.709	19502
822.849	19567
822.99	19422
823.13	19487
823.27	19324
823.41	19129
823.55	19145
823.69	19240
823.83	19244
823.97	19069
824.11	18996
824.25	18958
824.389	19000
824.529	19110
824.669	19027
824.809	19240
824.949	19133
825.089	19038
825.228	19008
825.368	18951
825.508	18707
825.648	18814
825.787	18829
825.927	18863
826.067	18764
826.206	18757
826.346	18856
826.485	18825
826.625	18738
826.765	18867
826.904	18802
827.044	18620
827.183	18620
827.323	18521
827.462	18544
827.601	18407
827.741	18407
827.88	18494
828.02	18395
828.159	18391
828.298	18494
828.437	18536
828.577	18498
828.716	18525
828.855	18460
828.994	18342
829.134	18304
829.273	18350
829.412	18167
829.551	18254
829.69	18190
829.829	18273
829.968	18350
830.107	18228
830.246	18155
830.385	18171
830.524	18102
830.663	18087
830.802	17870
830.941	17767
831.08	17859
831.219	17931
831.357	17832
831.496	17927
831.635	17885
831.774	17741
831.913	17798
832.051	17642
832.19	17745
832.329	17585
832.467	17543
832.606	17505
832.744	17528
832.883	17543
833.022	17676
833.16	17539
833.299	17570
833.437	17627
833.576	17581
833.714	17661
833.852	17653
833.991	17627
834.129	17611
834.267	17627
834.406	17585
834.544	17642
834.682	17684
834.821	17596
834.959	17783
835.097	17551
835.235	17615
835.373	17638
835.511	17535
835.65	17493
835.788	17444
835.926	17326
836.064	17277
836.202	17364
836.34	17573
836.478	17539
836.615	17402
836.753	17452
836.891	17653
837.029	17547
837.167	17376
837.305	17467
837.443	17254
837.58	17311
837.718	17337
837.856	17414
837.993	17322
838.131	17349
838.269	17269
838.406	17360
838.544	17178
838.681	16965
838.819	17041
838.956	16767
839.094	16881
839.231	17018
839.369	16938
839.506	17334
839.643	17064
839.781	16889
839.918	16828
840.055	16873
840.193	16850
840.33	16862
840.467	16915
840.604	16889
840.742	17143
840.879	16710
841.016	16805
841.153	16774
841.29	16908
841.427	16816
841.564	16877
841.701	16801
841.838	16824
841.975	16748
842.112	16782
842.249	16717
842.385	16592
842.522	16793
842.659	16721
842.796	16672
842.933	16649
843.069	16607
843.206	16577
843.343	16687
843.479	16588
843.616	16573
843.752	16398
843.889	16356
844.025	16653
844.162	16341
844.298	16485
844.435	16424
844.571	16409
844.708	16538
844.844	16634
844.98	16577
845.117	16626
845.253	16459
845.389	16440
845.525	16687
845.661	17025
845.798	17208
845.934	17505
846.07	17425
846.206	17478
846.342	17318
846.478	16930
846.614	16481
846.75	16268
846.886	16078
847.022	16181
847.158	16116
847.294	16036
847.429	16071
847.565	15956
847.701	16219
847.837	15808
847.972	15679
848.108	15888
848.244	15751
848.379	15694
848.515	15568
848.65	15545
848.786	15576
848.921	15614
849.057	15679
849.192	15728
849.328	15644
849.463	15580
849.598	15549
849.734	15485
849.869	15462
850.004	15291
850.14	15401
850.275	15287
850.41	15252
850.545	15370
850.68	15287
850.815	15310
850.95	15313
851.085	15485
851.22	15519
851.355	15317
851.49	15355
851.625	15245
851.76	15359
851.895	15214
852.03	15188
852.165	15275
852.299	15283
852.434	15367
852.569	15374
852.703	15439
852.838	15485
852.973	15504
853.107	15405
853.242	15321
853.376	15226
853.511	15077
853.645	15245
853.78	15310
853.914	15184
854.048	15283
854.183	15104
854.317	15237
854.451	15321
854.585	15195
854.72	15169
854.854	15321
854.988	15173
855.122	15165
855.256	15001
855.39	15222
855.524	15207
855.658	15275
855.792	15188
855.926	15226
856.06	15344
856.194	15325
856.327	15138
856.461	15173
856.595	15085
856.729	15222
856.862	15329
856.996	15207
857.13	15275
857.263	15260
857.397	15275
857.53	15165
857.664	15291
857.797	15233
857.931	15313
858.064	15214
858.197	15275
858.331	15157
858.464	15077
858.597	15047
858.731	15157
858.864	15138
858.997	15218
859.13	15169
859.263	15184
859.396	15154
859.529	15127
859.662	15131
859.795	15131
859.928	15241
860.061	15348
860.194	15443
860.327	15233
860.46	15135
860.592	15173
860.725	15192
860.858	15294
860.99	15074
861.123	15074
861.256	15184
861.388	15233
861.521	15850
861.653	15058
861.786	14902
861.918	15058
862.05	15020
862.183	15169
862.315	15230
862.447	15302
862.58	15062
862.712	14967
862.844	14845
862.976	14986
863.108	15074
863.24	15329
863.372	14853
863.504	14937
863.636	14921
863.768	15043
863.9	14891
864.032	14838
864.164	14864
864.296	14971
864.428	15055
864.559	14918
864.691	15005
864.823	14948
864.954	14994
865.086	14986
865.217	14853
865.349	14868
865.48	14982
865.612	14948
865.743	15020
865.875	14929
866.006	14838
866.137	14979
866.269	14902
866.4	14861
866.531	14834
866.662	14785
866.793	14925
866.924	14906
867.055	14933
867.186	14872
867.317	14883
867.448	14800
867.579	14743
867.71	14807
867.841	14815
867.972	14902
868.103	14807
868.233	14914
868.364	14937
868.495	15108
868.625	15093
868.756	15195
868.886	14967
869.017	15169
869.147	15237
869.278	15211
869.408	15169
869.539	15074
869.669	15188
869.799	15131
869.929	15230
870.06	15272
870.19	15435
870.32	15458
870.45	15564
870.58	15526
870.71	15660
870.84	15675
870.97	15492
871.1	15595
871.23	15736
871.36	15755
871.489	15641
871.619	15667
871.749	15751
871.879	15865
872.008	15903
872.138	15781
872.267	15644
872.397	15622
872.526	15534
872.656	15469
872.785	15614
872.915	15732
873.044	15793
873.173	15766
873.303	15759
873.432	15838
873.561	15945
873.69	15850
873.819	15778
873.948	15880
874.077	15808
874.206	15827
874.335	15869
874.464	15865
874.593	16147
874.722	16002
874.851	16162
874.979	16192
875.108	16086
875.237	16082
875.365	16021
875.494	16067
875.623	16230
875.751	16166
875.88	16101
876.008	16207
876.136	16310
876.265	16485
876.393	16645
876.521	16558
876.65	16626
876.778	16599
876.906	16592
877.034	16500
877.162	16535
877.29	16451
877.418	16577
877.546	16561
877.674	16554
877.802	16527
877.93	16455
878.058	16622
878.185	16485
878.313	16554
878.441	16645
878.568	16531
878.696	16653
878.824	16664
878.951	16683
879.079	16919
879.206	17197
879.333	17185
879.461	17079
879.588	17292
879.715	17307
879.842	17410
879.97	16995
880.097	16805
880.224	16702
880.351	16637
880.478	16607
880.605	16558
880.732	16493
880.859	16755
880.986	16603
881.112	16550
881.239	16352
881.366	16314
881.493	16242
881.619	16226
881.746	16242
881.872	16211
881.999	16112
882.125	16166
882.252	16166
882.378	16177
882.505	16333
882.631	16021
882.757	16067
882.883	16036
883.01	16109
883.136	15861
883.262	15827
883.388	15831
883.514	16044
883.64	15987
883.766	15991
883.892	15835
884.018	15831
884.143	15975
884.269	16086
884.395	15701
884.52	15739
884.646	15762
884.772	15648
884.897	15557
885.023	15724
885.148	15857
885.274	15819
885.399	15812
885.524	15625
885.65	15713
885.775	15736
885.9	15542
886.025	15728
886.15	15671
886.275	15572
886.4	15523
886.525	15519
886.65	15534
886.775	15523
886.9	15736
887.025	15861
887.149	15595
887.274	15507
887.399	15488
887.523	15405
887.648	15431
887.773	15260
887.897	15473
888.021	15435
888.146	15355
888.27	15481
888.395	15496
888.519	15462
888.643	15473
888.767	15507
888.891	15298
889.015	15272
889.139	15313
889.263	15157
889.387	15298
889.511	15408
889.635	15424
889.759	15275
889.883	15207
890.006	15287
890.13	15272
890.254	15154
890.377	15142
890.501	15077
890.624	15081
890.748	15097
890.871	14986
890.995	14853
891.118	14834
891.241	14899
891.364	14952
891.488	15097
891.611	14937
891.734	14906
891.857	14929
891.98	14906
892.103	14960
892.226	14906
892.349	14933
892.471	14842
892.594	14899
892.717	14948
892.839	14921
892.962	14838
893.085	15017
893.207	14891
893.33	14800
893.452	14792
893.575	14937
893.697	14826
893.819	15013
893.941	15062
894.064	15024
894.186	14876
894.308	14838
894.43	14941
894.552	15104
894.674	14899
894.796	14849
894.918	14899
895.04	14834
895.161	15032
895.283	14952
895.405	14830
895.526	15028
895.648	14929
895.769	15032
895.891	15062
896.012	15108
896.134	15013
896.255	15039
896.376	14933
896.498	15001
896.619	15043
896.74	15043
896.861	15066
896.982	15302
897.103	15580
897.224	15302
897.345	15249
897.466	15287
897.587	15321
897.708	15374
897.828	15344
897.949	15321
898.07	15081
898.19	15218
898.311	15428
898.431	15313
898.552	15367
898.672	15485
898.792	15443
898.913	15389
899.033	15245
899.153	15150
899.273	15104
899.393	15169
899.513	15252
899.633	15135
899.753	15340
899.873	15116
899.993	15237
900.113	15192
900.232	15203
900.352	15214
900.472	15135
900.591	15047
900.711	15119
900.83	15036
900.95	15131
901.069	15176
901.189	14960
901.308	14876
901.427	14716
901.546	14632
901.665	14815
901.784	14758
901.904	14583
902.023	14598
902.141	14423
902.26	14225
902.379	14404
902.498	14332
902.617	14202
902.735	14305
902.854	14221
902.973	14202
903.091	14100
903.21	13978
903.328	14039
903.446	13940
903.565	13803
903.683	13852
903.801	13780
903.919	13883
904.038	13799
904.156	13689
904.274	13685
904.392	13571
904.51	13632
904.627	13685
904.745	13746
904.863	13685
904.981	13548
905.098	13278
905.216	13381
905.334	13301
905.451	13285
905.569	13316
905.686	13381
905.803	13297
905.921	13183
906.038	13228
906.155	13126
906.272	12951
906.389	13152
906.506	12837
906.623	12875
906.74	12928
906.857	12757
906.974	12760
907.091	12943
907.208	13012
907.324	12924
907.441	12806
907.557	12593
907.674	12650
907.79	12631
907.907	12601
908.023	12574
908.139	12585
908.256	12593
908.372	12563
908.488	12521
908.604	12376
908.72	12391
908.836	12399
908.952	12327
909.068	12350
909.184	12502
909.3	12338
909.415	12414
909.531	12311
909.647	12262
909.762	12175
909.878	12152
909.993	12144
910.108	12045
910.224	12133
910.339	12133
910.454	12030
910.57	11988
910.685	11870
910.8	12216
910.915	12133
911.03	11950
911.145	11840
911.259	11745
911.374	11783
911.489	11802
911.604	11665
911.718	11573
911.833	11528
911.947	11448
912.062	11383
912.176	11524
912.291	11520
912.405	11558
912.519	11779
912.633	11836
912.748	11703
912.862	11592
912.976	11478
913.09	11387
913.204	11376
913.318	11406
913.431	11615
913.545	11497
913.659	11566
913.772	11478
913.886	11318
914	11288
914.113	11402
914.226	11440
914.34	11452
914.453	11227
914.566	11425
914.68	11280
914.793	11231
914.906	11060
915.019	11022
915.132	10953
915.245	11022
915.358	11052
915.47	11048
915.583	11056
915.696	11151
915.809	11189
915.921	11181
916.034	11010
916.146	11045
916.259	10927
916.371	11117
916.483	11064
916.595	10927
916.708	11025
916.82	11022
916.932	10927
917.044	10904
917.156	10942
917.268	10862
917.38	10919
917.491	10812
917.603	10835
917.715	10927
917.826	11052
917.938	10820
918.049	10771
918.161	10866
918.272	10957
918.384	10946
918.495	10904
918.606	10748
918.717	10653
918.828	10828
918.939	10801
919.05	10599
919.161	10698
919.272	10508
919.383	10649
919.494	10869
919.604	10984
919.715	10740
919.826	10721
919.936	10649
920.047	10790
920.157	10710
920.267	10938
920.378	10778
920.488	10744
920.598	10930
920.708	11075
920.818	10942
920.928	10930
921.038	11018
921.148	11037
921.258	10748
921.368	10656
921.477	10615
921.587	10611
921.697	10504
921.806	10558
921.916	10390
922.025	10284
922.134	10234
922.244	10227
922.353	10306
922.462	10204
922.571	10112
922.68	9972
922.789	9922
922.898	10013
923.007	9865
923.116	10002
923.224	10029
923.333	9998
923.442	9766
923.55	9816
923.659	9888
923.767	9888
923.876	9789
923.984	9949
924.092	9698
924.201	9831
924.309	9876
924.417	9850
924.525	9778
924.633	9751
924.741	10740
924.849	9561
924.956	9797
925.064	9584
925.172	9549
925.279	9542
925.387	9610
925.494	9599
925.602	9717
925.709	9682
925.816	9557
925.924	9553
926.031	9675
926.138	9629
926.245	9595
926.352	9443
926.459	9652
926.566	9656
926.673	9500
926.779	9466
926.886	9374
926.993	9325
927.099	9253
927.206	9203
927.312	9268
927.419	9287
927.525	9336
927.631	9287
927.737	9237
927.843	9161
927.95	9093
928.056	9146
928.162	9176
928.267	9199
928.373	9800
928.479	9245
928.585	9024
928.69	9241
928.796	9161
928.901	9123
929.007	8906
929.112	9070
929.218	9055
929.323	9001
929.428	8982
929.533	9135
929.638	8986
929.743	8872
929.848	8944
929.953	9036
930.058	8910
930.163	8739
930.267	8708
930.372	8876
930.477	8727
930.581	8963
930.685	8830
930.79	8663
930.894	8705
930.998	8659
931.103	8800
931.207	8492
931.311	8461
931.415	8358
931.519	8206
931.623	8115
