Data from test_V78500241_221.txt Node
Date: Fri Mar 25 14:35:15 CST 2022
User: usil
Spectrometer: V785-0024
Trigger mode: 0
Integration Time (sec): 4.000000E-1
Scans to average: 1
Nonlinearity correction enabled: false
Boxcar width: 0
Storing dark spectrum: false
XAxis mode: Wavelengths
Number of Pixels in Spectrum: 1024
>>>>>Begin Spectral Data<<<<<
801.071	27831
801.214	27759
801.356	27473
801.499	27534
801.641	27325
801.783	27294
801.926	27226
802.068	27233
802.211	27058
802.353	26990
802.496	26906
802.638	26773
802.78	26952
802.923	26758
803.065	26526
803.208	26644
803.35	26712
803.492	26868
803.635	26864
803.777	26792
803.919	26883
804.061	27169
804.204	26769
804.346	26629
804.488	26606
804.63	26682
804.773	26773
804.915	26606
805.057	26804
805.199	26754
805.341	26937
805.483	26925
805.626	26792
805.768	26727
805.91	26754
806.052	26819
806.194	26765
806.336	27108
806.478	26845
806.62	26853
806.762	26940
806.904	27058
807.046	27241
807.188	27116
807.33	27203
807.472	27317
807.614	27188
807.756	27116
807.898	27081
808.04	27146
808.182	27104
808.324	27287
808.465	27252
808.607	27488
808.749	27599
808.891	27812
809.033	27914
809.174	27766
809.316	27606
809.458	27656
809.6	27648
809.741	27519
809.883	27481
810.025	27591
810.166	27656
810.308	27591
810.45	27469
810.591	27424
810.733	27348
810.875	27180
811.016	27226
811.158	27096
811.299	27237
811.441	27264
811.582	27249
811.724	27207
811.865	27256
812.007	27218
812.148	27249
812.29	27169
812.431	27230
812.573	27515
812.714	27443
812.855	27644
812.997	27705
813.138	27770
813.279	27823
813.421	27732
813.562	27667
813.703	27359
813.845	27348
813.986	27066
814.127	26853
814.268	26739
814.41	26769
814.551	26743
814.692	26868
814.833	26705
814.974	26746
815.115	26739
815.256	26549
815.397	26499
815.539	26560
815.68	26446
815.821	26453
815.962	26446
816.103	26328
816.244	26305
816.385	26168
816.526	26199
816.666	25906
816.807	25765
816.948	25989
817.089	25997
817.23	25944
817.371	25845
817.512	25871
817.653	25791
817.793	25784
817.934	25860
818.075	25913
818.216	25784
818.356	25666
818.497	25746
818.638	25628
818.778	25548
818.919	25426
819.06	25693
819.2	25556
819.341	25875
819.481	25723
819.622	25814
819.762	25902
819.903	26024
820.043	25803
820.184	25830
820.324	25727
820.465	25940
820.605	25757
820.746	25696
820.886	25616
821.026	25757
821.167	25643
821.307	25860
821.447	25632
821.588	25616
821.728	25343
821.868	25373
822.008	25244
822.149	25179
822.289	25107
822.429	24757
822.569	24848
822.709	24795
822.849	24661
822.99	24627
823.13	24490
823.27	24505
823.41	24414
823.55	24429
823.69	24494
823.83	24422
823.97	24300
824.11	24220
824.25	24057
824.389	24155
824.529	24353
824.669	24178
824.809	24350
824.949	24243
825.089	24418
825.228	24136
825.368	24057
825.508	24068
825.648	24041
825.787	24091
825.927	24045
826.067	24030
826.206	23882
826.346	24076
826.485	24015
826.625	24026
826.765	24095
826.904	24034
827.044	23798
827.183	23786
827.323	23596
827.462	23737
827.601	23573
827.741	23653
827.88	23699
828.02	23531
828.159	23657
828.298	23695
828.437	23642
828.577	23600
828.716	23764
828.855	23585
828.994	23391
829.134	23250
829.273	23360
829.412	23341
829.551	23227
829.69	23315
829.829	23311
829.968	23368
830.107	23360
830.246	23356
830.385	23303
830.524	23185
830.663	23124
830.802	22938
830.941	22862
831.08	22961
831.219	22987
831.357	22953
831.496	23064
831.635	22858
831.774	22763
831.913	22805
832.051	22599
832.19	22679
832.329	22691
832.467	22622
832.606	22470
832.744	22508
832.883	22626
833.022	22516
833.16	22535
833.299	22561
833.437	22653
833.576	22603
833.714	22500
833.852	22721
833.991	22622
834.129	22531
834.267	22675
834.406	22573
834.544	22561
834.682	22535
834.821	22527
834.959	22698
835.097	22341
835.235	22664
835.373	22538
835.511	22508
835.65	22421
835.788	22466
835.926	22192
836.064	22196
836.202	22268
836.34	22284
836.478	22447
836.615	22276
836.753	22390
836.891	22459
837.029	22352
837.167	22325
837.305	22436
837.443	22215
837.58	22116
837.718	22230
837.856	22188
837.993	22147
838.131	22158
838.269	22067
838.406	22078
838.544	21930
838.681	21793
838.819	21778
838.956	21633
839.094	21583
839.231	21724
839.369	21781
839.506	21964
839.643	21759
839.781	21747
839.918	21408
840.055	21606
840.193	21568
840.33	21530
840.467	21553
840.604	21496
840.742	21899
840.879	21412
841.016	21538
841.153	21469
841.29	21488
841.427	21492
841.564	21530
841.701	21435
841.838	21370
841.975	21454
842.112	21306
842.249	21439
842.385	21146
842.522	21412
842.659	21199
842.796	21203
842.933	21218
843.069	21291
843.206	21192
843.343	21313
843.479	21329
843.616	21146
843.752	20960
843.889	21066
844.025	21043
844.162	21013
844.298	21085
844.435	20921
844.571	20979
844.708	20975
844.844	21131
844.98	21138
845.117	21058
845.253	20994
845.389	20979
845.525	20998
845.661	21001
845.798	21108
845.934	21275
846.07	21184
846.206	21264
846.342	21367
846.478	21104
846.614	20678
846.75	20568
846.886	20480
847.022	20492
847.158	20514
847.294	20495
847.429	20488
847.565	20412
847.701	20739
847.837	20138
847.972	20058
848.108	20233
848.244	20199
848.379	19936
848.515	20062
848.65	20024
848.786	20050
848.921	20050
849.057	20073
849.192	20229
849.328	19986
849.463	19906
849.598	19967
849.734	19811
849.869	19909
850.004	19765
850.14	19704
850.275	19723
850.41	19670
850.545	19681
850.68	19731
850.815	19681
850.95	19757
851.085	19868
851.22	19689
851.355	19807
851.49	19559
851.625	19681
851.76	19628
851.895	19605
852.03	19510
852.165	19685
852.299	19662
852.434	19818
852.569	19791
852.703	19620
852.838	19723
852.973	19837
853.107	19696
853.242	19769
853.376	19483
853.511	19525
853.645	19377
853.78	19582
853.914	19571
854.048	19510
854.183	19445
854.317	19571
854.451	19807
854.585	19601
854.72	19571
854.854	19419
854.988	19449
855.122	19529
855.256	19354
855.39	19411
855.524	19601
855.658	19544
855.792	19544
855.926	19544
856.06	19590
856.194	19582
856.327	19529
856.461	19373
856.595	19381
856.729	19388
856.862	19537
856.996	19578
857.13	19521
857.263	19529
857.397	19537
857.53	19472
857.664	19548
857.797	19655
857.931	19537
858.064	19620
858.197	19567
858.331	19476
858.464	19392
858.597	19251
858.731	19377
858.864	19278
858.997	19457
859.13	19419
859.263	19495
859.396	19567
859.529	19358
859.662	19350
859.795	19362
859.928	19331
860.061	19609
860.194	19609
860.327	19468
860.46	19438
860.592	19468
860.725	19537
860.858	19495
860.99	19358
861.123	19358
861.256	19346
861.388	19316
861.521	20031
861.653	19301
861.786	19255
861.918	19289
862.05	19434
862.183	19426
862.315	19392
862.447	19635
862.58	19480
862.712	19206
862.844	19080
862.976	19293
863.108	19225
863.24	19601
863.372	18954
863.504	19061
863.636	19095
863.768	19168
863.9	19122
864.032	19095
864.164	19152
864.296	19160
864.428	19129
864.559	19152
864.691	19240
864.823	19095
864.954	19114
865.086	19000
865.217	19042
865.349	18894
865.48	19061
865.612	19179
865.743	19175
865.875	19103
866.006	19023
866.137	19088
866.269	19065
866.4	18996
866.531	18996
866.662	19110
866.793	19004
866.924	18939
867.055	18993
867.186	18905
867.317	18916
867.448	18913
867.579	19061
867.71	18951
867.841	18894
867.972	19000
868.103	19023
868.233	18981
868.364	19034
868.495	19053
868.625	19297
868.756	19202
868.886	19187
869.017	19171
869.147	19373
869.278	19251
869.408	19251
869.539	19213
869.669	19301
869.799	19255
869.929	19183
870.06	19247
870.19	19544
870.32	19407
870.45	19449
870.58	19643
870.71	19704
870.84	19670
870.97	19685
871.1	19575
871.23	19696
871.36	19662
871.489	19700
871.619	19757
871.749	19620
871.879	19723
872.008	19898
872.138	19837
872.267	19719
872.397	19681
872.526	19666
872.656	19655
872.785	19514
872.915	19841
873.044	19868
873.173	19807
873.303	19906
873.432	19871
873.561	19890
873.69	19803
873.819	19883
873.948	20001
874.077	19807
874.206	19731
874.335	19940
874.464	19928
874.593	20126
874.722	19894
874.851	20157
874.979	20130
875.108	20214
875.237	19967
875.365	19932
875.494	20081
875.623	20115
875.751	19986
875.88	20126
876.008	20374
876.136	20218
876.265	20518
876.393	20655
876.521	20594
876.65	20579
876.778	20514
876.906	20461
877.034	20469
877.162	20488
877.29	20438
877.418	20492
877.546	20495
877.674	20606
877.802	20461
877.93	20492
878.058	20450
878.185	20438
878.313	20514
878.441	20495
878.568	20377
878.696	20431
878.824	20575
878.951	20530
879.079	20754
879.206	20830
879.333	20815
879.461	20845
879.588	20845
879.715	20880
879.842	20880
879.97	20720
880.097	20381
880.224	20526
880.351	20495
880.478	20484
880.605	20377
880.732	20465
880.859	20629
880.986	20556
881.112	20461
881.239	20336
881.366	20282
881.493	19982
881.619	19993
881.746	20005
881.872	20001
881.999	19894
882.125	20016
882.252	20027
882.378	20084
882.505	20149
882.631	19925
882.757	19776
882.883	19799
883.01	19791
883.136	19700
883.262	19597
883.388	19616
883.514	19753
883.64	19712
883.766	19635
883.892	19510
884.018	19521
884.143	19620
884.269	19731
884.395	19514
884.52	19339
884.646	19362
884.772	19316
884.897	19327
885.023	19373
885.148	19476
885.274	19563
885.399	19499
885.524	19346
885.65	19365
885.775	19400
885.9	19259
886.025	19430
886.15	19369
886.275	19308
886.4	19278
886.525	19320
886.65	19175
886.775	19228
886.9	19544
887.025	19605
887.149	19388
887.274	19217
887.399	19091
887.523	19148
887.648	19061
887.773	19156
887.897	19190
888.021	19114
888.146	18993
888.27	19187
888.395	19164
888.519	19034
888.643	19225
888.767	19107
888.891	19004
889.015	18928
889.139	18844
889.263	18772
889.387	18954
889.511	19061
889.635	18935
889.759	18817
889.883	18878
890.006	18734
890.13	19118
890.254	18882
890.377	18764
890.501	18692
890.624	18654
890.748	18673
890.871	18544
890.995	18445
891.118	18407
891.241	18559
891.364	18486
891.488	18612
891.611	18506
891.734	18551
891.857	18631
891.98	18521
892.103	18544
892.226	18391
892.349	18422
892.471	18311
892.594	18384
892.717	18388
892.839	18380
892.962	18369
893.085	18391
893.207	18422
893.33	18323
893.452	18395
893.575	18483
893.697	18357
893.819	18540
893.941	18604
894.064	18635
894.186	18410
894.308	18395
894.43	18536
894.552	18559
894.674	18464
894.796	18357
894.918	18407
895.04	18403
895.161	18403
895.283	18441
895.405	18319
895.526	18323
895.648	18346
895.769	18448
895.891	18540
896.012	18494
896.134	18528
896.255	18525
896.376	18445
896.498	18502
896.619	18555
896.74	18540
896.861	18513
896.982	18798
897.103	18875
897.224	18779
897.345	18642
897.466	18684
897.587	18730
897.708	18821
897.828	18840
897.949	18631
898.07	18544
898.19	18684
898.311	18787
898.431	18703
898.552	18829
898.672	18795
898.792	18760
898.913	18776
899.033	18559
899.153	18483
899.273	18410
899.393	18509
899.513	18563
899.633	18429
899.753	18426
899.873	18372
899.993	18479
900.113	18403
900.232	18464
900.352	18384
900.472	18201
900.591	18281
900.711	18281
900.83	18239
900.95	18319
901.069	18475
901.189	18114
901.308	18030
901.427	17908
901.546	17866
901.665	17969
901.784	17889
901.904	17741
902.023	17577
902.141	17592
902.26	17402
902.379	17406
902.498	17383
902.617	17318
902.735	17368
902.854	17452
902.973	17341
903.091	17037
903.21	17143
903.328	16987
903.446	16927
903.565	16824
903.683	16904
903.801	16908
903.919	16774
904.038	16889
904.156	16653
904.274	16797
904.392	16618
904.51	16645
904.627	16649
904.745	16596
904.863	16710
904.981	16443
905.098	16306
905.216	16371
905.334	16284
905.451	16257
905.569	16265
905.686	16322
905.803	16280
905.921	16135
906.038	16215
906.155	16135
906.272	15968
906.389	16105
906.506	15873
906.623	15895
906.74	15884
906.857	15766
906.974	15808
907.091	15842
907.208	15983
907.324	15983
907.441	15785
907.557	15618
907.674	15576
907.79	15473
907.907	15507
908.023	15458
908.139	15545
908.256	15500
908.372	15477
908.488	15450
908.604	15367
908.72	15226
908.836	15256
908.952	15207
909.068	15233
909.184	15363
909.3	15245
909.415	15264
909.531	15230
909.647	14990
909.762	14960
909.878	14861
909.993	14895
910.108	14857
910.224	14982
910.339	14914
910.454	14845
910.57	14857
910.685	14811
910.8	14910
910.915	14910
911.03	14739
911.145	14552
911.259	14590
911.374	14541
911.489	14522
911.604	14461
911.718	14286
911.833	14377
911.947	14199
912.062	14176
912.176	14332
912.291	14240
912.405	14263
912.519	14465
912.633	14442
912.748	14290
912.862	14317
912.976	14157
913.09	14020
913.204	14096
913.318	14168
913.431	14119
913.545	14065
913.659	14271
913.772	14046
913.886	13913
914	13921
914.113	14084
914.226	14069
914.34	14012
914.453	13936
914.566	13993
914.68	13917
914.793	13902
914.906	13685
915.019	13578
915.132	13578
915.245	13605
915.358	13651
915.47	13567
915.583	13628
915.696	13693
915.809	13738
915.921	13803
916.034	13537
916.146	13472
916.259	13476
916.371	13594
916.483	13601
916.595	13419
916.708	13548
916.82	13476
916.932	13434
917.044	13316
917.156	13343
917.268	13297
917.38	13384
917.491	13297
917.603	13293
917.715	13285
917.826	13346
917.938	13213
918.049	13042
918.161	13293
918.272	13339
918.384	13384
918.495	13240
918.606	13175
918.717	13034
918.828	13107
918.939	13160
919.05	12993
919.161	13031
919.272	12817
919.383	12966
919.494	13034
919.604	13297
919.715	13061
919.826	13023
919.936	12989
920.047	13091
920.157	13012
920.267	13327
920.378	13133
920.488	13015
920.598	13187
920.708	13335
920.818	13213
920.928	13156
921.038	13350
921.148	13206
921.258	13034
921.368	12958
921.477	12886
921.587	12821
921.697	12631
921.806	12844
921.916	12722
922.025	12486
922.134	12486
922.244	12338
922.353	12585
922.462	12471
922.571	12308
922.68	12167
922.789	12133
922.898	12197
923.007	12057
923.116	12083
923.224	12057
923.333	12091
923.442	12003
923.55	11973
923.659	11950
923.767	11996
923.876	11882
923.984	12076
924.092	11813
924.201	12022
924.309	11813
924.417	11908
924.525	11794
924.633	11870
924.741	12791
924.849	11688
924.956	11756
925.064	11672
925.172	11608
925.279	11581
925.387	11703
925.494	11596
925.602	11737
925.709	11608
925.816	11638
925.924	11707
926.031	11691
926.138	11566
926.245	11630
926.352	11478
926.459	11680
926.566	11646
926.673	11554
926.779	11414
926.886	11391
926.993	11315
927.099	11193
927.206	11185
927.312	11178
927.419	11250
927.525	11258
927.631	11193
927.737	11242
927.843	11117
927.95	11006
928.056	11056
928.162	11048
928.267	11113
928.373	11627
928.479	11193
928.585	10949
928.69	11113
928.796	11124
928.901	10972
929.007	10915
929.112	10942
929.218	10911
929.323	10854
929.428	10752
929.533	10896
929.638	10736
929.743	10755
929.848	10790
929.953	10729
930.058	10645
930.163	10516
930.267	10569
930.372	10634
930.477	10523
930.581	10637
930.685	10554
930.79	10470
930.894	10459
930.998	10367
931.103	10459
931.207	10162
931.311	10150
931.415	10040
931.519	9831
931.623	9785
