Data from test_V78500241_2249.txt Node
Date: Fri Mar 25 14:49:22 CST 2022
User: usil
Spectrometer: V785-0024
Trigger mode: 0
Integration Time (sec): 4.000000E-1
Scans to average: 1
Nonlinearity correction enabled: false
Boxcar width: 0
Storing dark spectrum: false
XAxis mode: Wavelengths
Number of Pixels in Spectrum: 1024
>>>>>Begin Spectral Data<<<<<
801.071	22116
801.214	22143
801.356	21838
801.499	21682
801.641	21633
801.783	21564
801.926	21656
802.068	21500
802.211	21363
802.353	21195
802.496	21013
802.638	21039
802.78	21013
802.923	20910
803.065	20838
803.208	20720
803.35	20891
803.492	20967
803.635	21024
803.777	20716
803.919	20960
804.061	21233
804.204	20918
804.346	20788
804.488	20826
804.63	20842
804.773	20739
804.915	20785
805.057	20899
805.199	20644
805.341	20804
805.483	20967
805.626	20937
805.768	20773
805.91	20830
806.052	20838
806.194	20670
806.336	20910
806.478	20800
806.62	20705
806.762	20979
806.904	20937
807.046	21272
807.188	21154
807.33	21104
807.472	21146
807.614	21085
807.756	21096
807.898	21043
808.04	20979
808.182	20849
808.324	20868
808.465	21085
808.607	21173
808.749	21154
808.891	21180
809.033	21294
809.174	21241
809.316	21096
809.458	21108
809.6	21207
809.741	21226
809.883	21355
810.025	21230
810.166	21298
810.308	21321
810.45	21249
810.591	21203
810.733	21062
810.875	21047
811.016	20815
811.158	20781
811.299	21039
811.441	20994
811.582	21100
811.724	20990
811.865	20853
812.007	20944
812.148	20967
812.29	21005
812.431	21100
812.573	21317
812.714	21389
812.855	21405
812.997	21515
813.138	21705
813.279	21599
813.421	21568
813.562	21466
813.703	21188
813.845	21039
813.986	20823
814.127	20712
814.268	20484
814.41	20507
814.551	20366
814.692	20518
814.833	20495
814.974	20590
815.115	20476
815.256	20385
815.397	20328
815.539	20374
815.68	20301
815.821	20282
815.962	20347
816.103	20168
816.244	20142
816.385	20016
816.526	20024
816.666	19795
816.807	19655
816.948	19761
817.089	19742
817.23	19723
817.371	19563
817.512	19677
817.653	19571
817.793	19556
817.934	19567
818.075	19833
818.216	19696
818.356	19597
818.497	19445
818.638	19148
818.778	19369
818.919	19285
819.06	19369
819.2	19438
819.341	19453
819.481	19491
819.622	19742
819.762	19818
819.903	19807
820.043	19632
820.184	19609
820.324	19521
820.465	19693
820.605	19594
820.746	19632
820.886	19422
821.026	19719
821.167	19609
821.307	19616
821.447	19499
821.588	19422
821.728	19293
821.868	19110
822.008	19038
822.149	18932
822.289	19015
822.429	18749
822.569	18658
822.709	18661
822.849	18525
822.99	18475
823.13	18407
823.27	18350
823.41	18319
823.55	18304
823.69	18330
823.83	18365
823.97	18262
824.11	18022
824.25	18041
824.389	18053
824.529	18216
824.669	18072
824.809	18182
824.949	18171
825.089	18117
825.228	18117
825.368	17866
825.508	17954
825.648	17901
825.787	17828
825.927	17885
826.067	17783
826.206	17882
826.346	17866
826.485	17954
826.625	17817
826.765	17931
826.904	17904
827.044	17630
827.183	17554
827.323	17467
827.462	17528
827.601	17467
827.741	17482
827.88	17512
828.02	17440
828.159	17543
828.298	17642
828.437	17528
828.577	17497
828.716	17630
828.855	17520
828.994	17353
829.134	17277
829.273	17318
829.412	17204
829.551	17170
829.69	17261
829.829	17250
829.968	17421
830.107	17356
830.246	17204
830.385	17258
830.524	17151
830.663	17159
830.802	16911
830.941	16934
831.08	16869
831.219	17052
831.357	16934
831.496	17147
831.635	16816
831.774	16820
831.913	16885
832.051	16755
832.19	16599
832.329	16702
832.467	16618
832.606	16447
832.744	16637
832.883	16691
833.022	16512
833.16	16603
833.299	16618
833.437	16550
833.576	16565
833.714	16717
833.852	16698
833.991	16702
834.129	16694
834.267	16782
834.406	16672
834.544	16596
834.682	16740
834.821	16691
834.959	16850
835.097	16561
835.235	16805
835.373	16710
835.511	16592
835.65	16516
835.788	16474
835.926	16344
836.064	16318
836.202	16337
836.34	16611
836.478	16596
836.615	16512
836.753	16626
836.891	16523
837.029	16512
837.167	16516
837.305	16428
837.443	16455
837.58	16371
837.718	16424
837.856	16379
837.993	16390
838.131	16390
838.269	16375
838.406	16276
838.544	16196
838.681	16120
838.819	16078
838.956	15899
839.094	15888
839.231	15987
839.369	16135
839.506	16371
839.643	16166
839.781	15964
839.918	15846
840.055	15937
840.193	15941
840.33	15915
840.467	15907
840.604	16006
840.742	16124
840.879	15819
841.016	15884
841.153	15903
841.29	16082
841.427	16002
841.564	16021
841.701	15994
841.838	15880
841.975	15819
842.112	15831
842.249	15835
842.385	15633
842.522	15987
842.659	15713
842.796	15686
842.933	15690
843.069	15698
843.206	15682
843.343	15781
843.479	15789
843.616	15705
843.752	15572
843.889	15492
844.025	15568
844.162	15458
844.298	15633
844.435	15485
844.571	15481
844.708	15511
844.844	15599
844.98	15587
845.117	15618
845.253	15401
845.389	15310
845.525	15511
845.661	15416
845.798	15233
845.934	15325
846.07	15313
846.206	15279
846.342	15291
846.478	15363
846.614	15089
846.75	15036
846.886	15020
847.022	15218
847.158	15036
847.294	14979
847.429	15184
847.565	15119
847.701	15317
847.837	14815
847.972	14758
848.108	14921
848.244	14857
848.379	14792
848.515	14746
848.65	14648
848.786	14644
848.921	14613
849.057	14724
849.192	14632
849.328	14804
849.463	14750
849.598	14583
849.734	14594
849.869	14571
850.004	14457
850.14	14571
850.275	14434
850.41	14290
850.545	14480
850.68	14415
850.815	14434
850.95	14446
851.085	14602
851.22	14495
851.355	14408
851.49	14427
851.625	14412
851.76	14408
851.895	14309
852.03	14351
852.165	14362
852.299	14454
852.434	14518
852.569	14465
852.703	14442
852.838	14537
852.973	14693
853.107	14507
853.242	14377
853.376	14366
853.511	14195
853.645	14225
853.78	14423
853.914	14275
854.048	14282
854.183	14267
854.317	14244
854.451	14530
854.585	14240
854.72	14259
854.854	14427
854.988	14221
855.122	14206
855.256	14176
855.39	14256
855.524	14355
855.658	14370
855.792	14351
855.926	14370
856.06	14385
856.194	14389
856.327	14290
856.461	14263
856.595	14214
856.729	14271
856.862	14408
856.996	14328
857.13	14484
857.263	14457
857.397	14396
857.53	14366
857.664	14351
857.797	14419
857.931	14431
858.064	14343
858.197	14431
858.331	14282
858.464	14278
858.597	14134
858.731	14214
858.864	14271
858.997	14290
859.13	14195
859.263	14343
859.396	14393
859.529	14244
859.662	14301
859.795	14275
859.928	14210
860.061	14423
860.194	14442
860.327	14317
860.46	14259
860.592	14389
860.725	14503
860.858	14396
860.99	14271
861.123	14229
861.256	14248
861.388	14320
861.521	14986
861.653	14161
861.786	14153
861.918	14119
862.05	14240
862.183	14210
862.315	14263
862.447	14351
862.58	14237
862.712	14134
862.844	14103
862.976	14039
863.108	14111
863.24	14412
863.372	14062
863.504	14088
863.636	14115
863.768	14092
863.9	14176
864.032	13978
864.164	14012
864.296	14138
864.428	14149
864.559	14183
864.691	14142
864.823	14164
864.954	14103
865.086	14142
865.217	14092
865.349	13974
865.48	14039
865.612	14145
865.743	14225
865.875	14046
866.006	14081
866.137	14035
866.269	14035
866.4	14046
866.531	14005
866.662	14123
866.793	14046
866.924	13860
867.055	14027
867.186	14012
867.317	14024
867.448	14035
867.579	13928
867.71	14008
867.841	14031
867.972	14035
868.103	14134
868.233	14046
868.364	14115
868.495	14157
868.625	14328
868.756	14362
868.886	14259
869.017	14233
869.147	14484
869.278	14385
869.408	14313
869.539	14183
869.669	14396
869.799	14309
869.929	14400
870.06	14374
870.19	14610
870.32	14655
870.45	14659
870.58	14701
870.71	14758
870.84	14853
870.97	14697
871.1	14617
871.23	14887
871.36	14963
871.489	14781
871.619	14781
871.749	14868
871.879	14967
872.008	15085
872.138	14895
872.267	14876
872.397	14746
872.526	14880
872.656	14754
872.785	14739
872.915	14906
873.044	15028
873.173	14883
873.303	14944
873.432	14929
873.561	14899
873.69	14941
873.819	14902
873.948	15005
874.077	14960
874.206	14880
874.335	15032
874.464	15176
874.593	15154
874.722	15184
874.851	15222
874.979	15344
875.108	15363
875.237	15199
875.365	15233
875.494	15203
875.623	15310
875.751	15203
875.88	15363
876.008	15447
876.136	15488
876.265	15686
876.393	15831
876.521	15739
876.65	15709
876.778	15675
876.906	15755
877.034	15580
877.162	15717
877.29	15572
877.418	15690
877.546	15705
877.674	15679
877.802	15652
877.93	15576
878.058	15648
878.185	15580
878.313	15644
878.441	15709
878.568	15504
878.696	15595
878.824	15679
878.951	15682
879.079	15797
879.206	15960
879.333	15819
879.461	15816
879.588	15816
879.715	15873
879.842	15949
879.97	15778
880.097	15538
880.224	15416
880.351	15519
880.478	15564
880.605	15511
880.732	15420
880.859	15850
880.986	15534
881.112	15557
881.239	15439
881.366	15283
881.493	15176
881.619	15077
881.746	15211
881.872	15211
881.999	15089
882.125	15199
882.252	15294
882.378	15237
882.505	15264
882.631	15138
882.757	15013
882.883	14929
883.01	15024
883.136	14921
883.262	14842
883.388	14811
883.514	15043
883.64	15005
883.766	14979
883.892	14804
884.018	14777
884.143	15013
884.269	15062
884.395	14765
884.52	14727
884.646	14602
884.772	14579
884.897	14629
885.023	14762
885.148	14800
885.274	14777
885.399	14758
885.524	14731
885.65	14693
885.775	14765
885.9	14625
886.025	14777
886.15	14701
886.275	14606
886.4	14602
886.525	14636
886.65	14670
886.775	14625
886.9	14838
887.025	14872
887.149	14655
887.274	14617
887.399	14526
887.523	14537
887.648	14480
887.773	14552
887.897	14488
888.021	14625
888.146	14446
888.27	14598
888.395	14697
888.519	14560
888.643	14492
888.767	14629
888.891	14427
889.015	14423
889.139	14488
889.263	14389
889.387	14590
889.511	14625
889.635	14495
889.759	14320
889.883	14370
890.006	14438
890.13	14473
890.254	14301
890.377	14374
890.501	14149
890.624	14138
890.748	14229
890.871	14134
890.995	14039
891.118	14016
891.241	14130
891.364	14142
891.488	14191
891.611	14077
891.734	14107
891.857	14153
891.98	14065
892.103	14210
892.226	14161
892.349	14084
892.471	14020
892.594	14020
892.717	14039
892.839	14100
892.962	14050
893.085	14161
893.207	14126
893.33	13837
893.452	14092
893.575	14142
893.697	14100
893.819	14301
893.941	14286
894.064	14206
894.186	14103
894.308	14039
894.43	14286
894.552	14267
894.674	14294
894.796	14024
894.918	14202
895.04	14195
895.161	14195
895.283	14195
895.405	14161
895.526	14145
895.648	14244
895.769	14271
895.891	14286
896.012	14263
896.134	14290
896.255	14244
896.376	14180
896.498	14275
896.619	14320
896.74	14263
896.861	14278
896.982	14674
897.103	14720
897.224	14575
897.345	14442
897.466	14476
897.587	14476
897.708	14724
897.828	14571
897.949	14549
898.07	14408
898.19	14533
898.311	14659
898.431	14632
898.552	14689
898.672	14720
898.792	14735
898.913	14659
899.033	14556
899.153	14484
899.273	14339
899.393	14465
899.513	14571
899.633	14492
899.753	14552
899.873	14442
899.993	14625
900.113	14438
900.232	14495
900.352	14465
900.472	14396
900.591	14256
900.711	14404
900.83	14313
900.95	14415
901.069	14404
901.189	14244
901.308	14046
901.427	13967
901.546	14043
901.665	14107
901.784	14088
901.904	13909
902.023	13753
902.141	13666
902.26	13624
902.379	13605
902.498	13514
902.617	13613
902.735	13662
902.854	13552
902.973	13419
903.091	13388
903.21	13381
903.328	13331
903.446	13209
903.565	13171
903.683	13266
903.801	13023
903.919	13175
904.038	13118
904.156	13012
904.274	13107
904.392	12962
904.51	12928
904.627	12958
904.745	13008
904.863	13103
904.981	12791
905.098	12684
905.216	12700
905.334	12677
905.451	12654
905.569	12627
905.686	12700
905.803	12715
905.921	12513
906.038	12601
906.155	12513
906.272	12391
906.389	12330
906.506	12315
906.623	12285
906.74	12232
906.857	12098
906.974	12125
907.091	12262
907.208	12350
907.324	12262
907.441	12213
907.557	12049
907.674	11961
907.79	11908
907.907	11961
908.023	12060
908.139	12003
908.256	11931
908.372	11916
908.488	11935
908.604	11832
908.72	11786
908.836	11733
908.952	11680
909.068	11779
909.184	11855
909.3	11824
909.415	11870
909.531	11737
909.647	11554
909.762	11554
909.878	11467
909.993	11573
910.108	11528
910.224	11440
910.339	11490
910.454	11474
910.57	11410
910.685	11307
910.8	11649
910.915	11463
911.03	11364
911.145	11349
911.259	11227
911.374	11204
911.489	11204
911.604	11216
911.718	10961
911.833	10976
911.947	10911
912.062	10824
912.176	11003
912.291	10999
912.405	10980
912.519	11098
912.633	11170
912.748	11048
912.862	10999
912.976	10881
913.09	10793
913.204	10869
913.318	10873
913.431	10968
913.545	10873
913.659	10991
913.772	10942
913.886	10714
914	10744
914.113	10869
914.226	10866
914.34	10809
914.453	10637
914.566	10790
914.68	10675
914.793	10660
914.906	10577
915.019	10512
915.132	10424
915.245	10462
915.358	10531
915.47	10584
915.583	10516
915.696	10664
915.809	10653
915.921	10691
916.034	10550
916.146	10455
916.259	10459
916.371	10519
916.483	10455
916.595	10375
916.708	10485
916.82	10413
916.932	10405
917.044	10409
917.156	10398
917.268	10227
917.38	10337
917.491	10261
917.603	10329
917.715	10436
917.826	10375
917.938	10280
918.049	10200
918.161	10356
918.272	10443
918.384	10348
918.495	10310
918.606	10207
918.717	10082
918.828	10211
918.939	10219
919.05	10131
919.161	10253
919.272	10021
919.383	10101
919.494	10306
919.604	10459
919.715	10196
919.826	10177
919.936	10173
920.047	10322
920.157	10242
920.267	10363
920.378	10371
920.488	10185
920.598	10447
920.708	10546
920.818	10428
920.928	10436
921.038	10622
921.148	10573
921.258	10169
921.368	10196
921.477	10078
921.587	10006
921.697	9911
921.806	10086
921.916	10006
922.025	9774
922.134	9857
922.244	9766
922.353	9823
922.462	9690
922.571	9663
922.68	9473
922.789	9500
922.898	9424
923.007	9412
923.116	9534
923.224	9523
923.333	9420
923.442	9325
923.55	9378
923.659	9348
923.767	9439
923.876	9340
923.984	9462
924.092	9275
924.201	9344
924.309	9351
924.417	9363
924.525	9287
924.633	9310
924.741	10196
924.849	9142
924.956	9245
925.064	9100
925.172	9020
925.279	9043
925.387	9138
925.494	9112
925.602	9214
925.709	9161
925.816	9089
925.924	9188
926.031	9245
926.138	9195
926.245	9150
926.352	9100
926.459	9165
926.566	9218
926.673	9039
926.779	8960
926.886	8933
926.993	8819
927.099	8830
927.206	8788
927.312	8785
927.419	8925
927.525	8887
927.631	8876
927.737	8762
927.843	8766
927.95	8655
928.056	8705
928.162	8815
928.267	8845
928.373	9416
928.479	8773
928.585	8636
928.69	8766
928.796	8746
928.901	8667
929.007	8541
929.112	8655
929.218	8632
929.323	8568
929.428	8511
929.533	8636
929.638	8518
929.743	8503
929.848	8564
929.953	8526
930.058	8431
930.163	8362
930.267	8396
930.372	8473
930.477	8252
930.581	8606
930.685	8393
930.79	8252
930.894	8279
930.998	8244
931.103	8396
931.207	8065
931.311	7997
931.415	7951
931.519	7719
931.623	7776
