Data from test_V78500241_2429.txt Node
Date: Fri Mar 25 14:50:37 CST 2022
User: usil
Spectrometer: V785-0024
Trigger mode: 0
Integration Time (sec): 4.000000E-1
Scans to average: 1
Nonlinearity correction enabled: false
Boxcar width: 0
Storing dark spectrum: false
XAxis mode: Wavelengths
Number of Pixels in Spectrum: 1024
>>>>>Begin Spectral Data<<<<<
801.071	22124
801.214	22048
801.356	21918
801.499	21633
801.641	21614
801.783	21530
801.926	21656
802.068	21393
802.211	21393
802.353	21233
802.496	21055
802.638	21013
802.78	21020
802.923	20952
803.065	20739
803.208	20845
803.35	20880
803.492	20918
803.635	20944
803.777	20845
803.919	20842
804.061	21096
804.204	20956
804.346	20849
804.488	20708
804.63	20727
804.773	20659
804.915	20716
805.057	20819
805.199	20708
805.341	20815
805.483	20811
805.626	20765
805.768	20686
805.91	20773
806.052	20716
806.194	20602
806.336	20899
806.478	20739
806.62	20644
806.762	20762
806.904	20948
807.046	21264
807.188	21173
807.33	21077
807.472	21077
807.614	21001
807.756	21047
807.898	20845
808.04	20853
808.182	20849
808.324	20777
808.465	20899
808.607	20998
808.749	21077
808.891	21131
809.033	21405
809.174	21154
809.316	21089
809.458	21150
809.6	21028
809.741	21207
809.883	21211
810.025	21241
810.166	21245
810.308	21344
810.45	21336
810.591	21157
810.733	21074
810.875	20823
811.016	20746
811.158	20880
811.299	20937
811.441	20952
811.582	21001
811.724	20921
811.865	20956
812.007	20876
812.148	20902
812.29	20933
812.431	21017
812.573	21161
812.714	21336
812.855	21389
812.997	21530
813.138	21603
813.279	21454
813.421	21363
813.562	21310
813.703	21184
813.845	21116
813.986	20758
814.127	20552
814.268	20442
814.41	20465
814.551	20450
814.692	20511
814.833	20469
814.974	20385
815.115	20446
815.256	20317
815.397	20336
815.539	20328
815.68	20278
815.821	20187
815.962	20187
816.103	20103
816.244	19989
816.385	19928
816.526	19913
816.666	19662
816.807	19575
816.948	19643
817.089	19757
817.23	19556
817.371	19468
817.512	19533
817.653	19594
817.793	19529
817.934	19521
818.075	19563
818.216	19685
818.356	19635
818.497	19415
818.638	19236
818.778	19198
818.919	19202
819.06	19301
819.2	19350
819.341	19392
819.481	19426
819.622	19571
819.762	19719
819.903	19681
820.043	19613
820.184	19620
820.324	19651
820.465	19613
820.605	19575
820.746	19506
820.886	19487
821.026	19567
821.167	19487
821.307	19495
821.447	19514
821.588	19343
821.728	19209
821.868	19164
822.008	19000
822.149	19069
822.289	18932
822.429	18802
822.569	18658
822.709	18692
822.849	18464
822.99	18429
823.13	18407
823.27	18418
823.41	18308
823.55	18292
823.69	18197
823.83	18247
823.97	18182
824.11	18045
824.25	17935
824.389	18045
824.529	17999
824.669	18026
824.809	18114
824.949	18095
825.089	18072
825.228	18026
825.368	17764
825.508	17874
825.648	17661
825.787	17893
825.927	17855
826.067	17718
826.206	17710
826.346	17813
826.485	17802
826.625	17722
826.765	17897
826.904	17840
827.044	17604
827.183	17512
827.323	17490
827.462	17501
827.601	17448
827.741	17482
827.88	17581
828.02	17391
828.159	17398
828.298	17528
828.437	17482
828.577	17463
828.716	17551
828.855	17337
828.994	17181
829.134	17136
829.273	17280
829.412	17280
829.551	17117
829.69	17200
829.829	17307
829.968	17379
830.107	17273
830.246	17216
830.385	17178
830.524	17147
830.663	17113
830.802	16991
830.941	16816
831.08	16915
831.219	16873
831.357	16843
831.496	17037
831.635	16862
831.774	16645
831.913	16755
832.051	16645
832.19	16618
832.329	16706
832.467	16656
832.606	16554
832.744	16451
832.883	16546
833.022	16607
833.16	16535
833.299	16580
833.437	16546
833.576	16588
833.714	16615
833.852	16603
833.991	16630
834.129	16683
834.267	16649
834.406	16637
834.544	16603
834.682	16645
834.821	16554
834.959	16713
835.097	16459
835.235	16569
835.373	16569
835.511	16535
835.65	16493
835.788	16512
835.926	16272
836.064	16280
836.202	16344
836.34	16512
836.478	16599
836.615	16424
836.753	16478
836.891	16497
837.029	16573
837.167	16508
837.305	16356
837.443	16386
837.58	16284
837.718	16322
837.856	16386
837.993	16272
838.131	16382
838.269	16272
838.406	16238
838.544	16196
838.681	16032
838.819	16093
838.956	15816
839.094	15850
839.231	15964
839.369	16112
839.506	16299
839.643	16188
839.781	16025
839.918	15819
840.055	15865
840.193	15869
840.33	15941
840.467	15865
840.604	15895
840.742	16169
840.879	15694
841.016	15739
841.153	15743
841.29	16044
841.427	15884
841.564	15934
841.701	15991
841.838	15823
841.975	15751
842.112	15827
842.249	15671
842.385	15629
842.522	15842
842.659	15713
842.796	15595
842.933	15698
843.069	15713
843.206	15637
843.343	15701
843.479	15732
843.616	15679
843.752	15477
843.889	15507
844.025	15507
844.162	15447
844.298	15561
844.435	15500
844.571	15435
844.708	15580
844.844	15599
844.98	15622
845.117	15542
845.253	15450
845.389	15348
845.525	15386
845.661	15367
845.798	15237
845.934	15287
846.07	15192
846.206	15237
846.342	15507
846.478	15249
846.614	15097
846.75	15020
846.886	15039
847.022	15112
847.158	14986
847.294	14994
847.429	15074
847.565	14956
847.701	15165
847.837	14819
847.972	14800
848.108	14891
848.244	14792
848.379	14663
848.515	14705
848.65	14610
848.786	14640
848.921	14648
849.057	14758
849.192	14693
849.328	14617
849.463	14724
849.598	14689
849.734	14541
849.869	14537
850.004	14480
850.14	14457
850.275	14473
850.41	14454
850.545	14290
850.68	14385
850.815	14408
850.95	14400
851.085	14511
851.22	14545
851.355	14465
851.49	14404
851.625	14332
851.76	14339
851.895	14195
852.03	14396
852.165	14301
852.299	14488
852.434	14549
852.569	14404
852.703	14396
852.838	14442
852.973	14564
853.107	14556
853.242	14450
853.376	14263
853.511	14161
853.645	14180
853.78	14450
853.914	14332
854.048	14278
854.183	14320
854.317	14282
854.451	14393
854.585	14294
854.72	14252
854.854	14347
854.988	14286
855.122	14252
855.256	14088
855.39	14317
855.524	14343
855.658	14351
855.792	14347
855.926	14317
856.06	14339
856.194	14492
856.327	14229
856.461	14229
856.595	14210
856.729	14267
856.862	14366
856.996	14446
857.13	14408
857.263	14393
857.397	14492
857.53	14294
857.664	14298
857.797	14396
857.931	14434
858.064	14355
858.197	14400
858.331	14206
858.464	14370
858.597	14096
858.731	14275
858.864	14415
858.997	14313
859.13	14271
859.263	14278
859.396	14404
859.529	14256
859.662	14233
859.795	14248
859.928	14267
860.061	14450
860.194	14488
860.327	14305
860.46	14290
860.592	14507
860.725	14457
860.858	14400
860.99	14195
861.123	14233
861.256	14267
861.388	14275
861.521	14921
861.653	14271
861.786	14153
861.918	14157
862.05	14202
862.183	14183
862.315	14275
862.447	14320
862.58	14202
862.712	14084
862.844	13997
862.976	14084
863.108	14130
863.24	14393
863.372	14005
863.504	14054
863.636	14084
863.768	14115
863.9	14062
864.032	14001
864.164	14043
864.296	14126
864.428	14130
864.559	14149
864.691	14218
864.823	14142
864.954	14145
865.086	14191
865.217	14065
865.349	14001
865.48	14115
865.612	14088
865.743	14218
865.875	14069
866.006	14058
866.137	14039
866.269	14073
866.4	14103
866.531	14054
866.662	13997
866.793	14020
866.924	13989
867.055	14001
867.186	14092
867.317	14039
867.448	13955
867.579	13940
867.71	13913
867.841	13982
867.972	14035
868.103	14024
868.233	14103
868.364	14065
868.495	14065
868.625	14305
868.756	14324
868.886	14252
869.017	14256
869.147	14355
869.278	14393
869.408	14301
869.539	14282
869.669	14374
869.799	14355
869.929	14530
870.06	14355
870.19	14697
870.32	14583
870.45	14663
870.58	14727
870.71	14944
870.84	14724
870.97	14819
871.1	14705
871.23	14899
871.36	14845
871.489	14895
871.619	14815
871.749	14982
871.879	14963
872.008	15077
872.138	15047
872.267	14956
872.397	14758
872.526	14724
872.656	14705
872.785	14773
872.915	14918
873.044	15043
873.173	14868
873.303	14895
873.432	15024
873.561	14956
873.69	14971
873.819	14929
873.948	15047
874.077	15001
874.206	14971
874.335	14952
874.464	15203
874.593	15203
874.722	15218
874.851	15325
874.979	15275
875.108	15306
875.237	15165
875.365	15150
875.494	15256
875.623	15268
875.751	15275
875.88	15294
876.008	15458
876.136	15416
876.265	15648
876.393	15793
876.521	15865
876.65	15717
876.778	15736
876.906	15656
877.034	15584
877.162	15698
877.29	15671
877.418	15675
877.546	15679
877.674	15732
877.802	15823
877.93	15759
878.058	15690
878.185	15466
878.313	15606
878.441	15698
878.568	15610
878.696	15614
878.824	15854
878.951	15816
879.079	15842
879.206	16006
879.333	15895
879.461	15644
879.588	15823
879.715	15956
879.842	16013
879.97	15774
880.097	15595
880.224	15420
880.351	15599
880.478	15564
880.605	15405
880.732	15504
880.859	15838
880.986	15557
881.112	15633
881.239	15431
881.366	15378
881.493	15268
881.619	15279
881.746	15112
881.872	15146
881.999	15214
882.125	15135
882.252	15188
882.378	15283
882.505	15363
882.631	15077
882.757	15066
882.883	15058
883.01	15005
883.136	14937
883.262	14883
883.388	14845
883.514	15005
883.64	15062
883.766	14921
883.892	14750
884.018	14842
884.143	14914
884.269	15089
884.395	14845
884.52	14682
884.646	14765
884.772	14648
884.897	14598
885.023	14705
885.148	14857
885.274	14883
885.399	14769
885.524	14739
885.65	14701
885.775	14720
885.9	14693
886.025	14800
886.15	14815
886.275	14651
886.4	14590
886.525	14655
886.65	14590
886.775	14682
886.9	14849
887.025	14849
887.149	14712
887.274	14663
887.399	14511
887.523	14469
887.648	14469
887.773	14351
887.897	14560
888.021	14522
888.146	14473
888.27	14564
888.395	14697
888.519	14571
888.643	14602
888.767	14571
888.891	14476
889.015	14358
889.139	14476
889.263	14358
889.387	14503
889.511	14488
889.635	14476
889.759	14358
889.883	14377
890.006	14492
890.13	14473
890.254	14355
890.377	14400
890.501	14221
890.624	14202
890.748	14233
890.871	14187
890.995	14039
891.118	14092
891.241	14134
891.364	14100
891.488	14153
891.611	14058
891.734	14100
891.857	14157
891.98	14164
892.103	14248
892.226	14157
892.349	14092
892.471	13989
892.594	14081
892.717	14123
892.839	14138
892.962	14119
893.085	14046
893.207	14100
893.33	13978
893.452	14069
893.575	14256
893.697	14046
893.819	14320
893.941	14309
894.064	14176
894.186	14054
894.308	14145
894.43	14244
894.552	14301
894.674	14225
894.796	14039
894.918	14107
895.04	14119
895.161	14301
895.283	14187
895.405	14187
895.526	14138
895.648	14183
895.769	14332
895.891	14278
896.012	14294
896.134	14229
896.255	14324
896.376	14100
896.498	14240
896.619	14381
896.74	14259
896.861	14358
896.982	14579
897.103	14758
897.224	14625
897.345	14503
897.466	14442
897.587	14568
897.708	14636
897.828	14590
897.949	14530
898.07	14450
898.19	14495
898.311	14674
898.431	14526
898.552	14621
898.672	14781
898.792	14788
898.913	14746
899.033	14556
899.153	14507
899.273	14396
899.393	14404
899.513	14415
899.633	14495
899.753	14488
899.873	14522
899.993	14587
900.113	14469
900.232	14552
900.352	14476
900.472	14408
900.591	14343
900.711	14377
900.83	14218
900.95	14476
901.069	14511
901.189	14233
901.308	14077
901.427	13906
901.546	14031
901.665	14069
901.784	14027
901.904	13890
902.023	13833
902.141	13742
902.26	13658
902.379	13674
902.498	13613
902.617	13594
902.735	13727
902.854	13559
902.973	13491
903.091	13339
903.21	13266
903.328	13255
903.446	13289
903.565	13110
903.683	13198
903.801	13095
903.919	13137
904.038	13114
904.156	12993
904.274	13110
904.392	12825
904.51	12928
904.627	12973
904.745	12973
904.863	13031
904.981	12776
905.098	12604
905.216	12650
905.334	12650
905.451	12654
905.569	12506
905.686	12753
905.803	12711
905.921	12517
906.038	12506
906.155	12452
906.272	12429
906.389	12380
906.506	12175
906.623	12235
906.74	12315
906.857	12163
906.974	12136
907.091	12319
907.208	12395
907.324	12388
907.441	12190
907.557	11992
907.674	12022
907.79	11969
907.907	11931
908.023	11977
908.139	11984
908.256	11973
908.372	11889
908.488	11946
908.604	11779
908.72	11737
908.836	11733
908.952	11688
909.068	11794
909.184	11821
909.3	11767
909.415	11748
909.531	11901
909.647	11611
909.762	11554
909.878	11516
909.993	11474
910.108	11512
910.224	11570
910.339	11505
910.454	11410
910.57	11353
910.685	11322
910.8	11589
910.915	11505
911.03	11433
911.145	11258
911.259	11258
911.374	11246
911.489	11174
911.604	11102
911.718	10946
911.833	10995
911.947	10835
912.062	10774
912.176	10980
912.291	10999
912.405	11064
912.519	11151
912.633	11178
912.748	11018
912.862	10999
912.976	10908
913.09	10717
913.204	10858
913.318	10847
913.431	10942
913.545	10923
913.659	10999
913.772	10866
913.886	10828
914	10755
914.113	10869
914.226	10858
914.34	10812
914.453	10649
914.566	10767
914.68	10729
914.793	10679
914.906	10580
915.019	10432
915.132	10375
915.245	10341
915.358	10474
915.47	10470
915.583	10462
915.696	10561
915.809	10611
915.921	10584
916.034	10417
916.146	10451
916.259	10371
916.371	10538
916.483	10481
916.595	10360
916.708	10360
916.82	10436
916.932	10382
917.044	10394
917.156	10390
917.268	10329
917.38	10348
917.491	10318
917.603	10306
917.715	10295
917.826	10466
917.938	10322
918.049	10268
918.161	10306
918.272	10440
918.384	10497
918.495	10398
918.606	10227
918.717	10055
918.828	10295
918.939	10246
919.05	10143
919.161	10128
919.272	10006
919.383	10074
919.494	10242
919.604	10386
919.715	10200
919.826	10177
919.936	10124
920.047	10306
920.157	10219
920.267	10447
920.378	10261
920.488	10185
920.598	10398
920.708	10573
920.818	10409
920.928	10516
921.038	10561
921.148	10531
921.258	10162
921.368	10131
921.477	10093
921.587	10006
921.697	9998
921.806	10128
921.916	9907
922.025	9793
922.134	9808
922.244	9679
922.353	9800
922.462	9736
922.571	9648
922.68	9443
922.789	9386
922.898	9515
923.007	9401
923.116	9523
923.224	9412
923.333	9424
923.442	9397
923.55	9355
923.659	9355
923.767	9408
923.876	9336
923.984	9401
924.092	9291
924.201	9302
924.309	9283
924.417	9321
924.525	9249
924.633	9382
924.741	10093
924.849	9051
924.956	9332
925.064	9077
925.172	9032
925.279	9024
925.387	9135
925.494	9146
925.602	9199
925.709	9161
925.816	9074
925.924	9108
926.031	9241
926.138	9169
926.245	9192
926.352	9074
926.459	9207
926.566	9230
926.673	9097
926.779	8963
926.886	8971
926.993	8883
927.099	8766
927.206	8830
927.312	8792
927.419	8887
927.525	8796
927.631	8921
927.737	8766
927.843	8682
927.95	8663
928.056	8644
928.162	8750
928.267	8758
928.373	9435
928.479	8792
928.585	8552
928.69	8705
928.796	8788
928.901	8560
929.007	8503
929.112	8674
929.218	8541
929.323	8507
929.428	8431
929.533	8701
929.638	8533
929.743	8537
929.848	8571
929.953	8571
930.058	8419
930.163	8324
930.267	8351
930.372	8427
930.477	8294
930.581	8480
930.685	8404
930.79	8225
930.894	8309
930.998	8229
931.103	8434
931.207	8073
931.311	8001
931.415	7970
931.519	7799
931.623	7788
