Data from test_V78500241_2042.txt Node
Date: Fri Mar 25 14:47:55 CST 2022
User: usil
Spectrometer: V785-0024
Trigger mode: 0
Integration Time (sec): 4.000000E-1
Scans to average: 1
Nonlinearity correction enabled: false
Boxcar width: 0
Storing dark spectrum: false
XAxis mode: Wavelengths
Number of Pixels in Spectrum: 1024
>>>>>Begin Spectral Data<<<<<
801.071	22226
801.214	21991
801.356	21819
801.499	21679
801.641	21481
801.783	21466
801.926	21447
802.068	21466
802.211	21348
802.353	21306
802.496	21032
802.638	21074
802.78	20842
802.923	20849
803.065	20792
803.208	20830
803.35	20830
803.492	20845
803.635	20963
803.777	20625
803.919	20823
804.061	21100
804.204	20853
804.346	20857
804.488	20800
804.63	20765
804.773	20674
804.915	20815
805.057	20807
805.199	20830
805.341	20880
805.483	20785
805.626	20842
805.768	20758
805.91	20842
806.052	20720
806.194	20743
806.336	20918
806.478	20781
806.62	20727
806.762	20788
806.904	20914
807.046	21150
807.188	21039
807.33	21058
807.472	21195
807.614	21013
807.756	20895
807.898	20872
808.04	20727
808.182	20769
808.324	20804
808.465	20895
808.607	21032
808.749	21180
808.891	21260
809.033	21294
809.174	21169
809.316	21142
809.458	21161
809.6	20960
809.741	21157
809.883	21176
810.025	21443
810.166	21233
810.308	21256
810.45	21249
810.591	21119
810.733	21017
810.875	20807
811.016	20800
811.158	20849
811.299	20986
811.441	20994
811.582	21032
811.724	20929
811.865	20868
812.007	20815
812.148	20804
812.29	20914
812.431	21032
812.573	21123
812.714	21363
812.855	21462
812.997	21454
813.138	21583
813.279	21526
813.421	21256
813.562	21214
813.703	21093
813.845	20948
813.986	20746
814.127	20701
814.268	20438
814.41	20571
814.551	20461
814.692	20583
814.833	20358
814.974	20324
815.115	20434
815.256	20233
815.397	20259
815.539	20256
815.68	20092
815.821	20046
815.962	20214
816.103	20138
816.244	20031
816.385	19963
816.526	19875
816.666	19624
816.807	19601
816.948	19620
817.089	19738
817.23	19605
817.371	19586
817.512	19666
817.653	19578
817.793	19434
817.934	19556
818.075	19594
818.216	19628
818.356	19594
818.497	19453
818.638	19259
818.778	19373
818.919	19320
819.06	19251
819.2	19415
819.341	19301
819.481	19426
819.622	19613
819.762	19830
819.903	19700
820.043	19571
820.184	19491
820.324	19590
820.465	19658
820.605	19590
820.746	19590
820.886	19514
821.026	19616
821.167	19487
821.307	19605
821.447	19521
821.588	19312
821.728	19354
821.868	19137
822.008	19061
822.149	19065
822.289	18973
822.429	18711
822.569	18669
822.709	18684
822.849	18475
822.99	18521
823.13	18350
823.27	18311
823.41	18334
823.55	18186
823.69	18308
823.83	18213
823.97	18129
824.11	18064
824.25	17912
824.389	18121
824.529	18091
824.669	18129
824.809	18053
824.949	18011
825.089	18072
825.228	18007
825.368	17897
825.508	17802
825.648	17840
825.787	17836
825.927	17832
826.067	17687
826.206	17760
826.346	17908
826.485	17863
826.625	17790
826.765	17939
826.904	17802
827.044	17577
827.183	17467
827.323	17478
827.462	17490
827.601	17459
827.741	17490
827.88	17486
828.02	17318
828.159	17493
828.298	17440
828.437	17558
828.577	17372
828.716	17653
828.855	17414
828.994	17318
829.134	17334
829.273	17273
829.412	17261
829.551	17178
829.69	17315
829.829	17429
829.968	17311
830.107	17299
830.246	17318
830.385	17151
830.524	17181
830.663	17075
830.802	17037
830.941	16934
831.08	16778
831.219	16987
831.357	16889
831.496	17075
831.635	16889
831.774	16717
831.913	16801
832.051	16641
832.19	16653
832.329	16672
832.467	16664
832.606	16550
832.744	16588
832.883	16481
833.022	16470
833.16	16603
833.299	16554
833.437	16516
833.576	16672
833.714	16573
833.852	16653
833.991	16596
834.129	16744
834.267	16592
834.406	16607
834.544	16710
834.682	16656
834.821	16626
834.959	16866
835.097	16508
835.235	16675
835.373	16649
835.511	16675
835.65	16485
835.788	16455
835.926	16360
836.064	16352
836.202	16337
836.34	16546
836.478	16649
836.615	16672
836.753	16641
836.891	16542
837.029	16569
837.167	16478
837.305	16390
837.443	16398
837.58	16443
837.718	16451
837.856	16512
837.993	16379
838.131	16363
838.269	16360
838.406	16375
838.544	16295
838.681	16185
838.819	16074
838.956	16006
839.094	15960
839.231	16006
839.369	16032
839.506	16398
839.643	16147
839.781	15915
839.918	16006
840.055	15991
840.193	15956
840.33	15903
840.467	16010
840.604	15979
840.742	16181
840.879	15892
841.016	15838
841.153	15804
841.29	16025
841.427	16010
841.564	15937
841.701	15953
841.838	15922
841.975	15922
842.112	15846
842.249	15793
842.385	15823
842.522	15945
842.659	15838
842.796	15667
842.933	15717
843.069	15713
843.206	15720
843.343	15743
843.479	15732
843.616	15713
843.752	15500
843.889	15614
844.025	15656
844.162	15603
844.298	15557
844.435	15485
844.571	15504
844.708	15591
844.844	15656
844.98	15671
845.117	15656
845.253	15519
845.389	15466
845.525	15549
845.661	15469
845.798	15401
845.934	15370
846.07	15336
846.206	15397
846.342	15477
846.478	15294
846.614	15222
846.75	15058
846.886	15032
847.022	15138
847.158	15142
847.294	15188
847.429	15097
847.565	15020
847.701	15431
847.837	14883
847.972	14781
848.108	14941
848.244	14826
848.379	14788
848.515	14765
848.65	14651
848.786	14629
848.921	14781
849.057	14735
849.192	14826
849.328	14758
849.463	14750
849.598	14655
849.734	14629
849.869	14465
850.004	14469
850.14	14518
850.275	14514
850.41	14343
850.545	14385
850.68	14476
850.815	14480
850.95	14404
851.085	14663
851.22	14659
851.355	14377
851.49	14533
851.625	14412
851.76	14457
851.895	14374
852.03	14290
852.165	14415
852.299	14454
852.434	14545
852.569	14522
852.703	14526
852.838	14507
852.973	14602
853.107	14708
853.242	14434
853.376	14377
853.511	14214
853.645	14362
853.78	14518
853.914	14370
854.048	14317
854.183	14252
854.317	14313
854.451	14564
854.585	14305
854.72	14298
854.854	14389
854.988	14225
855.122	14370
855.256	14225
855.39	14286
855.524	14434
855.658	14374
855.792	14347
855.926	14374
856.06	14362
856.194	14408
856.327	14355
856.461	14294
856.595	14309
856.729	14336
856.862	14362
856.996	14343
857.13	14465
857.263	14492
857.397	14480
857.53	14240
857.664	14355
857.797	14396
857.931	14488
858.064	14408
858.197	14511
858.331	14313
858.464	14377
858.597	14183
858.731	14294
858.864	14381
858.997	14267
859.13	14457
859.263	14355
859.396	14473
859.529	14328
859.662	14298
859.795	14347
859.928	14320
860.061	14552
860.194	14526
860.327	14370
860.46	14244
860.592	14469
860.725	14469
860.858	14400
860.99	14286
861.123	14278
861.256	14214
861.388	14298
861.521	15032
861.653	14202
861.786	14130
861.918	14240
862.05	14199
862.183	14183
862.315	14229
862.447	14294
862.58	14278
862.712	14058
862.844	14062
862.976	14180
863.108	14119
863.24	14526
863.372	14062
863.504	14054
863.636	14027
863.768	14157
863.9	14039
864.032	14084
864.164	13989
864.296	14054
864.428	14256
864.559	14225
864.691	14195
864.823	14202
864.954	14126
865.086	14240
865.217	14191
865.349	14119
865.48	14168
865.612	14138
865.743	14229
865.875	14149
866.006	14008
866.137	14157
866.269	14065
866.4	14145
866.531	14092
866.662	14062
866.793	14024
866.924	14012
867.055	14092
867.186	13963
867.317	14050
867.448	13967
867.579	14031
867.71	14043
867.841	14035
867.972	14130
868.103	14046
868.233	14081
868.364	14100
868.495	14187
868.625	14427
868.756	14431
868.886	14332
869.017	14317
869.147	14442
869.278	14514
869.408	14362
869.539	14332
869.669	14404
869.799	14366
869.929	14492
870.06	14423
870.19	14651
870.32	14568
870.45	14648
870.58	14697
870.71	14807
870.84	14811
870.97	14815
871.1	14705
871.23	14910
871.36	14857
871.489	14834
871.619	14925
871.749	14823
871.879	14933
872.008	14979
872.138	14842
872.267	14925
872.397	14834
872.526	14807
872.656	14727
872.785	14838
872.915	14990
873.044	14960
873.173	14986
873.303	14990
873.432	15043
873.561	14971
873.69	15009
873.819	14933
873.948	14979
874.077	15005
874.206	14929
874.335	15005
874.464	15180
874.593	15279
874.722	15230
874.851	15344
874.979	15302
875.108	15389
875.237	15317
875.365	15203
875.494	15176
875.623	15317
875.751	15249
875.88	15477
876.008	15496
876.136	15580
876.265	15728
876.393	15827
876.521	15804
876.65	15778
876.778	15766
876.906	15599
877.034	15622
877.162	15778
877.29	15644
877.418	15705
877.546	15797
877.674	15682
877.802	15736
877.93	15732
878.058	15656
878.185	15618
878.313	15652
878.441	15732
878.568	15595
878.696	15629
878.824	15743
878.951	15774
879.079	15903
879.206	15994
879.333	15797
879.461	15728
879.588	15766
879.715	15941
879.842	15953
879.97	15778
880.097	15526
880.224	15545
880.351	15584
880.478	15580
880.605	15584
880.732	15580
880.859	15804
880.986	15675
881.112	15698
881.239	15389
881.366	15329
881.493	15291
881.619	15287
881.746	15169
881.872	15142
881.999	15199
882.125	15199
882.252	15279
882.378	15241
882.505	15401
882.631	15055
882.757	15013
882.883	15119
883.01	15024
883.136	14944
883.262	14891
883.388	14861
883.514	15051
883.64	15097
883.766	15017
883.892	14891
884.018	14895
884.143	15043
884.269	15097
884.395	14804
884.52	14746
884.646	14754
884.772	14610
884.897	14678
885.023	14758
885.148	14777
885.274	14845
885.399	14796
885.524	14792
885.65	14773
885.775	14834
885.9	14686
886.025	14758
886.15	14781
886.275	14762
886.4	14629
886.525	14750
886.65	14670
886.775	14636
886.9	14868
887.025	14975
887.149	14724
887.274	14598
887.399	14610
887.523	14556
887.648	14518
887.773	14511
887.897	14598
888.021	14667
888.146	14522
888.27	14689
888.395	14670
888.519	14560
888.643	14621
888.767	14545
888.891	14514
889.015	14438
889.139	14442
889.263	14374
889.387	14545
889.511	14549
889.635	14583
889.759	14317
889.883	14541
890.006	14476
890.13	14476
890.254	14320
890.377	14377
890.501	14221
890.624	14240
890.748	14229
890.871	14240
890.995	14035
891.118	14050
891.241	14119
891.364	14084
891.488	14320
891.611	14130
891.734	14107
891.857	14149
891.98	14134
892.103	14172
892.226	14065
892.349	14142
892.471	13894
892.594	14138
892.717	14119
892.839	14077
892.962	14161
893.085	14191
893.207	14054
893.33	13978
893.452	14065
893.575	14157
893.697	14153
893.819	14309
893.941	14328
894.064	14252
894.186	14100
894.308	14187
894.43	14218
894.552	14252
894.674	14366
894.796	14130
894.918	14084
895.04	14161
895.161	14301
895.283	14275
895.405	14157
895.526	14191
895.648	14282
895.769	14233
895.891	14248
896.012	14423
896.134	14240
896.255	14267
896.376	14240
896.498	14336
896.619	14358
896.74	14374
896.861	14301
896.982	14663
897.103	14727
897.224	14556
897.345	14552
897.466	14552
897.587	14495
897.708	14693
897.828	14648
897.949	14560
898.07	14442
898.19	14560
898.311	14754
898.431	14644
898.552	14724
898.672	14842
898.792	14720
898.913	14606
899.033	14556
899.153	14526
899.273	14374
899.393	14518
899.513	14480
899.633	14518
899.753	14533
899.873	14431
899.993	14560
900.113	14473
900.232	14446
900.352	14530
900.472	14419
900.591	14298
900.711	14320
900.83	14267
900.95	14518
901.069	14484
901.189	14256
901.308	14027
901.427	13955
901.546	14008
901.665	14027
901.784	14081
901.904	13936
902.023	13799
902.141	13624
902.26	13643
902.379	13772
902.498	13712
902.617	13487
902.735	13632
902.854	13594
902.973	13559
903.091	13324
903.21	13251
903.328	13289
903.446	13122
903.565	13137
903.683	13175
903.801	13091
903.919	13175
904.038	13110
904.156	12935
904.274	13114
904.392	12970
904.51	13023
904.627	13061
904.745	13072
904.863	13057
904.981	12753
905.098	12631
905.216	12688
905.334	12711
905.451	12559
905.569	12620
905.686	12798
905.803	12681
905.921	12544
906.038	12662
906.155	12559
906.272	12525
906.389	12441
906.506	12304
906.623	12273
906.74	12251
906.857	12186
906.974	12232
907.091	12323
907.208	12330
907.324	12273
907.441	12235
907.557	12087
907.674	11996
907.79	11954
907.907	11946
908.023	12026
908.139	12026
908.256	11965
908.372	12022
908.488	11954
908.604	11764
908.72	11859
908.836	11741
908.952	11741
909.068	11794
909.184	11904
909.3	11783
909.415	11874
909.531	11809
909.647	11539
909.762	11596
909.878	11596
909.993	11589
910.108	11551
910.224	11585
910.339	11509
910.454	11501
910.57	11421
910.685	11292
910.8	11535
910.915	11551
911.03	11471
911.145	11284
911.259	11223
911.374	11261
911.489	11223
911.604	11128
911.718	10953
911.833	11071
911.947	10938
912.062	10828
912.176	11037
912.291	11037
912.405	11014
912.519	11178
912.633	11227
912.748	11136
912.862	11060
912.976	10896
913.09	10889
913.204	10797
913.318	10908
913.431	10968
913.545	10976
913.659	10995
913.772	10976
913.886	10797
914	10763
914.113	10850
914.226	10812
914.34	10854
914.453	10653
914.566	10881
914.68	10694
914.793	10698
914.906	10596
915.019	10497
915.132	10443
915.245	10466
915.358	10500
915.47	10535
915.583	10424
915.696	10607
915.809	10683
915.921	10706
916.034	10519
916.146	10451
916.259	10497
916.371	10584
916.483	10432
916.595	10409
916.708	10455
916.82	10462
916.932	10466
917.044	10405
917.156	10478
917.268	10348
917.38	10390
917.491	10310
917.603	10341
917.715	10390
917.826	10538
917.938	10261
918.049	10261
918.161	10360
918.272	10478
918.384	10455
918.495	10394
918.606	10276
918.717	10185
918.828	10314
918.939	10280
919.05	10135
919.161	10162
919.272	9884
919.383	10124
919.494	10261
919.604	10390
919.715	10105
919.826	10158
919.936	10238
920.047	10333
920.157	10242
920.267	10474
920.378	10344
920.488	10166
920.598	10390
920.708	10523
920.818	10348
920.928	10421
921.038	10554
921.148	10554
921.258	10242
921.368	10177
921.477	10173
921.587	10071
921.697	10010
921.806	10173
921.916	9983
922.025	9789
922.134	9778
922.244	9743
922.353	9884
922.462	9614
922.571	9652
922.68	9450
922.789	9496
922.898	9591
923.007	9477
923.116	9473
923.224	9477
923.333	9454
923.442	9412
923.55	9393
923.659	9420
923.767	9473
923.876	9317
923.984	9424
924.092	9321
924.201	9325
924.309	9367
924.417	9298
924.525	9359
924.633	9268
924.741	10196
924.849	9089
924.956	9222
925.064	9058
925.172	9039
925.279	9085
925.387	9169
925.494	9097
925.602	9233
925.709	9203
925.816	9108
925.924	9146
926.031	9199
926.138	9085
926.245	9230
926.352	9058
926.459	9119
926.566	9253
926.673	9138
926.779	8944
926.886	9017
926.993	8830
927.099	8861
927.206	8777
927.312	8819
927.419	8887
927.525	8891
927.631	8883
927.737	8807
927.843	8781
927.95	8705
928.056	8731
928.162	8689
928.267	8750
928.373	9389
928.479	8800
928.585	8648
928.69	8746
928.796	8792
928.901	8640
929.007	8533
929.112	8686
929.218	8598
929.323	8541
929.428	8549
929.533	8758
929.638	8541
929.743	8545
929.848	8613
929.953	8545
930.058	8446
930.163	8332
930.267	8286
930.372	8412
930.477	8240
930.581	8507
930.685	8381
930.79	8275
930.894	8294
930.998	8195
931.103	8446
931.207	8043
931.311	8035
931.415	7955
931.519	7776
931.623	7757
