Data from test_V78500241_734.txt Node
Date: Fri Mar 25 14:38:49 CST 2022
User: usil
Spectrometer: V785-0024
Trigger mode: 0
Integration Time (sec): 4.000000E-1
Scans to average: 1
Nonlinearity correction enabled: false
Boxcar width: 0
Storing dark spectrum: false
XAxis mode: Wavelengths
Number of Pixels in Spectrum: 1024
>>>>>Begin Spectral Data<<<<<
801.071	27275
801.214	27138
801.356	27089
801.499	26956
801.641	26891
801.783	26712
801.926	26804
802.068	26571
802.211	26511
802.353	26423
802.496	26259
802.638	26263
802.78	26145
802.923	26267
803.065	26176
803.208	26240
803.35	26138
803.492	26214
803.635	26457
803.777	26259
803.919	26385
804.061	26625
804.204	26434
804.346	26469
804.488	26214
804.63	26370
804.773	26476
804.915	26590
805.057	26731
805.199	26693
805.341	26807
805.483	26883
805.626	27047
805.768	26960
805.91	27089
806.052	27268
806.194	27245
806.336	27648
806.478	27694
806.62	27888
806.762	28242
806.904	28618
807.046	29121
807.188	29471
807.33	29798
807.472	30517
807.614	31240
807.756	32157
807.898	33321
808.04	34721
808.182	36897
808.324	39709
808.465	42863
808.607	46356
808.749	49346
808.891	51100
809.033	51370
809.174	49742
809.316	46809
809.458	43114
809.6	39466
809.741	36589
809.883	34101
810.025	32823
810.166	31605
810.308	30673
810.45	30079
810.591	29512
810.733	28957
810.875	28478
811.016	28116
811.158	27983
811.299	27926
811.441	27835
811.582	27755
811.724	27359
811.865	27226
812.007	27249
812.148	27028
812.29	27116
812.431	27154
812.573	27230
812.714	27192
812.855	27226
812.997	27203
813.138	27424
813.279	27325
813.421	27275
813.562	27051
813.703	26785
813.845	26689
813.986	26332
814.127	26107
814.268	26024
814.41	25925
814.551	25947
814.692	25963
814.833	25833
814.974	25715
815.115	25795
815.256	25647
815.397	25601
815.539	25518
815.68	25422
815.821	25343
815.962	25464
816.103	25324
816.244	25179
816.385	25080
816.526	25088
816.666	24821
816.807	24764
816.948	24810
817.089	24825
817.23	24654
817.371	24757
817.512	24677
817.653	24608
817.793	24555
817.934	24593
818.075	24635
818.216	24608
818.356	24502
818.497	24513
818.638	24311
818.778	24190
818.919	24346
819.06	24338
819.2	24437
819.341	24536
819.481	24540
819.622	24627
819.762	24802
819.903	24783
820.043	24585
820.184	24422
820.324	24597
820.465	24540
820.605	24490
820.746	24376
820.886	24300
821.026	24483
821.167	24403
821.307	24570
821.447	24247
821.588	24167
821.728	24064
821.868	23965
822.008	23783
822.149	23779
822.289	23771
822.429	23364
822.569	23330
822.709	23288
822.849	23159
822.99	23216
823.13	23159
823.27	23010
823.41	22930
823.55	22934
823.69	22942
823.83	22965
823.97	22927
824.11	22668
824.25	22656
824.389	22672
824.529	22744
824.669	22691
824.809	22736
824.949	22892
825.089	22850
825.228	22733
825.368	22424
825.508	22436
825.648	22538
825.787	22500
825.927	22615
826.067	22348
826.206	22394
826.346	22481
826.485	22519
826.625	22493
826.765	22561
826.904	22455
827.044	22162
827.183	22215
827.323	22139
827.462	22299
827.601	22097
827.741	21994
827.88	22204
828.02	21869
828.159	22082
828.298	22021
828.437	22112
828.577	22101
828.716	22257
828.855	21998
828.994	21903
829.134	21778
829.273	21884
829.412	21622
829.551	21686
829.69	21732
829.829	21857
829.968	21903
830.107	21861
830.246	21797
830.385	21793
830.524	21671
830.663	21663
830.802	21504
830.941	21359
831.08	21344
831.219	21542
831.357	21469
831.496	21614
831.635	21351
831.774	21302
831.913	21291
832.051	21241
832.19	21302
832.329	21260
832.467	21131
832.606	21112
832.744	21344
832.883	21306
833.022	21287
833.16	21564
833.299	21675
833.437	21770
833.576	21945
833.714	22078
833.852	22329
833.991	22386
834.129	22447
834.267	22413
834.406	22314
834.544	22363
834.682	22223
834.821	22048
834.959	22097
835.097	21686
835.235	21743
835.373	21610
835.511	21389
835.65	21203
835.788	21249
835.926	21028
836.064	20796
836.202	21032
836.34	21074
836.478	21051
836.615	20975
836.753	21058
836.891	21009
837.029	20929
837.167	20834
837.305	20887
837.443	20773
837.58	20682
837.718	20838
837.856	20743
837.993	20689
838.131	20743
838.269	20556
838.406	20651
838.544	20579
838.681	20328
838.819	20381
838.956	20122
839.094	20164
839.231	20317
839.369	20301
839.506	20480
839.643	20465
839.781	20176
839.918	20012
840.055	20271
840.193	20153
840.33	20107
840.467	20191
840.604	20263
840.742	20332
840.879	19974
841.016	20145
841.153	19982
841.29	20271
841.427	19970
841.564	20092
841.701	20225
841.838	19978
841.975	20092
842.112	20054
842.249	19947
842.385	19803
842.522	20145
842.659	19997
842.796	19879
842.933	20035
843.069	19879
843.206	19997
843.343	20122
843.479	20126
843.616	20046
843.752	19909
843.889	20081
844.025	20119
844.162	20210
844.298	20214
844.435	20415
844.571	20552
844.708	20963
844.844	21302
844.98	21869
845.117	22504
845.253	23436
845.389	25556
845.525	29410
845.661	35512
845.798	42597
845.934	47813
846.07	49887
846.206	48289
846.342	43069
846.478	36163
846.614	29908
846.75	26008
846.886	23817
847.022	22230
847.158	21344
847.294	20807
847.429	20381
847.565	20008
847.701	20111
847.837	19533
847.972	19415
848.108	19544
848.244	19358
848.379	19126
848.515	19080
848.65	19061
848.786	18993
848.921	18962
849.057	19031
849.192	18924
849.328	18840
849.463	18878
849.598	18821
849.734	18749
849.869	18776
850.004	18608
850.14	18696
850.275	18658
850.41	18509
850.545	18612
850.68	18608
850.815	18498
850.95	18623
851.085	18715
851.22	18623
851.355	18616
851.49	18570
851.625	18471
851.76	18517
851.895	18506
852.03	18517
852.165	18631
852.299	18589
852.434	18612
852.569	18654
852.703	18650
852.838	18703
852.973	18696
853.107	18817
853.242	18760
853.376	18711
853.511	18479
853.645	18585
853.78	18837
853.914	18787
854.048	18760
854.183	18882
854.317	18795
854.451	19095
854.585	18913
854.72	18772
854.854	18924
854.988	18684
855.122	18779
855.256	18563
855.39	18612
855.524	18681
855.658	18593
855.792	18502
855.926	18642
856.06	18593
856.194	18525
856.327	18513
856.461	18346
856.595	18380
856.729	18334
856.862	18494
856.996	18369
857.13	18464
857.263	18380
857.397	18403
857.53	18376
857.664	18365
857.797	18209
857.931	18502
858.064	18342
858.197	18323
858.331	18323
858.464	18262
858.597	18209
858.731	18308
858.864	18190
858.997	18182
859.13	18300
859.263	18330
859.396	18308
859.529	18247
859.662	18174
859.795	18247
859.928	18270
860.061	18361
860.194	18308
860.327	18239
860.46	18171
860.592	18273
860.725	18296
860.858	18239
860.99	18182
861.123	18041
861.256	18258
861.388	18125
861.521	18901
861.653	18007
861.786	18034
861.918	18060
862.05	18079
862.183	18228
862.315	18262
862.447	18159
862.58	18114
862.712	17961
862.844	17843
862.976	18068
863.108	17855
863.24	18281
863.372	17809
863.504	17935
863.636	17809
863.768	17832
863.9	17882
864.032	17798
864.164	17885
864.296	17992
864.428	17904
864.559	17942
864.691	17889
864.823	17885
864.954	17908
865.086	17805
865.217	17745
865.349	17676
865.48	17821
865.612	17790
865.743	17931
865.875	17840
866.006	17737
866.137	17790
866.269	17809
866.4	17790
866.531	17707
866.662	17665
866.793	17623
866.924	17714
867.055	17726
867.186	17665
867.317	17726
867.448	17657
867.579	17668
867.71	17604
867.841	17775
867.972	17707
868.103	17729
868.233	17832
868.364	17786
868.495	17752
868.625	18060
868.756	18095
868.886	18007
869.017	18095
869.147	18148
869.278	18098
869.408	18095
869.539	18079
869.669	18159
869.799	18102
869.929	18114
870.06	18171
870.19	18467
870.32	18407
870.45	18410
870.58	18574
870.71	18593
870.84	18692
870.97	18494
871.1	18429
871.23	18730
871.36	18726
871.489	18738
871.619	18749
871.749	18639
871.879	18757
872.008	18901
872.138	18856
872.267	18810
872.397	18730
872.526	18738
872.656	18692
872.785	18741
872.915	18882
873.044	18943
873.173	18977
873.303	19000
873.432	19072
873.561	19065
873.69	18966
873.819	19027
873.948	19145
874.077	19168
874.206	19114
874.335	19091
874.464	19270
874.593	19441
874.722	19441
874.851	19518
874.979	19586
875.108	19788
875.237	19525
875.365	19620
875.494	19696
875.623	19852
875.751	19620
875.88	19807
876.008	20016
876.136	20134
876.265	20473
876.393	20545
876.521	20613
876.65	20583
876.778	20629
876.906	20613
877.034	20590
877.162	20769
877.29	20674
877.418	20925
877.546	20960
877.674	21142
877.802	21226
877.93	21454
878.058	21439
878.185	21671
878.313	22051
878.441	22455
878.568	22653
878.696	23467
878.824	24273
878.951	25381
879.079	27108
879.206	29200
879.333	31403
879.461	33089
879.588	34310
879.715	34318
879.842	33321
879.97	31415
880.097	29094
880.224	27545
880.351	26290
880.478	25244
880.605	24612
880.732	24247
880.859	24205
880.986	23961
881.112	23840
881.239	23657
881.366	23318
881.493	23360
881.619	23132
881.746	23360
881.872	23436
881.999	23330
882.125	23383
882.252	23619
882.378	23512
882.505	23707
882.631	23524
882.757	23372
882.883	23440
883.01	23402
883.136	23288
883.262	23299
883.388	23208
883.514	23406
883.64	23326
883.766	23231
883.892	23189
884.018	23033
884.143	23231
884.269	23356
884.395	23159
884.52	23025
884.646	23052
884.772	23140
884.897	23067
885.023	23079
885.148	23197
885.274	23105
885.399	23022
885.524	22866
885.65	22710
885.775	22584
885.9	22379
886.025	22371
886.15	22249
886.275	21842
886.4	21785
886.525	21618
886.65	21447
886.775	21370
886.9	21420
887.025	21447
887.149	21233
887.274	20925
887.399	20838
887.523	20617
887.648	20541
887.773	20427
887.897	20526
888.021	20457
888.146	20145
888.27	20317
888.395	20275
888.519	20058
888.643	20039
888.767	19997
888.891	19967
889.015	19666
889.139	19742
889.263	19727
889.387	19833
889.511	19719
889.635	19696
889.759	19521
889.883	19480
890.006	19548
890.13	19601
890.254	19434
890.377	19251
890.501	19114
890.624	19103
890.748	19057
890.871	18844
890.995	18776
891.118	18730
891.241	18810
891.364	18863
891.488	18783
891.611	18639
891.734	18692
891.857	18688
891.98	18669
892.103	18684
892.226	18540
892.349	18490
892.471	18391
892.594	18422
892.717	18353
892.839	18521
892.962	18258
893.085	18369
893.207	18281
893.33	18220
893.452	18144
893.575	18273
893.697	18095
893.819	18258
893.941	18304
894.064	18243
894.186	17958
894.308	18034
894.43	18209
894.552	18167
894.674	18182
894.796	17866
894.918	17809
895.04	17958
895.161	18072
895.283	17988
895.405	17901
895.526	17950
895.648	17897
895.769	17790
895.891	17908
896.012	17931
896.134	17908
896.255	17931
896.376	17809
896.498	17775
896.619	17840
896.74	17843
896.861	17840
896.982	18098
897.103	18251
897.224	18015
897.345	18045
897.466	17961
897.587	18003
897.708	18133
897.828	18049
897.949	17908
898.07	17767
898.19	17901
898.311	18026
898.431	17832
898.552	18019
898.672	18034
898.792	18049
898.913	18072
899.033	17840
899.153	17733
899.273	17737
899.393	17802
899.513	17745
899.633	17771
899.753	17699
899.873	17684
899.993	17729
900.113	17752
900.232	17756
900.352	17680
900.472	17505
900.591	17566
900.711	17547
900.83	17562
900.95	17604
901.069	17638
901.189	17505
901.308	17258
901.427	17121
901.546	17193
901.665	17166
901.784	17151
901.904	17037
902.023	16835
902.141	16710
902.26	16580
902.379	16683
902.498	16478
902.617	16558
902.735	16527
902.854	16588
902.973	16440
903.091	16318
903.21	16188
903.328	16207
903.446	16173
903.565	16082
903.683	16032
903.801	15918
903.919	15987
904.038	15968
904.156	15846
904.274	15880
904.392	15698
904.51	15694
904.627	15793
904.745	15770
904.863	15854
904.981	15530
905.098	15431
905.216	15382
905.334	15450
905.451	15458
905.569	15351
905.686	15469
905.803	15359
905.921	15226
906.038	15306
906.155	15230
906.272	14971
906.389	15127
906.506	14925
906.623	14963
906.74	14937
906.857	14705
906.974	14883
907.091	14952
907.208	14975
907.324	14933
907.441	14929
907.557	14659
907.674	14739
907.79	14590
907.907	14533
908.023	14682
908.139	14632
908.256	14549
908.372	14518
908.488	14541
908.604	14389
908.72	14301
908.836	14446
908.952	14305
909.068	14362
909.184	14415
909.3	14317
909.415	14434
909.531	14381
909.647	14096
909.762	14054
909.878	14069
909.993	14123
910.108	14027
910.224	14183
910.339	14069
910.454	13951
910.57	13898
910.685	13849
910.8	14157
910.915	13986
911.03	13887
911.145	13765
911.259	13708
911.374	13791
911.489	13670
911.604	13624
911.718	13430
911.833	13464
911.947	13384
912.062	13331
912.176	13499
912.291	13392
912.405	13434
912.519	13655
912.633	13723
912.748	13502
912.862	13339
912.976	13457
913.09	13255
913.204	13221
913.318	13426
913.431	13369
913.545	13396
913.659	13419
913.772	13206
913.886	13202
914	13099
914.113	13240
914.226	13270
914.34	13274
914.453	13069
914.566	13187
914.68	13095
914.793	13122
914.906	12981
915.019	12939
915.132	12871
915.245	12810
915.358	12856
915.47	12924
915.583	12913
915.696	12958
915.809	13012
915.921	13034
916.034	12837
916.146	12791
916.259	12821
916.371	12920
916.483	12916
916.595	12783
916.708	12837
916.82	12867
916.932	12859
917.044	12821
917.156	12772
917.268	12692
917.38	12684
917.491	12627
917.603	12684
917.715	12760
917.826	12779
917.938	12589
918.049	12448
918.161	12604
918.272	12745
918.384	12642
918.495	12475
918.606	12494
918.717	12319
918.828	12517
918.939	12422
919.05	12365
919.161	12403
919.272	12239
919.383	12182
919.494	12327
919.604	12509
919.715	12407
919.826	12258
919.936	12346
920.047	12372
920.157	12342
920.267	12509
920.378	12448
920.488	12399
920.598	12479
920.708	12650
920.818	12551
920.928	12566
921.038	12707
921.148	12585
921.258	12258
921.368	12201
921.477	12110
921.587	12121
921.697	12038
921.806	12129
921.916	11973
922.025	11863
922.134	11832
922.244	11745
922.353	11828
922.462	11783
922.571	11623
922.68	11353
922.789	11406
922.898	11467
923.007	11360
923.116	11490
923.224	11474
923.333	11356
923.442	11356
923.55	11261
923.659	11231
923.767	11360
923.876	11193
923.984	11307
924.092	11227
924.201	11189
924.309	11280
924.417	11189
924.525	11113
924.633	11292
924.741	11897
924.849	11029
924.956	11174
925.064	10991
925.172	10942
925.279	10885
925.387	11041
925.494	10961
925.602	11090
925.709	11083
925.816	10938
925.924	10972
926.031	10976
926.138	11037
926.245	11010
926.352	10930
926.459	11025
926.566	11006
926.673	10873
926.779	10820
926.886	10858
926.993	10694
927.099	10668
927.206	10630
927.312	10679
927.419	10679
927.525	10744
927.631	10645
927.737	10538
927.843	10573
927.95	10409
928.056	10424
928.162	10592
928.267	10584
928.373	11022
928.479	10603
928.585	10386
928.69	10485
928.796	10508
928.901	10394
929.007	10234
929.112	10375
929.218	10363
929.323	10295
929.428	10314
929.533	10356
929.638	10154
929.743	10246
929.848	10363
929.953	10196
930.058	10128
930.163	9964
930.267	10029
930.372	10109
930.477	9964
930.581	10261
930.685	10048
930.79	9907
930.894	9968
930.998	9930
931.103	10116
931.207	9663
931.311	9618
931.415	9523
931.519	9431
931.623	9329
