Data from test_V78500241_394.txt Node
Date: Fri Mar 25 14:36:27 CST 2022
User: usil
Spectrometer: V785-0024
Trigger mode: 0
Integration Time (sec): 4.000000E-1
Scans to average: 1
Nonlinearity correction enabled: false
Boxcar width: 0
Storing dark spectrum: false
XAxis mode: Wavelengths
Number of Pixels in Spectrum: 1024
>>>>>Begin Spectral Data<<<<<
801.071	26735
801.214	26648
801.356	26412
801.499	26336
801.641	26180
801.783	26195
801.926	26145
802.068	26054
802.211	26058
802.353	26138
802.496	25871
802.638	25799
802.78	25784
802.923	25677
803.065	25670
803.208	25655
803.35	25594
803.492	25811
803.635	25879
803.777	25586
803.919	25772
804.061	26065
804.204	25628
804.346	25613
804.488	25609
804.63	25681
804.773	25597
804.915	25765
805.057	25776
805.199	25632
805.341	25765
805.483	25852
805.626	25719
805.768	25609
805.91	25719
806.052	25658
806.194	25624
806.336	25784
806.478	25727
806.62	25761
806.762	25902
806.904	26092
807.046	26187
807.188	26092
807.33	26062
807.472	26161
807.614	26111
807.756	26077
807.898	25955
808.04	25845
808.182	25807
808.324	25734
808.465	25894
808.607	26031
808.749	26164
808.891	26301
809.033	26385
809.174	26362
809.316	26183
809.458	26290
809.6	26191
809.741	26252
809.883	26263
810.025	26366
810.166	26301
810.308	26313
810.45	26267
810.591	26252
810.733	26206
810.875	26119
811.016	26084
811.158	25875
811.299	26054
811.441	26199
811.582	26244
811.724	25951
811.865	26077
812.007	26187
812.148	26039
812.29	26016
812.431	26263
812.573	26271
812.714	26446
812.855	26545
812.997	26632
813.138	26716
813.279	26682
813.421	26590
813.562	26514
813.703	26339
813.845	26332
813.986	25811
814.127	25715
814.268	25685
814.41	25533
814.551	25632
814.692	25651
814.833	25620
814.974	25460
815.115	25613
815.256	25441
815.397	25506
815.539	25339
815.68	25324
815.821	25312
815.962	25339
816.103	25483
816.244	25206
816.385	25004
816.526	25076
816.666	24814
816.807	24791
816.948	24745
817.089	24814
817.23	24661
817.371	24856
817.512	24730
817.653	24722
817.793	24582
817.934	24711
818.075	24707
818.216	24684
818.356	24654
818.497	24692
818.638	24414
818.778	24395
818.919	24544
819.06	24437
819.2	24559
819.341	24669
819.481	24711
819.622	24768
819.762	24951
819.903	24806
820.043	24837
820.184	24734
820.324	24814
820.465	24726
820.605	24681
820.746	24711
820.886	24612
821.026	24616
821.167	24688
821.307	24760
821.447	24661
821.588	24555
821.728	24243
821.868	24311
822.008	24114
822.149	24117
822.289	24045
822.429	23916
822.569	23764
822.709	23790
822.849	23558
822.99	23452
823.13	23543
823.27	23414
823.41	23345
823.55	23227
823.69	23318
823.83	23379
823.97	23124
824.11	23006
824.25	23044
824.389	23105
824.529	23170
824.669	23041
824.809	23307
824.949	23246
825.089	23166
825.228	23079
825.368	22904
825.508	22896
825.648	22816
825.787	22881
825.927	22850
826.067	22904
826.206	22847
826.346	22949
826.485	22908
826.625	22862
826.765	22972
826.904	22854
827.044	22683
827.183	22508
827.323	22565
827.462	22611
827.601	22577
827.741	22717
827.88	22694
828.02	22497
828.159	22424
828.298	22440
828.437	22561
828.577	22413
828.716	22630
828.855	22375
828.994	22329
829.134	22318
829.273	22333
829.412	22169
829.551	22192
829.69	22166
829.829	22268
829.968	22329
830.107	22348
830.246	22314
830.385	22219
830.524	22074
830.663	21991
830.802	21895
830.941	21861
831.08	21800
831.219	21895
831.357	21861
831.496	21983
831.635	21736
831.774	21660
831.913	21610
832.051	21561
832.19	21739
832.329	21587
832.467	21591
832.606	21389
832.744	21393
832.883	21389
833.022	21329
833.16	21504
833.299	21443
833.437	21435
833.576	21481
833.714	21340
833.852	21462
833.991	21428
834.129	21557
834.267	21622
834.406	21435
834.544	21420
834.682	21435
834.821	21462
834.959	21709
835.097	21393
835.235	21405
835.373	21374
835.511	21329
835.65	21291
835.788	21310
835.926	21260
836.064	21112
836.202	21085
836.34	21336
836.478	21359
836.615	21272
836.753	21272
836.891	21367
837.029	21386
837.167	21287
837.305	21154
837.443	21195
837.58	21161
837.718	21077
837.856	21180
837.993	21161
838.131	21275
838.269	21070
838.406	21017
838.544	20948
838.681	20891
838.819	20705
838.956	20655
839.094	20697
839.231	20587
839.369	20754
839.506	21005
839.643	20769
839.781	20598
839.918	20701
840.055	20621
840.193	20476
840.33	20419
840.467	20556
840.604	20549
840.742	20762
840.879	20328
841.016	20492
841.153	20461
841.29	20476
841.427	20575
841.564	20511
841.701	20408
841.838	20446
841.975	20332
842.112	20339
842.249	20370
842.385	20221
842.522	20499
842.659	20278
842.796	20130
842.933	20214
843.069	20202
843.206	20130
843.343	20347
843.479	20214
843.616	20301
843.752	19978
843.889	20081
844.025	20157
844.162	19947
844.298	20016
844.435	20008
844.571	19974
844.708	20046
844.844	20054
844.98	19993
845.117	20077
845.253	20008
845.389	19852
845.525	19902
845.661	19788
845.798	19780
845.934	19883
846.07	19616
846.206	19803
846.342	19875
846.478	19708
846.614	19540
846.75	19449
846.886	19468
847.022	19518
847.158	19487
847.294	19453
847.429	19537
847.565	19468
847.701	19750
847.837	19278
847.972	19187
848.108	19251
848.244	19179
848.379	19118
848.515	19122
848.65	18928
848.786	19061
848.921	19038
849.057	19057
849.192	19175
849.328	19042
849.463	19099
849.598	19080
849.734	18993
849.869	18909
850.004	18772
850.14	18791
850.275	18787
850.41	18707
850.545	18631
850.68	18703
850.815	18772
850.95	18654
851.085	18951
851.22	18882
851.355	18703
851.49	18738
851.625	18711
851.76	18772
851.895	18669
852.03	18661
852.165	18661
852.299	18738
852.434	18783
852.569	18707
852.703	18787
852.838	18753
852.973	18840
853.107	18973
853.242	18684
853.376	18642
853.511	18536
853.645	18547
853.78	18616
853.914	18517
854.048	18578
854.183	18498
854.317	18566
854.451	18810
854.585	18585
854.72	18456
854.854	18608
854.988	18486
855.122	18582
855.256	18395
855.39	18498
855.524	18623
855.658	18661
855.792	18544
855.926	18544
856.06	18620
856.194	18658
856.327	18585
856.461	18342
856.595	18513
856.729	18601
856.862	18658
856.996	18555
857.13	18612
857.263	18764
857.397	18661
857.53	18528
857.664	18597
857.797	18582
857.931	18726
858.064	18555
858.197	18616
858.331	18582
858.464	18494
858.597	18399
858.731	18460
858.864	18452
858.997	18502
859.13	18445
859.263	18623
859.396	18601
859.529	18506
859.662	18437
859.795	18407
859.928	18479
860.061	18578
860.194	18677
860.327	18574
860.46	18532
860.592	18703
860.725	18551
860.858	18738
860.99	18456
861.123	18456
861.256	18399
861.388	18528
861.521	19213
861.653	18418
861.786	18372
861.918	18372
862.05	18475
862.183	18540
862.315	18555
862.447	18582
862.58	18525
862.712	18350
862.844	18258
862.976	18270
863.108	18224
863.24	18589
863.372	18190
863.504	18205
863.636	18194
863.768	18262
863.9	18251
864.032	18171
864.164	18197
864.296	18182
864.428	18289
864.559	18232
864.691	18350
864.823	18239
864.954	18216
865.086	18125
865.217	18205
865.349	18083
865.48	18110
865.612	18159
865.743	18289
865.875	18148
866.006	18098
866.137	18194
866.269	18121
866.4	18076
866.531	18098
866.662	18049
866.793	18083
866.924	18117
867.055	18095
867.186	18121
867.317	17992
867.448	18091
867.579	18083
867.71	17999
867.841	17958
867.972	18057
868.103	18030
868.233	18064
868.364	18015
868.495	18201
868.625	18243
868.756	18350
868.886	18235
869.017	18311
869.147	18334
869.278	18464
869.408	18372
869.539	18369
869.669	18407
869.799	18441
869.929	18311
870.06	18506
870.19	18585
870.32	18593
870.45	18673
870.58	18715
870.71	18852
870.84	18798
870.97	18741
871.1	18711
871.23	18882
871.36	18913
871.489	18688
871.619	18928
871.749	18852
871.879	18905
872.008	19088
872.138	18958
872.267	18913
872.397	18703
872.526	18730
872.656	18753
872.785	18707
872.915	18905
873.044	18993
873.173	18859
873.303	19046
873.432	19000
873.561	19099
873.69	18954
873.819	18977
873.948	19126
874.077	19038
874.206	18970
874.335	18970
874.464	19095
874.593	19209
874.722	19251
874.851	19145
874.979	19171
875.108	19320
875.237	19236
875.365	19072
875.494	19213
875.623	19358
875.751	19152
875.88	19232
876.008	19400
876.136	19464
876.265	19639
876.393	19845
876.521	19750
876.65	19753
876.778	19563
876.906	19620
877.034	19590
877.162	19658
877.29	19548
877.418	19567
877.546	19597
877.674	19590
877.802	19597
877.93	19533
878.058	19613
878.185	19472
878.313	19525
878.441	19662
878.568	19483
878.696	19487
878.824	19647
878.951	19772
879.079	19784
879.206	19837
879.333	19818
879.461	19575
879.588	19731
879.715	19799
879.842	20008
879.97	19643
880.097	19525
880.224	19434
880.351	19495
880.478	19483
880.605	19407
880.732	19483
880.859	19731
880.986	19499
881.112	19533
881.239	19407
881.366	19240
881.493	19179
881.619	19095
881.746	19072
881.872	19061
881.999	19118
882.125	19069
882.252	19042
882.378	19042
882.505	19236
882.631	19061
882.757	18954
882.883	18909
883.01	18856
883.136	18772
883.262	18688
883.388	18597
883.514	18833
883.64	18905
883.766	18814
883.892	18593
884.018	18730
884.143	18760
884.269	18909
884.395	18578
884.52	18456
884.646	18429
884.772	18483
884.897	18433
885.023	18494
885.148	18635
885.274	18700
885.399	18460
885.524	18498
885.65	18547
885.775	18486
885.9	18498
886.025	18593
886.15	18730
886.275	18422
886.4	18384
886.525	18464
886.65	18350
886.775	18517
886.9	18513
887.025	18623
887.149	18525
887.274	18395
887.399	18205
887.523	18254
887.648	18216
887.773	18220
887.897	18254
888.021	18311
888.146	18178
888.27	18346
888.395	18391
888.519	18285
888.643	18327
888.767	18323
888.891	18163
889.015	18053
889.139	18133
889.263	18003
889.387	18174
889.511	18239
889.635	18197
889.759	18053
889.883	17988
890.006	18102
890.13	18190
890.254	18003
890.377	18011
890.501	17885
890.624	17775
890.748	18003
890.871	17783
890.995	17729
891.118	17608
891.241	17699
891.364	17741
891.488	17870
891.611	17676
891.734	17687
891.857	17752
891.98	17535
892.103	17794
892.226	17634
892.349	17714
892.471	17638
892.594	17649
892.717	17672
892.839	17585
892.962	17684
893.085	17714
893.207	17649
893.33	17581
893.452	17585
893.575	17646
893.697	17630
893.819	17676
893.941	17737
894.064	17691
894.186	17577
894.308	17589
894.43	17790
894.552	17756
894.674	17680
894.796	17539
894.918	17630
895.04	17585
895.161	17752
895.283	17646
895.405	17726
895.526	17703
895.648	17528
895.769	17722
895.891	17767
896.012	17843
896.134	17775
896.255	17737
896.376	17661
896.498	17752
896.619	17798
896.74	17752
896.861	17760
896.982	18034
897.103	18228
897.224	17996
897.345	17950
897.466	17999
897.587	17897
897.708	18064
897.828	17950
897.949	17916
898.07	17923
898.19	17870
898.311	18019
898.431	17946
898.552	17901
898.672	17935
898.792	18091
898.913	17916
899.033	17786
899.153	17703
899.273	17710
899.393	17608
899.513	17779
899.633	17699
899.753	17710
899.873	17600
899.993	17783
900.113	17680
900.232	17786
900.352	17684
900.472	17649
900.591	17429
900.711	17532
900.83	17539
900.95	17668
901.069	17653
901.189	17516
901.308	17269
901.427	17162
901.546	17235
901.665	17178
901.784	17147
901.904	16991
902.023	16949
902.141	16786
902.26	16641
902.379	16820
902.498	16626
902.617	16596
902.735	16752
902.854	16717
902.973	16664
903.091	16348
903.21	16253
903.328	16356
903.446	16428
903.565	16139
903.683	16257
903.801	16105
903.919	16196
904.038	16211
904.156	15953
904.274	16105
904.392	15941
904.51	15998
904.627	15918
904.745	16112
904.863	16010
904.981	15766
905.098	15667
905.216	15736
905.334	15717
905.451	15622
905.569	15675
905.686	15671
905.803	15755
905.921	15523
906.038	15526
906.155	15534
906.272	15294
906.389	15367
906.506	15165
906.623	15230
906.74	15279
906.857	15047
906.974	15138
907.091	15264
907.208	15325
907.324	15237
907.441	15066
907.557	14906
907.674	14910
907.79	14910
907.907	14971
908.023	14990
908.139	14830
908.256	14773
908.372	14754
908.488	14826
908.604	14682
908.72	14610
908.836	14610
908.952	14644
909.068	14701
909.184	14693
909.3	14560
909.415	14682
909.531	14514
909.647	14385
909.762	14336
909.878	14263
909.993	14408
910.108	14309
910.224	14267
910.339	14294
910.454	14248
910.57	14119
910.685	14043
910.8	14313
910.915	14358
911.03	14157
911.145	14031
911.259	14039
911.374	14005
911.489	13837
911.604	13864
911.718	13651
911.833	13742
911.947	13624
912.062	13499
912.176	13677
912.291	13742
912.405	13689
912.519	13852
912.633	13894
912.748	13734
912.862	13674
912.976	13609
913.09	13495
913.204	13537
913.318	13506
913.431	13731
913.545	13601
913.659	13582
913.772	13476
913.886	13350
914	13400
914.113	13434
914.226	13472
914.34	13373
914.453	13354
914.566	13358
914.68	13190
914.793	13270
914.906	13076
915.019	13023
915.132	12871
915.245	13057
915.358	13095
915.47	13027
915.583	13107
915.696	13137
915.809	13225
915.921	13270
916.034	13027
916.146	12993
916.259	12943
916.371	13091
916.483	12993
916.595	12924
916.708	12890
916.82	12920
916.932	13015
917.044	13023
917.156	12844
917.268	12722
917.38	12757
917.491	12726
917.603	12852
917.715	12859
917.826	12817
917.938	12814
918.049	12627
918.161	12696
918.272	12905
918.384	12894
918.495	12852
918.606	12604
918.717	12566
918.828	12620
918.939	12646
919.05	12448
919.161	12589
919.272	12429
919.383	12342
919.494	12532
919.604	12734
919.715	12498
919.826	12490
919.936	12467
920.047	12642
920.157	12532
920.267	12707
920.378	12597
920.488	12517
920.598	12692
920.708	12844
920.818	12707
920.928	12798
921.038	12844
921.148	12711
921.258	12589
921.368	12414
921.477	12369
921.587	12243
921.697	12216
921.806	12281
921.916	12243
922.025	11984
922.134	11912
922.244	11942
922.353	12049
922.462	11889
922.571	11840
922.68	11680
922.789	11707
922.898	11748
923.007	11604
923.116	11722
923.224	11657
923.333	11604
923.442	11528
923.55	11474
923.659	11501
923.767	11528
923.876	11497
923.984	11554
924.092	11368
924.201	11417
924.309	11391
924.417	11501
924.525	11410
924.633	11406
924.741	12262
924.849	11147
924.956	11303
925.064	11174
925.172	11086
925.279	11166
925.387	11128
925.494	11208
925.602	11265
925.709	11166
925.816	11033
925.924	11105
926.031	11204
926.138	11151
926.245	11208
926.352	11045
926.459	11174
926.566	11254
926.673	11022
926.779	10980
926.886	10919
926.993	10820
927.099	10816
927.206	10816
927.312	10763
927.419	10771
927.525	10771
927.631	10839
927.737	10687
927.843	10706
927.95	10546
928.056	10599
928.162	10675
928.267	10660
928.373	11307
928.479	10694
928.585	10523
928.69	10592
928.796	10649
928.901	10512
929.007	10375
929.112	10485
929.218	10531
929.323	10478
929.428	10363
929.533	10535
929.638	10291
929.743	10371
929.848	10447
929.953	10329
930.058	10219
930.163	10185
930.267	10177
930.372	10299
930.477	10078
930.581	10325
930.685	10196
930.79	10086
930.894	10029
930.998	9994
931.103	10109
931.207	9884
931.311	9743
931.415	9728
931.519	9428
931.623	9485
