Data from test_V78500241_1206.txt Node
Date: Fri Mar 25 14:42:06 CST 2022
User: usil
Spectrometer: V785-0024
Trigger mode: 0
Integration Time (sec): 4.000000E-1
Scans to average: 1
Nonlinearity correction enabled: false
Boxcar width: 0
Storing dark spectrum: false
XAxis mode: Wavelengths
Number of Pixels in Spectrum: 1024
>>>>>Begin Spectral Data<<<<<
801.071	22485
801.214	22284
801.356	22082
801.499	21941
801.641	21755
801.783	21778
801.926	21812
802.068	21739
802.211	21720
802.353	21606
802.496	21428
802.638	21264
802.78	21199
802.923	21218
803.065	21081
803.208	21081
803.35	21127
803.492	21245
803.635	21382
803.777	21081
803.919	21264
804.061	21500
804.204	21138
804.346	21001
804.488	20990
804.63	21081
804.773	21013
804.915	20956
805.057	21203
805.199	21127
805.341	21146
805.483	21199
805.626	21180
805.768	20899
805.91	21013
806.052	20937
806.194	21081
806.336	21195
806.478	20952
806.62	21013
806.762	20971
806.904	21249
807.046	21458
807.188	21393
807.33	21515
807.472	21458
807.614	21306
807.756	21218
807.898	21287
808.04	21214
808.182	21146
808.324	21108
808.465	21272
808.607	21363
808.749	21428
808.891	21637
809.033	21713
809.174	21557
809.316	21332
809.458	21473
809.6	21500
809.741	21488
809.883	21504
810.025	21587
810.166	21663
810.308	21561
810.45	21534
810.591	21439
810.733	21332
810.875	21367
811.016	21245
811.158	21070
811.299	21329
811.441	21401
811.582	21408
811.724	21310
811.865	21230
812.007	21142
812.148	21184
812.29	21218
812.431	21416
812.573	21576
812.714	21648
812.855	21625
812.997	21819
813.138	21876
813.279	21865
813.421	21751
813.562	21713
813.703	21481
813.845	21397
813.986	21096
814.127	20963
814.268	20861
814.41	20773
814.551	20883
814.692	20765
814.833	20834
814.974	20598
815.115	20609
815.256	20609
815.397	20556
815.539	20632
815.68	20602
815.821	20522
815.962	20442
816.103	20442
816.244	20381
816.385	20225
816.526	20271
816.666	20115
816.807	19936
816.948	19986
817.089	20050
817.23	19947
817.371	19845
817.512	19913
817.653	19868
817.793	19830
817.934	19974
818.075	19963
818.216	19932
818.356	19906
818.497	19852
818.638	19578
818.778	19708
818.919	19609
819.06	19696
819.2	19803
819.341	19849
819.481	19856
819.622	19947
819.762	20107
819.903	20058
820.043	19955
820.184	19890
820.324	19993
820.465	19967
820.605	20043
820.746	19967
820.886	19799
821.026	19852
821.167	19845
821.307	19875
821.447	19902
821.588	19715
821.728	19628
821.868	19445
822.008	19373
822.149	19343
822.289	19240
822.429	19053
822.569	19012
822.709	19023
822.849	18844
822.99	18772
823.13	18798
823.27	18806
823.41	18555
823.55	18582
823.69	18650
823.83	18654
823.97	18540
824.11	18388
824.25	18289
824.389	18498
824.529	18384
824.669	18388
824.809	18467
824.949	18551
825.089	18460
825.228	18388
825.368	18251
825.508	18194
825.648	18235
825.787	18292
825.927	18319
826.067	18213
826.206	18159
826.346	18201
826.485	18133
826.625	18053
826.765	18194
826.904	18163
827.044	17927
827.183	17992
827.323	17950
827.462	17977
827.601	17912
827.741	17904
827.88	17870
828.02	17783
828.159	17958
828.298	17870
828.437	17866
828.577	17767
828.716	18007
828.855	17824
828.994	17707
829.134	17676
829.273	17722
829.412	17547
829.551	17535
829.69	17707
829.829	17653
829.968	17707
830.107	17611
830.246	17627
830.385	17547
830.524	17535
830.663	17474
830.802	17387
830.941	17239
831.08	17208
831.219	17330
831.357	17303
831.496	17490
831.635	17273
831.774	17124
831.913	17208
832.051	17083
832.19	17098
832.329	17041
832.467	16984
832.606	16942
832.744	16919
832.883	16896
833.022	16915
833.16	16984
833.299	17079
833.437	16927
833.576	17147
833.714	17014
833.852	16976
833.991	16965
834.129	17124
834.267	17102
834.406	17052
834.544	17121
834.682	16930
834.821	16991
834.959	17181
835.097	17041
835.235	17075
835.373	17018
835.511	16965
835.65	16904
835.788	16896
835.926	16793
836.064	16698
836.202	16835
836.34	16927
836.478	16953
836.615	16930
836.753	16942
836.891	16934
837.029	16965
837.167	16801
837.305	16847
837.443	16752
837.58	16710
837.718	16938
837.856	16858
837.993	16752
838.131	16748
838.269	16759
838.406	16691
838.544	16622
838.681	16569
838.819	16485
838.956	16417
839.094	16318
839.231	16417
839.369	16440
839.506	16767
839.643	16554
839.781	16344
839.918	16303
840.055	16402
840.193	16329
840.33	16261
840.467	16303
840.604	16402
840.742	16603
840.879	16177
841.016	16360
841.153	16310
841.29	16360
841.427	16314
841.564	16348
841.701	16325
841.838	16367
841.975	16181
842.112	16257
842.249	16306
842.385	16116
842.522	16310
842.659	16139
842.796	16143
842.933	16044
843.069	16040
843.206	16185
843.343	16139
843.479	16124
843.616	16128
843.752	15861
843.889	15888
844.025	16116
844.162	15880
844.298	16082
844.435	15861
844.571	15819
844.708	15975
844.844	16074
844.98	16105
845.117	16147
845.253	15861
845.389	15846
845.525	15960
845.661	15778
845.798	15751
845.934	15987
846.07	15781
846.206	15838
846.342	15972
846.478	15709
846.614	15587
846.75	15534
846.886	15523
847.022	15545
847.158	15481
847.294	15534
847.429	15504
847.565	15435
847.701	15644
847.837	15287
847.972	15245
848.108	15283
848.244	15230
848.379	15150
848.515	14994
848.65	15020
848.786	15039
848.921	15192
849.057	15127
849.192	15249
849.328	15169
849.463	15085
849.598	15077
849.734	14975
849.869	14975
850.004	14845
850.14	14811
850.275	14830
850.41	14708
850.545	14777
850.68	14743
850.815	14861
850.95	14758
851.085	15005
851.22	14933
851.355	14906
851.49	14921
851.625	14746
851.76	14800
851.895	14807
852.03	14731
852.165	14746
852.299	14857
852.434	14876
852.569	14845
852.703	14906
852.838	14883
852.973	14960
853.107	14944
853.242	14887
853.376	14792
853.511	14617
853.645	14746
853.78	14807
853.914	14796
854.048	14701
854.183	14720
854.317	14682
854.451	14857
854.585	14686
854.72	14640
854.854	14777
854.988	14629
855.122	14670
855.256	14579
855.39	14701
855.524	14785
855.658	14743
855.792	14815
855.926	14762
856.06	14838
856.194	14811
856.327	14834
856.461	14739
856.595	14598
856.729	14648
856.862	14887
856.996	14800
857.13	14823
857.263	14960
857.397	14899
857.53	14765
857.664	14811
857.797	14861
857.931	14960
858.064	14906
858.197	14887
858.331	14697
858.464	14640
858.597	14640
858.731	14800
858.864	14720
858.997	14739
859.13	14781
859.263	14727
859.396	14853
859.529	14678
859.662	14701
859.795	14636
859.928	14769
860.061	14975
860.194	14937
860.327	14712
860.46	14651
860.592	14876
860.725	14899
860.858	14956
860.99	14819
861.123	14701
861.256	14678
861.388	14750
861.521	15496
861.653	14590
861.786	14533
861.918	14613
862.05	14610
862.183	14693
862.315	14754
862.447	14769
862.58	14667
862.712	14442
862.844	14408
862.976	14537
863.108	14583
863.24	14937
863.372	14545
863.504	14545
863.636	14476
863.768	14655
863.9	14488
864.032	14461
864.164	14450
864.296	14613
864.428	14648
864.559	14583
864.691	14613
864.823	14549
864.954	14629
865.086	14507
865.217	14541
865.349	14408
865.48	14518
865.612	14530
865.743	14674
865.875	14480
866.006	14408
866.137	14484
866.269	14492
866.4	14533
866.531	14518
866.662	14370
866.793	14438
866.924	14415
867.055	14507
867.186	14431
867.317	14431
867.448	14381
867.579	14476
867.71	14351
867.841	14400
867.972	14431
868.103	14488
868.233	14579
868.364	14495
868.495	14526
868.625	14781
868.756	14773
868.886	14644
869.017	14579
869.147	14842
869.278	14899
869.408	14769
869.539	14746
869.669	14781
869.799	14807
869.929	14906
870.06	14792
870.19	15055
870.32	15055
870.45	15051
870.58	15184
870.71	15291
870.84	15207
870.97	15135
871.1	15123
871.23	15233
871.36	15298
871.489	15188
871.619	15260
871.749	15291
871.879	15340
872.008	15408
872.138	15275
872.267	15355
872.397	15237
872.526	15169
872.656	15146
872.785	15180
872.915	15458
873.044	15344
873.173	15256
873.303	15416
873.432	15378
873.561	15511
873.69	15298
873.819	15348
873.948	15454
874.077	15424
874.206	15420
874.335	15428
874.464	15428
874.593	15682
874.722	15614
874.851	15732
874.979	15720
875.108	15709
875.237	15717
875.365	15481
875.494	15603
875.623	15755
875.751	15648
875.88	15660
876.008	15800
876.136	15884
876.265	16109
876.393	16276
876.521	16196
876.65	16162
876.778	16036
876.906	16097
877.034	16143
877.162	16101
877.29	16093
877.418	16063
877.546	16067
877.674	16044
877.802	16074
877.93	16135
878.058	16040
878.185	15960
878.313	16074
878.441	16101
878.568	15876
878.696	16013
878.824	16128
878.951	16173
879.079	16306
879.206	16352
879.333	16253
879.461	16169
879.588	16238
879.715	16322
879.842	16379
879.97	16154
880.097	15998
880.224	15964
880.351	16055
880.478	15994
880.605	15953
880.732	16013
880.859	16200
880.986	16044
881.112	15994
881.239	15907
881.366	15610
881.493	15610
881.619	15595
881.746	15686
881.872	15644
881.999	15599
882.125	15545
882.252	15557
882.378	15690
882.505	15736
882.631	15542
882.757	15458
882.883	15473
883.01	15439
883.136	15393
883.262	15188
883.388	15291
883.514	15374
883.64	15523
883.766	15424
883.892	15233
884.018	15321
884.143	15260
884.269	15492
884.395	15214
884.52	15142
884.646	15085
884.772	14982
884.897	15135
885.023	15009
885.148	15192
885.274	15298
885.399	15226
885.524	15093
885.65	15093
885.775	15176
885.9	15013
886.025	15237
886.15	15264
886.275	15085
886.4	15108
886.525	15138
886.65	15005
886.775	15104
886.9	15245
887.025	15386
887.149	15085
887.274	15036
887.399	14902
887.523	14807
887.648	14842
887.773	14826
887.897	15077
888.021	15077
888.146	14910
888.27	15028
888.395	15062
888.519	15036
888.643	14986
888.767	14941
888.891	14830
889.015	14811
889.139	14800
889.263	14777
889.387	14960
889.511	15024
889.635	15013
889.759	14716
889.883	14823
890.006	14788
890.13	14925
890.254	14644
890.377	14724
890.501	14590
890.624	14522
890.748	14632
890.871	14495
890.995	14545
891.118	14370
891.241	14488
891.364	14514
891.488	14693
891.611	14526
891.734	14579
891.857	14537
891.98	14461
892.103	14617
892.226	14526
892.349	14473
892.471	14309
892.594	14454
892.717	14526
892.839	14480
892.962	14465
893.085	14552
893.207	14533
893.33	14347
893.452	14507
893.575	14495
893.697	14526
893.819	14621
893.941	14674
894.064	14629
894.186	14461
894.308	14366
894.43	14651
894.552	14708
894.674	14716
894.796	14438
894.918	14514
895.04	14503
895.161	14686
895.283	14621
895.405	14549
895.526	14632
895.648	14568
895.769	14526
895.891	14560
896.012	14659
896.134	14731
896.255	14579
896.376	14587
896.498	14629
896.619	14792
896.74	14617
896.861	14785
896.982	15013
897.103	15085
897.224	14971
897.345	14883
897.466	14883
897.587	14842
897.708	15020
897.828	14902
897.949	14853
898.07	14731
898.19	14918
898.311	15020
898.431	14853
898.552	14967
898.672	14998
898.792	15070
898.913	15032
899.033	14937
899.153	14769
899.273	14663
899.393	14716
899.513	14830
899.633	14777
899.753	14891
899.873	14788
899.993	14853
900.113	14716
900.232	14899
900.352	14853
900.472	14743
900.591	14697
900.711	14800
900.83	14716
900.95	14819
901.069	14872
901.189	14613
901.308	14389
901.427	14343
901.546	14381
901.665	14362
901.784	14476
901.904	14317
902.023	14142
902.141	14054
902.26	13982
902.379	14073
902.498	13894
902.617	13864
902.735	13864
902.854	13917
902.973	13845
903.091	13738
903.21	13662
903.328	13613
903.446	13601
903.565	13460
903.683	13548
903.801	13335
903.919	13563
904.038	13537
904.156	13266
904.274	13422
904.392	13324
904.51	13266
904.627	13168
904.745	13270
904.863	13343
904.981	13095
905.098	13019
905.216	13038
905.334	12996
905.451	12916
905.569	12977
905.686	13012
905.803	13008
905.921	12817
906.038	12901
906.155	12779
906.272	12753
906.389	12677
906.506	12551
906.623	12589
906.74	12604
906.857	12407
906.974	12429
907.091	12601
907.208	12772
907.324	12665
907.441	12429
907.557	12445
907.674	12254
907.79	12304
907.907	12258
908.023	12429
908.139	12350
908.256	12266
908.372	12205
908.488	12220
908.604	12064
908.72	12019
908.836	12125
908.952	12083
909.068	12140
909.184	12121
909.3	12083
909.415	12114
909.531	12022
909.647	11836
909.762	11859
909.878	11832
909.993	11889
910.108	11779
910.224	11786
910.339	11824
910.454	11790
910.57	11741
910.685	11585
910.8	11920
910.915	11889
911.03	11760
911.145	11619
911.259	11520
911.374	11604
911.489	11516
911.604	11459
911.718	11273
911.833	11254
911.947	11162
912.062	11094
912.176	11220
912.291	11246
912.405	11299
912.519	11482
912.633	11471
912.748	11315
912.862	11311
912.976	11071
913.09	11037
913.204	11067
913.318	11128
913.431	11292
913.545	11269
913.659	11311
913.772	11124
913.886	11113
914	10987
914.113	11151
914.226	11170
914.34	11166
914.453	10927
914.566	11098
914.68	10946
914.793	10927
914.906	10793
915.019	10736
915.132	10755
915.245	10816
915.358	10805
915.47	10820
915.583	10774
915.696	10812
915.809	10946
915.921	10961
916.034	10755
916.146	10755
916.259	10660
916.371	10820
916.483	10835
916.595	10706
916.708	10634
916.82	10672
916.932	10641
917.044	10729
917.156	10710
917.268	10588
917.38	10634
917.491	10516
917.603	10569
917.715	10717
917.826	10729
917.938	10660
918.049	10527
918.161	10554
918.272	10668
918.384	10656
918.495	10577
918.606	10398
918.717	10390
918.828	10459
918.939	10489
919.05	10405
919.161	10508
919.272	10291
919.383	10287
919.494	10459
919.604	10634
919.715	10462
919.826	10409
919.936	10432
920.047	10596
920.157	10451
920.267	10805
920.378	10462
920.488	10474
920.598	10790
920.708	10809
920.818	10649
920.928	10694
921.038	10790
921.148	10831
921.258	10596
921.368	10402
921.477	10352
921.587	10398
921.697	10246
921.806	10413
921.916	10188
922.025	10105
922.134	9998
922.244	9960
922.353	10017
922.462	9926
922.571	9819
922.68	9781
922.789	9747
922.898	9732
923.007	9660
923.116	9770
923.224	9740
923.333	9778
923.442	9599
923.55	9622
923.659	9667
923.767	9709
923.876	9652
923.984	9622
924.092	9606
924.201	9591
924.309	9618
924.417	9595
924.525	9587
924.633	9572
924.741	10424
924.849	9355
924.956	9576
925.064	9363
925.172	9291
925.279	9416
925.387	9397
925.494	9428
925.602	9545
925.709	9443
925.816	9401
925.924	9382
926.031	9454
926.138	9416
926.245	9454
926.352	9294
926.459	9416
926.566	9477
926.673	9306
926.779	9275
926.886	9214
926.993	9165
927.099	9104
927.206	9005
927.312	9036
927.419	9138
927.525	9093
927.631	9138
927.737	9005
927.843	8944
927.95	8883
928.056	8925
928.162	9013
928.267	9028
928.373	9671
928.479	9085
928.585	8830
928.69	8986
928.796	8956
928.901	8883
929.007	8754
929.112	8971
929.218	8899
929.323	8880
929.428	8788
929.533	8925
929.638	8781
929.743	8800
929.848	8880
929.953	8842
930.058	8686
930.163	8556
930.267	8579
930.372	8693
930.477	8511
930.581	8769
930.685	8667
930.79	8465
930.894	8507
930.998	8438
931.103	8659
931.207	8332
931.311	8229
931.415	8142
931.519	7967
931.623	7955
