Data from test_V78500241_1008.txt Node
Date: Fri Mar 25 14:40:44 CST 2022
User: usil
Spectrometer: V785-0024
Trigger mode: 0
Integration Time (sec): 4.000000E-1
Scans to average: 1
Nonlinearity correction enabled: false
Boxcar width: 0
Storing dark spectrum: false
XAxis mode: Wavelengths
Number of Pixels in Spectrum: 1024
>>>>>Begin Spectral Data<<<<<
801.071	23044
801.214	22961
801.356	22786
801.499	22580
801.641	22500
801.783	22512
801.926	22588
802.068	22375
802.211	22253
802.353	22109
802.496	21960
802.638	22002
802.78	21835
802.923	21918
803.065	21812
803.208	21838
803.35	21857
803.492	21861
803.635	21991
803.777	21747
803.919	21804
804.061	22109
804.204	21899
804.346	21732
804.488	21694
804.63	21660
804.773	21713
804.915	21762
805.057	21728
805.199	21652
805.341	21713
805.483	21903
805.626	21778
805.768	21739
805.91	21663
806.052	21652
806.194	21732
806.336	22036
806.478	21766
806.62	21808
806.762	21827
806.904	22006
807.046	22257
807.188	22169
807.33	22139
807.472	22291
807.614	22135
807.756	22310
807.898	22185
808.04	22230
808.182	22303
808.324	22447
808.465	22615
808.607	22953
808.749	23159
808.891	23345
809.033	23402
809.174	23258
809.316	22980
809.458	22748
809.6	22698
809.741	22599
809.883	22538
810.025	22573
810.166	22611
810.308	22546
810.45	22497
810.591	22303
810.733	22124
810.875	22040
811.016	21953
811.158	21953
811.299	22128
811.441	22139
811.582	22070
811.724	22021
811.865	22029
812.007	21827
812.148	21857
812.29	21975
812.431	22173
812.573	22299
812.714	22367
812.855	22405
812.997	22519
813.138	22596
813.279	22523
813.421	22497
813.562	22493
813.703	22246
813.845	22131
813.986	21838
814.127	21507
814.268	21568
814.41	21561
814.551	21477
814.692	21443
814.833	21477
814.974	21340
815.115	21500
815.256	21260
815.397	21241
815.539	21397
815.68	21397
815.821	21161
815.962	21192
816.103	21165
816.244	21062
816.385	20986
816.526	21036
816.666	20804
816.807	20701
816.948	20693
817.089	20754
817.23	20686
817.371	20640
817.512	20807
817.653	20590
817.793	20583
817.934	20583
818.075	20644
818.216	20629
818.356	20613
818.497	20423
818.638	20374
818.778	20332
818.919	20336
819.06	20339
819.2	20412
819.341	20492
819.481	20571
819.622	20667
819.762	20743
819.903	20720
820.043	20587
820.184	20629
820.324	20621
820.465	20678
820.605	20602
820.746	20495
820.886	20488
821.026	20579
821.167	20488
821.307	20632
821.447	20526
821.588	20450
821.728	20377
821.868	20096
822.008	20031
822.149	19993
822.289	19940
822.429	19731
822.569	19731
822.709	19674
822.849	19457
822.99	19499
823.13	19571
823.27	19487
823.41	19293
823.55	19255
823.69	19316
823.83	19270
823.97	19255
824.11	19046
824.25	19095
824.389	19148
824.529	19107
824.669	19031
824.809	19274
824.949	19274
825.089	19129
825.228	19194
825.368	18962
825.508	18932
825.648	18875
825.787	18867
825.927	18970
826.067	18840
826.206	18890
826.346	18783
826.485	18935
826.625	18852
826.765	18913
826.904	18894
827.044	18566
827.183	18661
827.323	18414
827.462	18597
827.601	18509
827.741	18570
827.88	18555
828.02	18506
828.159	18563
828.298	18566
828.437	18623
828.577	18525
828.716	18650
828.855	18475
828.994	18338
829.134	18418
829.273	18365
829.412	18258
829.551	18232
829.69	18190
829.829	18308
829.968	18270
830.107	18342
830.246	18330
830.385	18346
830.524	18155
830.663	18186
830.802	18030
830.941	17889
831.08	17809
831.219	17866
831.357	18030
831.496	18159
831.635	17851
831.774	17809
831.913	17805
832.051	17714
832.19	17741
832.329	17718
832.467	17634
832.606	17589
832.744	17623
832.883	17573
833.022	17615
833.16	17756
833.299	17695
833.437	17657
833.576	17646
833.714	17680
833.852	17642
833.991	17748
834.129	17760
834.267	17874
834.406	17775
834.544	17718
834.682	17668
834.821	17668
834.959	17817
835.097	17474
835.235	17729
835.373	17623
835.511	17680
835.65	17570
835.788	17516
835.926	17452
836.064	17364
836.202	17356
836.34	17551
836.478	17604
836.615	17570
836.753	17642
836.891	17634
837.029	17547
837.167	17581
837.305	17440
837.443	17482
837.58	17220
837.718	17509
837.856	17330
837.993	17296
838.131	17368
838.269	17379
838.406	17398
838.544	17296
838.681	17086
838.819	17090
838.956	17010
839.094	16946
839.231	17003
839.369	17079
839.506	17288
839.643	17239
839.781	16915
839.918	16847
840.055	16968
840.193	16812
840.33	16869
840.467	16873
840.604	16908
840.742	17064
840.879	16736
841.016	16847
841.153	16790
841.29	16949
841.427	16991
841.564	16877
841.701	16900
841.838	16828
841.975	16797
842.112	16839
842.249	16801
842.385	16721
842.522	16812
842.659	16740
842.796	16713
842.933	16691
843.069	16725
843.206	16660
843.343	16702
843.479	16729
843.616	16694
843.752	16402
843.889	16508
844.025	16588
844.162	16424
844.298	16577
844.435	16462
844.571	16398
844.708	16558
844.844	16710
844.98	16634
845.117	16702
845.253	16565
845.389	16706
845.525	16729
845.661	17033
845.798	17178
845.934	17497
846.07	17589
846.206	17577
846.342	17448
846.478	16999
846.614	16535
846.75	16219
846.886	16249
847.022	16207
847.158	16116
847.294	16063
847.429	16082
847.565	15895
847.701	16265
847.837	15827
847.972	15797
848.108	15842
848.244	15899
848.379	15580
848.515	15637
848.65	15584
848.786	15614
848.921	15618
849.057	15720
849.192	15648
849.328	15656
849.463	15633
849.598	15610
849.734	15549
849.869	15443
850.004	15443
850.14	15344
850.275	15401
850.41	15363
850.545	15329
850.68	15329
850.815	15310
850.95	15420
851.085	15492
851.22	15504
851.355	15397
851.49	15325
851.625	15336
851.76	15287
851.895	15294
852.03	15203
852.165	15325
852.299	15382
852.434	15485
852.569	15393
852.703	15367
852.838	15431
852.973	15545
853.107	15599
853.242	15306
853.376	15237
853.511	15157
853.645	15233
853.78	15306
853.914	15287
854.048	15165
854.183	15245
854.317	15195
854.451	15405
854.585	15260
854.72	15268
854.854	15283
854.988	15154
855.122	15252
855.256	15146
855.39	15214
855.524	15272
855.658	15237
855.792	15203
855.926	15264
856.06	15184
856.194	15291
856.327	15207
856.461	15176
856.595	15230
856.729	15131
856.862	15351
856.996	15275
857.13	15298
857.263	15363
857.397	15355
857.53	15203
857.664	15313
857.797	15317
857.931	15340
858.064	15283
858.197	15329
858.331	15245
858.464	15192
858.597	15195
858.731	15112
858.864	15154
858.997	15188
859.13	15256
859.263	15294
859.396	15275
859.529	15294
859.662	15218
859.795	15211
859.928	15306
860.061	15272
860.194	15370
860.327	15237
860.46	15222
860.592	15374
860.725	15412
860.858	15325
860.99	15195
861.123	15081
861.256	15291
861.388	15214
861.521	15880
861.653	15058
861.786	15020
861.918	15001
862.05	15123
862.183	15074
862.315	15093
862.447	15226
862.58	15131
862.712	14967
862.844	14918
862.976	15146
863.108	15005
863.24	15397
863.372	14842
863.504	14971
863.636	15070
863.768	14960
863.9	15043
864.032	14918
864.164	14929
864.296	14834
864.428	15047
864.559	15165
864.691	15058
864.823	15097
864.954	15062
865.086	15074
865.217	14887
865.349	14899
865.48	14906
865.612	15001
865.743	15161
865.875	14990
866.006	14914
866.137	14941
866.269	15036
866.4	14906
866.531	14819
866.662	14975
866.793	14956
866.924	14925
867.055	14800
867.186	14914
867.317	14781
867.448	14872
867.579	14868
867.71	14914
867.841	14880
867.972	14990
868.103	14914
868.233	14937
868.364	14918
868.495	15017
868.625	15211
868.756	15256
868.886	15062
869.017	15135
869.147	15283
869.278	15374
869.408	15241
869.539	15081
869.669	15268
869.799	15245
869.929	15317
870.06	15252
870.19	15523
870.32	15511
870.45	15447
870.58	15580
870.71	15709
870.84	15698
870.97	15580
871.1	15485
871.23	15762
871.36	15736
871.489	15660
871.619	15781
871.749	15778
871.879	15827
872.008	15816
872.138	15774
872.267	15720
872.397	15717
872.526	15568
872.656	15587
872.785	15576
872.915	15827
873.044	15804
873.173	15865
873.303	15865
873.432	15846
873.561	15831
873.69	15785
873.819	15827
873.948	15941
874.077	15899
874.206	15736
874.335	15823
874.464	16029
874.593	16154
874.722	16055
874.851	16173
874.979	16109
875.108	16158
875.237	16143
875.365	16093
875.494	16158
875.623	16158
875.751	16128
875.88	16242
876.008	16284
876.136	16333
876.265	16546
876.393	16630
876.521	16584
876.65	16679
876.778	16580
876.906	16504
877.034	16546
877.162	16622
877.29	16538
877.418	16584
877.546	16550
877.674	16592
877.802	16679
877.93	16554
878.058	16565
878.185	16504
878.313	16645
878.441	16641
878.568	16516
878.696	16626
878.824	16778
878.951	16942
879.079	16938
879.206	17197
879.333	17223
879.461	17193
879.588	17410
879.715	17379
879.842	17414
879.97	17132
880.097	16961
880.224	16675
880.351	16752
880.478	16626
880.605	16588
880.732	16607
880.859	16694
880.986	16615
881.112	16626
881.239	16348
881.366	16348
881.493	16257
881.619	16246
881.746	16284
881.872	16246
881.999	16253
882.125	16101
882.252	16249
882.378	16150
882.505	16329
882.631	16139
882.757	16090
882.883	16150
883.01	16101
883.136	16006
883.262	15930
883.388	15884
883.514	16017
883.64	16105
883.766	15994
883.892	15857
884.018	15808
884.143	16067
884.269	16226
884.395	15804
884.52	15682
884.646	15739
884.772	15648
884.897	15701
885.023	15732
885.148	15842
885.274	15937
885.399	15835
885.524	15686
885.65	15751
885.775	15778
885.9	15736
886.025	15747
886.15	15728
886.275	15701
886.4	15580
886.525	15614
886.65	15576
886.775	15641
886.9	15743
887.025	15846
887.149	15587
887.274	15443
887.399	15530
887.523	15473
887.648	15344
887.773	15241
887.897	15496
888.021	15462
888.146	15435
888.27	15507
888.395	15591
888.519	15435
888.643	15473
888.767	15481
888.891	15344
889.015	15275
889.139	15287
889.263	15287
889.387	15393
889.511	15462
889.635	15351
889.759	15272
889.883	15260
890.006	15405
890.13	15367
890.254	15146
890.377	15119
890.501	14998
890.624	15005
890.748	15047
890.871	15032
890.995	14887
891.118	14902
891.241	14895
891.364	14929
891.488	15058
891.611	14853
891.734	14876
891.857	14967
891.98	14967
892.103	15089
892.226	14975
892.349	14967
892.471	14735
892.594	14830
892.717	14853
892.839	14925
892.962	14990
893.085	15047
893.207	14918
893.33	14765
893.452	14891
893.575	14941
893.697	14883
893.819	15062
893.941	15020
894.064	15112
894.186	14804
894.308	14830
894.43	14982
894.552	15112
894.674	15097
894.796	14933
894.918	14864
895.04	14902
895.161	15055
895.283	14910
895.405	14944
895.526	14937
895.648	14982
895.769	15039
895.891	15051
896.012	15085
896.134	15039
896.255	15047
896.376	15051
896.498	15051
896.619	15081
896.74	15039
896.861	15097
896.982	15515
897.103	15515
897.224	15412
897.345	15321
897.466	15226
897.587	15294
897.708	15386
897.828	15325
897.949	15321
898.07	15157
898.19	15226
898.311	15507
898.431	15397
898.552	15313
898.672	15393
898.792	15393
898.913	15355
899.033	15306
899.153	15176
899.273	15043
899.393	15157
899.513	15306
899.633	15214
899.753	15359
899.873	15195
899.993	15272
900.113	15283
900.232	15378
900.352	15199
900.472	15150
900.591	15047
900.711	15070
900.83	15169
900.95	15146
901.069	15211
901.189	15058
901.308	14785
901.427	14743
901.546	14735
901.665	14826
901.784	14788
901.904	14606
902.023	14594
902.141	14423
902.26	14336
902.379	14343
902.498	14332
902.617	14229
902.735	14355
902.854	14313
902.973	14256
903.091	14016
903.21	14058
903.328	13909
903.446	13986
903.565	13830
903.683	13936
903.801	13856
903.919	13769
904.038	13769
904.156	13666
904.274	13750
904.392	13681
904.51	13696
904.627	13723
904.745	13666
904.863	13662
904.981	13419
905.098	13415
905.216	13285
905.334	13422
905.451	13362
905.569	13278
905.686	13350
905.803	13297
905.921	13103
906.038	13278
906.155	13122
906.272	13076
906.389	13107
906.506	12924
906.623	12913
906.74	12932
906.857	12798
906.974	12757
907.091	12962
907.208	12993
907.324	12951
907.441	12913
907.557	12635
907.674	12692
907.79	12555
907.907	12688
908.023	12669
908.139	12570
908.256	12646
908.372	12498
908.488	12509
908.604	12418
908.72	12452
908.836	12403
908.952	12384
909.068	12407
909.184	12490
909.3	12471
909.415	12460
909.531	12441
909.647	12167
909.762	12216
909.878	12129
909.993	12171
910.108	12228
910.224	12098
910.339	12163
910.454	12072
910.57	11969
910.685	11946
910.8	12213
910.915	12133
911.03	12072
911.145	11794
911.259	11836
911.374	11840
911.489	11771
911.604	11691
911.718	11642
911.833	11653
911.947	11414
912.062	11425
912.176	11589
912.291	11490
912.405	11520
912.519	11805
912.633	11741
912.748	11585
912.862	11615
912.976	11440
913.09	11353
913.204	11368
913.318	11471
913.431	11562
913.545	11570
913.659	11638
913.772	11433
913.886	11379
914	11250
914.113	11356
914.226	11448
914.34	11391
914.453	11315
914.566	11471
914.68	11254
914.793	11265
914.906	11143
915.019	11109
915.132	11022
915.245	11037
915.358	11124
915.47	11132
915.583	11075
915.696	11079
915.809	11227
915.921	11239
916.034	11033
916.146	11003
916.259	11006
916.371	11102
916.483	11109
916.595	10938
916.708	10980
916.82	11022
916.932	10987
917.044	10919
917.156	10972
917.268	10831
917.38	10854
917.491	10839
917.603	10786
917.715	11037
917.826	10946
917.938	10858
918.049	10755
918.161	10885
918.272	10961
918.384	10957
918.495	10843
918.606	10763
918.717	10668
918.828	10729
918.939	10816
919.05	10656
919.161	10744
919.272	10565
919.383	10554
919.494	10816
919.604	10900
919.715	10691
919.826	10672
919.936	10714
920.047	10850
920.157	10771
920.267	10961
920.378	10793
920.488	10656
920.598	10908
920.708	11090
920.818	10854
920.928	10953
921.038	11006
921.148	11064
921.258	10820
921.368	10736
921.477	10618
921.587	10535
921.697	10474
921.806	10641
921.916	10421
922.025	10348
922.134	10238
922.244	10284
922.353	10306
922.462	10185
922.571	10090
922.68	9945
922.789	9907
922.898	9968
923.007	9934
923.116	9968
923.224	10025
923.333	9994
923.442	9922
923.55	9869
923.659	9869
923.767	9876
923.876	9808
923.984	9930
924.092	9747
924.201	9808
924.309	9793
924.417	9774
924.525	9747
924.633	9842
924.741	10763
924.849	9587
924.956	9728
925.064	9618
925.172	9500
925.279	9545
925.387	9561
925.494	9606
925.602	9698
925.709	9671
925.816	9515
925.924	9580
926.031	9682
926.138	9614
926.245	9591
926.352	9454
926.459	9618
926.566	9660
926.673	9580
926.779	9416
926.886	9466
926.993	9332
927.099	9233
927.206	9317
927.312	9207
927.419	9325
927.525	9287
927.631	9340
927.737	9211
927.843	9157
927.95	9085
928.056	9150
928.162	9218
928.267	9203
928.373	9694
928.479	9310
928.585	9005
928.69	9169
928.796	9245
928.901	9116
929.007	9009
929.112	9116
929.218	9070
929.323	9020
929.428	9032
929.533	9173
929.638	8937
929.743	8906
929.848	9017
929.953	9001
930.058	8891
930.163	8762
930.267	8819
930.372	8933
930.477	8724
930.581	8941
930.685	8857
930.79	8655
930.894	8697
930.998	8594
931.103	8819
931.207	8518
931.311	8465
931.415	8343
931.519	8145
931.623	8103
