Data from test_V78500241_402.txt Node
Date: Fri Mar 25 14:36:31 CST 2022
User: usil
Spectrometer: V785-0024
Trigger mode: 0
Integration Time (sec): 4.000000E-1
Scans to average: 1
Nonlinearity correction enabled: false
Boxcar width: 0
Storing dark spectrum: false
XAxis mode: Wavelengths
Number of Pixels in Spectrum: 1024
>>>>>Begin Spectral Data<<<<<
801.071	26750
801.214	26632
801.356	26176
801.499	26263
801.641	26275
801.783	26172
801.926	26149
802.068	26073
802.211	25917
802.353	25955
802.496	25856
802.638	25761
802.78	25799
802.923	25590
803.065	25502
803.208	25628
803.35	25609
803.492	25803
803.635	25757
803.777	25609
803.919	25780
804.061	25993
804.204	25738
804.346	25586
804.488	25552
804.63	25499
804.773	25327
804.915	25544
805.057	25765
805.199	25609
805.341	25734
805.483	25738
805.626	25712
805.768	25639
805.91	25750
806.052	25677
806.194	25765
806.336	25887
806.478	25677
806.62	25674
806.762	25734
806.904	25978
807.046	26142
807.188	26081
807.33	26046
807.472	26012
807.614	26088
807.756	25974
807.898	25845
808.04	25788
808.182	25818
808.324	25902
808.465	25791
808.607	25978
808.749	26256
808.891	26339
809.033	26366
809.174	26358
809.316	26187
809.458	26081
809.6	26187
809.741	26115
809.883	26214
810.025	26282
810.166	26229
810.308	26332
810.45	26214
810.591	26301
810.733	26081
810.875	26168
811.016	25982
811.158	25970
811.299	26100
811.441	26176
811.582	26088
811.724	25947
811.865	25925
812.007	26092
812.148	26035
812.29	26043
812.431	26077
812.573	26183
812.714	26324
812.855	26530
812.997	26511
813.138	26815
813.279	26705
813.421	26465
813.562	26412
813.703	26172
813.845	26149
813.986	25788
814.127	25772
814.268	25563
814.41	25696
814.551	25521
814.692	25700
814.833	25693
814.974	25613
815.115	25666
815.256	25514
815.397	25506
815.539	25259
815.68	25426
815.821	25190
815.962	25369
816.103	25221
816.244	25221
816.385	25099
816.526	24932
816.666	24783
816.807	24738
816.948	24776
817.089	24779
817.23	24802
817.371	24703
817.512	24582
817.653	24719
817.793	24604
817.934	24639
818.075	24798
818.216	24715
818.356	24707
818.497	24528
818.638	24330
818.778	24433
818.919	24410
819.06	24422
819.2	24505
819.341	24612
819.481	24551
819.622	24635
819.762	24935
819.903	24802
820.043	24719
820.184	24738
820.324	24700
820.465	24783
820.605	24715
820.746	24631
820.886	24593
821.026	24627
821.167	24498
821.307	24692
821.447	24623
821.588	24327
821.728	24315
821.868	24258
822.008	23996
822.149	23973
822.289	24018
822.429	23691
822.569	23634
822.709	23794
822.849	23585
822.99	23493
823.13	23326
823.27	23391
823.41	23337
823.55	23121
823.69	23200
823.83	23227
823.97	23060
824.11	23048
824.25	23048
824.389	23037
824.529	23258
824.669	23136
824.809	23044
824.949	23200
825.089	23029
825.228	23140
825.368	22850
825.508	22949
825.648	22915
825.787	22820
825.927	22889
826.067	22660
826.206	22801
826.346	22812
826.485	22809
826.625	22843
826.765	22961
826.904	22869
827.044	22554
827.183	22626
827.323	22325
827.462	22504
827.601	22413
827.741	22474
827.88	22626
828.02	22375
828.159	22523
828.298	22478
828.437	22470
828.577	22459
828.716	22493
828.855	22440
828.994	22154
829.134	22173
829.273	22249
829.412	22162
829.551	22135
829.69	22204
829.829	22238
829.968	22154
830.107	22177
830.246	22265
830.385	22044
830.524	21960
830.663	21945
830.802	21922
830.941	21819
831.08	21804
831.219	21808
831.357	21835
831.496	22097
831.635	21747
831.774	21641
831.913	21797
832.051	21564
832.19	21591
832.329	21583
832.467	21557
832.606	21397
832.744	21401
832.883	21348
833.022	21443
833.16	21435
833.299	21523
833.437	21469
833.576	21370
833.714	21500
833.852	21542
833.991	21492
834.129	21515
834.267	21519
834.406	21420
834.544	21439
834.682	21477
834.821	21462
834.959	21519
835.097	21374
835.235	21443
835.373	21428
835.511	21329
835.65	21298
835.788	21340
835.926	21116
836.064	21013
836.202	21070
836.34	21294
836.478	21454
836.615	21233
836.753	21249
836.891	21325
837.029	21329
837.167	21119
837.305	21142
837.443	21291
837.58	21100
837.718	21237
837.856	21123
837.993	21123
838.131	21135
838.269	20979
838.406	21085
838.544	20910
838.681	20838
838.819	20785
838.956	20701
839.094	20621
839.231	20598
839.369	20731
839.506	20880
839.643	20807
839.781	20625
839.918	20492
840.055	20522
840.193	20385
840.33	20503
840.467	20415
840.604	20579
840.742	20769
840.879	20393
841.016	20492
841.153	20374
841.29	20617
841.427	20556
841.564	20530
841.701	20492
841.838	20423
841.975	20396
842.112	20355
842.249	20191
842.385	20202
842.522	20442
842.659	20237
842.796	20214
842.933	20221
843.069	20183
843.206	20180
843.343	20229
843.479	20176
843.616	20119
843.752	19967
843.889	19959
844.025	20100
844.162	19856
844.298	20020
844.435	19940
844.571	19913
844.708	19875
844.844	20267
844.98	20115
845.117	20115
845.253	19902
845.389	19830
845.525	19925
845.661	19769
845.798	19719
845.934	19791
846.07	19734
846.206	19826
846.342	19890
846.478	19616
846.614	19457
846.75	19457
846.886	19419
847.022	19552
847.158	19438
847.294	19445
847.429	19324
847.565	19346
847.701	19685
847.837	19228
847.972	19187
848.108	19202
848.244	19198
848.379	19034
848.515	18989
848.65	18977
848.786	18943
848.921	19057
849.057	19171
849.192	19061
849.328	19084
849.463	18943
849.598	18973
849.734	18970
849.869	18928
850.004	18810
850.14	18791
850.275	18719
850.41	18669
850.545	18681
850.68	18692
850.815	18673
850.95	18719
851.085	18745
851.22	18768
851.355	18722
851.49	18734
851.625	18684
851.76	18707
851.895	18604
852.03	18700
852.165	18779
852.299	18715
852.434	18802
852.569	18764
852.703	18745
852.838	18764
852.973	18867
853.107	18821
853.242	18604
853.376	18555
853.511	18441
853.645	18490
853.78	18741
853.914	18528
854.048	18464
854.183	18582
854.317	18410
854.451	18677
854.585	18391
854.72	18502
854.854	18570
854.988	18475
855.122	18517
855.256	18445
855.39	18490
855.524	18490
855.658	18547
855.792	18635
855.926	18597
856.06	18559
856.194	18585
856.327	18483
856.461	18475
856.595	18407
856.729	18357
856.862	18517
856.996	18502
857.13	18532
857.263	18585
857.397	18544
857.53	18448
857.664	18399
857.797	18559
857.931	18677
858.064	18437
858.197	18673
858.331	18536
858.464	18429
858.597	18327
858.731	18448
858.864	18426
858.997	18353
859.13	18517
859.263	18467
859.396	18715
859.529	18540
859.662	18456
859.795	18361
859.928	18437
860.061	18574
860.194	18681
860.327	18483
860.46	18384
860.592	18506
860.725	18593
860.858	18494
860.99	18429
861.123	18353
861.256	18414
861.388	18498
861.521	19285
861.653	18300
861.786	18235
861.918	18338
862.05	18448
862.183	18525
862.315	18578
862.447	18612
862.58	18429
862.712	18327
862.844	18197
862.976	18167
863.108	18304
863.24	18544
863.372	18034
863.504	18083
863.636	18194
863.768	18167
863.9	18190
864.032	18110
864.164	18087
864.296	18220
864.428	18205
864.559	18262
864.691	18338
864.823	18220
864.954	18209
865.086	18285
865.217	18152
865.349	17961
865.48	18159
865.612	18098
865.743	18220
865.875	18266
866.006	18190
866.137	18121
866.269	18026
866.4	18178
866.531	18072
866.662	18049
866.793	18007
866.924	18072
867.055	18072
867.186	18095
867.317	17954
867.448	18049
867.579	18114
867.71	17973
867.841	18019
867.972	18155
868.103	17999
868.233	17946
868.364	17969
868.495	18129
868.625	18296
868.756	18239
868.886	18209
869.017	18251
869.147	18296
869.278	18353
869.408	18353
869.539	18395
869.669	18365
869.799	18273
869.929	18403
870.06	18300
870.19	18578
870.32	18559
870.45	18616
870.58	18585
870.71	18779
870.84	18863
870.97	18627
871.1	18753
871.23	18886
871.36	18852
871.489	18779
871.619	18798
871.749	18810
871.879	18928
872.008	19091
872.138	18802
872.267	18939
872.397	18726
872.526	18707
872.656	18757
872.785	18677
872.915	18970
873.044	18996
873.173	18970
873.303	18954
873.432	18981
873.561	19034
873.69	19012
873.819	18890
873.948	18947
874.077	18924
874.206	18932
874.335	18825
874.464	18977
874.593	19187
874.722	19118
874.851	19225
874.979	19221
875.108	19213
875.237	19217
875.365	19148
875.494	19099
875.623	19244
875.751	19232
875.88	19247
876.008	19236
876.136	19403
876.265	19582
876.393	19753
876.521	19681
876.65	19700
876.778	19643
876.906	19449
877.034	19472
877.162	19514
877.29	19453
877.418	19510
877.546	19548
877.674	19464
877.802	19639
877.93	19445
878.058	19609
878.185	19430
878.313	19499
878.441	19559
878.568	19415
878.696	19525
878.824	19609
878.951	19643
879.079	19715
879.206	19894
879.333	19818
879.461	19575
879.588	19651
879.715	19696
879.842	19818
879.97	19628
880.097	19483
880.224	19392
880.351	19434
880.478	19434
880.605	19521
880.732	19346
880.859	19700
880.986	19392
881.112	19441
881.239	19426
881.366	19141
881.493	19152
881.619	19034
881.746	19080
881.872	19061
881.999	18996
882.125	19061
882.252	18962
882.378	19046
882.505	19168
882.631	18939
882.757	18863
882.883	18947
883.01	18875
883.136	18837
883.262	18700
883.388	18585
883.514	18935
883.64	18954
883.766	18726
883.892	18669
884.018	18642
884.143	18776
884.269	18882
884.395	18585
884.52	18528
884.646	18452
884.772	18414
884.897	18483
885.023	18448
885.148	18745
885.274	18566
885.399	18540
885.524	18384
885.65	18521
885.775	18448
885.9	18410
886.025	18642
886.15	18483
886.275	18464
886.4	18361
886.525	18395
886.65	18452
886.775	18338
886.9	18555
887.025	18677
887.149	18414
887.274	18277
887.399	18133
887.523	18163
887.648	18300
887.773	18125
887.897	18327
888.021	18289
888.146	18163
888.27	18369
888.395	18365
888.519	18361
888.643	18258
888.767	18327
888.891	18133
889.015	17996
889.139	18117
889.263	17939
889.387	18106
889.511	18201
889.635	18174
889.759	17992
889.883	18053
890.006	18064
890.13	18190
890.254	17889
890.377	17977
890.501	17699
890.624	17783
890.748	17859
890.871	17646
890.995	17691
891.118	17665
891.241	17665
891.364	17630
891.488	17779
891.611	17714
891.734	17672
891.857	17570
891.98	17532
892.103	17642
892.226	17722
892.349	17668
892.471	17497
892.594	17638
892.717	17665
892.839	17528
892.962	17638
893.085	17687
893.207	17630
893.33	17516
893.452	17444
893.575	17707
893.697	17573
893.819	17779
893.941	17783
894.064	17737
894.186	17592
894.308	17532
894.43	17707
894.552	17805
894.674	17695
894.796	17436
894.918	17615
895.04	17611
895.161	17722
895.283	17638
895.405	17493
895.526	17710
895.648	17554
895.769	17657
895.891	17630
896.012	17707
896.134	17630
896.255	17741
896.376	17581
896.498	17733
896.619	17794
896.74	17764
896.861	17840
896.982	18022
897.103	18133
897.224	18049
897.345	17893
897.466	17935
897.587	17958
897.708	18110
897.828	17954
897.949	17897
898.07	17798
898.19	17950
898.311	17908
898.431	17866
898.552	18011
898.672	17992
898.792	17961
898.913	18003
899.033	17817
899.153	17805
899.273	17646
899.393	17573
899.513	17733
899.633	17661
899.753	17794
899.873	17554
899.993	17718
900.113	17668
900.232	17729
900.352	17634
900.472	17611
900.591	17524
900.711	17691
900.83	17474
900.95	17547
901.069	17562
901.189	17535
901.308	17212
901.427	17098
901.546	17155
901.665	17155
901.784	17231
901.904	16972
902.023	17014
902.141	16729
902.26	16611
902.379	16725
902.498	16603
902.617	16637
902.735	16649
902.854	16558
902.973	16565
903.091	16379
903.21	16413
903.328	16329
903.446	16329
903.565	16185
903.683	16116
903.801	16158
903.919	16211
904.038	16234
904.156	16017
904.274	16048
904.392	15975
904.51	16010
904.627	16010
904.745	15956
904.863	15922
904.981	15789
905.098	15549
905.216	15625
905.334	15641
905.451	15587
905.569	15644
905.686	15686
905.803	15591
905.921	15332
906.038	15511
906.155	15363
906.272	15203
906.389	15420
906.506	15218
906.623	15218
906.74	15211
906.857	15116
906.974	15017
907.091	15195
907.208	15233
907.324	15245
907.441	15104
907.557	14967
907.674	14880
907.79	14773
907.907	14823
908.023	15009
908.139	14895
908.256	14826
908.372	14716
908.488	14788
908.604	14579
908.72	14708
908.836	14545
908.952	14511
909.068	14526
909.184	14549
909.3	14594
909.415	14655
909.531	14583
909.647	14358
909.762	14286
909.878	14244
909.993	14370
910.108	14309
910.224	14358
910.339	14362
910.454	14077
910.57	14081
910.685	14115
910.8	14286
910.915	14286
911.03	14183
911.145	13970
911.259	13967
911.374	13955
911.489	13784
911.604	13837
911.718	13681
911.833	13715
911.947	13571
912.062	13537
912.176	13776
912.291	13578
912.405	13556
912.519	13799
912.633	13887
912.748	13746
912.862	13670
912.976	13525
913.09	13449
913.204	13476
913.318	13491
913.431	13605
913.545	13548
913.659	13616
913.772	13426
913.886	13293
914	13331
914.113	13438
914.226	13464
914.34	13388
914.453	13350
914.566	13388
914.68	13308
914.793	13274
914.906	13145
915.019	12947
915.132	13027
915.245	13034
915.358	13072
915.47	13069
915.583	12989
915.696	13069
915.809	13183
915.921	13221
916.034	12981
916.146	12928
916.259	12886
916.371	13038
916.483	13057
916.595	12901
916.708	12909
916.82	12916
916.932	12852
917.044	12863
917.156	12806
917.268	12764
917.38	12738
917.491	12741
917.603	12764
917.715	12837
917.826	12947
917.938	12604
918.049	12662
918.161	12726
918.272	12859
918.384	12821
918.495	12798
918.606	12597
918.717	12570
918.828	12559
918.939	12639
919.05	12426
919.161	12532
919.272	12380
919.383	12410
919.494	12551
919.604	12768
919.715	12566
919.826	12403
919.936	12388
920.047	12521
920.157	12555
920.267	12707
920.378	12604
920.488	12513
920.598	12696
920.708	12791
920.818	12650
920.928	12658
921.038	12814
921.148	12738
921.258	12502
921.368	12448
921.477	12380
921.587	12209
921.697	12220
921.806	12171
921.916	12163
922.025	12038
922.134	11916
922.244	11935
922.353	11927
922.462	11832
922.571	11851
922.68	11668
922.789	11611
922.898	11646
923.007	11630
923.116	11668
923.224	11570
923.333	11649
923.442	11440
923.55	11478
923.659	11463
923.767	11520
923.876	11364
923.984	11592
924.092	11349
924.201	11512
924.309	11421
924.417	11406
924.525	11277
924.633	11387
924.741	12251
924.849	11178
924.956	11311
925.064	11117
925.172	11132
925.279	11181
925.387	11178
925.494	11227
925.602	11364
925.709	11254
925.816	11037
925.924	11273
926.031	11201
926.138	11143
926.245	11170
926.352	11113
926.459	11143
926.566	11280
926.673	10984
926.779	10949
926.886	10942
926.993	10820
927.099	10778
927.206	10675
927.312	10717
927.419	10831
927.525	10812
927.631	10847
927.737	10641
927.843	10596
927.95	10561
928.056	10596
928.162	10698
928.267	10664
928.373	11246
928.479	10729
928.585	10447
928.69	10645
928.796	10531
928.901	10485
929.007	10409
929.112	10519
929.218	10474
929.323	10447
929.428	10306
929.533	10565
929.638	10341
929.743	10314
929.848	10386
929.953	10386
930.058	10249
930.163	10093
930.267	10128
930.372	10192
930.477	10093
930.581	10318
930.685	10207
930.79	10078
930.894	10025
930.998	9964
931.103	10154
931.207	9743
931.311	9720
931.415	9595
931.519	9386
931.623	9435
