Data from test_V78500241_1629.txt Node
Date: Fri Mar 25 14:45:03 CST 2022
User: usil
Spectrometer: V785-0024
Trigger mode: 0
Integration Time (sec): 4.000000E-1
Scans to average: 1
Nonlinearity correction enabled: false
Boxcar width: 0
Storing dark spectrum: false
XAxis mode: Wavelengths
Number of Pixels in Spectrum: 1024
>>>>>Begin Spectral Data<<<<<
801.071	22409
801.214	22261
801.356	22025
801.499	21785
801.641	21713
801.783	21606
801.926	21751
802.068	21561
802.211	21629
802.353	21511
802.496	21252
802.638	21192
802.78	21150
802.923	21135
803.065	21028
803.208	20975
803.35	21039
803.492	21184
803.635	21245
803.777	21047
803.919	21066
804.061	21393
804.204	21013
804.346	21020
804.488	20891
804.63	21028
804.773	20861
804.915	21036
805.057	20998
805.199	20861
805.341	21077
805.483	21081
805.626	21036
805.768	20849
805.91	20910
806.052	20998
806.194	20906
806.336	21089
806.478	20994
806.62	20944
806.762	21020
806.904	21127
807.046	21291
807.188	21317
807.33	21435
807.472	21378
807.614	21226
807.756	21241
807.898	21055
808.04	21157
808.182	21020
808.324	21089
808.465	21074
808.607	21393
808.749	21538
808.891	21625
809.033	21603
809.174	21542
809.316	21408
809.458	21310
809.6	21363
809.741	21401
809.883	21583
810.025	21534
810.166	21526
810.308	21587
810.45	21542
810.591	21336
810.733	21264
810.875	21245
811.016	21119
811.158	20887
811.299	21184
811.441	21165
811.582	21291
811.724	21180
811.865	20967
812.007	21093
812.148	21119
812.29	21157
812.431	21317
812.573	21336
812.714	21610
812.855	21667
812.997	21629
813.138	21842
813.279	21724
813.421	21671
813.562	21572
813.703	21523
813.845	21439
813.986	20990
814.127	20823
814.268	20800
814.41	20651
814.551	20651
814.692	20785
814.833	20644
814.974	20735
815.115	20583
815.256	20434
815.397	20461
815.539	20499
815.68	20389
815.821	20366
815.962	20438
816.103	20324
816.244	20278
816.385	20172
816.526	20001
816.666	20008
816.807	19822
816.948	19902
817.089	19936
817.23	19856
817.371	19780
817.512	19788
817.653	19868
817.793	19655
817.934	19708
818.075	19693
818.216	19833
818.356	19712
818.497	19495
818.638	19449
818.778	19525
818.919	19460
819.06	19529
819.2	19559
819.341	19643
819.481	19643
819.622	19833
819.762	20050
819.903	19967
820.043	19837
820.184	19719
820.324	19753
820.465	19902
820.605	19864
820.746	19814
820.886	19647
821.026	19750
821.167	19681
821.307	19822
821.447	19746
821.588	19567
821.728	19457
821.868	19369
822.008	19194
822.149	19274
822.289	19133
822.429	19034
822.569	18760
822.709	18924
822.849	18669
822.99	18661
823.13	18749
823.27	18661
823.41	18456
823.55	18399
823.69	18486
823.83	18460
823.97	18433
824.11	18220
824.25	18182
824.389	18140
824.529	18357
824.669	18235
824.809	18323
824.949	18304
825.089	18308
825.228	18209
825.368	18148
825.508	18034
825.648	18045
825.787	18167
825.927	18038
826.067	18011
826.206	17920
826.346	18022
826.485	17980
826.625	18007
826.765	18201
826.904	18003
827.044	17771
827.183	17821
827.323	17596
827.462	17741
827.601	17767
827.741	17687
827.88	17764
828.02	17482
828.159	17691
828.298	17775
828.437	17745
828.577	17729
828.716	17684
828.855	17733
828.994	17509
829.134	17554
829.273	17600
829.412	17349
829.551	17379
829.69	17505
829.829	17512
829.968	17482
830.107	17562
830.246	17368
830.385	17254
830.524	17395
830.663	17417
830.802	17193
830.941	17045
831.08	17033
831.219	17280
831.357	17132
831.496	17315
831.635	17014
831.774	16961
831.913	17029
832.051	16816
832.19	16869
832.329	16881
832.467	16862
832.606	16816
832.744	16736
832.883	16698
833.022	16771
833.16	16702
833.299	16759
833.437	16797
833.576	16717
833.714	16763
833.852	16946
833.991	16828
834.129	16881
834.267	16904
834.406	16889
834.544	16835
834.682	16831
834.821	16763
834.959	16946
835.097	16752
835.235	16786
835.373	16824
835.511	16824
835.65	16729
835.788	16637
835.926	16592
836.064	16497
836.202	16504
836.34	16691
836.478	16847
836.615	16706
836.753	16820
836.891	16915
837.029	16721
837.167	16653
837.305	16603
837.443	16649
837.58	16588
837.718	16599
837.856	16599
837.993	16531
838.131	16558
838.269	16611
838.406	16455
838.544	16462
838.681	16284
838.819	16234
838.956	16055
839.094	16135
839.231	16105
839.369	16322
839.506	16485
839.643	16371
839.781	16147
839.918	16063
840.055	16109
840.193	16093
840.33	16086
840.467	16181
840.604	16105
840.742	16466
840.879	15998
841.016	15876
841.153	16040
841.29	16204
841.427	16185
841.564	16105
841.701	16192
841.838	16166
841.975	16017
842.112	16105
842.249	15922
842.385	15873
842.522	16040
842.659	15873
842.796	15865
842.933	15983
843.069	15842
843.206	15873
843.343	15983
843.479	15895
843.616	15979
843.752	15606
843.889	15667
844.025	15865
844.162	15591
844.298	15743
844.435	15720
844.571	15622
844.708	15705
844.844	15823
844.98	15838
845.117	15800
845.253	15545
845.389	15530
845.525	15682
845.661	15694
845.798	15530
845.934	15606
846.07	15545
846.206	15511
846.342	15747
846.478	15466
846.614	15408
846.75	15154
846.886	15233
847.022	15374
847.158	15348
847.294	15313
847.429	15321
847.565	15207
847.701	15416
847.837	15009
847.972	15047
848.108	15070
848.244	15180
848.379	14834
848.515	14872
848.65	14861
848.786	14872
848.921	14804
849.057	14921
849.192	15001
849.328	14914
849.463	14754
849.598	14842
849.734	14762
849.869	14785
850.004	14602
850.14	14682
850.275	14697
850.41	14488
850.545	14594
850.68	14587
850.815	14689
850.95	14621
851.085	14720
851.22	14720
851.355	14640
851.49	14564
851.625	14670
851.76	14564
851.895	14503
852.03	14469
852.165	14511
852.299	14583
852.434	14636
852.569	14689
852.703	14640
852.838	14693
852.973	14792
853.107	14663
853.242	14579
853.376	14503
853.511	14332
853.645	14377
853.78	14495
853.914	14465
854.048	14362
854.183	14431
854.317	14423
854.451	14602
854.585	14488
854.72	14415
854.854	14484
854.988	14298
855.122	14393
855.256	14298
855.39	14438
855.524	14606
855.658	14507
855.792	14499
855.926	14571
856.06	14629
856.194	14533
856.327	14427
856.461	14358
856.595	14389
856.729	14461
856.862	14587
856.996	14522
857.13	14446
857.263	14587
857.397	14613
857.53	14495
857.664	14552
857.797	14590
857.931	14587
858.064	14590
858.197	14545
858.331	14507
858.464	14454
858.597	14370
858.731	14465
858.864	14393
858.997	14381
859.13	14545
859.263	14499
859.396	14541
859.529	14415
859.662	14457
859.795	14351
859.928	14514
860.061	14644
860.194	14606
860.327	14499
860.46	14389
860.592	14530
860.725	14610
860.858	14533
860.99	14446
861.123	14278
861.256	14434
861.388	14442
861.521	15230
861.653	14473
861.786	14301
861.918	14252
862.05	14415
862.183	14438
862.315	14412
862.447	14575
862.58	14473
862.712	14237
862.844	14210
862.976	14339
863.108	14377
863.24	14655
863.372	14210
863.504	14157
863.636	14180
863.768	14229
863.9	14191
864.032	14233
864.164	14221
864.296	14324
864.428	14248
864.559	14248
864.691	14309
864.823	14343
864.954	14305
865.086	14210
865.217	14309
865.349	14187
865.48	14145
865.612	14233
865.743	14480
865.875	14210
866.006	14267
866.137	14210
866.269	14210
866.4	14225
866.531	14180
866.662	14142
866.793	14183
866.924	14183
867.055	14309
867.186	14237
867.317	14115
867.448	14183
867.579	14130
867.71	14168
867.841	14081
867.972	14187
868.103	14267
868.233	14286
868.364	14252
868.495	14336
868.625	14454
868.756	14530
868.886	14377
869.017	14461
869.147	14526
869.278	14587
869.408	14533
869.539	14461
869.669	14537
869.799	14419
869.929	14674
870.06	14606
870.19	14834
870.32	14765
870.45	14861
870.58	14914
870.71	14975
870.84	14933
870.97	14826
871.1	15005
871.23	15100
871.36	15116
871.489	14979
871.619	15001
871.749	15127
871.879	15135
872.008	15169
872.138	15093
872.267	15097
872.397	15036
872.526	14849
872.656	14834
872.785	14963
872.915	15131
873.044	15176
873.173	15146
873.303	15169
873.432	15180
873.561	15317
873.69	15195
873.819	15154
873.948	15233
874.077	15013
874.206	15157
874.335	15089
874.464	15287
874.593	15348
874.722	15310
874.851	15439
874.979	15507
875.108	15526
875.237	15408
875.365	15340
875.494	15412
875.623	15443
875.751	15363
875.88	15488
876.008	15614
876.136	15633
876.265	15819
876.393	15934
876.521	15911
876.65	16006
876.778	15915
876.906	15895
877.034	15762
877.162	15812
877.29	15838
877.418	15865
877.546	15892
877.674	15873
877.802	15823
877.93	15785
878.058	15819
878.185	15633
878.313	15819
878.441	15827
878.568	15766
878.696	15755
878.824	15850
878.951	15960
879.079	16071
879.206	16185
879.333	15979
879.461	15911
879.588	15915
879.715	15934
879.842	16139
879.97	15972
880.097	15656
880.224	15717
880.351	15831
880.478	15766
880.605	15713
880.732	15682
880.859	15956
880.986	15720
881.112	15720
881.239	15675
881.366	15420
881.493	15557
881.619	15408
881.746	15374
881.872	15386
881.999	15291
882.125	15336
882.252	15450
882.378	15336
882.505	15595
882.631	15336
882.757	15188
882.883	15184
883.01	15142
883.136	15165
883.262	14994
883.388	14937
883.514	15199
883.64	15241
883.766	15165
883.892	14944
884.018	14994
884.143	15146
884.269	15252
884.395	14967
884.52	14887
884.646	14895
884.772	14708
884.897	14788
885.023	14899
885.148	15058
885.274	15089
885.399	15017
885.524	14891
885.65	14948
885.775	14792
885.9	14864
886.025	14941
886.15	14941
886.275	14853
886.4	14754
886.525	14823
886.65	14815
886.775	14788
886.9	14891
887.025	15123
887.149	14937
887.274	14781
887.399	14648
887.523	14670
887.648	14701
887.773	14708
887.897	14849
888.021	14739
888.146	14670
888.27	14830
888.395	14762
888.519	14746
888.643	14750
888.767	14746
888.891	14667
889.015	14659
889.139	14629
889.263	14545
889.387	14636
889.511	14796
889.635	14636
889.759	14568
889.883	14594
890.006	14522
890.13	14705
890.254	14446
890.377	14537
890.501	14457
890.624	14305
890.748	14419
890.871	14271
890.995	14233
891.118	14115
891.241	14172
891.364	14225
891.488	14374
891.611	14271
891.734	14229
891.857	14374
891.98	14290
892.103	14427
892.226	14161
892.349	14305
892.471	14161
892.594	14187
892.717	14256
892.839	14233
892.962	14233
893.085	14263
893.207	14309
893.33	14111
893.452	14145
893.575	14317
893.697	14225
893.819	14457
893.941	14377
894.064	14393
894.186	14164
894.308	14199
894.43	14313
894.552	14484
894.674	14450
894.796	14271
894.918	14240
895.04	14366
895.161	14423
895.283	14320
895.405	14370
895.526	14385
895.648	14366
895.769	14320
895.891	14389
896.012	14412
896.134	14400
896.255	14408
896.376	14415
896.498	14408
896.619	14450
896.74	14404
896.861	14526
896.982	14857
897.103	14838
897.224	14800
897.345	14667
897.466	14610
897.587	14670
897.708	14800
897.828	14765
897.949	14697
898.07	14492
898.19	14518
898.311	14765
898.431	14743
898.552	14857
898.672	14868
898.792	14785
898.913	14853
899.033	14746
899.153	14598
899.273	14541
899.393	14674
899.513	14651
899.633	14621
899.753	14743
899.873	14610
899.993	14606
900.113	14583
900.232	14663
900.352	14610
900.472	14526
900.591	14522
900.711	14598
900.83	14442
900.95	14526
901.069	14541
901.189	14377
901.308	14195
901.427	14157
901.546	14172
901.665	14172
901.784	14244
901.904	13993
902.023	14020
902.141	13784
902.26	13689
902.379	13879
902.498	13780
902.617	13776
902.735	13757
902.854	13776
902.973	13636
903.091	13441
903.21	13483
903.328	13514
903.446	13483
903.565	13259
903.683	13289
903.801	13247
903.919	13316
904.038	13270
904.156	13168
904.274	13190
904.392	13126
904.51	13019
904.627	13080
904.745	13141
904.863	13126
904.981	12920
905.098	12738
905.216	12787
905.334	12817
905.451	12772
905.569	12768
905.686	12901
905.803	12715
905.921	12578
906.038	12753
906.155	12555
906.272	12525
906.389	12555
906.506	12380
906.623	12422
906.74	12330
906.857	12289
906.974	12346
907.091	12403
907.208	12544
907.324	12350
907.441	12292
907.557	12213
907.674	12136
907.79	12091
907.907	12152
908.023	12159
908.139	12110
908.256	12129
908.372	11996
908.488	12026
908.604	11878
908.72	11870
908.836	11908
908.952	11923
909.068	11901
909.184	11965
909.3	11859
909.415	11988
909.531	11920
909.647	11691
909.762	11577
909.878	11661
909.993	11661
910.108	11672
910.224	11589
910.339	11608
910.454	11539
910.57	11589
910.685	11471
910.8	11729
910.915	11600
911.03	11604
911.145	11349
911.259	11277
911.374	11296
911.489	11246
911.604	11280
911.718	11121
911.833	11185
911.947	11014
912.062	10877
912.176	10972
912.291	11083
912.405	11124
912.519	11307
912.633	11311
912.748	11155
912.862	11124
912.976	11014
913.09	10927
913.204	10881
913.318	10987
913.431	11098
913.545	11033
913.659	11121
913.772	10915
913.886	10915
914	10809
914.113	10930
914.226	11113
914.34	10934
914.453	10805
914.566	10953
914.68	10797
914.793	10824
914.906	10645
915.019	10599
915.132	10603
915.245	10561
915.358	10493
915.47	10675
915.583	10634
915.696	10592
915.809	10854
915.921	10767
916.034	10599
916.146	10542
916.259	10535
916.371	10660
916.483	10603
916.595	10626
916.708	10615
916.82	10542
916.932	10561
917.044	10500
917.156	10580
917.268	10341
917.38	10451
917.491	10421
917.603	10409
917.715	10500
917.826	10500
917.938	10413
918.049	10371
918.161	10413
918.272	10622
918.384	10611
918.495	10409
918.606	10363
918.717	10257
918.828	10295
918.939	10310
919.05	10223
919.161	10253
919.272	10112
919.383	10223
919.494	10447
919.604	10516
919.715	10310
919.826	10219
919.936	10318
920.047	10451
920.157	10314
920.267	10603
920.378	10375
920.488	10291
920.598	10611
920.708	10592
920.818	10535
920.928	10535
921.038	10611
921.148	10664
921.258	10402
921.368	10268
921.477	10192
921.587	10116
921.697	10055
921.806	10246
921.916	10063
922.025	9964
922.134	9831
922.244	9835
922.353	9934
922.462	9751
922.571	9675
922.68	9549
922.789	9473
922.898	9671
923.007	9500
923.116	9618
923.224	9568
923.333	9610
923.442	9420
923.55	9447
923.659	9485
923.767	9564
923.876	9424
923.984	9515
924.092	9355
924.201	9477
924.309	9382
924.417	9466
924.525	9428
924.633	9447
924.741	10124
924.849	9188
924.956	9374
925.064	9218
925.172	9138
925.279	9192
925.387	9256
925.494	9214
925.602	9344
925.709	9272
925.816	9157
925.924	9230
926.031	9283
926.138	9222
926.245	9306
926.352	9138
926.459	9302
926.566	9389
926.673	9203
926.779	9093
926.886	9039
926.993	8967
927.099	8910
927.206	8937
927.312	8861
927.419	9032
927.525	8906
927.631	8925
927.737	8902
927.843	8838
927.95	8754
928.056	8796
928.162	8842
928.267	8804
928.373	9389
928.479	8887
928.585	8716
928.69	8834
928.796	8838
928.901	8739
929.007	8617
929.112	8785
929.218	8754
929.323	8655
929.428	8602
929.533	8766
929.638	8625
929.743	8629
929.848	8663
929.953	8613
930.058	8613
930.163	8389
930.267	8427
930.372	8537
930.477	8408
930.581	8602
930.685	8457
930.79	8362
930.894	8366
930.998	8324
931.103	8556
931.207	8123
931.311	8100
931.415	7974
931.519	7830
931.623	7792
