Data from test_V78500241_2222.txt Node
Date: Fri Mar 25 14:49:11 CST 2022
User: usil
Spectrometer: V785-0024
Trigger mode: 0
Integration Time (sec): 4.000000E-1
Scans to average: 1
Nonlinearity correction enabled: false
Boxcar width: 0
Storing dark spectrum: false
XAxis mode: Wavelengths
Number of Pixels in Spectrum: 1024
>>>>>Begin Spectral Data<<<<<
801.071	22162
801.214	22101
801.356	21747
801.499	21720
801.641	21534
801.783	21412
801.926	21682
802.068	21485
802.211	21439
802.353	21412
802.496	21138
802.638	21005
802.78	21036
802.923	20960
803.065	20960
803.208	20895
803.35	20921
803.492	20941
803.635	20937
803.777	20800
803.919	20971
804.061	21214
804.204	21047
804.346	20727
804.488	20701
804.63	20720
804.773	20705
804.915	20731
805.057	20994
805.199	20792
805.341	20769
805.483	20944
805.626	20758
805.768	20750
805.91	20777
806.052	20891
806.194	20708
806.336	20914
806.478	20720
806.62	20686
806.762	20849
806.904	20895
807.046	21252
807.188	21169
807.33	21039
807.472	21036
807.614	21062
807.756	21051
807.898	20872
808.04	20792
808.182	20906
808.324	20902
808.465	20887
808.607	21032
808.749	21150
808.891	21245
809.033	21389
809.174	21252
809.316	21150
809.458	21298
809.6	21157
809.741	21279
809.883	21287
810.025	21439
810.166	21344
810.308	21237
810.45	21272
810.591	21089
810.733	21123
810.875	21017
811.016	20785
811.158	20674
811.299	21020
811.441	21104
811.582	21142
811.724	20963
811.865	20727
812.007	20944
812.148	20952
812.29	20944
812.431	21203
812.573	21279
812.714	21363
812.855	21530
812.997	21447
813.138	21614
813.279	21553
813.421	21458
813.562	21329
813.703	21112
813.845	21123
813.986	20899
814.127	20651
814.268	20549
814.41	20590
814.551	20446
814.692	20495
814.833	20415
814.974	20396
815.115	20427
815.256	20305
815.397	20168
815.539	20244
815.68	20233
815.821	20115
815.962	20252
816.103	20157
816.244	20050
816.385	19947
816.526	19856
816.666	19677
816.807	19601
816.948	19655
817.089	19807
817.23	19765
817.371	19601
817.512	19548
817.653	19624
817.793	19521
817.934	19632
818.075	19563
818.216	19582
818.356	19495
818.497	19426
818.638	19384
818.778	19270
818.919	19304
819.06	19392
819.2	19472
819.341	19597
819.481	19510
819.622	19662
819.762	19738
819.903	19700
820.043	19708
820.184	19529
820.324	19670
820.465	19620
820.605	19540
820.746	19609
820.886	19472
821.026	19533
821.167	19487
821.307	19575
821.447	19491
821.588	19480
821.728	19354
821.868	19148
822.008	18897
822.149	18901
822.289	18890
822.429	18738
822.569	18669
822.709	18696
822.849	18570
822.99	18471
823.13	18410
823.27	18391
823.41	18254
823.55	18334
823.69	18232
823.83	18201
823.97	18182
824.11	18003
824.25	18057
824.389	18026
824.529	18110
824.669	17999
824.809	18159
824.949	18213
825.089	18182
825.228	17996
825.368	17866
825.508	17828
825.648	17935
825.787	17931
825.927	17771
826.067	17729
826.206	17843
826.346	17722
826.485	17741
826.625	17786
826.765	18015
826.904	17859
827.044	17623
827.183	17577
827.323	17341
827.462	17627
827.601	17406
827.741	17539
827.88	17501
828.02	17398
828.159	17452
828.298	17444
828.437	17726
828.577	17474
828.716	17634
828.855	17467
828.994	17288
829.134	17231
829.273	17383
829.412	17220
829.551	17258
829.69	17273
829.829	17220
829.968	17440
830.107	17337
830.246	17212
830.385	17288
830.524	17109
830.663	17151
830.802	16896
830.941	16790
831.08	16911
831.219	16934
831.357	16972
831.496	17090
831.635	16900
831.774	16816
831.913	16805
832.051	16694
832.19	16733
832.329	16611
832.467	16561
832.606	16554
832.744	16592
832.883	16508
833.022	16504
833.16	16596
833.299	16634
833.437	16523
833.576	16615
833.714	16618
833.852	16584
833.991	16656
834.129	16649
834.267	16694
834.406	16634
834.544	16668
834.682	16569
834.821	16672
834.959	16721
835.097	16649
835.235	16626
835.373	16744
835.511	16668
835.65	16546
835.788	16462
835.926	16462
836.064	16276
836.202	16363
836.34	16546
836.478	16588
836.615	16550
836.753	16519
836.891	16569
837.029	16596
837.167	16512
837.305	16413
837.443	16436
837.58	16341
837.718	16481
837.856	16390
837.993	16337
838.131	16341
838.269	16268
838.406	16249
838.544	16261
838.681	16048
838.819	16086
838.956	15915
839.094	15953
839.231	15975
839.369	16040
839.506	16325
839.643	16192
839.781	15956
839.918	15926
840.055	15907
840.193	15960
840.33	15975
840.467	15808
840.604	15915
840.742	16147
840.879	15831
841.016	15861
841.153	15846
841.29	16002
841.427	15964
841.564	15975
841.701	15857
841.838	15899
841.975	15876
842.112	15880
842.249	15720
842.385	15667
842.522	15892
842.659	15778
842.796	15656
842.933	15759
843.069	15663
843.206	15682
843.343	15800
843.479	15720
843.616	15675
843.752	15511
843.889	15511
844.025	15698
844.162	15424
844.298	15591
844.435	15393
844.571	15443
844.708	15515
844.844	15667
844.98	15781
845.117	15557
845.253	15443
845.389	15367
845.525	15454
845.661	15397
845.798	15268
845.934	15412
846.07	15382
846.206	15317
846.342	15542
846.478	15374
846.614	15028
846.75	15081
846.886	15135
847.022	15180
847.158	15119
847.294	15058
847.429	15161
847.565	14929
847.701	15302
847.837	14845
847.972	14746
848.108	14971
848.244	14937
848.379	14811
848.515	14648
848.65	14644
848.786	14594
848.921	14705
849.057	14804
849.192	14853
849.328	14705
849.463	14724
849.598	14556
849.734	14648
849.869	14610
850.004	14575
850.14	14556
850.275	14514
850.41	14347
850.545	14495
850.68	14419
850.815	14461
850.95	14393
851.085	14632
851.22	14594
851.355	14454
851.49	14457
851.625	14366
851.76	14457
851.895	14393
852.03	14332
852.165	14476
852.299	14473
852.434	14400
852.569	14514
852.703	14549
852.838	14499
852.973	14632
853.107	14556
853.242	14355
853.376	14374
853.511	14172
853.645	14290
853.78	14469
853.914	14400
854.048	14278
854.183	14263
854.317	14320
854.451	14431
854.585	14377
854.72	14286
854.854	14469
854.988	14142
855.122	14320
855.256	14149
855.39	14313
855.524	14358
855.658	14358
855.792	14362
855.926	14328
856.06	14339
856.194	14442
856.327	14278
856.461	14278
856.595	14252
856.729	14263
856.862	14381
856.996	14431
857.13	14434
857.263	14355
857.397	14427
857.53	14309
857.664	14336
857.797	14396
857.931	14400
858.064	14408
858.197	14396
858.331	14256
858.464	14256
858.597	14218
858.731	14324
858.864	14328
858.997	14233
859.13	14328
859.263	14320
859.396	14465
859.529	14358
859.662	14259
859.795	14263
859.928	14294
860.061	14549
860.194	14438
860.327	14374
860.46	14374
860.592	14377
860.725	14423
860.858	14530
860.99	14358
861.123	14263
861.256	14290
861.388	14259
861.521	14956
861.653	14282
861.786	14225
861.918	14244
862.05	14278
862.183	14218
862.315	14347
862.447	14282
862.58	14301
862.712	14111
862.844	13963
862.976	14103
863.108	14183
863.24	14374
863.372	14088
863.504	14115
863.636	14092
863.768	14115
863.9	14149
864.032	13970
864.164	14145
864.296	14153
864.428	14180
864.559	14199
864.691	14176
864.823	14183
864.954	14100
865.086	14191
865.217	13997
865.349	14058
865.48	14062
865.612	14157
865.743	14126
865.875	14092
866.006	14012
866.137	14024
866.269	14096
866.4	14077
866.531	14130
866.662	14001
866.793	14065
866.924	14024
867.055	14134
867.186	14069
867.317	14024
867.448	14012
867.579	13906
867.71	14005
867.841	14088
867.972	14142
868.103	14092
868.233	14039
868.364	13993
868.495	14142
868.625	14294
868.756	14450
868.886	14149
869.017	14218
869.147	14461
869.278	14412
869.408	14404
869.539	14336
869.669	14427
869.799	14450
869.929	14400
870.06	14450
870.19	14689
870.32	14750
870.45	14648
870.58	14743
870.71	14941
870.84	14792
870.97	14708
871.1	14735
871.23	14849
871.36	14971
871.489	14876
871.619	14899
871.749	14929
871.879	14948
872.008	15108
872.138	14948
872.267	14941
872.397	14918
872.526	14735
872.656	14845
872.785	14777
872.915	14990
873.044	15077
873.173	14963
873.303	15070
873.432	15043
873.561	15039
873.69	15032
873.819	14994
873.948	15112
874.077	14914
874.206	14921
874.335	14929
874.464	15195
874.593	15230
874.722	15207
874.851	15264
874.979	15291
875.108	15340
875.237	15268
875.365	15211
875.494	15268
875.623	15321
875.751	15291
875.88	15382
876.008	15481
876.136	15439
876.265	15713
876.393	15838
876.521	15774
876.65	15827
876.778	15663
876.906	15679
877.034	15690
877.162	15663
877.29	15614
877.418	15682
877.546	15682
877.674	15743
877.802	15793
877.93	15717
878.058	15614
878.185	15698
878.313	15705
878.441	15694
878.568	15568
878.696	15610
878.824	15713
878.951	15762
879.079	15945
879.206	16044
879.333	15949
879.461	15865
879.588	15804
879.715	15892
879.842	15956
879.97	15755
880.097	15462
880.224	15507
880.351	15481
880.478	15603
880.605	15496
880.732	15523
880.859	15800
880.986	15614
881.112	15564
881.239	15408
881.366	15321
881.493	15256
881.619	15249
881.746	15222
881.872	15180
881.999	15195
882.125	15123
882.252	15275
882.378	15161
882.505	15287
882.631	15165
882.757	15097
882.883	15093
883.01	15028
883.136	14910
883.262	14842
883.388	14918
883.514	15043
883.64	15062
883.766	14933
883.892	14902
884.018	14921
884.143	15142
884.269	15001
884.395	14796
884.52	14716
884.646	14686
884.772	14693
884.897	14667
885.023	14731
885.148	14925
885.274	14807
885.399	14788
885.524	14765
885.65	14785
885.775	14796
885.9	14705
886.025	14849
886.15	14792
886.275	14632
886.4	14682
886.525	14720
886.65	14579
886.775	14610
886.9	14864
887.025	15013
887.149	14762
887.274	14507
887.399	14503
887.523	14499
887.648	14526
887.773	14457
887.897	14495
888.021	14689
888.146	14526
888.27	14625
888.395	14674
888.519	14598
888.643	14629
888.767	14613
888.891	14431
889.015	14415
889.139	14442
889.263	14355
889.387	14530
889.511	14606
889.635	14590
889.759	14442
889.883	14408
890.006	14568
890.13	14522
890.254	14332
890.377	14461
890.501	14278
890.624	14206
890.748	14290
890.871	14183
890.995	14035
891.118	14008
891.241	14202
891.364	14172
891.488	14218
891.611	14199
891.734	14218
891.857	14176
891.98	14187
892.103	14134
892.226	14100
892.349	14126
892.471	13963
892.594	14058
892.717	14126
892.839	14096
892.962	14115
893.085	14202
893.207	14278
893.33	14001
893.452	13974
893.575	14138
893.697	14187
893.819	14237
893.941	14301
894.064	14252
894.186	14100
894.308	14012
894.43	14225
894.552	14377
894.674	14259
894.796	14065
894.918	14168
895.04	14267
895.161	14275
895.283	14259
895.405	14130
895.526	14233
895.648	14313
895.769	14328
895.891	14336
896.012	14339
896.134	14259
896.255	14347
896.376	14290
896.498	14336
896.619	14381
896.74	14275
896.861	14393
896.982	14636
897.103	14788
897.224	14659
897.345	14533
897.466	14412
897.587	14568
897.708	14693
897.828	14670
897.949	14579
898.07	14552
898.19	14492
898.311	14659
898.431	14629
898.552	14648
898.672	14701
898.792	14720
898.913	14636
899.033	14655
899.153	14495
899.273	14442
899.393	14419
899.513	14575
899.633	14495
899.753	14499
899.873	14381
899.993	14594
900.113	14568
900.232	14541
900.352	14415
900.472	14370
900.591	14377
900.711	14396
900.83	14355
900.95	14484
901.069	14465
901.189	14370
901.308	14107
901.427	14039
901.546	14008
901.665	14161
901.784	14008
901.904	13830
902.023	13742
902.141	13575
902.26	13613
902.379	13765
902.498	13715
902.617	13586
902.735	13731
902.854	13624
902.973	13605
903.091	13350
903.21	13343
903.328	13407
903.446	13282
903.565	13179
903.683	13198
903.801	13175
903.919	13091
904.038	13164
904.156	13050
904.274	13050
904.392	13031
904.51	13000
904.627	12962
904.745	13012
904.863	13008
904.981	12791
905.098	12677
905.216	12642
905.334	12760
905.451	12700
905.569	12639
905.686	12665
905.803	12696
905.921	12467
906.038	12623
906.155	12498
906.272	12403
906.389	12429
906.506	12353
906.623	12277
906.74	12178
906.857	12216
906.974	12216
907.091	12296
907.208	12460
907.324	12232
907.441	12224
907.557	12049
907.674	11977
907.79	11912
907.907	11996
908.023	12011
908.139	12015
908.256	11977
908.372	11996
908.488	11866
908.604	11764
908.72	11710
908.836	11859
908.952	11718
909.068	11748
909.184	11847
909.3	11756
909.415	11828
909.531	11767
909.647	11611
909.762	11554
909.878	11554
909.993	11532
910.108	11512
910.224	11505
910.339	11562
910.454	11452
910.57	11410
910.685	11292
910.8	11562
910.915	11524
911.03	11429
911.145	11231
911.259	11227
911.374	11273
911.489	11143
911.604	11140
911.718	11048
911.833	10953
911.947	10908
912.062	10812
912.176	11056
912.291	11014
912.405	10919
912.519	11128
912.633	11147
912.748	11014
912.862	11033
912.976	10850
913.09	10828
913.204	10797
913.318	10919
913.431	11079
913.545	10942
913.659	11056
913.772	10904
913.886	10824
914	10714
914.113	10930
914.226	10919
914.34	10858
914.453	10672
914.566	10934
914.68	10683
914.793	10755
914.906	10546
915.019	10538
915.132	10405
915.245	10523
915.358	10516
915.47	10508
915.583	10542
915.696	10569
915.809	10668
915.921	10706
916.034	10561
916.146	10489
916.259	10455
916.371	10592
916.483	10527
916.595	10485
916.708	10493
916.82	10485
916.932	10447
917.044	10493
917.156	10417
917.268	10417
917.38	10291
917.491	10318
917.603	10375
917.715	10447
917.826	10436
917.938	10280
918.049	10242
918.161	10382
918.272	10527
918.384	10417
918.495	10390
918.606	10261
918.717	10223
918.828	10299
918.939	10299
919.05	10200
919.161	10196
919.272	10025
919.383	10154
919.494	10291
919.604	10436
919.715	10265
919.826	10173
919.936	10246
920.047	10318
920.157	10291
920.267	10417
920.378	10379
920.488	10223
920.598	10466
920.708	10611
920.818	10466
920.928	10489
921.038	10710
921.148	10637
921.258	10314
921.368	10143
921.477	10177
921.587	10051
921.697	10048
921.806	10139
921.916	9991
922.025	9915
922.134	9907
922.244	9812
922.353	9800
922.462	9660
922.571	9694
922.68	9591
922.789	9454
922.898	9587
923.007	9462
923.116	9580
923.224	9530
923.333	9469
923.442	9431
923.55	9416
923.659	9420
923.767	9454
923.876	9294
923.984	9481
924.092	9355
924.201	9363
924.309	9344
924.417	9408
924.525	9393
924.633	9241
924.741	10314
924.849	9112
924.956	9291
925.064	9264
925.172	9161
925.279	9218
925.387	9169
925.494	9207
925.602	9325
925.709	9272
925.816	9112
925.924	9150
926.031	9260
926.138	9142
926.245	9214
926.352	9043
926.459	9188
926.566	9260
926.673	9192
926.779	9089
926.886	9081
926.993	8979
927.099	8902
927.206	8853
927.312	8948
927.419	8944
927.525	8906
927.631	8910
927.737	8826
927.843	8731
927.95	8648
928.056	8762
928.162	8796
928.267	8880
928.373	9458
928.479	8872
928.585	8625
928.69	8743
928.796	8792
928.901	8716
929.007	8568
929.112	8655
929.218	8648
929.323	8571
929.428	8579
929.533	8724
929.638	8533
929.743	8629
929.848	8602
929.953	8579
930.058	8522
930.163	8305
930.267	8415
930.372	8480
930.477	8377
930.581	8575
930.685	8427
930.79	8381
930.894	8355
930.998	8317
931.103	8454
931.207	8100
931.311	8043
931.415	8020
931.519	7818
931.623	7792
