Data from test_V78500241_1864.txt Node
Date: Fri Mar 25 14:46:41 CST 2022
User: usil
Spectrometer: V785-0024
Trigger mode: 0
Integration Time (sec): 4.000000E-1
Scans to average: 1
Nonlinearity correction enabled: false
Boxcar width: 0
Storing dark spectrum: false
XAxis mode: Wavelengths
Number of Pixels in Spectrum: 1024
>>>>>Begin Spectral Data<<<<<
801.071	22135
801.214	22063
801.356	21679
801.499	21690
801.641	21492
801.783	21466
801.926	21561
802.068	21496
802.211	21393
802.353	21348
802.496	21051
802.638	21024
802.78	20944
802.923	20849
803.065	20807
803.208	20758
803.35	20815
803.492	20906
803.635	20956
803.777	20834
803.919	20933
804.061	21222
804.204	20948
804.346	20842
804.488	20686
804.63	20845
804.773	20720
804.915	20815
805.057	20815
805.199	20686
805.341	20811
805.483	20872
805.626	20868
805.768	20746
805.91	20849
806.052	20823
806.194	20549
806.336	20925
806.478	20838
806.62	20708
806.762	20800
806.904	20975
807.046	21279
807.188	21169
807.33	21119
807.472	21119
807.614	20998
807.756	20963
807.898	20933
808.04	20861
808.182	20948
808.324	20773
808.465	20914
808.607	21135
808.749	21051
808.891	21081
809.033	21249
809.174	21306
809.316	21089
809.458	21146
809.6	21123
809.741	21112
809.883	21150
810.025	21389
810.166	21340
810.308	21313
810.45	21359
810.591	21211
810.733	21028
810.875	20960
811.016	20804
811.158	20785
811.299	20910
811.441	21070
811.582	20990
811.724	20834
811.865	20868
812.007	20838
812.148	20933
812.29	20891
812.431	21055
812.573	21252
812.714	21329
812.855	21374
812.997	21469
813.138	21633
813.279	21504
813.421	21424
813.562	21340
813.703	21241
813.845	21036
813.986	20967
814.127	20701
814.268	20564
814.41	20606
814.551	20454
814.692	20537
814.833	20286
814.974	20374
815.115	20370
815.256	20168
815.397	20339
815.539	20210
815.68	20248
815.821	20206
815.962	20130
816.103	20176
816.244	20001
816.385	19913
816.526	19879
816.666	19780
816.807	19613
816.948	19734
817.089	19700
817.23	19639
817.371	19502
817.512	19601
817.653	19582
817.793	19525
817.934	19658
818.075	19544
818.216	19559
818.356	19556
818.497	19285
818.638	19282
818.778	19346
818.919	19278
819.06	19244
819.2	19445
819.341	19525
819.481	19556
819.622	19601
819.762	19708
819.903	19677
820.043	19601
820.184	19639
820.324	19582
820.465	19499
820.605	19605
820.746	19605
820.886	19460
821.026	19666
821.167	19373
821.307	19609
821.447	19582
821.588	19525
821.728	19324
821.868	19084
822.008	19000
822.149	18943
822.289	19046
822.429	18757
822.569	18684
822.709	18700
822.849	18467
822.99	18437
823.13	18376
823.27	18338
823.41	18216
823.55	18228
823.69	18319
823.83	18182
823.97	18121
824.11	18072
824.25	18030
824.389	18152
824.529	18049
824.669	18041
824.809	18186
824.949	18133
825.089	18049
825.228	18041
825.368	17904
825.508	17821
825.648	17927
825.787	17923
825.927	17828
826.067	17824
826.206	17767
826.346	17874
826.485	17836
826.625	17764
826.765	17878
826.904	17878
827.044	17596
827.183	17516
827.323	17512
827.462	17570
827.601	17524
827.741	17482
827.88	17608
828.02	17478
828.159	17436
828.298	17474
828.437	17653
828.577	17524
828.716	17558
828.855	17490
828.994	17356
829.134	17235
829.273	17296
829.412	17284
829.551	17193
829.69	17246
829.829	17254
829.968	17299
830.107	17258
830.246	17288
830.385	17242
830.524	17098
830.663	17128
830.802	17136
830.941	16923
831.08	16881
831.219	16885
831.357	16942
831.496	16995
831.635	17029
831.774	16729
831.913	16717
832.051	16706
832.19	16702
832.329	16569
832.467	16683
832.606	16508
832.744	16584
832.883	16561
833.022	16611
833.16	16527
833.299	16641
833.437	16645
833.576	16588
833.714	16645
833.852	16713
833.991	16675
834.129	16710
834.267	16733
834.406	16733
834.544	16752
834.682	16626
834.821	16656
834.959	16828
835.097	16516
835.235	16820
835.373	16755
835.511	16759
835.65	16577
835.788	16580
835.926	16405
836.064	16360
836.202	16390
836.34	16596
836.478	16561
836.615	16573
836.753	16580
836.891	16664
837.029	16679
837.167	16615
837.305	16512
837.443	16466
837.58	16413
837.718	16421
837.856	16432
837.993	16428
838.131	16421
838.269	16337
838.406	16329
838.544	16375
838.681	16128
838.819	16032
838.956	16017
839.094	15987
839.231	16067
839.369	16120
839.506	16466
839.643	16169
839.781	15991
839.918	15903
840.055	15987
840.193	15998
840.33	15994
840.467	16017
840.604	16010
840.742	16154
840.879	15819
841.016	15781
841.153	15903
841.29	15956
841.427	15968
841.564	16093
841.701	16029
841.838	15991
841.975	15918
842.112	15956
842.249	15812
842.385	15694
842.522	15892
842.659	15793
842.796	15690
842.933	15857
843.069	15679
843.206	15793
843.343	15827
843.479	15728
843.616	15865
843.752	15614
843.889	15549
844.025	15736
844.162	15462
844.298	15690
844.435	15553
844.571	15622
844.708	15584
844.844	15671
844.98	15743
845.117	15622
845.253	15595
845.389	15439
845.525	15515
845.661	15458
845.798	15344
845.934	15443
846.07	15287
846.206	15393
846.342	15469
846.478	15332
846.614	15085
846.75	15055
846.886	15085
847.022	15218
847.158	15093
847.294	15070
847.429	15195
847.565	15112
847.701	15317
847.837	14906
847.972	14800
848.108	14853
848.244	14887
848.379	14765
848.515	14731
848.65	14678
848.786	14655
848.921	14750
849.057	14750
849.192	14849
849.328	14785
849.463	14689
849.598	14739
849.734	14640
849.869	14663
850.004	14571
850.14	14507
850.275	14446
850.41	14396
850.545	14431
850.68	14427
850.815	14507
850.95	14431
851.085	14583
851.22	14575
851.355	14427
851.49	14450
851.625	14434
851.76	14423
851.895	14408
852.03	14412
852.165	14457
852.299	14511
852.434	14488
852.569	14533
852.703	14594
852.838	14438
852.973	14602
853.107	14617
853.242	14423
853.376	14374
853.511	14374
853.645	14313
853.78	14503
853.914	14454
854.048	14320
854.183	14370
854.317	14408
854.451	14575
854.585	14412
854.72	14294
854.854	14415
854.988	14313
855.122	14278
855.256	14248
855.39	14298
855.524	14434
855.658	14511
855.792	14370
855.926	14404
856.06	14389
856.194	14507
856.327	14400
856.461	14298
856.595	14362
856.729	14282
856.862	14457
856.996	14457
857.13	14438
857.263	14545
857.397	14377
857.53	14339
857.664	14408
857.797	14568
857.931	14533
858.064	14431
858.197	14427
858.331	14317
858.464	14328
858.597	14168
858.731	14427
858.864	14290
858.997	14366
859.13	14393
859.263	14438
859.396	14438
859.529	14358
859.662	14484
859.795	14339
859.928	14351
860.061	14549
860.194	14568
860.327	14450
860.46	14336
860.592	14423
860.725	14522
860.858	14492
860.99	14507
861.123	14389
861.256	14377
861.388	14408
861.521	15020
861.653	14210
861.786	14202
861.918	14286
862.05	14370
862.183	14339
862.315	14389
862.447	14355
862.58	14332
862.712	14153
862.844	14001
862.976	14199
863.108	14240
863.24	14415
863.372	14103
863.504	14214
863.636	14092
863.768	14195
863.9	14153
864.032	14100
864.164	14031
864.296	14187
864.428	14240
864.559	14381
864.691	14206
864.823	14218
864.954	14180
865.086	14218
865.217	14123
865.349	14096
865.48	14081
865.612	14195
865.743	14214
865.875	14225
866.006	14126
866.137	14145
866.269	14218
866.4	14180
866.531	14100
866.662	14187
866.793	14035
866.924	14115
867.055	14157
867.186	14157
867.317	14073
867.448	14046
867.579	14149
867.71	14123
867.841	14081
867.972	14161
868.103	14084
868.233	14187
868.364	14206
868.495	14248
868.625	14366
868.756	14412
868.886	14381
869.017	14393
869.147	14579
869.278	14495
869.408	14332
869.539	14393
869.669	14606
869.799	14488
869.929	14537
870.06	14560
870.19	14689
870.32	14758
870.45	14720
870.58	14845
870.71	14906
870.84	14845
870.97	14796
871.1	14682
871.23	14910
871.36	15009
871.489	14845
871.619	14990
871.749	14952
871.879	15020
872.008	15036
872.138	14910
872.267	14963
872.397	14883
872.526	14750
872.656	14796
872.785	14830
872.915	15081
873.044	15085
873.173	15100
873.303	15001
873.432	15176
873.561	15207
873.69	15062
873.819	15077
873.948	15055
874.077	15116
874.206	14857
874.335	15154
874.464	15184
874.593	15283
874.722	15264
874.851	15294
874.979	15382
875.108	15329
875.237	15370
875.365	15264
875.494	15340
875.623	15408
875.751	15340
875.88	15420
876.008	15458
876.136	15519
876.265	15739
876.393	15895
876.521	15861
876.65	15850
876.778	15762
876.906	15781
877.034	15698
877.162	15698
877.29	15694
877.418	15778
877.546	15797
877.674	15701
877.802	15690
877.93	15660
878.058	15800
878.185	15599
878.313	15808
878.441	15827
878.568	15538
878.696	15652
878.824	15816
878.951	15770
879.079	15979
879.206	15983
879.333	15983
879.461	15766
879.588	15835
879.715	15960
879.842	16063
879.97	15846
880.097	15667
880.224	15614
880.351	15690
880.478	15633
880.605	15564
880.732	15713
880.859	15774
880.986	15595
881.112	15629
881.239	15534
881.366	15393
881.493	15233
881.619	15275
881.746	15321
881.872	15241
881.999	15249
882.125	15302
882.252	15408
882.378	15260
882.505	15466
882.631	15199
882.757	15020
882.883	15150
883.01	15093
883.136	15043
883.262	15062
883.388	14960
883.514	15131
883.64	15176
883.766	15017
883.892	14895
884.018	14906
884.143	15013
884.269	15211
884.395	14815
884.52	14746
884.646	14743
884.772	14834
884.897	14800
885.023	14773
885.148	15001
885.274	14956
885.399	14864
885.524	14792
885.65	14853
885.775	14769
885.9	14834
886.025	14838
886.15	14864
886.275	14716
886.4	14670
886.525	14785
886.65	14724
886.775	14697
886.9	14849
887.025	15043
887.149	14845
887.274	14617
887.399	14625
887.523	14564
887.648	14541
887.773	14499
887.897	14746
888.021	14644
888.146	14537
888.27	14762
888.395	14815
888.519	14610
888.643	14636
888.767	14610
888.891	14545
889.015	14511
889.139	14457
889.263	14480
889.387	14621
889.511	14625
889.635	14571
889.759	14537
889.883	14469
890.006	14473
890.13	14568
890.254	14355
890.377	14389
890.501	14377
890.624	14195
890.748	14355
890.871	14229
890.995	14164
891.118	13993
891.241	14252
891.364	14142
891.488	14328
891.611	14202
891.734	14126
891.857	14263
891.98	14214
892.103	14271
892.226	14142
892.349	14237
892.471	14058
892.594	14164
892.717	14176
892.839	14244
892.962	14172
893.085	14240
893.207	14138
893.33	14111
893.452	14081
893.575	14214
893.697	14176
893.819	14328
893.941	14427
894.064	14294
894.186	14199
894.308	14134
894.43	14286
894.552	14434
894.674	14362
894.796	14206
894.918	14149
895.04	14259
895.161	14301
895.283	14317
895.405	14221
895.526	14214
895.648	14358
895.769	14294
895.891	14431
896.012	14469
896.134	14256
896.255	14412
896.376	14336
896.498	14313
896.619	14370
896.74	14423
896.861	14347
896.982	14743
897.103	14769
897.224	14651
897.345	14648
897.466	14514
897.587	14636
897.708	14689
897.828	14549
897.949	14625
898.07	14457
898.19	14625
898.311	14868
898.431	14651
898.552	14640
898.672	14796
898.792	14724
898.913	14785
899.033	14594
899.153	14632
899.273	14469
899.393	14568
899.513	14587
899.633	14556
899.753	14571
899.873	14518
899.993	14541
900.113	14571
900.232	14518
900.352	14560
900.472	14530
900.591	14427
900.711	14526
900.83	14320
900.95	14602
901.069	14518
901.189	14278
901.308	14248
901.427	14065
901.546	14088
901.665	14214
901.784	14065
901.904	13909
902.023	13860
902.141	13727
902.26	13685
902.379	13734
902.498	13719
902.617	13632
902.735	13723
902.854	13681
902.973	13624
903.091	13468
903.21	13312
903.328	13354
903.446	13270
903.565	13213
903.683	13289
903.801	13206
903.919	13225
904.038	13149
904.156	13137
904.274	13088
904.392	13015
904.51	13004
904.627	13023
904.745	13023
904.863	13027
904.981	12882
905.098	12684
905.216	12772
905.334	12738
905.451	12757
905.569	12798
905.686	12722
905.803	12711
905.921	12570
906.038	12639
906.155	12620
906.272	12498
906.389	12460
906.506	12254
906.623	12296
906.74	12292
906.857	12155
906.974	12201
907.091	12311
907.208	12467
907.324	12323
907.441	12186
907.557	12057
907.674	12110
907.79	12068
907.907	12041
908.023	12129
908.139	11996
908.256	11984
908.372	12072
908.488	11969
908.604	11836
908.72	11764
908.836	11946
908.952	11748
909.068	11786
909.184	11958
909.3	11878
909.415	11840
909.531	11775
909.647	11653
909.762	11554
909.878	11543
909.993	11691
910.108	11611
910.224	11596
910.339	11577
910.454	11573
910.57	11452
910.685	11353
910.8	11722
910.915	11596
911.03	11429
911.145	11341
911.259	11265
911.374	11246
911.489	11204
911.604	11185
911.718	11147
911.833	11029
911.947	10957
912.062	10873
912.176	11048
912.291	11064
912.405	11006
912.519	11201
912.633	11288
912.748	11143
912.862	11060
912.976	10892
913.09	10759
913.204	10877
913.318	10900
913.431	11048
913.545	11010
913.659	10991
913.772	10915
913.886	10831
914	10767
914.113	10911
914.226	10904
914.34	10873
914.453	10717
914.566	10839
914.68	10763
914.793	10710
914.906	10580
915.019	10535
915.132	10413
915.245	10565
915.358	10569
915.47	10531
915.583	10599
915.696	10599
915.809	10679
915.921	10733
916.034	10523
916.146	10538
916.259	10497
916.371	10558
916.483	10531
916.595	10462
916.708	10455
916.82	10500
916.932	10390
917.044	10489
917.156	10436
917.268	10272
917.38	10398
917.491	10390
917.603	10417
917.715	10440
917.826	10344
917.938	10379
918.049	10299
918.161	10344
918.272	10470
918.384	10440
918.495	10371
918.606	10249
918.717	10219
918.828	10299
918.939	10322
919.05	10112
919.161	10272
919.272	10097
919.383	10048
919.494	10303
919.604	10527
919.715	10306
919.826	10112
919.936	10204
920.047	10367
920.157	10325
920.267	10481
920.378	10272
920.488	10257
920.598	10493
920.708	10618
920.818	10440
920.928	10421
921.038	10599
921.148	10573
921.258	10211
921.368	10188
921.477	10211
921.587	10029
921.697	10006
921.806	10143
921.916	10013
922.025	9804
922.134	9865
922.244	9804
922.353	9926
922.462	9686
922.571	9637
922.68	9507
922.789	9447
922.898	9519
923.007	9500
923.116	9526
923.224	9450
923.333	9519
923.442	9374
923.55	9348
923.659	9416
923.767	9496
923.876	9332
923.984	9466
924.092	9340
924.201	9382
924.309	9443
924.417	9443
924.525	9325
924.633	9412
924.741	10215
924.849	9184
924.956	9336
925.064	9192
925.172	9199
925.279	9138
925.387	9245
925.494	9237
925.602	9386
925.709	9268
925.816	9157
925.924	9123
926.031	9260
926.138	9211
926.245	9245
926.352	9089
926.459	9291
926.566	9348
926.673	9192
926.779	9074
926.886	9154
926.993	8960
927.099	8933
927.206	8853
927.312	8849
927.419	8967
927.525	8937
927.631	8960
927.737	8830
927.843	8864
927.95	8689
928.056	8826
928.162	8861
928.267	8880
928.373	9401
928.479	8902
928.585	8648
928.69	8800
928.796	8872
928.901	8762
929.007	8587
929.112	8724
929.218	8716
929.323	8636
929.428	8629
929.533	8701
929.638	8541
929.743	8568
929.848	8667
929.953	8571
930.058	8560
930.163	8381
930.267	8412
930.372	8560
930.477	8332
930.581	8625
930.685	8480
930.79	8286
930.894	8377
930.998	8259
931.103	8476
931.207	8130
931.311	8092
931.415	8100
931.519	7807
931.623	7826
