Data from test_V78500241_573.txt Node
Date: Fri Mar 25 14:37:42 CST 2022
User: usil
Spectrometer: V785-0024
Trigger mode: 0
Integration Time (sec): 4.000000E-1
Scans to average: 1
Nonlinearity correction enabled: false
Boxcar width: 0
Storing dark spectrum: false
XAxis mode: Wavelengths
Number of Pixels in Spectrum: 1024
>>>>>Begin Spectral Data<<<<<
801.071	27793
801.214	27641
801.356	27340
801.499	27336
801.641	27249
801.783	27260
801.926	27192
802.068	26940
802.211	26956
802.353	26944
802.496	26823
802.638	26705
802.78	26556
802.923	26701
803.065	26511
803.208	26689
803.35	26522
803.492	26720
803.635	26842
803.777	26568
803.919	26678
804.061	26975
804.204	26762
804.346	26758
804.488	26739
804.63	26823
804.773	26754
804.915	26849
805.057	27009
805.199	27028
805.341	27039
805.483	27161
805.626	27070
805.768	26963
805.91	27028
806.052	27180
806.194	27184
806.336	27545
806.478	27466
806.62	27386
806.762	27953
806.904	28253
807.046	28557
807.188	28679
807.33	28816
807.472	29147
807.614	29516
807.756	29961
807.898	30650
808.04	31419
808.182	32613
808.324	34116
808.465	35745
808.607	37677
808.749	39291
808.891	40067
809.033	40436
809.174	39150
809.316	37518
809.458	35512
809.6	33758
809.741	32385
809.883	31171
810.025	30502
810.166	29733
810.308	29299
810.45	29003
810.591	28611
810.733	28325
810.875	28215
811.016	27816
811.158	27800
811.299	27755
811.441	27876
811.582	27694
811.724	27431
811.865	27477
812.007	27382
812.148	27370
812.29	27222
812.431	27405
812.573	27583
812.714	27462
812.855	27576
812.997	27732
813.138	27762
813.279	27641
813.421	27603
813.562	27500
813.703	27355
813.845	27192
813.986	26758
814.127	26689
814.268	26564
814.41	26560
814.551	26453
814.692	26606
814.833	26385
814.974	26415
815.115	26499
815.256	26374
815.397	26206
815.539	26377
815.68	26157
815.821	26020
815.962	26111
816.103	25951
816.244	25982
816.385	25860
816.526	25871
816.666	25685
816.807	25548
816.948	25464
817.089	25518
817.23	25350
817.371	25510
817.512	25350
817.653	25384
817.793	25304
817.934	25316
818.075	25407
818.216	25324
818.356	25183
818.497	25145
818.638	25156
818.778	24992
818.919	25095
819.06	25183
819.2	25137
819.341	25236
819.481	25282
819.622	25324
819.762	25712
819.903	25396
820.043	25407
820.184	25259
820.324	25274
820.465	25381
820.605	25217
820.746	25114
820.886	25168
821.026	25297
821.167	25183
821.307	25293
821.447	25145
821.588	25053
821.728	24924
821.868	24810
822.008	24536
822.149	24437
822.289	24574
822.429	24350
822.569	24281
822.709	24277
822.849	24068
822.99	24030
823.13	23950
823.27	23973
823.41	23786
823.55	23821
823.69	23783
823.83	23737
823.97	23684
824.11	23512
824.25	23501
824.389	23539
824.529	23726
824.669	23501
824.809	23551
824.949	23497
825.089	23630
825.228	23646
825.368	23554
825.508	23326
825.648	23337
825.787	23425
825.927	23387
826.067	23261
826.206	23220
826.346	23250
826.485	23440
826.625	23406
826.765	23486
826.904	23383
827.044	23022
827.183	23064
827.323	22953
827.462	23071
827.601	22991
827.741	23060
827.88	23071
828.02	22801
828.159	22995
828.298	22953
828.437	23086
828.577	22930
828.716	23075
828.855	22923
828.994	22744
829.134	22664
829.273	22706
829.412	22698
829.551	22470
829.69	22774
829.829	22637
829.968	22702
830.107	22755
830.246	22664
830.385	22634
830.524	22550
830.663	22413
830.802	22360
830.941	22329
831.08	22204
831.219	22280
831.357	22287
831.496	22455
831.635	22265
831.774	22192
831.913	22268
832.051	22044
832.19	22070
832.329	22116
832.467	22090
832.606	21956
832.744	22013
832.883	22120
833.022	22101
833.16	22196
833.299	22257
833.437	22310
833.576	22360
833.714	22436
833.852	22447
833.991	22497
834.129	22653
834.267	22668
834.406	22497
834.544	22577
834.682	22402
834.821	22519
834.959	22603
835.097	22375
835.235	22223
835.373	22147
835.511	22135
835.65	21880
835.788	21994
835.926	21747
836.064	21671
836.202	21587
836.34	21800
836.478	21937
836.615	21679
836.753	21922
836.891	21930
837.029	21728
837.167	21606
837.305	21618
837.443	21629
837.58	21561
837.718	21709
837.856	21553
837.993	21523
838.131	21462
838.269	21416
838.406	21523
838.544	21424
838.681	21062
838.819	21119
838.956	21028
839.094	20979
839.231	21138
839.369	21173
839.506	21370
839.643	21283
839.781	21024
839.918	20998
840.055	21017
840.193	20861
840.33	20952
840.467	20998
840.604	20937
840.742	21207
840.879	20811
841.016	20891
841.153	20788
841.29	21005
841.427	20937
841.564	20960
841.701	20929
841.838	20899
841.975	20838
842.112	20902
842.249	20686
842.385	20629
842.522	20880
842.659	20731
842.796	20625
842.933	20708
843.069	20682
843.206	20617
843.343	20948
843.479	20876
843.616	20792
843.752	20560
843.889	20537
844.025	20819
844.162	20583
844.298	20800
844.435	20678
844.571	20914
844.708	21211
844.844	21416
844.98	21530
845.117	21869
845.253	22417
845.389	23239
845.525	25213
845.661	28284
845.798	32100
845.934	35060
846.07	36182
846.206	35672
846.342	33154
846.478	29311
846.614	25868
846.75	23748
846.886	22455
847.022	21747
847.158	21165
847.294	20705
847.429	20712
847.565	20267
847.701	20488
847.837	19989
847.972	19860
848.108	19951
848.244	19921
848.379	19727
848.515	19731
848.65	19776
848.786	19518
848.921	19719
849.057	19799
849.192	19624
849.328	19521
849.463	19567
849.598	19426
849.734	19453
849.869	19445
850.004	19308
850.14	19293
850.275	19183
850.41	19255
850.545	19187
850.68	19282
850.815	19308
850.95	19324
851.085	19369
851.22	19354
851.355	19236
851.49	19308
851.625	19236
851.76	19129
851.895	19114
852.03	19206
852.165	19282
852.299	19301
852.434	19251
852.569	19274
852.703	19236
852.838	19190
852.973	19491
853.107	19419
853.242	19270
853.376	19133
853.511	19065
853.645	19148
853.78	19293
853.914	19244
854.048	19232
854.183	19301
854.317	19263
854.451	19464
854.585	19324
854.72	19164
854.854	19320
854.988	19213
855.122	19240
855.256	19069
855.39	19209
855.524	19209
855.658	19088
855.792	19232
855.926	19091
856.06	19171
856.194	19152
856.327	19129
856.461	19148
856.595	19004
856.729	19122
856.862	19126
856.996	19103
857.13	19061
857.263	19183
857.397	19099
857.53	19099
857.664	19107
857.797	19053
857.931	19034
858.064	19122
858.197	19141
858.331	19038
858.464	18920
858.597	18867
858.731	18985
858.864	18977
858.997	18913
859.13	19072
859.263	18905
859.396	19069
859.529	18905
859.662	18795
859.795	19015
859.928	18882
860.061	19110
860.194	19069
860.327	18890
860.46	18977
860.592	19050
860.725	18958
860.858	19015
860.99	18909
861.123	18867
861.256	18787
861.388	18802
861.521	19639
861.653	18840
861.786	18700
861.918	18905
862.05	18890
862.183	18894
862.315	18962
862.447	18935
862.58	18886
862.712	18753
862.844	18521
862.976	18798
863.108	18791
863.24	19004
863.372	18513
863.504	18631
863.636	18608
863.768	18673
863.9	18703
864.032	18551
864.164	18700
864.296	18540
864.428	18707
864.559	18654
864.691	18570
864.823	18715
864.954	18551
865.086	18563
865.217	18570
865.349	18429
865.48	18502
865.612	18525
865.743	18669
865.875	18517
866.006	18528
866.137	18483
866.269	18525
866.4	18525
866.531	18498
866.662	18483
866.793	18509
866.924	18437
867.055	18513
867.186	18475
867.317	18433
867.448	18414
867.579	18391
867.71	18441
867.841	18376
867.972	18494
868.103	18410
868.233	18585
868.364	18483
868.495	18589
868.625	18650
868.756	18772
868.886	18715
869.017	18901
869.147	18920
869.278	18787
869.408	18871
869.539	18707
869.669	18798
869.799	18810
869.929	18856
870.06	18829
870.19	19091
870.32	19053
870.45	19057
870.58	19198
870.71	19297
870.84	19285
870.97	19282
871.1	19034
871.23	19403
871.36	19403
871.489	19289
871.619	19422
871.749	19266
871.879	19400
872.008	19506
872.138	19445
872.267	19365
872.397	19289
872.526	19202
872.656	19335
872.785	19244
872.915	19430
873.044	19556
873.173	19582
873.303	19495
873.432	19594
873.561	19628
873.69	19510
873.819	19525
873.948	19628
874.077	19540
874.206	19571
874.335	19708
874.464	19776
874.593	20008
874.722	19925
874.851	19963
874.979	20024
875.108	20043
875.237	20031
875.365	19890
875.494	19970
875.623	20168
875.751	20084
875.88	20081
876.008	20275
876.136	20351
876.265	20533
876.393	20796
876.521	20636
876.65	20629
876.778	20625
876.906	20655
877.034	20796
877.162	20697
877.29	20712
877.418	20773
877.546	20868
877.674	21074
877.802	20994
877.93	21108
878.058	21165
878.185	21241
878.313	21450
878.441	21705
878.568	21812
878.696	22158
878.824	22706
878.951	23113
879.079	24216
879.206	25487
879.333	26465
879.461	27389
879.588	28131
879.715	28230
879.842	27739
879.97	26484
880.097	25168
880.224	24289
880.351	23589
880.478	23018
880.605	22850
880.732	22679
880.859	22592
880.986	22337
881.112	22211
881.239	22139
881.366	21964
881.493	21857
881.619	21876
881.746	21926
881.872	21926
881.999	21873
882.125	21922
882.252	22017
882.378	22109
882.505	22097
882.631	21956
882.757	21747
882.883	21903
883.01	21808
883.136	21682
883.262	21622
883.388	21580
883.514	21755
883.64	21732
883.766	21656
883.892	21534
884.018	21595
884.143	21698
884.269	21850
884.395	21481
884.52	21473
884.646	21500
884.772	21507
884.897	21313
885.023	21519
885.148	21542
885.274	21580
885.399	21462
885.524	21294
885.65	21317
885.775	21116
885.9	21241
886.025	21199
886.15	21005
886.275	20857
886.4	20739
886.525	20807
886.65	20583
886.775	20659
886.9	20727
887.025	20575
887.149	20499
887.274	20168
887.399	20180
887.523	20107
887.648	19940
887.773	19955
887.897	19963
888.021	19967
888.146	19868
888.27	19936
888.395	19932
888.519	19864
888.643	19742
888.767	19841
888.891	19605
889.015	19506
889.139	19552
889.263	19525
889.387	19499
889.511	19689
889.635	19632
889.759	19377
889.883	19293
890.006	19343
890.13	19396
890.254	19122
890.377	19217
890.501	18985
890.624	18996
890.748	19209
890.871	18966
890.995	18802
891.118	18810
891.241	18787
891.364	18935
891.488	18916
891.611	18726
891.734	18760
891.857	18772
891.98	18688
892.103	18730
892.226	18608
892.349	18631
892.471	18448
892.594	18642
892.717	18570
892.839	18506
892.962	18642
893.085	18631
893.207	18429
893.33	18365
893.452	18479
893.575	18414
893.697	18445
893.819	18582
893.941	18566
894.064	18467
894.186	18395
894.308	18372
894.43	18437
894.552	18547
894.674	18498
894.796	18194
894.918	18194
895.04	18247
895.161	18372
895.283	18346
895.405	18258
895.526	18388
895.648	18327
895.769	18323
895.891	18311
896.012	18426
896.134	18311
896.255	18235
896.376	18258
896.498	18220
896.619	18334
896.74	18292
896.861	18429
896.982	18517
897.103	18753
897.224	18498
897.345	18464
897.466	18521
897.587	18483
897.708	18570
897.828	18399
897.949	18346
898.07	18285
898.19	18388
898.311	18551
898.431	18338
898.552	18391
898.672	18578
898.792	18555
898.913	18532
899.033	18270
899.153	18300
899.273	18201
899.393	18247
899.513	18292
899.633	18285
899.753	18319
899.873	18338
899.993	18266
900.113	18247
900.232	18136
900.352	18076
900.472	18102
900.591	17999
900.711	18003
900.83	18041
900.95	17999
901.069	18197
901.189	18057
901.308	17752
901.427	17649
901.546	17649
901.665	17672
901.784	17619
901.904	17505
902.023	17406
902.141	17193
902.26	17242
902.379	17178
902.498	17124
902.617	17181
902.735	17159
902.854	17155
902.973	17090
903.091	16778
903.21	16744
903.328	16805
903.446	16569
903.565	16691
903.683	16637
903.801	16485
903.919	16607
904.038	16440
904.156	16394
904.274	16432
904.392	16375
904.51	16379
904.627	16284
904.745	16413
904.863	16356
904.981	16086
905.098	16063
905.216	15876
905.334	15987
905.451	16051
905.569	15949
905.686	15991
905.803	16017
905.921	15793
906.038	15876
906.155	15808
906.272	15641
906.389	15660
906.506	15557
906.623	15488
906.74	15447
906.857	15488
906.974	15450
907.091	15507
907.208	15644
907.324	15500
907.441	15401
907.557	15211
907.674	15222
907.79	15199
907.907	15081
908.023	15230
908.139	15298
908.256	15157
908.372	15058
908.488	15074
908.604	14937
908.72	14880
908.836	14967
908.952	14842
909.068	14967
909.184	14971
909.3	14823
909.415	14952
909.531	14842
909.647	14705
909.762	14708
909.878	14644
909.993	14644
910.108	14594
910.224	14568
910.339	14606
910.454	14476
910.57	14533
910.685	14419
910.8	14716
910.915	14602
911.03	14492
911.145	14328
911.259	14214
911.374	14278
911.489	14229
911.604	14092
911.718	14027
911.833	14024
911.947	13917
912.062	13856
912.176	13909
912.291	14084
912.405	13997
912.519	14191
912.633	14111
912.748	13967
912.862	13944
912.976	13833
913.09	13734
913.204	13784
913.318	13814
913.431	13940
913.545	13940
913.659	13887
913.772	13765
913.886	13590
914	13719
914.113	13670
914.226	13799
914.34	13753
914.453	13537
914.566	13708
914.68	13647
914.793	13537
914.906	13411
915.019	13350
915.132	13297
915.245	13339
915.358	13369
915.47	13304
915.583	13327
915.696	13495
915.809	13499
915.921	13445
916.034	13358
916.146	13297
916.259	13297
916.371	13392
916.483	13335
916.595	13198
916.708	13308
916.82	13251
916.932	13255
917.044	13194
917.156	13320
917.268	13065
917.38	13114
917.491	13076
917.603	13110
917.715	13129
917.826	13149
917.938	13080
918.049	12897
918.161	12966
918.272	13164
918.384	13103
918.495	13031
918.606	12844
918.717	12757
918.828	12890
918.939	12833
919.05	12749
919.161	12844
919.272	12563
919.383	12722
919.494	12905
919.604	12943
919.715	12844
919.826	12711
919.936	12848
920.047	12848
920.157	12863
920.267	13027
920.378	12757
920.488	12825
920.598	12970
920.708	13099
920.818	12897
920.928	12837
921.038	13072
921.148	13042
921.258	12681
921.368	12700
921.477	12627
921.587	12517
921.697	12388
921.806	12532
921.916	12422
922.025	12247
922.134	12235
922.244	12190
922.353	12262
922.462	12155
922.571	12121
922.68	11988
922.789	11775
922.898	11847
923.007	11828
923.116	11866
923.224	11828
923.333	11756
923.442	11726
923.55	11729
923.659	11672
923.767	11817
923.876	11691
923.984	11832
924.092	11676
924.201	11688
924.309	11676
924.417	11649
924.525	11581
924.633	11642
924.741	12292
924.849	11376
924.956	11592
925.064	11372
925.172	11280
925.279	11326
925.387	11398
925.494	11303
925.602	11463
925.709	11417
925.816	11402
925.924	11337
926.031	11448
926.138	11436
926.245	11501
926.352	11337
926.459	11353
926.566	11330
926.673	11265
926.779	11227
926.886	11064
926.993	11105
927.099	10991
927.206	10927
927.312	10938
927.419	11064
927.525	11003
927.631	11071
927.737	10908
927.843	10877
927.95	10763
928.056	10881
928.162	10854
928.267	10942
928.373	11433
928.479	10896
928.585	10714
928.69	10771
928.796	10828
928.901	10790
929.007	10653
929.112	10778
929.218	10577
929.323	10755
929.428	10546
929.533	10755
929.638	10611
929.743	10504
929.848	10634
929.953	10504
930.058	10417
930.163	10223
930.267	10348
930.372	10474
930.477	10341
930.581	10508
930.685	10409
930.79	10249
930.894	10306
930.998	10124
931.103	10325
931.207	9903
931.311	9975
931.415	9873
931.519	9701
931.623	9656
