Data from test_V78500241_3636.txt Node
Date: Fri Mar 25 14:59:02 CST 2022
User: usil
Spectrometer: V785-0024
Trigger mode: 0
Integration Time (sec): 4.000000E-1
Scans to average: 1
Nonlinearity correction enabled: false
Boxcar width: 0
Storing dark spectrum: false
XAxis mode: Wavelengths
Number of Pixels in Spectrum: 1024
>>>>>Begin Spectral Data<<<<<
801.071	21842
801.214	21816
801.356	21526
801.499	21523
801.641	21386
801.783	21256
801.926	21245
802.068	21249
802.211	21302
802.353	21074
802.496	20823
802.638	20708
802.78	20579
802.923	20697
803.065	20473
803.208	20644
803.35	20625
803.492	20674
803.635	20762
803.777	20606
803.919	20697
804.061	20952
804.204	20613
804.346	20434
804.488	20503
804.63	20575
804.773	20465
804.915	20545
805.057	20693
805.199	20454
805.341	20644
805.483	20579
805.626	20579
805.768	20492
805.91	20598
806.052	20495
806.194	20537
806.336	20674
806.478	20476
806.62	20552
806.762	20568
806.904	20670
807.046	20952
807.188	20712
807.33	20705
807.472	20864
807.614	20670
807.756	20826
807.898	20461
808.04	20568
808.182	20484
808.324	20594
808.465	20617
808.607	20807
808.749	20952
808.891	20899
809.033	21100
809.174	20937
809.316	20845
809.458	20914
809.6	20880
809.741	20872
809.883	20868
810.025	20960
810.166	21013
810.308	21047
810.45	20960
810.591	20830
810.733	20716
810.875	20705
811.016	20590
811.158	20533
811.299	20678
811.441	20815
811.582	20773
811.724	20617
811.865	20651
812.007	20613
812.148	20674
812.29	20693
812.431	20842
812.573	20941
812.714	20998
812.855	21005
812.997	21176
813.138	21401
813.279	21218
813.421	21214
813.562	21028
813.703	20914
813.845	20754
813.986	20400
814.127	20370
814.268	20237
814.41	20252
814.551	20206
814.692	20214
814.833	20100
814.974	20069
815.115	20172
815.256	20119
815.397	19997
815.539	19955
815.68	19894
815.821	19906
815.962	19780
816.103	19898
816.244	19818
816.385	19696
816.526	19552
816.666	19403
816.807	19213
816.948	19339
817.089	19407
817.23	19362
817.371	19240
817.512	19407
817.653	19240
817.793	19274
817.934	19343
818.075	19285
818.216	19278
818.356	19278
818.497	19183
818.638	18973
818.778	19019
818.919	18989
819.06	18970
819.2	19080
819.341	19266
819.481	19164
819.622	19270
819.762	19518
819.903	19400
820.043	19411
820.184	19293
820.324	19213
820.465	19388
820.605	19270
820.746	19270
820.886	19133
821.026	19308
821.167	19308
821.307	19373
821.447	19259
821.588	19110
821.728	19027
821.868	18814
822.008	18661
822.149	18738
822.289	18631
822.429	18479
822.569	18399
822.709	18315
822.849	18194
822.99	18178
823.13	18079
823.27	18201
823.41	18110
823.55	17958
823.69	18015
823.83	17988
823.97	17920
824.11	17760
824.25	17653
824.389	17710
824.529	17863
824.669	17767
824.809	17874
824.949	17912
825.089	17824
825.228	17798
825.368	17455
825.508	17562
825.648	17581
825.787	17532
825.927	17589
826.067	17573
826.206	17505
826.346	17512
826.485	17585
826.625	17539
826.765	17653
826.904	17760
827.044	17239
827.183	17345
827.323	17258
827.462	17368
827.601	17265
827.741	17235
827.88	17235
828.02	17075
828.159	17174
828.298	17197
828.437	17330
828.577	17197
828.716	17463
828.855	17181
828.994	17052
829.134	17048
829.273	17121
829.412	16942
829.551	16896
829.69	16896
829.829	16987
829.968	17094
830.107	17060
830.246	17037
830.385	16911
830.524	16904
830.663	16801
830.802	16694
830.941	16683
831.08	16622
831.219	16626
831.357	16698
831.496	16885
831.635	16626
831.774	16527
831.913	16523
832.051	16421
832.19	16413
832.329	16462
832.467	16280
832.606	16261
832.744	16253
832.883	16253
833.022	16303
833.16	16356
833.299	16390
833.437	16322
833.576	16333
833.714	16303
833.852	16337
833.991	16348
834.129	16436
834.267	16417
834.406	16424
834.544	16462
834.682	16386
834.821	16371
834.959	16523
835.097	16390
835.235	16440
835.373	16417
835.511	16363
835.65	16246
835.788	16257
835.926	16059
836.064	16105
836.202	16188
836.34	16280
836.478	16428
836.615	16246
836.753	16386
836.891	16382
837.029	16337
837.167	16246
837.305	16181
837.443	16215
837.58	16135
837.718	16230
837.856	16280
837.993	16109
838.131	16173
838.269	16067
838.406	16162
838.544	16021
838.681	15876
838.819	15865
838.956	15766
839.094	15686
839.231	15804
839.369	15857
839.506	16120
839.643	16044
839.781	15865
839.918	15656
840.055	15812
840.193	15762
840.33	15720
840.467	15682
840.604	15701
840.742	15964
840.879	15603
841.016	15686
841.153	15747
841.29	15816
841.427	15686
841.564	15766
841.701	15728
841.838	15709
841.975	15553
842.112	15701
842.249	15428
842.385	15599
842.522	15698
842.659	15595
842.796	15443
842.933	15618
843.069	15431
843.206	15443
843.343	15542
843.479	15496
843.616	15523
843.752	15310
843.889	15306
844.025	15344
844.162	15302
844.298	15378
844.435	15344
844.571	15302
844.708	15363
844.844	15416
844.98	15435
845.117	15321
845.253	15310
845.389	15222
845.525	15275
845.661	15032
845.798	15104
845.934	15043
846.07	15077
846.206	15154
846.342	15154
846.478	15203
846.614	14868
846.75	14769
846.886	14819
847.022	15013
847.158	15017
847.294	14891
847.429	14910
847.565	14906
847.701	15043
847.837	14602
847.972	14541
848.108	14720
848.244	14678
848.379	14549
848.515	14457
848.65	14423
848.786	14514
848.921	14507
849.057	14617
849.192	14571
849.328	14488
849.463	14518
849.598	14469
849.734	14366
849.869	14370
850.004	14248
850.14	14301
850.275	14176
850.41	14092
850.545	14157
850.68	14199
850.815	14339
850.95	14225
851.085	14408
851.22	14309
851.355	14237
851.49	14183
851.625	14153
851.76	14210
851.895	14176
852.03	14115
852.165	14248
852.299	14252
852.434	14328
852.569	14282
852.703	14199
852.838	14263
852.973	14374
853.107	14294
853.242	14161
853.376	14084
853.511	13944
853.645	14115
853.78	14172
853.914	14073
854.048	14020
854.183	13944
854.317	14073
854.451	14233
854.585	14138
854.72	14065
854.854	14214
854.988	13909
855.122	14050
855.256	13875
855.39	14077
855.524	14218
855.658	14134
855.792	14180
855.926	14149
856.06	14183
856.194	14195
856.327	14077
856.461	14164
856.595	14039
856.729	14123
856.862	14248
856.996	14130
857.13	14248
857.263	14214
857.397	14237
857.53	14088
857.664	14176
857.797	14206
857.931	14221
858.064	14153
858.197	14278
858.331	14134
858.464	14092
858.597	14024
858.731	14043
858.864	14088
858.997	14183
859.13	14077
859.263	14077
859.396	14214
859.529	14130
859.662	14073
859.795	14138
859.928	14145
860.061	14286
860.194	14336
860.327	14176
860.46	14134
860.592	14252
860.725	14206
860.858	14229
860.99	14069
861.123	13997
861.256	13963
861.388	14062
861.521	14895
861.653	13936
861.786	13978
861.918	13974
862.05	13940
862.183	14142
862.315	14084
862.447	14138
862.58	14081
862.712	13909
862.844	13742
862.976	13909
863.108	13967
863.24	14385
863.372	13883
863.504	13879
863.636	13917
863.768	13928
863.9	13955
864.032	13879
864.164	13974
864.296	13902
864.428	14027
864.559	13959
864.691	14012
864.823	13989
864.954	13906
865.086	13860
865.217	13871
865.349	13818
865.48	13909
865.612	13890
865.743	14096
865.875	13894
866.006	13913
866.137	13951
866.269	13883
866.4	13826
866.531	13906
866.662	13753
866.793	13875
866.924	13769
867.055	13845
867.186	13894
867.317	13852
867.448	13788
867.579	13868
867.71	13833
867.841	13814
867.972	13879
868.103	13776
868.233	13921
868.364	13898
868.495	13974
868.625	14138
868.756	14180
868.886	14062
869.017	14199
869.147	14176
869.278	14332
869.408	14100
869.539	14161
869.669	14199
869.799	14195
869.929	14225
870.06	14233
870.19	14423
870.32	14530
870.45	14473
870.58	14590
870.71	14632
870.84	14632
870.97	14476
871.1	14568
871.23	14781
871.36	14712
871.489	14606
871.619	14575
871.749	14785
871.879	14693
872.008	14826
872.138	14777
872.267	14762
872.397	14579
872.526	14575
872.656	14625
872.785	14575
872.915	14838
873.044	14800
873.173	14769
873.303	14823
873.432	14883
873.561	14800
873.69	14861
873.819	14743
873.948	14842
874.077	14807
874.206	14746
874.335	14815
874.464	14914
874.593	15043
874.722	14990
874.851	15169
874.979	15093
875.108	15146
875.237	15070
875.365	15043
875.494	15001
875.623	15203
875.751	15154
875.88	15146
876.008	15332
876.136	15317
876.265	15416
876.393	15622
876.521	15629
876.65	15625
876.778	15504
876.906	15500
877.034	15500
877.162	15424
877.29	15515
877.418	15507
877.546	15530
877.674	15549
877.802	15519
877.93	15534
878.058	15477
878.185	15359
878.313	15587
878.441	15492
878.568	15344
878.696	15435
878.824	15603
878.951	15603
879.079	15625
879.206	15781
879.333	15759
879.461	15587
879.588	15629
879.715	15671
879.842	15819
879.97	15538
880.097	15401
880.224	15412
880.351	15348
880.478	15473
880.605	15397
880.732	15382
880.859	15485
880.986	15431
881.112	15416
881.239	15264
881.366	15214
881.493	15097
881.619	15017
881.746	15058
881.872	15077
881.999	15142
882.125	15005
882.252	15036
882.378	15077
882.505	15169
882.631	14960
882.757	14887
882.883	14895
883.01	14804
883.136	14868
883.262	14769
883.388	14610
883.514	14800
883.64	14838
883.766	14830
883.892	14731
884.018	14617
884.143	14823
884.269	14921
884.395	14682
884.52	14552
884.646	14587
884.772	14526
884.897	14492
885.023	14583
885.148	14629
885.274	14750
885.399	14682
885.524	14583
885.65	14606
885.775	14541
885.9	14518
886.025	14636
886.15	14598
886.275	14450
886.4	14419
886.525	14579
886.65	14385
886.775	14537
886.9	14632
887.025	14762
887.149	14590
887.274	14412
887.399	14313
887.523	14317
887.648	14324
887.773	14317
887.897	14431
888.021	14469
888.146	14286
888.27	14514
888.395	14507
888.519	14370
888.643	14457
888.767	14484
888.891	14366
889.015	14233
889.139	14267
889.263	14157
889.387	14351
889.511	14446
889.635	14412
889.759	14161
889.883	14259
890.006	14210
890.13	14431
890.254	14187
890.377	14202
890.501	14024
890.624	14050
890.748	14168
890.871	14031
890.995	13906
891.118	13811
891.241	14001
891.364	14043
891.488	14134
891.611	13959
891.734	13970
891.857	13913
891.98	13913
892.103	14046
892.226	14016
892.349	13955
892.471	13696
892.594	13871
892.717	13997
892.839	13917
892.962	13944
893.085	14027
893.207	13898
893.33	13860
893.452	13936
893.575	13974
893.697	13883
893.819	14119
893.941	14058
894.064	14168
894.186	13936
894.308	13909
894.43	14088
894.552	14199
894.674	14096
894.796	13959
894.918	14024
895.04	13986
895.161	14149
895.283	14035
895.405	14069
895.526	14043
895.648	14149
895.769	14035
895.891	14084
896.012	14157
896.134	14187
896.255	14035
896.376	14096
896.498	14115
896.619	14161
896.74	14176
896.861	14180
896.982	14549
897.103	14640
897.224	14446
897.345	14415
897.466	14389
897.587	14377
897.708	14461
897.828	14442
897.949	14370
898.07	14301
898.19	14336
898.311	14533
898.431	14446
898.552	14465
898.672	14541
898.792	14530
898.913	14499
899.033	14404
899.153	14286
899.273	14278
899.393	14313
899.513	14400
899.633	14282
899.753	14290
899.873	14362
899.993	14294
900.113	14317
900.232	14408
900.352	14305
900.472	14290
900.591	14210
900.711	14244
900.83	14157
900.95	14305
901.069	14339
901.189	14107
901.308	13898
901.427	13883
901.546	13871
901.665	13852
901.784	13925
901.904	13708
902.023	13681
902.141	13483
902.26	13460
902.379	13438
902.498	13415
902.617	13365
902.735	13495
902.854	13396
902.973	13320
903.091	13156
903.21	13179
903.328	13266
903.446	13050
903.565	12977
903.683	13110
903.801	12894
903.919	12966
904.038	12958
904.156	12817
904.274	12871
904.392	12837
904.51	12798
904.627	12791
904.745	12856
904.863	12871
904.981	12665
905.098	12498
905.216	12574
905.334	12639
905.451	12559
905.569	12513
905.686	12563
905.803	12589
905.921	12414
906.038	12445
906.155	12304
906.272	12175
906.389	12292
906.506	12102
906.623	12220
906.74	12175
906.857	11961
906.974	12015
907.091	12121
907.208	12254
907.324	12277
907.441	12064
907.557	11840
907.674	11843
907.79	11775
907.907	11832
908.023	11904
908.139	11901
908.256	11821
908.372	11882
908.488	11802
908.604	11684
908.72	11589
908.836	11585
908.952	11600
909.068	11638
909.184	11817
909.3	11596
909.415	11668
909.531	11653
909.647	11448
909.762	11356
909.878	11410
909.993	11417
910.108	11421
910.224	11395
910.339	11391
910.454	11318
910.57	11322
910.685	11231
910.8	11467
910.915	11463
911.03	11311
911.145	11048
911.259	11109
911.374	11117
911.489	11056
911.604	10949
911.718	10900
911.833	10889
911.947	10862
912.062	10733
912.176	10793
912.291	10908
912.405	10889
912.519	11083
912.633	11102
912.748	10949
912.862	10858
912.976	10771
913.09	10725
913.204	10725
913.318	10740
913.431	10858
913.545	10820
913.659	10820
913.772	10687
913.886	10611
914	10717
914.113	10748
914.226	10809
914.34	10649
914.453	10531
914.566	10793
914.68	10504
914.793	10630
914.906	10363
915.019	10344
915.132	10253
915.245	10356
915.358	10367
915.47	10428
915.583	10424
915.696	10360
915.809	10500
915.921	10626
916.034	10284
916.146	10337
916.259	10322
916.371	10478
916.483	10413
916.595	10265
916.708	10337
916.82	10325
916.932	10363
917.044	10333
917.156	10363
917.268	10154
917.38	10200
917.491	10131
917.603	10211
917.715	10352
917.826	10325
917.938	10204
918.049	10150
918.161	10177
918.272	10318
918.384	10352
918.495	10204
918.606	10074
918.717	9964
918.828	10120
918.939	10097
919.05	9998
919.161	10017
919.272	9926
919.383	9953
919.494	10188
919.604	10398
919.715	10177
919.826	9994
919.936	10044
920.047	10238
920.157	10105
920.267	10329
920.378	10139
920.488	10090
920.598	10280
920.708	10459
920.818	10291
920.928	10348
921.038	10417
921.148	10424
921.258	10128
921.368	10116
921.477	10074
921.587	10059
921.697	9876
921.806	10002
921.916	9873
922.025	9667
922.134	9736
922.244	9648
922.353	9701
922.462	9580
922.571	9481
922.68	9424
922.789	9382
922.898	9401
923.007	9306
923.116	9462
923.224	9412
923.333	9439
923.442	9253
923.55	9275
923.659	9351
923.767	9344
923.876	9226
923.984	9325
924.092	9104
924.201	9230
924.309	9260
924.417	9275
924.525	9161
924.633	9207
924.741	9991
924.849	9039
924.956	9245
925.064	9017
925.172	8941
925.279	8910
925.387	9013
925.494	9028
925.602	9127
925.709	9028
925.816	8933
925.924	9089
926.031	9058
926.138	9043
926.245	9097
926.352	8937
926.459	9039
926.566	9131
926.673	8963
926.779	8948
926.886	8899
926.993	8796
927.099	8739
927.206	8629
927.312	8689
927.419	8769
927.525	8796
927.631	8849
927.737	8682
927.843	8632
927.95	8552
928.056	8598
928.162	8636
928.267	8693
928.373	9176
928.479	8735
928.585	8503
928.69	8575
928.796	8693
928.901	8518
929.007	8377
929.112	8602
929.218	8575
929.323	8408
929.428	8457
929.533	8571
929.638	8427
929.743	8393
929.848	8530
929.953	8442
930.058	8377
930.163	8282
930.267	8233
930.372	8404
930.477	8225
930.581	8503
930.685	8347
930.79	8111
930.894	8183
930.998	8161
931.103	8317
931.207	7940
931.311	7921
931.415	7849
931.519	7700
931.623	7681
