Data from test_V78500241_3007.txt Node
Date: Fri Mar 25 14:54:39 CST 2022
User: usil
Spectrometer: V785-0024
Trigger mode: 0
Integration Time (sec): 4.000000E-1
Scans to average: 1
Nonlinearity correction enabled: false
Boxcar width: 0
Storing dark spectrum: false
XAxis mode: Wavelengths
Number of Pixels in Spectrum: 1024
>>>>>Begin Spectral Data<<<<<
801.071	22040
801.214	21907
801.356	21728
801.499	21614
801.641	21462
801.783	21477
801.926	21466
802.068	21401
802.211	21317
802.353	21272
802.496	21089
802.638	21024
802.78	20982
802.923	20975
803.065	20705
803.208	20629
803.35	20811
803.492	20834
803.635	20811
803.777	20701
803.919	20899
804.061	21127
804.204	20785
804.346	20727
804.488	20575
804.63	20750
804.773	20598
804.915	20815
805.057	20872
805.199	20773
805.341	20720
805.483	20788
805.626	20701
805.768	20629
805.91	20655
806.052	20651
806.194	20705
806.336	20815
806.478	20724
806.62	20663
806.762	20830
806.904	20891
807.046	21211
807.188	20994
807.33	20960
807.472	21150
807.614	20899
807.756	20994
807.898	20853
808.04	20758
808.182	20804
808.324	20834
808.465	20796
808.607	21108
808.749	21184
808.891	21150
809.033	21325
809.174	21146
809.316	21146
809.458	21123
809.6	21028
809.741	21116
809.883	21108
810.025	21195
810.166	21230
810.308	21195
810.45	21275
810.591	21161
810.733	20994
810.875	20834
811.016	20758
811.158	20823
811.299	20899
811.441	20956
811.582	20937
811.724	20864
811.865	20925
812.007	20868
812.148	20853
812.29	20963
812.431	21005
812.573	21150
812.714	21195
812.855	21294
812.997	21507
813.138	21568
813.279	21477
813.421	21367
813.562	21230
813.703	21165
813.845	20986
813.986	20773
814.127	20526
814.268	20461
814.41	20389
814.551	20408
814.692	20511
814.833	20461
814.974	20313
815.115	20377
815.256	20252
815.397	20355
815.539	20313
815.68	20176
815.821	20024
815.962	20122
816.103	20164
816.244	19890
816.385	19837
816.526	19788
816.666	19605
816.807	19559
816.948	19544
817.089	19639
817.23	19556
817.371	19559
817.512	19426
817.653	19529
817.793	19388
817.934	19533
818.075	19533
818.216	19495
818.356	19468
818.497	19297
818.638	19152
818.778	19141
818.919	19175
819.06	19297
819.2	19316
819.341	19354
819.481	19468
819.622	19548
819.762	19681
819.903	19738
820.043	19670
820.184	19693
820.324	19506
820.465	19495
820.605	19510
820.746	19457
820.886	19308
821.026	19438
821.167	19346
821.307	19586
821.447	19392
821.588	19301
821.728	19152
821.868	18928
822.008	18878
822.149	18886
822.289	18928
822.429	18688
822.569	18574
822.709	18509
822.849	18361
822.99	18437
823.13	18258
823.27	18384
823.41	18144
823.55	18190
823.69	18152
823.83	18224
823.97	18209
824.11	17980
824.25	17927
824.389	18038
824.529	18068
824.669	18038
824.809	18019
824.949	18057
825.089	18030
825.228	17889
825.368	17798
825.508	17737
825.648	17745
825.787	17687
825.927	17824
826.067	17707
826.206	17786
826.346	17684
826.485	17836
826.625	17646
826.765	17870
826.904	17745
827.044	17440
827.183	17452
827.323	17299
827.462	17490
827.601	17482
827.741	17493
827.88	17433
828.02	17322
828.159	17463
828.298	17402
828.437	17490
828.577	17368
828.716	17566
828.855	17280
828.994	17090
829.134	17151
829.273	17185
829.412	17079
829.551	17109
829.69	17124
829.829	17140
829.968	17193
830.107	17231
830.246	17212
830.385	17098
830.524	16987
830.663	17071
830.802	16968
830.941	16759
831.08	16767
831.219	16862
831.357	16934
831.496	17025
831.635	16774
831.774	16702
831.913	16649
832.051	16523
832.19	16542
832.329	16599
832.467	16466
832.606	16500
832.744	16352
832.883	16413
833.022	16367
833.16	16421
833.299	16527
833.437	16466
833.576	16462
833.714	16428
833.852	16554
833.991	16580
834.129	16523
834.267	16573
834.406	16424
834.544	16527
834.682	16523
834.821	16459
834.959	16596
835.097	16512
835.235	16580
835.373	16588
835.511	16360
835.65	16386
835.788	16447
835.926	16230
836.064	16246
836.202	16257
836.34	16500
836.478	16523
836.615	16352
836.753	16402
836.891	16493
837.029	16436
837.167	16432
837.305	16375
837.443	16375
837.58	16185
837.718	16356
837.856	16405
837.993	16261
838.131	16295
838.269	16131
838.406	16162
838.544	16158
838.681	16044
838.819	15850
838.956	15823
839.094	15838
839.231	15880
839.369	15975
839.506	16280
839.643	16048
839.781	15937
839.918	15827
840.055	15838
840.193	15812
840.33	15755
840.467	15800
840.604	15865
840.742	16029
840.879	15770
841.016	15804
841.153	15690
841.29	15937
841.427	15857
841.564	15838
841.701	15789
841.838	15774
841.975	15747
842.112	15747
842.249	15660
842.385	15523
842.522	15800
842.659	15644
842.796	15500
842.933	15603
843.069	15534
843.206	15443
843.343	15682
843.479	15557
843.616	15686
843.752	15348
843.889	15397
844.025	15443
844.162	15252
844.298	15405
844.435	15420
844.571	15405
844.708	15447
844.844	15515
844.98	15587
845.117	15561
845.253	15336
845.389	15184
845.525	15367
845.661	15176
845.798	15207
845.934	15268
846.07	15047
846.206	15249
846.342	15207
846.478	15237
846.614	14937
846.75	14895
846.886	14986
847.022	15036
847.158	14994
847.294	14891
847.429	14895
847.565	14937
847.701	15154
847.837	14746
847.972	14659
848.108	14765
848.244	14727
848.379	14613
848.515	14579
848.65	14484
848.786	14526
848.921	14575
849.057	14560
849.192	14651
849.328	14594
849.463	14465
849.598	14575
849.734	14533
849.869	14412
850.004	14324
850.14	14473
850.275	14320
850.41	14218
850.545	14351
850.68	14252
850.815	14343
850.95	14328
851.085	14530
851.22	14385
851.355	14347
851.49	14324
851.625	14301
851.76	14286
851.895	14180
852.03	14225
852.165	14240
852.299	14278
852.434	14358
852.569	14343
852.703	14366
852.838	14351
852.973	14438
853.107	14552
853.242	14218
853.376	14237
853.511	14005
853.645	14107
853.78	14301
853.914	14259
854.048	14199
854.183	14142
854.317	14183
854.451	14248
854.585	14225
854.72	14145
854.854	14233
854.988	14240
855.122	14065
855.256	14058
855.39	14092
855.524	14187
855.658	14256
855.792	14214
855.926	14244
856.06	14313
856.194	14328
856.327	14244
856.461	14107
856.595	14126
856.729	14282
856.862	14347
856.996	14252
857.13	14180
857.263	14324
857.397	14370
857.53	14214
857.664	14240
857.797	14286
857.931	14305
858.064	14233
858.197	14332
858.331	14229
858.464	14164
858.597	14043
858.731	14176
858.864	14206
858.997	14107
859.13	14195
859.263	14115
859.396	14278
859.529	14172
859.662	14103
859.795	14126
859.928	14324
860.061	14298
860.194	14309
860.327	14301
860.46	14164
860.592	14263
860.725	14374
860.858	14358
860.99	14343
861.123	14130
861.256	14096
861.388	14130
861.521	14975
861.653	14035
861.786	13974
861.918	14206
862.05	14069
862.183	14180
862.315	14168
862.447	14210
862.58	14123
862.712	14039
862.844	13921
862.976	14005
863.108	14016
863.24	14286
863.372	13951
863.504	13944
863.636	13913
863.768	14012
863.9	13978
864.032	13830
864.164	13944
864.296	14008
864.428	14123
864.559	14111
864.691	14039
864.823	14081
864.954	14008
865.086	13917
865.217	13917
865.349	13837
865.48	13951
865.612	13997
865.743	14058
865.875	13970
866.006	13833
866.137	14008
866.269	13925
866.4	13951
866.531	13883
866.662	13795
866.793	13830
866.924	13993
867.055	13928
867.186	13944
867.317	13917
867.448	13860
867.579	13879
867.71	13913
867.841	13818
867.972	13932
868.103	13883
868.233	13925
868.364	14062
868.495	14008
868.625	14214
868.756	14256
868.886	14126
869.017	14206
869.147	14145
869.278	14317
869.408	14218
869.539	14180
869.669	14237
869.799	14278
869.929	14320
870.06	14332
870.19	14480
870.32	14446
870.45	14541
870.58	14541
870.71	14716
870.84	14792
870.97	14598
871.1	14503
871.23	14845
871.36	14830
871.489	14636
871.619	14712
871.749	14785
871.879	14811
872.008	14861
872.138	14826
872.267	14724
872.397	14590
872.526	14606
872.656	14648
872.785	14693
872.915	14785
873.044	14902
873.173	14781
873.303	14872
873.432	14861
873.561	14929
873.69	14788
873.819	14826
873.948	14914
874.077	14918
874.206	14845
874.335	14826
874.464	14979
874.593	15226
874.722	15093
874.851	15146
874.979	15173
875.108	15233
875.237	15055
875.365	15055
875.494	15157
875.623	15283
875.751	15146
875.88	15302
876.008	15351
876.136	15382
876.265	15557
876.393	15633
876.521	15587
876.65	15701
876.778	15641
876.906	15557
877.034	15557
877.162	15542
877.29	15393
877.418	15511
877.546	15591
877.674	15641
877.802	15591
877.93	15618
878.058	15561
878.185	15462
878.313	15553
878.441	15523
878.568	15435
878.696	15519
878.824	15629
878.951	15629
879.079	15690
879.206	15827
879.333	15774
879.461	15648
879.588	15610
879.715	15698
879.842	15884
879.97	15717
880.097	15462
880.224	15386
880.351	15393
880.478	15420
880.605	15389
880.732	15447
880.859	15667
880.986	15408
881.112	15443
881.239	15416
881.366	15195
881.493	15058
881.619	15184
881.746	15028
881.872	15165
881.999	15013
882.125	15032
882.252	15135
882.378	15150
882.505	15298
882.631	15017
882.757	14937
882.883	15058
883.01	14861
883.136	14815
883.262	14708
883.388	14746
883.514	14891
883.64	14861
883.766	14933
883.892	14712
884.018	14727
884.143	14826
884.269	14960
884.395	14705
884.52	14533
884.646	14644
884.772	14549
884.897	14533
885.023	14590
885.148	14762
885.274	14724
885.399	14716
885.524	14682
885.65	14629
885.775	14629
885.9	14621
886.025	14724
886.15	14705
886.275	14598
886.4	14457
886.525	14530
886.65	14518
886.775	14533
886.9	14712
887.025	14876
887.149	14625
887.274	14450
887.399	14339
887.523	14438
887.648	14343
887.773	14339
887.897	14564
888.021	14488
888.146	14396
888.27	14431
888.395	14549
888.519	14431
888.643	14552
888.767	14549
888.891	14347
889.015	14176
889.139	14313
889.263	14328
889.387	14419
889.511	14442
889.635	14571
889.759	14244
889.883	14305
890.006	14278
890.13	14351
890.254	14229
890.377	14210
890.501	13974
890.624	14100
890.748	14286
890.871	14062
890.995	13997
891.118	13868
891.241	13963
891.364	13947
891.488	14123
891.611	14035
891.734	13967
891.857	14062
891.98	14054
892.103	14046
892.226	13997
892.349	13864
892.471	13837
892.594	13894
892.717	13951
892.839	13936
892.962	13970
893.085	14092
893.207	14039
893.33	13928
893.452	13909
893.575	14046
893.697	14050
893.819	14096
893.941	14214
894.064	14168
894.186	13932
894.308	13959
894.43	14145
894.552	14298
894.674	14153
894.796	14031
894.918	14024
895.04	14123
895.161	14119
895.283	14084
895.405	13993
895.526	14130
895.648	14073
895.769	14214
895.891	14138
896.012	14206
896.134	14218
896.255	14126
896.376	14130
896.498	14195
896.619	14233
896.74	14168
896.861	14221
896.982	14549
897.103	14651
897.224	14518
897.345	14438
897.466	14374
897.587	14480
897.708	14610
897.828	14533
897.949	14419
898.07	14377
898.19	14393
898.311	14530
898.431	14503
898.552	14492
898.672	14579
898.792	14632
898.913	14613
899.033	14465
899.153	14370
899.273	14259
899.393	14332
899.513	14427
899.633	14476
899.753	14461
899.873	14362
899.993	14461
900.113	14457
900.232	14469
900.352	14450
900.472	14267
900.591	14278
900.711	14286
900.83	14225
900.95	14377
901.069	14343
901.189	14206
901.308	13959
901.427	13860
901.546	13909
901.665	13963
901.784	13814
901.904	13788
902.023	13807
902.141	13559
902.26	13605
902.379	13620
902.498	13556
902.617	13578
902.735	13521
902.854	13495
902.973	13441
903.091	13285
903.21	13217
903.328	13259
903.446	13213
903.565	13118
903.683	13061
903.801	12985
903.919	13046
904.038	12977
904.156	12882
904.274	12928
904.392	12844
904.51	12905
904.627	12905
904.745	12932
904.863	12916
904.981	12692
905.098	12623
905.216	12673
905.334	12696
905.451	12528
905.569	12578
905.686	12608
905.803	12547
905.921	12437
906.038	12483
906.155	12445
906.272	12262
906.389	12357
906.506	12224
906.623	12273
906.74	12152
906.857	12114
906.974	12178
907.091	12285
907.208	12190
907.324	12285
907.441	12117
907.557	11965
907.674	11927
907.79	11904
907.907	11969
908.023	12034
908.139	11866
908.256	11901
908.372	11824
908.488	11756
908.604	11745
908.72	11691
908.836	11707
908.952	11691
909.068	11745
909.184	11790
909.3	11699
909.415	11680
909.531	11661
909.647	11471
909.762	11452
909.878	11383
909.993	11391
910.108	11474
910.224	11478
910.339	11410
910.454	11395
910.57	11307
910.685	11303
910.8	11532
910.915	11436
911.03	11322
911.145	11174
911.259	11151
911.374	11155
911.489	11086
911.604	11086
911.718	10923
911.833	10949
911.947	10805
912.062	10744
912.176	10866
912.291	10911
912.405	10869
912.519	11086
912.633	11136
912.748	10961
912.862	10858
912.976	10786
913.09	10664
913.204	10672
913.318	10835
913.431	10972
913.545	10869
913.659	10953
913.772	10801
913.886	10687
914	10653
914.113	10721
914.226	10797
914.34	10725
914.453	10580
914.566	10755
914.68	10615
914.793	10622
914.906	10478
915.019	10440
915.132	10386
915.245	10436
915.358	10417
915.47	10314
915.583	10440
915.696	10504
915.809	10622
915.921	10573
916.034	10436
916.146	10280
916.259	10341
916.371	10481
916.483	10398
916.595	10284
916.708	10329
916.82	10344
916.932	10394
917.044	10268
917.156	10287
917.268	10219
917.38	10268
917.491	10249
917.603	10253
917.715	10303
917.826	10432
917.938	10211
918.049	10166
918.161	10268
918.272	10382
918.384	10367
918.495	10219
918.606	10074
918.717	10120
918.828	10135
918.939	10131
919.05	10021
919.161	10272
919.272	9842
919.383	9987
919.494	10185
919.604	10356
919.715	10196
919.826	10071
919.936	10181
920.047	10253
920.157	10173
920.267	10409
920.378	10116
920.488	10128
920.598	10390
920.708	10504
920.818	10405
920.928	10402
921.038	10592
921.148	10535
921.258	10257
921.368	10116
921.477	10128
921.587	10067
921.697	9937
921.806	10101
921.916	9953
922.025	9781
922.134	9713
922.244	9705
922.353	9766
922.462	9629
922.571	9606
922.68	9485
922.789	9405
922.898	9424
923.007	9428
923.116	9511
923.224	9500
923.333	9408
923.442	9260
923.55	9332
923.659	9416
923.767	9428
923.876	9313
923.984	9389
924.092	9203
924.201	9325
924.309	9302
924.417	9317
924.525	9275
924.633	9272
924.741	10219
924.849	9161
924.956	9260
925.064	9192
925.172	8986
925.279	9070
925.387	9173
925.494	9195
925.602	9279
925.709	9184
925.816	9024
925.924	9093
926.031	9142
926.138	9123
926.245	9070
926.352	9047
926.459	9154
926.566	9188
926.673	9020
926.779	8967
926.886	8994
926.993	8876
927.099	8796
927.206	8758
927.312	8815
927.419	8918
927.525	8819
927.631	8887
927.737	8720
927.843	8701
927.95	8568
928.056	8648
928.162	8735
928.267	8735
928.373	9317
928.479	8796
928.585	8549
928.69	8739
928.796	8724
928.901	8651
929.007	8518
929.112	8606
929.218	8587
929.323	8541
929.428	8530
929.533	8678
929.638	8499
929.743	8473
929.848	8533
929.953	8526
930.058	8499
930.163	8366
930.267	8309
930.372	8503
930.477	8263
930.581	8511
930.685	8366
930.79	8294
930.894	8237
930.998	8229
931.103	8370
931.207	8062
931.311	8016
931.415	7925
931.519	7719
931.623	7769
