Data from test_V78500241_2607.txt Node
Date: Fri Mar 25 14:51:52 CST 2022
User: usil
Spectrometer: V785-0024
Trigger mode: 0
Integration Time (sec): 4.000000E-1
Scans to average: 1
Nonlinearity correction enabled: false
Boxcar width: 0
Storing dark spectrum: false
XAxis mode: Wavelengths
Number of Pixels in Spectrum: 1024
>>>>>Begin Spectral Data<<<<<
801.071	21979
801.214	21934
801.356	21644
801.499	21447
801.641	21351
801.783	21378
801.926	21485
802.068	21272
802.211	21344
802.353	21066
802.496	20994
802.638	20933
802.78	20876
802.923	20689
803.065	20609
803.208	20716
803.35	20777
803.492	20743
803.635	20876
803.777	20667
803.919	20743
804.061	20971
804.204	20735
804.346	20560
804.488	20568
804.63	20613
804.773	20507
804.915	20541
805.057	20777
805.199	20465
805.341	20674
805.483	20682
805.626	20583
805.768	20590
805.91	20590
806.052	20651
806.194	20518
806.336	20712
806.478	20533
806.62	20667
806.762	20606
806.904	20693
807.046	21062
807.188	20864
807.33	20887
807.472	21058
807.614	20800
807.756	20823
807.898	20731
808.04	20556
808.182	20667
808.324	20686
808.465	20758
808.607	20941
808.749	20830
808.891	20994
809.033	21119
809.174	21013
809.316	20861
809.458	20868
809.6	21009
809.741	20975
809.883	21074
810.025	21233
810.166	21074
810.308	21020
810.45	21005
810.591	21039
810.733	20876
810.875	20667
811.016	20625
811.158	20674
811.299	20769
811.441	20914
811.582	20853
811.724	20731
811.865	20613
812.007	20746
812.148	20720
812.29	20769
812.431	20914
812.573	21036
812.714	21138
812.855	21169
812.997	21336
813.138	21340
813.279	21359
813.421	21252
813.562	21096
813.703	20979
813.845	20914
813.986	20583
814.127	20465
814.268	20244
814.41	20355
814.551	20191
814.692	20263
814.833	20206
814.974	20153
815.115	20229
815.256	20252
815.397	20187
815.539	20126
815.68	20020
815.821	19845
815.962	20050
816.103	19925
816.244	19909
816.385	19723
816.526	19632
816.666	19559
816.807	19464
816.948	19510
817.089	19453
817.23	19514
817.371	19411
817.512	19293
817.653	19381
817.793	19312
817.934	19339
818.075	19407
818.216	19331
818.356	19285
818.497	19244
818.638	19004
818.778	18993
818.919	18996
819.06	19168
819.2	19240
819.341	19263
819.481	19190
819.622	19358
819.762	19628
819.903	19578
820.043	19426
820.184	19343
820.324	19362
820.465	19537
820.605	19316
820.746	19381
820.886	19179
821.026	19316
821.167	19373
821.307	19327
821.447	19259
821.588	19362
821.728	19107
821.868	18863
822.008	18882
822.149	18814
822.289	18703
822.429	18585
822.569	18452
822.709	18502
822.849	18281
822.99	18281
823.13	18289
823.27	18167
823.41	18117
823.55	18045
823.69	18121
823.83	18045
823.97	18068
824.11	17988
824.25	17859
824.389	17748
824.529	18019
824.669	17764
824.809	18003
824.949	17942
825.089	17870
825.228	17901
825.368	17623
825.508	17737
825.648	17665
825.787	17718
825.927	17634
826.067	17630
826.206	17604
826.346	17699
826.485	17611
826.625	17596
826.765	17783
826.904	17630
827.044	17395
827.183	17376
827.323	17368
827.462	17410
827.601	17414
827.741	17349
827.88	17349
828.02	17174
828.159	17299
828.298	17436
828.437	17474
828.577	17227
828.716	17452
828.855	17296
828.994	17128
829.134	17098
829.273	17151
829.412	17071
829.551	17079
829.69	17018
829.829	17151
829.968	17200
830.107	17265
830.246	17162
830.385	16965
830.524	16915
830.663	16923
830.802	16805
830.941	16809
831.08	16664
831.219	16702
831.357	16809
831.496	16839
831.635	16774
831.774	16561
831.913	16656
832.051	16546
832.19	16565
832.329	16538
832.467	16493
832.606	16409
832.744	16291
832.883	16299
833.022	16310
833.16	16360
833.299	16367
833.437	16436
833.576	16516
833.714	16417
833.852	16580
833.991	16440
834.129	16493
834.267	16565
834.406	16379
834.544	16489
834.682	16466
834.821	16516
834.959	16561
835.097	16386
835.235	16443
835.373	16447
835.511	16478
835.65	16337
835.788	16394
835.926	16295
836.064	16101
836.202	16150
836.34	16303
836.478	16440
836.615	16306
836.753	16459
836.891	16512
837.029	16333
837.167	16329
837.305	16253
837.443	16242
837.58	16215
837.718	16325
837.856	16230
837.993	16226
838.131	16265
838.269	16124
838.406	16219
838.544	16143
838.681	15934
838.819	15831
838.956	15732
839.094	15812
839.231	15895
839.369	15937
839.506	16143
839.643	15979
839.781	15838
839.918	15720
840.055	15945
840.193	15785
840.33	15759
840.467	15819
840.604	15819
840.742	16025
840.879	15667
841.016	15698
841.153	15759
841.29	15895
841.427	15899
841.564	15892
841.701	15800
841.838	15804
841.975	15644
842.112	15755
842.249	15652
842.385	15572
842.522	15812
842.659	15625
842.796	15538
842.933	15568
843.069	15694
843.206	15572
843.343	15637
843.479	15614
843.616	15694
843.752	15435
843.889	15393
844.025	15591
844.162	15359
844.298	15507
844.435	15264
844.571	15355
844.708	15439
844.844	15576
844.98	15561
845.117	15496
845.253	15264
845.389	15268
845.525	15325
845.661	15237
845.798	15161
845.934	15165
846.07	15150
846.206	15233
846.342	15230
846.478	15218
846.614	14921
846.75	14967
846.886	14849
847.022	15104
847.158	14921
847.294	14967
847.429	15032
847.565	14990
847.701	15192
847.837	14777
847.972	14663
848.108	14826
848.244	14682
848.379	14636
848.515	14560
848.65	14549
848.786	14488
848.921	14571
849.057	14689
849.192	14701
849.328	14625
849.463	14526
849.598	14537
849.734	14537
849.869	14366
850.004	14415
850.14	14351
850.275	14320
850.41	14294
850.545	14366
850.68	14313
850.815	14358
850.95	14298
851.085	14518
851.22	14393
851.355	14366
851.49	14278
851.625	14271
851.76	14278
851.895	14225
852.03	14290
852.165	14195
852.299	14381
852.434	14290
852.569	14320
852.703	14309
852.838	14469
852.973	14541
853.107	14461
853.242	14282
853.376	14225
853.511	14077
853.645	14100
853.78	14320
853.914	14123
854.048	14221
854.183	14244
854.317	14142
854.451	14358
854.585	14183
854.72	14180
854.854	14183
854.988	14050
855.122	14164
855.256	14084
855.39	14210
855.524	14256
855.658	14229
855.792	14172
855.926	14221
856.06	14301
856.194	14355
856.327	14206
856.461	14168
856.595	14237
856.729	14142
856.862	14233
856.996	14271
857.13	14271
857.263	14324
857.397	14275
857.53	14202
857.664	14309
857.797	14180
857.931	14244
858.064	14263
858.197	14263
858.331	14206
858.464	14218
858.597	14164
858.731	14195
858.864	14168
858.997	14107
859.13	14252
859.263	14332
859.396	14332
859.529	14126
859.662	14168
859.795	14187
859.928	14298
860.061	14442
860.194	14351
860.327	14168
860.46	14275
860.592	14313
860.725	14301
860.858	14393
860.99	14221
861.123	14126
861.256	14180
861.388	14237
861.521	14830
861.653	14161
861.786	14092
861.918	14126
862.05	14145
862.183	14214
862.315	14180
862.447	14259
862.58	14172
862.712	14020
862.844	13970
862.976	14050
863.108	14008
863.24	14438
863.372	13868
863.504	13947
863.636	14062
863.768	14084
863.9	14035
864.032	13944
864.164	13906
864.296	13932
864.428	14039
864.559	14035
864.691	14069
864.823	14077
864.954	13993
865.086	14012
865.217	13917
865.349	13909
865.48	13940
865.612	13944
865.743	14142
865.875	14001
866.006	13925
866.137	14039
866.269	13963
866.4	13909
866.531	13955
866.662	13906
866.793	13955
866.924	13856
867.055	13989
867.186	13928
867.317	13860
867.448	13963
867.579	13921
867.71	13822
867.841	13894
867.972	13989
868.103	13978
868.233	14016
868.364	13951
868.495	14035
868.625	14244
868.756	14336
868.886	14016
869.017	14206
869.147	14454
869.278	14347
869.408	14286
869.539	14206
869.669	14271
869.799	14180
869.929	14385
870.06	14305
870.19	14564
870.32	14518
870.45	14579
870.58	14602
870.71	14765
870.84	14602
870.97	14594
871.1	14545
871.23	14693
871.36	14739
871.489	14655
871.619	14788
871.749	14750
871.879	14880
872.008	14880
872.138	14845
872.267	14804
872.397	14762
872.526	14686
872.656	14636
872.785	14659
872.915	14857
873.044	14880
873.173	14948
873.303	14914
873.432	14925
873.561	14902
873.69	14815
873.819	14902
873.948	14864
874.077	14906
874.206	14853
874.335	14895
874.464	14956
874.593	15146
874.722	15165
874.851	15272
874.979	15317
875.108	15211
875.237	15093
875.365	15123
875.494	15207
875.623	15279
875.751	15108
875.88	15222
876.008	15313
876.136	15447
876.265	15644
876.393	15751
876.521	15701
876.65	15713
876.778	15595
876.906	15511
877.034	15603
877.162	15584
877.29	15538
877.418	15603
877.546	15576
877.674	15629
877.802	15564
877.93	15663
878.058	15572
878.185	15424
878.313	15447
878.441	15572
878.568	15553
878.696	15580
878.824	15667
878.951	15682
879.079	15686
879.206	15876
879.333	15694
879.461	15641
879.588	15698
879.715	15785
879.842	15941
879.97	15633
880.097	15469
880.224	15382
880.351	15504
880.478	15523
880.605	15439
880.732	15507
880.859	15709
880.986	15466
881.112	15443
881.239	15401
881.366	15245
881.493	15150
881.619	15058
881.746	15020
881.872	15176
881.999	15047
882.125	15077
882.252	15226
882.378	15226
882.505	15310
882.631	15176
882.757	14910
882.883	15005
883.01	14948
883.136	14826
883.262	14735
883.388	14834
883.514	14960
883.64	14994
883.766	14868
883.892	14785
884.018	14887
884.143	14921
884.269	14979
884.395	14743
884.52	14667
884.646	14663
884.772	14602
884.897	14575
885.023	14636
885.148	14693
885.274	14735
885.399	14716
885.524	14621
885.65	14701
885.775	14651
885.9	14613
886.025	14712
886.15	14701
886.275	14667
886.4	14602
886.525	14644
886.65	14613
886.775	14606
886.9	14800
887.025	14876
887.149	14564
887.274	14492
887.399	14381
887.523	14431
887.648	14355
887.773	14393
887.897	14488
888.021	14514
888.146	14434
888.27	14503
888.395	14613
888.519	14583
888.643	14476
888.767	14412
888.891	14427
889.015	14248
889.139	14381
889.263	14252
889.387	14370
889.511	14499
889.635	14412
889.759	14267
889.883	14351
890.006	14271
890.13	14476
890.254	14271
890.377	14324
890.501	14176
890.624	14138
890.748	14286
890.871	14077
890.995	14039
891.118	13944
891.241	13955
891.364	14088
891.488	14252
891.611	14107
891.734	14016
891.857	14126
891.98	13997
892.103	14081
892.226	14100
892.349	13982
892.471	13849
892.594	13989
892.717	14050
892.839	14050
892.962	14164
893.085	14176
893.207	14027
893.33	13856
893.452	13936
893.575	13978
893.697	14027
893.819	14168
893.941	14263
894.064	14107
894.186	13967
894.308	14001
894.43	14145
894.552	14191
894.674	14176
894.796	14176
894.918	14111
895.04	14062
895.161	14214
895.283	14065
895.405	13993
895.526	14138
895.648	14176
895.769	14202
895.891	14123
896.012	14282
896.134	14256
896.255	14199
896.376	14183
896.498	14149
896.619	14339
896.74	14210
896.861	14267
896.982	14533
897.103	14670
897.224	14560
897.345	14442
897.466	14355
897.587	14412
897.708	14629
897.828	14415
897.949	14415
898.07	14450
898.19	14454
898.311	14606
898.431	14419
898.552	14476
898.672	14632
898.792	14670
898.913	14602
899.033	14511
899.153	14381
899.273	14355
899.393	14362
899.513	14415
899.633	14381
899.753	14427
899.873	14320
899.993	14480
900.113	14393
900.232	14434
900.352	14438
900.472	14286
900.591	14191
900.711	14267
900.83	14263
900.95	14355
901.069	14267
901.189	14271
901.308	14005
901.427	13902
901.546	13944
901.665	13978
901.784	13986
901.904	13830
902.023	13856
902.141	13571
902.26	13453
902.379	13628
902.498	13533
902.617	13537
902.735	13529
902.854	13487
902.973	13415
903.091	13282
903.21	13221
903.328	13236
903.446	13202
903.565	13133
903.683	13038
903.801	13042
903.919	13053
904.038	13103
904.156	12962
904.274	12932
904.392	12920
904.51	12890
904.627	12840
904.745	12882
904.863	12966
904.981	12707
905.098	12635
905.216	12631
905.334	12547
905.451	12623
905.569	12540
905.686	12658
905.803	12623
905.921	12361
906.038	12494
906.155	12429
906.272	12338
906.389	12296
906.506	12125
906.623	12182
906.74	12152
906.857	11973
906.974	12110
907.091	12201
907.208	12311
907.324	12136
907.441	12167
907.557	11942
907.674	11965
907.79	11817
907.907	11931
908.023	12022
908.139	11897
908.256	11904
908.372	11802
908.488	11828
908.604	11672
908.72	11661
908.836	11714
908.952	11707
909.068	11672
909.184	11859
909.3	11688
909.415	11756
909.531	11737
909.647	11490
909.762	11474
909.878	11421
909.993	11505
910.108	11501
910.224	11376
910.339	11417
910.454	11330
910.57	11318
910.685	11261
910.8	11509
910.915	11471
911.03	11425
911.145	11143
911.259	11280
911.374	11204
911.489	11109
911.604	11045
911.718	10949
911.833	11003
911.947	10790
912.062	10771
912.176	10915
912.291	10957
912.405	10927
912.519	11174
912.633	11132
912.748	10999
912.862	11010
912.976	10839
913.09	10729
913.204	10755
913.318	10831
913.431	11006
913.545	10927
913.659	10972
913.772	10771
913.886	10752
914	10706
914.113	10767
914.226	10854
914.34	10786
914.453	10721
914.566	10843
914.68	10668
914.793	10592
914.906	10527
915.019	10428
915.132	10424
915.245	10428
915.358	10527
915.47	10485
915.583	10489
915.696	10500
915.809	10687
915.921	10622
916.034	10421
916.146	10417
916.259	10413
916.371	10485
916.483	10538
916.595	10405
916.708	10409
916.82	10409
916.932	10341
917.044	10386
917.156	10390
917.268	10223
917.38	10394
917.491	10325
917.603	10360
917.715	10428
917.826	10443
917.938	10230
918.049	10139
918.161	10405
918.272	10405
918.384	10417
918.495	10360
918.606	10234
918.717	10105
918.828	10268
918.939	10303
919.05	10067
919.161	10169
919.272	9934
919.383	10071
919.494	10265
919.604	10375
919.715	10249
919.826	10128
919.936	10173
920.047	10291
920.157	10173
920.267	10436
920.378	10287
920.488	10234
920.598	10348
920.708	10558
920.818	10440
920.928	10417
921.038	10569
921.148	10558
921.258	10249
921.368	10143
921.477	10071
921.587	10044
921.697	9949
921.806	10143
921.916	9937
922.025	9789
922.134	9804
922.244	9797
922.353	9774
922.462	9720
922.571	9545
922.68	9481
922.789	9389
922.898	9485
923.007	9416
923.116	9500
923.224	9477
923.333	9488
923.442	9355
923.55	9336
923.659	9386
923.767	9439
923.876	9302
923.984	9393
924.092	9188
924.201	9268
924.309	9321
924.417	9253
924.525	9268
924.633	9294
924.741	9983
924.849	9123
924.956	9237
925.064	9116
925.172	9066
925.279	9135
925.387	9184
925.494	9116
925.602	9245
925.709	9199
925.816	9112
925.924	9176
926.031	9138
926.138	9119
926.245	9222
926.352	9089
926.459	9173
926.566	9184
926.673	9051
926.779	9036
926.886	9005
926.993	8861
927.099	8861
927.206	8766
927.312	8773
927.419	8933
927.525	8868
927.631	8842
927.737	8746
927.843	8743
927.95	8610
928.056	8686
928.162	8708
928.267	8788
928.373	9488
928.479	8777
928.585	8549
928.69	8701
928.796	8697
928.901	8663
929.007	8499
929.112	8594
929.218	8583
929.323	8583
929.428	8556
929.533	8739
929.638	8518
929.743	8511
929.848	8575
929.953	8571
930.058	8446
930.163	8290
930.267	8385
930.372	8454
930.477	8256
930.581	8488
930.685	8461
930.79	8263
930.894	8309
930.998	8233
931.103	8415
931.207	8119
931.311	8050
931.415	7959
931.519	7753
931.623	7746
