Data from test_V78500241_1501.txt Node
Date: Fri Mar 25 14:44:10 CST 2022
User: usil
Spectrometer: V785-0024
Trigger mode: 0
Integration Time (sec): 4.000000E-1
Scans to average: 1
Nonlinearity correction enabled: false
Boxcar width: 0
Storing dark spectrum: false
XAxis mode: Wavelengths
Number of Pixels in Spectrum: 1024
>>>>>Begin Spectral Data<<<<<
801.071	22363
801.214	22196
801.356	22063
801.499	21873
801.641	21713
801.783	21812
801.926	21781
802.068	21648
802.211	21652
802.353	21595
802.496	21408
802.638	21226
802.78	21131
802.923	21180
803.065	21116
803.208	21005
803.35	21066
803.492	21100
803.635	21169
803.777	21043
803.919	21081
804.061	21435
804.204	21245
804.346	21100
804.488	20971
804.63	21161
804.773	20880
804.915	21028
805.057	21226
805.199	20975
805.341	21142
805.483	21241
805.626	21150
805.768	20929
805.91	20986
806.052	21005
806.194	20975
806.336	21233
806.478	21062
806.62	21028
806.762	21001
806.904	21245
807.046	21382
807.188	21408
807.33	21542
807.472	21481
807.614	21408
807.756	21367
807.898	21252
808.04	21119
808.182	21195
808.324	21169
808.465	21310
808.607	21549
808.749	21606
808.891	21827
809.033	21694
809.174	21766
809.316	21583
809.458	21580
809.6	21534
809.741	21576
809.883	21545
810.025	21739
810.166	21610
810.308	21808
810.45	21641
810.591	21538
810.733	21283
810.875	21294
811.016	21279
811.158	21154
811.299	21317
811.441	21291
811.582	21412
811.724	21233
811.865	21142
812.007	21230
812.148	21268
812.29	21405
812.431	21397
812.573	21606
812.714	21652
812.855	21713
812.997	21823
813.138	21915
813.279	21892
813.421	21728
813.562	21656
813.703	21538
813.845	21313
813.986	21070
814.127	20807
814.268	20864
814.41	20876
814.551	20731
814.692	20864
814.833	20689
814.974	20590
815.115	20807
815.256	20594
815.397	20613
815.539	20659
815.68	20495
815.821	20465
815.962	20507
816.103	20419
816.244	20358
816.385	20229
816.526	20218
816.666	20100
816.807	20016
816.948	19986
817.089	20126
817.23	19951
817.371	20039
817.512	19928
817.653	19906
817.793	19928
817.934	19986
818.075	19898
818.216	19887
818.356	19845
818.497	19731
818.638	19571
818.778	19575
818.919	19620
819.06	19620
819.2	19685
819.341	19788
819.481	19719
819.622	19928
819.762	20164
819.903	20027
820.043	19947
820.184	19883
820.324	19993
820.465	19951
820.605	20062
820.746	19738
820.886	19746
821.026	19860
821.167	19940
821.307	19890
821.447	19772
821.588	19738
821.728	19677
821.868	19464
822.008	19297
822.149	19194
822.289	19251
822.429	18939
822.569	18939
822.709	18981
822.849	18859
822.99	18734
823.13	18837
823.27	18859
823.41	18547
823.55	18540
823.69	18513
823.83	18589
823.97	18506
824.11	18273
824.25	18350
824.389	18296
824.529	18372
824.669	18403
824.809	18502
824.949	18570
825.089	18437
825.228	18296
825.368	18228
825.508	18140
825.648	18209
825.787	18182
825.927	18209
826.067	18110
826.206	18053
826.346	18133
826.485	18224
826.625	18049
826.765	18228
826.904	18106
827.044	17961
827.183	17988
827.323	17851
827.462	17916
827.601	17901
827.741	17863
827.88	17851
828.02	17600
828.159	17722
828.298	17996
828.437	17878
828.577	17893
828.716	18011
828.855	17756
828.994	17604
829.134	17570
829.273	17710
829.412	17543
829.551	17528
829.69	17596
829.829	17680
829.968	17619
830.107	17543
830.246	17699
830.385	17467
830.524	17524
830.663	17414
830.802	17307
830.941	17261
831.08	17083
831.219	17216
831.357	17303
831.496	17376
831.635	17242
831.774	17041
831.913	17010
832.051	16938
832.19	16976
832.329	17003
832.467	16980
832.606	16801
832.744	16828
832.883	16938
833.022	16843
833.16	16873
833.299	16915
833.437	16923
833.576	16866
833.714	17006
833.852	16995
833.991	16915
834.129	17033
834.267	16991
834.406	16961
834.544	17033
834.682	16965
834.821	16892
834.959	17064
835.097	16869
835.235	16965
835.373	16812
835.511	16896
835.65	16698
835.788	16797
835.926	16698
836.064	16596
836.202	16668
836.34	16850
836.478	16961
836.615	16839
836.753	16744
836.891	16877
837.029	16828
837.167	16881
837.305	16691
837.443	16702
837.58	16584
837.718	16713
837.856	16740
837.993	16668
838.131	16687
838.269	16580
838.406	16611
838.544	16470
838.681	16402
838.819	16375
838.956	16234
839.094	16173
839.231	16291
839.369	16447
839.506	16565
839.643	16451
839.781	16265
839.918	16143
840.055	16299
840.193	16207
840.33	16219
840.467	16249
840.604	16253
840.742	16402
840.879	16078
841.016	16112
841.153	16013
841.29	16337
841.427	16246
841.564	16295
841.701	16185
841.838	16177
841.975	16181
842.112	16109
842.249	16059
842.385	16021
842.522	16139
842.659	15960
842.796	16036
842.933	15903
843.069	16059
843.206	15930
843.343	15998
843.479	15960
843.616	16063
843.752	15751
843.889	15823
844.025	16090
844.162	15755
844.298	15880
844.435	15766
844.571	15747
844.708	15861
844.844	15930
844.98	15983
845.117	15941
845.253	15736
845.389	15599
845.525	15679
845.661	15812
845.798	15781
845.934	15911
846.07	15679
846.206	15895
846.342	15857
846.478	15743
846.614	15496
846.75	15367
846.886	15332
847.022	15515
847.158	15355
847.294	15329
847.429	15374
847.565	15454
847.701	15587
847.837	15062
847.972	15119
848.108	15176
848.244	15108
848.379	15062
848.515	14914
848.65	14914
848.786	14883
848.921	14971
849.057	15074
849.192	15020
849.328	14994
849.463	15028
849.598	14937
849.734	14883
849.869	14834
850.004	14743
850.14	14739
850.275	14663
850.41	14625
850.545	14678
850.68	14731
850.815	14651
850.95	14621
851.085	14845
851.22	14861
851.355	14659
851.49	14655
851.625	14617
851.76	14712
851.895	14594
852.03	14602
852.165	14689
852.299	14765
852.434	14708
852.569	14750
852.703	14701
852.838	14811
852.973	14914
853.107	14815
853.242	14659
853.376	14644
853.511	14419
853.645	14564
853.78	14720
853.914	14651
854.048	14598
854.183	14533
854.317	14663
854.451	14693
854.585	14533
854.72	14503
854.854	14655
854.988	14575
855.122	14594
855.256	14427
855.39	14454
855.524	14636
855.658	14640
855.792	14617
855.926	14583
856.06	14754
856.194	14606
856.327	14667
856.461	14537
856.595	14579
856.729	14568
856.862	14670
856.996	14632
857.13	14629
857.263	14743
857.397	14648
857.53	14518
857.664	14629
857.797	14731
857.931	14640
858.064	14583
858.197	14743
858.331	14537
858.464	14571
858.597	14434
858.731	14610
858.864	14549
858.997	14545
859.13	14587
859.263	14541
859.396	14625
859.529	14590
859.662	14594
859.795	14530
859.928	14716
860.061	14731
860.194	14762
860.327	14511
860.46	14590
860.592	14590
860.725	14678
860.858	14731
860.99	14541
861.123	14480
861.256	14632
861.388	14629
861.521	15165
861.653	14427
861.786	14332
861.918	14473
862.05	14530
862.183	14495
862.315	14613
862.447	14636
862.58	14533
862.712	14294
862.844	14275
862.976	14385
863.108	14374
863.24	14853
863.372	14298
863.504	14351
863.636	14412
863.768	14358
863.9	14267
864.032	14377
864.164	14294
864.296	14423
864.428	14507
864.559	14355
864.691	14393
864.823	14396
864.954	14305
865.086	14438
865.217	14275
865.349	14195
865.48	14199
865.612	14381
865.743	14450
865.875	14309
866.006	14237
866.137	14366
866.269	14317
866.4	14317
866.531	14374
866.662	14161
866.793	14332
866.924	14339
867.055	14301
867.186	14328
867.317	14233
867.448	14199
867.579	14256
867.71	14233
867.841	14313
867.972	14256
868.103	14358
868.233	14385
868.364	14332
868.495	14355
868.625	14507
868.756	14678
868.886	14465
869.017	14473
869.147	14560
869.278	14701
869.408	14625
869.539	14545
869.669	14617
869.799	14606
869.929	14701
870.06	14689
870.19	14891
870.32	14838
870.45	14769
870.58	14994
870.71	15032
870.84	15097
870.97	15032
871.1	14883
871.23	15108
871.36	15135
871.489	15051
871.619	15077
871.749	15154
871.879	15192
872.008	15237
872.138	15089
872.267	15142
872.397	14944
872.526	14998
872.656	14990
872.785	15024
872.915	15176
873.044	15233
873.173	15252
873.303	15165
873.432	15264
873.561	15363
873.69	15272
873.819	15157
873.948	15291
874.077	15233
874.206	15272
874.335	15211
874.464	15473
874.593	15466
874.722	15538
874.851	15671
874.979	15481
875.108	15572
875.237	15477
875.365	15504
875.494	15378
875.623	15641
875.751	15477
875.88	15603
876.008	15682
876.136	15793
876.265	15922
876.393	16074
876.521	15975
876.65	15899
876.778	15941
876.906	15937
877.034	15964
877.162	15994
877.29	15918
877.418	15945
877.546	15987
877.674	15918
877.802	15941
877.93	15854
878.058	15945
878.185	15816
878.313	15895
878.441	15838
878.568	15778
878.696	15922
878.824	16048
878.951	16063
879.079	16158
879.206	16211
879.333	16196
879.461	16029
879.588	16196
879.715	16284
879.842	16284
879.97	16109
880.097	15854
880.224	15739
880.351	15804
880.478	15827
880.605	15857
880.732	15865
880.859	16029
880.986	15911
881.112	15892
881.239	15804
881.366	15610
881.493	15492
881.619	15466
881.746	15504
881.872	15469
881.999	15363
882.125	15439
882.252	15519
882.378	15469
882.505	15488
882.631	15435
882.757	15287
882.883	15283
883.01	15249
883.136	15218
883.262	15256
883.388	15085
883.514	15310
883.64	15412
883.766	15268
883.892	15036
884.018	15188
884.143	15203
884.269	15435
884.395	15039
884.52	14967
884.646	14986
884.772	14979
884.897	14887
885.023	14937
885.148	15024
885.274	15214
885.399	15119
885.524	15005
885.65	15005
885.775	14960
885.9	14979
886.025	15161
886.15	15013
886.275	14906
886.4	14842
886.525	14975
886.65	14880
886.775	14861
886.9	15203
887.025	15214
887.149	14918
887.274	14895
887.399	14876
887.523	14765
887.648	14739
887.773	14727
887.897	14895
888.021	14842
888.146	14792
888.27	14750
888.395	14876
888.519	14823
888.643	14868
888.767	14807
888.891	14746
889.015	14663
889.139	14697
889.263	14663
889.387	14788
889.511	14773
889.635	14769
889.759	14678
889.883	14514
890.006	14735
890.13	14830
890.254	14640
890.377	14594
890.501	14385
890.624	14419
890.748	14473
890.871	14351
890.995	14263
891.118	14221
891.241	14271
891.364	14415
891.488	14438
891.611	14370
891.734	14415
891.857	14385
891.98	14400
892.103	14442
892.226	14339
892.349	14351
892.471	14088
892.594	14271
892.717	14305
892.839	14248
892.962	14339
893.085	14355
893.207	14385
893.33	14130
893.452	14336
893.575	14389
893.697	14324
893.819	14465
893.941	14575
894.064	14495
894.186	14324
894.308	14183
894.43	14476
894.552	14575
894.674	14533
894.796	14271
894.918	14400
895.04	14370
895.161	14514
895.283	14469
895.405	14351
895.526	14465
895.648	14457
895.769	14488
895.891	14549
896.012	14571
896.134	14549
896.255	14522
896.376	14469
896.498	14488
896.619	14556
896.74	14446
896.861	14617
896.982	14811
897.103	14910
897.224	14750
897.345	14720
897.466	14750
897.587	14701
897.708	14861
897.828	14807
897.949	14693
898.07	14575
898.19	14735
898.311	14971
898.431	14720
898.552	14861
898.672	14842
898.792	14834
898.913	14849
899.033	14739
899.153	14739
899.273	14674
899.393	14632
899.513	14762
899.633	14765
899.753	14788
899.873	14678
899.993	14724
900.113	14705
900.232	14826
900.352	14602
900.472	14545
900.591	14590
900.711	14655
900.83	14552
900.95	14712
901.069	14670
901.189	14488
901.308	14294
901.427	14214
901.546	14278
901.665	14301
901.784	14259
901.904	14149
902.023	13993
902.141	13852
902.26	13719
902.379	13986
902.498	13936
902.617	13685
902.735	13845
902.854	13795
902.973	13818
903.091	13525
903.21	13502
903.328	13495
903.446	13502
903.565	13411
903.683	13495
903.801	13343
903.919	13373
904.038	13316
904.156	13164
904.274	13289
904.392	13247
904.51	13263
904.627	13107
904.745	13190
904.863	13263
904.981	13038
905.098	12871
905.216	12871
905.334	12894
905.451	12954
905.569	12829
905.686	12924
905.803	12848
905.921	12764
906.038	12772
906.155	12722
906.272	12582
906.389	12677
906.506	12494
906.623	12471
906.74	12422
906.857	12350
906.974	12456
907.091	12521
907.208	12662
907.324	12475
907.441	12369
907.557	12178
907.674	12216
907.79	12121
907.907	12209
908.023	12186
908.139	12224
908.256	12148
908.372	12216
908.488	12068
908.604	11935
908.72	11874
908.836	11954
908.952	11916
909.068	11946
909.184	12041
909.3	11980
909.415	11961
909.531	12076
909.647	11748
909.762	11741
909.878	11733
909.993	11657
910.108	11627
910.224	11741
910.339	11710
910.454	11623
910.57	11554
910.685	11551
910.8	11821
910.915	11703
911.03	11562
911.145	11406
911.259	11459
911.374	11459
911.489	11273
911.604	11345
911.718	11151
911.833	11204
911.947	11045
912.062	10946
912.176	11098
912.291	11178
912.405	11220
912.519	11410
912.633	11368
912.748	11246
912.862	11178
912.976	11117
913.09	10961
913.204	11006
913.318	11064
913.431	11208
913.545	11105
913.659	11189
913.772	11014
913.886	10976
914	10919
914.113	11010
914.226	11109
914.34	10961
914.453	10889
914.566	11022
914.68	10877
914.793	10812
914.906	10740
915.019	10630
915.132	10645
915.245	10710
915.358	10687
915.47	10656
915.583	10653
915.696	10721
915.809	10793
915.921	10752
916.034	10599
916.146	10618
916.259	10580
916.371	10687
916.483	10710
916.595	10577
916.708	10542
916.82	10637
916.932	10558
917.044	10634
917.156	10558
917.268	10474
917.38	10577
917.491	10470
917.603	10508
917.715	10615
917.826	10584
917.938	10535
918.049	10386
918.161	10512
918.272	10607
918.384	10546
918.495	10489
918.606	10390
918.717	10310
918.828	10402
918.939	10459
919.05	10295
919.161	10375
919.272	10181
919.383	10169
919.494	10451
919.604	10611
919.715	10344
919.826	10356
919.936	10379
920.047	10531
920.157	10375
920.267	10565
920.378	10451
920.488	10356
920.598	10588
920.708	10820
920.818	10588
920.928	10546
921.038	10809
921.148	10744
921.258	10382
921.368	10310
921.477	10249
921.587	10204
921.697	10169
921.806	10234
921.916	10128
922.025	9964
922.134	9926
922.244	9918
922.353	10032
922.462	9827
922.571	9740
922.68	9656
922.789	9679
922.898	9656
923.007	9568
923.116	9675
923.224	9618
923.333	9656
923.442	9530
923.55	9519
923.659	9500
923.767	9473
923.876	9492
923.984	9530
924.092	9355
924.201	9481
924.309	9458
924.417	9488
924.525	9454
924.633	9553
924.741	10360
924.849	9211
924.956	9431
925.064	9287
925.172	9207
925.279	9195
925.387	9291
925.494	9218
925.602	9355
925.709	9332
925.816	9199
925.924	9207
926.031	9397
926.138	9294
926.245	9363
926.352	9180
926.459	9313
926.566	9405
926.673	9199
926.779	9146
926.886	9074
926.993	9024
927.099	8929
927.206	9001
927.312	8899
927.419	9020
927.525	8986
927.631	9100
927.737	8929
927.843	8819
927.95	8845
928.056	8857
928.162	8853
928.267	8994
928.373	9481
928.479	9001
928.585	8731
928.69	8887
928.796	8910
928.901	8792
929.007	8667
929.112	8830
929.218	8769
929.323	8754
929.428	8670
929.533	8868
929.638	8583
929.743	8651
929.848	8796
929.953	8739
930.058	8606
930.163	8442
930.267	8450
930.372	8610
930.477	8415
930.581	8648
930.685	8560
930.79	8396
930.894	8389
930.998	8358
931.103	8480
931.207	8164
931.311	8138
931.415	8077
931.519	7852
931.623	7894
