Data from test_V78500241_1735.txt Node
Date: Fri Mar 25 14:45:47 CST 2022
User: usil
Spectrometer: V785-0024
Trigger mode: 0
Integration Time (sec): 4.000000E-1
Scans to average: 1
Nonlinearity correction enabled: false
Boxcar width: 0
Storing dark spectrum: false
XAxis mode: Wavelengths
Number of Pixels in Spectrum: 1024
>>>>>Begin Spectral Data<<<<<
801.071	22238
801.214	22177
801.356	21861
801.499	21831
801.641	21511
801.783	21625
801.926	21629
802.068	21614
802.211	21500
802.353	21435
802.496	21207
802.638	21028
802.78	21096
802.923	20948
803.065	20899
803.208	20910
803.35	20979
803.492	21013
803.635	21119
803.777	20967
803.919	21020
804.061	21245
804.204	20990
804.346	20887
804.488	20864
804.63	20941
804.773	20716
804.915	20948
805.057	20853
805.199	20834
805.341	20842
805.483	21020
805.626	20956
805.768	20834
805.91	20777
806.052	20830
806.194	20880
806.336	20982
806.478	20785
806.62	20826
806.762	20944
806.904	21039
807.046	21287
807.188	21226
807.33	21051
807.472	21279
807.614	21222
807.756	21184
807.898	21051
808.04	20956
808.182	20975
808.324	20899
808.465	21043
808.607	21047
808.749	21313
808.891	21435
809.033	21363
809.174	21260
809.316	21268
809.458	21287
809.6	21195
809.741	21310
809.883	21306
810.025	21454
810.166	21492
810.308	21367
810.45	21454
810.591	21169
810.733	21135
810.875	21093
811.016	21020
811.158	20921
811.299	21104
811.441	21233
811.582	21150
811.724	20963
811.865	21001
812.007	21055
812.148	20948
812.29	21116
812.431	21252
812.573	21279
812.714	21439
812.855	21469
812.997	21720
813.138	21755
813.279	21580
813.421	21351
813.562	21447
813.703	21310
813.845	21127
813.986	20899
814.127	20819
814.268	20716
814.41	20602
814.551	20575
814.692	20541
814.833	20457
814.974	20511
815.115	20499
815.256	20431
815.397	20438
815.539	20499
815.68	20183
815.821	20339
815.962	20355
816.103	20237
816.244	20221
816.385	20039
816.526	19967
816.666	19947
816.807	19643
816.948	19772
817.089	19902
817.23	19674
817.371	19769
817.512	19738
817.653	19651
817.793	19677
817.934	19734
818.075	19811
818.216	19655
818.356	19647
818.497	19559
818.638	19377
818.778	19419
818.919	19438
819.06	19483
819.2	19544
819.341	19453
819.481	19578
819.622	19814
819.762	19917
819.903	19814
820.043	19799
820.184	19689
820.324	19643
820.465	19715
820.605	19632
820.746	19635
820.886	19586
821.026	19651
821.167	19563
821.307	19753
821.447	19689
821.588	19567
821.728	19400
821.868	19137
822.008	19091
822.149	18966
822.289	19000
822.429	18779
822.569	18749
822.709	18753
822.849	18707
822.99	18589
823.13	18566
823.27	18665
823.41	18369
823.55	18357
823.69	18388
823.83	18391
823.97	18285
824.11	18072
824.25	18201
824.389	18171
824.529	18232
824.669	18197
824.809	18330
824.949	18258
825.089	18117
825.228	18254
825.368	17984
825.508	17961
825.648	17958
825.787	17969
825.927	18049
826.067	17904
826.206	17859
826.346	17984
826.485	17988
826.625	18041
826.765	18079
826.904	17965
827.044	17718
827.183	17676
827.323	17577
827.462	17672
827.601	17726
827.741	17611
827.88	17642
828.02	17528
828.159	17577
828.298	17589
828.437	17779
828.577	17551
828.716	17726
828.855	17589
828.994	17387
829.134	17391
829.273	17364
829.412	17341
829.551	17322
829.69	17269
829.829	17330
829.968	17402
830.107	17391
830.246	17372
830.385	17433
830.524	17280
830.663	17311
830.802	17094
830.941	17010
831.08	16923
831.219	17056
831.357	17014
831.496	17178
831.635	16976
831.774	16835
831.913	16938
832.051	16892
832.19	16702
832.329	16805
832.467	16797
832.606	16649
832.744	16573
832.883	16599
833.022	16618
833.16	16683
833.299	16656
833.437	16786
833.576	16755
833.714	16740
833.852	16694
833.991	16733
834.129	16736
834.267	16717
834.406	16588
834.544	16736
834.682	16694
834.821	16611
834.959	16858
835.097	16729
835.235	16847
835.373	16664
835.511	16733
835.65	16542
835.788	16645
835.926	16538
836.064	16375
836.202	16519
836.34	16668
836.478	16622
836.615	16603
836.753	16668
836.891	16786
837.029	16668
837.167	16500
837.305	16634
837.443	16485
837.58	16402
837.718	16512
837.856	16523
837.993	16421
838.131	16542
838.269	16447
838.406	16386
838.544	16375
838.681	16287
838.819	16158
838.956	16063
839.094	16040
839.231	16109
839.369	16048
839.506	16531
839.643	16215
839.781	16116
839.918	15956
840.055	16029
840.193	15987
840.33	16097
840.467	16010
840.604	16090
840.742	16200
840.879	15915
841.016	15987
841.153	15983
841.29	16112
841.427	16131
841.564	16173
841.701	16082
841.838	16040
841.975	16063
842.112	15899
842.249	15945
842.385	15857
842.522	16101
842.659	15842
842.796	15854
842.933	15789
843.069	15846
843.206	15766
843.343	15884
843.479	15835
843.616	15854
843.752	15656
843.889	15663
844.025	15747
844.162	15603
844.298	15739
844.435	15671
844.571	15568
844.708	15584
844.844	15709
844.98	15766
845.117	15610
845.253	15644
845.389	15408
845.525	15553
845.661	15515
845.798	15504
845.934	15511
846.07	15363
846.206	15431
846.342	15542
846.478	15336
846.614	15218
846.75	15123
846.886	15165
847.022	15249
847.158	15199
847.294	15233
847.429	15287
847.565	15070
847.701	15302
847.837	14937
847.972	14902
848.108	15131
848.244	14998
848.379	14777
848.515	14819
848.65	14720
848.786	14788
848.921	14773
849.057	14933
849.192	14880
849.328	14925
849.463	14811
849.598	14819
849.734	14731
849.869	14682
850.004	14564
850.14	14568
850.275	14530
850.41	14473
850.545	14450
850.68	14492
850.815	14499
850.95	14560
851.085	14777
851.22	14533
851.355	14537
851.49	14431
851.625	14488
851.76	14488
851.895	14492
852.03	14355
852.165	14480
852.299	14617
852.434	14556
852.569	14571
852.703	14610
852.838	14568
852.973	14731
853.107	14678
853.242	14442
853.376	14358
853.511	14419
853.645	14408
853.78	14495
853.914	14503
854.048	14339
854.183	14396
854.317	14442
854.451	14545
854.585	14347
854.72	14377
854.854	14465
854.988	14400
855.122	14320
855.256	14271
855.39	14408
855.524	14511
855.658	14442
855.792	14385
855.926	14507
856.06	14514
856.194	14575
856.327	14404
856.461	14286
856.595	14358
856.729	14408
856.862	14507
856.996	14549
857.13	14473
857.263	14564
857.397	14476
857.53	14442
857.664	14473
857.797	14423
857.931	14549
858.064	14495
858.197	14526
858.331	14396
858.464	14374
858.597	14370
858.731	14389
858.864	14347
858.997	14317
859.13	14336
859.263	14415
859.396	14415
859.529	14381
859.662	14362
859.795	14431
859.928	14400
860.061	14556
860.194	14560
860.327	14385
860.46	14415
860.592	14552
860.725	14590
860.858	14507
860.99	14480
861.123	14298
861.256	14381
861.388	14450
861.521	15036
861.653	14252
861.786	14244
861.918	14244
862.05	14298
862.183	14305
862.315	14434
862.447	14446
862.58	14404
862.712	14324
862.844	14153
862.976	14172
863.108	14290
863.24	14568
863.372	14103
863.504	14183
863.636	14123
863.768	14267
863.9	14119
864.032	14134
864.164	14092
864.296	14332
864.428	14267
864.559	14286
864.691	14286
864.823	14278
864.954	14237
865.086	14145
865.217	14210
865.349	14176
865.48	14142
865.612	14210
865.743	14393
865.875	14202
866.006	14130
866.137	14123
866.269	14301
866.4	14199
866.531	14107
866.662	14103
866.793	14123
866.924	14050
867.055	14214
867.186	14267
867.317	14096
867.448	14077
867.579	14027
867.71	14054
867.841	14130
867.972	14180
868.103	14172
868.233	14183
868.364	14081
868.495	14301
868.625	14473
868.756	14492
868.886	14343
869.017	14305
869.147	14526
869.278	14488
869.408	14385
869.539	14336
869.669	14484
869.799	14438
869.929	14499
870.06	14579
870.19	14785
870.32	14640
870.45	14788
870.58	14823
870.71	14887
870.84	14933
870.97	14773
871.1	14872
871.23	14967
871.36	14963
871.489	14902
871.619	15013
871.749	15009
871.879	15055
872.008	15116
872.138	14963
872.267	15085
872.397	14906
872.526	14914
872.656	14838
872.785	14952
872.915	14994
873.044	15138
873.173	15070
873.303	15085
873.432	15074
873.561	15070
873.69	15070
873.819	15036
873.948	15150
874.077	15097
874.206	15024
874.335	15089
874.464	15275
874.593	15287
874.722	15294
874.851	15332
874.979	15393
875.108	15485
875.237	15313
875.365	15310
875.494	15359
875.623	15443
875.751	15408
875.88	15447
876.008	15466
876.136	15523
876.265	15895
876.393	15873
876.521	15956
876.65	15884
876.778	15701
876.906	15759
877.034	15808
877.162	15743
877.29	15743
877.418	15774
877.546	15789
877.674	15701
877.802	15747
877.93	15709
878.058	15808
878.185	15671
878.313	15751
878.441	15781
878.568	15675
878.696	15694
878.824	15789
878.951	15876
879.079	15979
879.206	16204
879.333	15903
879.461	15907
879.588	15861
879.715	15960
879.842	16147
879.97	15926
880.097	15648
880.224	15603
880.351	15701
880.478	15671
880.605	15561
880.732	15682
880.859	15838
880.986	15656
881.112	15656
881.239	15496
881.366	15348
881.493	15370
881.619	15226
881.746	15275
881.872	15199
881.999	15195
882.125	15291
882.252	15359
882.378	15230
882.505	15466
882.631	15287
882.757	15112
882.883	15214
883.01	15131
883.136	15017
883.262	14990
883.388	15001
883.514	15127
883.64	15173
883.766	15108
883.892	14834
884.018	14876
884.143	15138
884.269	15154
884.395	14918
884.52	14785
884.646	14861
884.772	14689
884.897	14701
885.023	14872
885.148	14941
885.274	14918
885.399	14895
885.524	14819
885.65	14834
885.775	14819
885.9	14826
886.025	14910
886.15	14914
886.275	14731
886.4	14629
886.525	14727
886.65	14720
886.775	14716
886.9	15001
887.025	15058
887.149	14796
887.274	14636
887.399	14629
887.523	14629
887.648	14549
887.773	14484
887.897	14716
888.021	14743
888.146	14606
888.27	14743
888.395	14762
888.519	14579
888.643	14708
888.767	14754
888.891	14594
889.015	14434
889.139	14632
889.263	14381
889.387	14560
889.511	14708
889.635	14682
889.759	14480
889.883	14503
890.006	14549
890.13	14579
890.254	14396
890.377	14431
890.501	14400
890.624	14210
890.748	14351
890.871	14237
890.995	14054
891.118	14062
891.241	14107
891.364	14206
891.488	14282
891.611	14252
891.734	14218
891.857	14267
891.98	14202
892.103	14248
892.226	14237
892.349	14134
892.471	14027
892.594	14294
892.717	14180
892.839	14195
892.962	14244
893.085	14172
893.207	14183
893.33	13959
893.452	14111
893.575	14298
893.697	14103
893.819	14332
893.941	14415
894.064	14309
894.186	14084
894.308	14142
894.43	14294
894.552	14450
894.674	14404
894.796	14142
894.918	14214
895.04	14263
895.161	14370
895.283	14309
895.405	14290
895.526	14278
895.648	14256
895.769	14362
895.891	14301
896.012	14442
896.134	14419
896.255	14358
896.376	14244
896.498	14362
896.619	14389
896.74	14389
896.861	14465
896.982	14678
897.103	14826
897.224	14663
897.345	14629
897.466	14541
897.587	14708
897.708	14750
897.828	14648
897.949	14674
898.07	14469
898.19	14571
898.311	14819
898.431	14629
898.552	14594
898.672	14720
898.792	14758
898.913	14735
899.033	14705
899.153	14610
899.273	14484
899.393	14541
899.513	14571
899.633	14644
899.753	14625
899.873	14537
899.993	14617
900.113	14518
900.232	14613
900.352	14526
900.472	14434
900.591	14389
900.711	14495
900.83	14332
900.95	14556
901.069	14568
901.189	14434
901.308	14161
901.427	14206
901.546	14199
901.665	14111
901.784	14199
901.904	14103
902.023	13917
902.141	13655
902.26	13674
902.379	13761
902.498	13609
902.617	13647
902.735	13685
902.854	13689
902.973	13571
903.091	13381
903.21	13381
903.328	13369
903.446	13369
903.565	13289
903.683	13266
903.801	13061
903.919	13285
904.038	13217
904.156	13091
904.274	13217
904.392	13118
904.51	13042
904.627	13057
904.745	13072
904.863	13069
904.981	12897
905.098	12764
905.216	12764
905.334	12753
905.451	12757
905.569	12711
905.686	12833
905.803	12753
905.921	12612
906.038	12707
906.155	12604
906.272	12448
906.389	12521
906.506	12311
906.623	12338
906.74	12342
906.857	12224
906.974	12308
907.091	12369
907.208	12437
907.324	12388
907.441	12319
907.557	12068
907.674	11965
907.79	11984
907.907	12053
908.023	12079
908.139	12144
908.256	12003
908.372	12022
908.488	12007
908.604	11874
908.72	11752
908.836	11821
908.952	11935
909.068	11859
909.184	11973
909.3	11809
909.415	11954
909.531	11840
909.647	11630
909.762	11623
909.878	11547
909.993	11741
910.108	11528
910.224	11528
910.339	11676
910.454	11581
910.57	11474
910.685	11391
910.8	11714
910.915	11688
911.03	11497
911.145	11440
911.259	11307
911.374	11265
911.489	11155
911.604	11189
911.718	11045
911.833	11025
911.947	11022
912.062	10934
912.176	11052
912.291	11128
912.405	11071
912.519	11204
912.633	11235
912.748	11067
912.862	11045
912.976	10984
913.09	10793
913.204	10873
913.318	11064
913.431	10984
913.545	11010
913.659	11041
913.772	10938
913.886	10873
914	10793
914.113	10900
914.226	10961
914.34	10835
914.453	10736
914.566	10965
914.68	10691
914.793	10774
914.906	10622
915.019	10466
915.132	10485
915.245	10516
915.358	10546
915.47	10527
915.583	10596
915.696	10558
915.809	10687
915.921	10767
916.034	10596
916.146	10500
916.259	10413
916.371	10584
916.483	10546
916.595	10474
916.708	10462
916.82	10443
916.932	10447
917.044	10413
917.156	10523
917.268	10428
917.38	10341
917.491	10306
917.603	10325
917.715	10478
917.826	10523
917.938	10360
918.049	10325
918.161	10352
918.272	10519
918.384	10599
918.495	10356
918.606	10276
918.717	10112
918.828	10314
918.939	10310
919.05	10181
919.161	10223
919.272	10010
919.383	10169
919.494	10329
919.604	10554
919.715	10325
919.826	10204
919.936	10280
920.047	10322
920.157	10303
920.267	10489
920.378	10276
920.488	10310
920.598	10478
920.708	10630
920.818	10493
920.928	10443
921.038	10675
921.148	10558
921.258	10367
921.368	10219
921.477	10139
921.587	10082
921.697	10025
921.806	10112
921.916	10017
922.025	9888
922.134	9816
922.244	9762
922.353	9892
922.462	9724
922.571	9679
922.68	9587
922.789	9485
922.898	9515
923.007	9519
923.116	9572
923.224	9564
923.333	9549
923.442	9374
923.55	9340
923.659	9389
923.767	9443
923.876	9344
923.984	9367
924.092	9329
924.201	9428
924.309	9363
924.417	9382
924.525	9340
924.633	9412
924.741	10261
924.849	9142
924.956	9363
925.064	9165
925.172	9097
925.279	9192
925.387	9169
925.494	9138
925.602	9351
925.709	9306
925.816	9154
925.924	9127
926.031	9329
926.138	9203
926.245	9241
926.352	9131
926.459	9211
926.566	9256
926.673	9097
926.779	9066
926.886	9039
926.993	8944
927.099	8914
927.206	8925
927.312	8891
927.419	8967
927.525	9001
927.631	8979
927.737	8849
927.843	8758
927.95	8724
928.056	8781
928.162	8823
928.267	8956
928.373	9515
928.479	8918
928.585	8716
928.69	8781
928.796	8819
928.901	8762
929.007	8587
929.112	8746
929.218	8663
929.323	8720
929.428	8655
929.533	8781
929.638	8556
929.743	8636
929.848	8686
929.953	8629
930.058	8598
930.163	8385
930.267	8419
930.372	8556
930.477	8389
930.581	8621
930.685	8518
930.79	8358
930.894	8336
930.998	8290
931.103	8488
931.207	8111
931.311	8176
931.415	8065
931.519	7841
931.623	7936
