Data from test_V78500241_319.txt Node
Date: Fri Mar 25 14:35:56 CST 2022
User: usil
Spectrometer: V785-0024
Trigger mode: 0
Integration Time (sec): 4.000000E-1
Scans to average: 1
Nonlinearity correction enabled: false
Boxcar width: 0
Storing dark spectrum: false
XAxis mode: Wavelengths
Number of Pixels in Spectrum: 1024
>>>>>Begin Spectral Data<<<<<
801.071	27093
801.214	26956
801.356	26864
801.499	26613
801.641	26598
801.783	26503
801.926	26484
802.068	26469
802.211	26374
802.353	26229
802.496	26134
802.638	26065
802.78	25959
802.923	25966
803.065	25982
803.208	25845
803.35	26058
803.492	26180
803.635	26187
803.777	25997
803.919	26115
804.061	26419
804.204	26161
804.346	26031
804.488	25830
804.63	25837
804.773	25970
804.915	25986
805.057	26050
805.199	26001
805.341	25993
805.483	26164
805.626	26092
805.768	26069
805.91	26081
806.052	26012
806.194	25887
806.336	26199
806.478	26065
806.62	26100
806.762	26149
806.904	26157
807.046	26541
807.188	26404
807.33	26419
807.472	26492
807.614	26294
807.756	26438
807.898	26313
808.04	26237
808.182	26233
808.324	26332
808.465	26225
808.607	26332
808.749	26492
808.891	26705
809.033	26743
809.174	26663
809.316	26632
809.458	26765
809.6	26511
809.741	26556
809.883	26636
810.025	26895
810.166	26826
810.308	26868
810.45	26777
810.591	26583
810.733	26389
810.875	26499
811.016	26320
811.158	26355
811.299	26320
811.441	26530
811.582	26602
811.724	26381
811.865	26442
812.007	26381
812.148	26412
812.29	26351
812.431	26560
812.573	26819
812.714	26754
812.855	26765
812.997	27013
813.138	27085
813.279	26937
813.421	26864
813.562	26944
813.703	26682
813.845	26636
813.986	26298
814.127	26111
814.268	26043
814.41	25955
814.551	25966
814.692	26077
814.833	25902
814.974	26031
815.115	26016
815.256	25647
815.397	25746
815.539	25776
815.68	25761
815.821	25609
815.962	25852
816.103	25734
816.244	25620
816.385	25289
816.526	25327
816.666	25255
816.807	25164
816.948	25213
817.089	25263
817.23	25103
817.371	25080
817.512	25061
817.653	25122
817.793	25012
817.934	25072
818.075	25164
818.216	25095
818.356	25042
818.497	24977
818.638	24745
818.778	24821
818.919	24779
819.06	24779
819.2	24977
819.341	24981
819.481	24966
819.622	25209
819.762	25422
819.903	25320
820.043	25145
820.184	25042
820.324	25301
820.465	25141
820.605	25137
820.746	25069
820.886	24932
821.026	24913
821.167	25061
821.307	25145
821.447	25000
821.588	24920
821.728	24722
821.868	24555
822.008	24448
822.149	24346
822.289	24361
822.429	24167
822.569	24045
822.709	24003
822.849	23992
822.99	23832
823.13	23840
823.27	23790
823.41	23615
823.55	23581
823.69	23767
823.83	23714
823.97	23558
824.11	23440
824.25	23467
824.389	23379
824.529	23486
824.669	23421
824.809	23516
824.949	23531
825.089	23444
825.228	23452
825.368	23337
825.508	23250
825.648	23189
825.787	23200
825.927	23364
826.067	23185
826.206	23197
826.346	23242
826.485	23288
826.625	23178
826.765	23258
826.904	23159
827.044	22972
827.183	22923
827.323	22957
827.462	22938
827.601	23022
827.741	22854
827.88	22919
828.02	22919
828.159	22946
828.298	22812
828.437	22915
828.577	22858
828.716	22987
828.855	22774
828.994	22618
829.134	22626
829.273	22713
829.412	22683
829.551	22417
829.69	22577
829.829	22542
829.968	22561
830.107	22702
830.246	22607
830.385	22504
830.524	22322
830.663	22272
830.802	22238
830.941	22242
831.08	22223
831.219	22188
831.357	22337
831.496	22367
831.635	22246
831.774	22040
831.913	21945
832.051	21819
832.19	21831
832.329	21994
832.467	21892
832.606	21751
832.744	21724
832.883	21762
833.022	21816
833.16	21770
833.299	21819
833.437	21743
833.576	21846
833.714	21629
833.852	21808
833.991	21850
834.129	21926
834.267	21846
834.406	21793
834.544	21861
834.682	21865
834.821	21736
834.959	21979
835.097	21804
835.235	21823
835.373	21770
835.511	21675
835.65	21690
835.788	21660
835.926	21332
836.064	21393
836.202	21519
836.34	21759
836.478	21835
836.615	21576
836.753	21644
836.891	21732
837.029	21648
837.167	21542
837.305	21622
837.443	21523
837.58	21431
837.718	21412
837.856	21408
837.993	21439
838.131	21443
838.269	21275
838.406	21283
838.544	21500
838.681	21233
838.819	21108
838.956	20967
839.094	20944
839.231	20967
839.369	21131
839.506	21348
839.643	21252
839.781	20929
839.918	20777
840.055	20838
840.193	20948
840.33	20823
840.467	20929
840.604	20838
840.742	21058
840.879	20697
841.016	20765
841.153	20724
841.29	21024
841.427	20937
841.564	20788
841.701	20777
841.838	20762
841.975	20640
842.112	20716
842.249	20708
842.385	20571
842.522	20636
842.659	20609
842.796	20545
842.933	20473
843.069	20457
843.206	20606
843.343	20583
843.479	20518
843.616	20469
843.752	20351
843.889	20339
844.025	20442
844.162	20343
844.298	20457
844.435	20225
844.571	20332
844.708	20290
844.844	20507
844.98	20404
845.117	20423
845.253	20301
845.389	20168
845.525	20233
845.661	20240
845.798	20096
845.934	20240
846.07	20351
846.206	20145
846.342	20267
846.478	20122
846.614	19940
846.75	19750
846.886	19807
847.022	19845
847.158	19700
847.294	19818
847.429	19818
847.565	19750
847.701	19955
847.837	19540
847.972	19373
848.108	19544
848.244	19540
848.379	19384
848.515	19316
848.65	19324
848.786	19270
848.921	19164
849.057	19346
849.192	19407
849.328	19320
849.463	19339
849.598	19301
849.734	19232
849.869	19171
850.004	19118
850.14	19069
850.275	19171
850.41	18966
850.545	18951
850.68	19000
850.815	19050
850.95	19084
851.085	19228
851.22	19088
851.355	19088
851.49	18962
851.625	18939
851.76	19065
851.895	18966
852.03	18890
852.165	19019
852.299	18993
852.434	19160
852.569	19091
852.703	19080
852.838	19076
852.973	19122
853.107	19141
853.242	18966
853.376	18962
853.511	18741
853.645	18985
853.78	19042
853.914	18935
854.048	18829
854.183	18829
854.317	18897
854.451	18993
854.585	18890
854.72	18890
854.854	18848
854.988	18764
855.122	18840
855.256	18696
855.39	18844
855.524	18875
855.658	18920
855.792	18916
855.926	18863
856.06	18863
856.194	18901
856.327	18897
856.461	18639
856.595	18726
856.729	18757
856.862	18905
856.996	18821
857.13	18905
857.263	18878
857.397	18916
857.53	18867
857.664	18806
857.797	18829
857.931	19012
858.064	18787
858.197	19004
858.331	18719
858.464	18745
858.597	18764
858.731	18802
858.864	18730
858.997	18760
859.13	18867
859.263	18916
859.396	18935
859.529	18787
859.662	18741
859.795	18802
859.928	18753
860.061	18901
860.194	19019
860.327	18894
860.46	18749
860.592	18852
860.725	18825
860.858	18913
860.99	18783
861.123	18688
861.256	18517
861.388	18734
861.521	19590
861.653	18589
861.786	18707
861.918	18703
862.05	18692
862.183	18856
862.315	18837
862.447	18852
862.58	18810
862.712	18544
862.844	18563
862.976	18772
863.108	18570
863.24	18863
863.372	18517
863.504	18570
863.636	18597
863.768	18582
863.9	18528
864.032	18426
864.164	18426
864.296	18525
864.428	18566
864.559	18635
864.691	18566
864.823	18506
864.954	18551
865.086	18502
865.217	18365
865.349	18441
865.48	18528
865.612	18498
865.743	18582
865.875	18475
866.006	18429
866.137	18445
866.269	18460
866.4	18369
866.531	18289
866.662	18357
866.793	18205
866.924	18384
867.055	18365
867.186	18342
867.317	18346
867.448	18292
867.579	18342
867.71	18346
867.841	18228
867.972	18369
868.103	18471
868.233	18410
868.364	18380
868.495	18479
868.625	18563
868.756	18612
868.886	18566
869.017	18589
869.147	18757
869.278	18681
869.408	18654
869.539	18525
869.669	18703
869.799	18665
869.929	18726
870.06	18669
870.19	18962
870.32	18844
870.45	18882
870.58	18973
870.71	19126
870.84	19027
870.97	18943
871.1	19012
871.23	19228
871.36	19141
871.489	19084
871.619	19091
871.749	19171
871.879	19263
872.008	19247
872.138	19251
872.267	19206
872.397	19072
872.526	19114
872.656	19050
872.785	18989
872.915	19065
873.044	19400
873.173	19145
873.303	19293
873.432	19308
873.561	19343
873.69	19232
873.819	19156
873.948	19373
874.077	19247
874.206	19259
874.335	19247
874.464	19407
874.593	19567
874.722	19388
874.851	19518
874.979	19514
875.108	19613
875.237	19468
875.365	19324
875.494	19575
875.623	19537
875.751	19403
875.88	19639
876.008	19658
876.136	19635
876.265	19970
876.393	20024
876.521	20016
876.65	20050
876.778	19970
876.906	19791
877.034	19906
877.162	19833
877.29	19913
877.418	19906
877.546	19852
877.674	19887
877.802	19807
877.93	19913
878.058	19830
878.185	19788
878.313	19947
878.441	19807
878.568	19647
878.696	19887
878.824	19890
878.951	19947
879.079	20077
879.206	20180
879.333	20077
879.461	20039
879.588	20062
879.715	20122
879.842	20259
879.97	20024
880.097	19822
880.224	19746
880.351	19784
880.478	19753
880.605	19647
880.732	19795
880.859	19997
880.986	19776
881.112	19890
881.239	19616
881.366	19514
881.493	19480
881.619	19449
881.746	19430
881.872	19362
881.999	19285
882.125	19247
882.252	19449
882.378	19441
882.505	19403
882.631	19422
882.757	19187
882.883	19209
883.01	19156
883.136	19080
883.262	18981
883.388	19012
883.514	19236
883.64	19091
883.766	19103
883.892	19046
884.018	19061
884.143	19164
884.269	19278
884.395	18901
884.52	18890
884.646	18806
884.772	18760
884.897	18749
885.023	18852
885.148	18905
885.274	18958
885.399	18943
885.524	18814
885.65	18859
885.775	18878
885.9	18875
886.025	18844
886.15	18863
886.275	18726
886.4	18696
886.525	18764
886.65	18764
886.775	18722
886.9	18776
887.025	18951
887.149	18787
887.274	18585
887.399	18536
887.523	18525
887.648	18608
887.773	18513
887.897	18623
888.021	18566
888.146	18426
888.27	18654
888.395	18703
888.519	18574
888.643	18582
888.767	18601
888.891	18437
889.015	18285
889.139	18395
889.263	18365
889.387	18429
889.511	18620
889.635	18479
889.759	18357
889.883	18353
890.006	18289
890.13	18536
890.254	18163
890.377	18258
890.501	18034
890.624	18076
890.748	18182
890.871	18022
890.995	18007
891.118	17901
891.241	17942
891.364	17904
891.488	17984
891.611	17939
891.734	18053
891.857	17977
891.98	18068
892.103	17954
892.226	17977
892.349	17920
892.471	17718
892.594	17779
892.717	17874
892.839	17851
892.962	17855
893.085	17977
893.207	17870
893.33	17790
893.452	17885
893.575	17878
893.697	17840
893.819	18182
893.941	18095
894.064	17946
894.186	17855
894.308	17824
894.43	17984
894.552	18060
894.674	18038
894.796	17885
894.918	17893
895.04	17843
895.161	17946
895.283	17988
895.405	17760
895.526	17885
895.648	17980
895.769	17832
895.891	17973
896.012	17980
896.134	18068
896.255	17859
896.376	17973
896.498	18041
896.619	17889
896.74	18003
896.861	17973
896.982	18346
897.103	18407
897.224	18262
897.345	18258
897.466	18148
897.587	18277
897.708	18357
897.828	18228
897.949	18125
898.07	18114
898.19	18152
898.311	18330
898.431	18136
898.552	18144
898.672	18228
898.792	18239
898.913	18220
899.033	18083
899.153	18087
899.273	17939
899.393	17965
899.513	18026
899.633	18003
899.753	17969
899.873	17935
899.993	18038
900.113	17950
900.232	17973
900.352	17984
900.472	17767
900.591	17718
900.711	17733
900.83	17661
900.95	17931
901.069	17828
901.189	17805
901.308	17570
901.427	17376
901.546	17486
901.665	17471
901.784	17372
901.904	17296
902.023	17174
902.141	17025
902.26	16972
902.379	17025
902.498	16881
902.617	16987
902.735	17014
902.854	16930
902.973	16809
903.091	16588
903.21	16546
903.328	16561
903.446	16546
903.565	16394
903.683	16405
903.801	16348
903.919	16402
904.038	16459
904.156	16291
904.274	16398
904.392	16196
904.51	16284
904.627	16223
904.745	16325
904.863	16234
904.981	15998
905.098	15865
905.216	15953
905.334	15808
905.451	15857
905.569	15774
905.686	16074
905.803	15899
905.921	15724
906.038	15751
906.155	15694
906.272	15557
906.389	15568
906.506	15545
906.623	15355
906.74	15519
906.857	15351
906.974	15321
907.091	15466
907.208	15557
907.324	15469
907.441	15439
907.557	15203
907.674	15150
907.79	15100
907.907	15112
908.023	15123
908.139	15146
908.256	15085
908.372	15020
908.488	14952
908.604	14849
908.72	14845
908.836	14861
908.952	14849
909.068	14929
909.184	14777
909.3	14823
909.415	14785
909.531	14788
909.647	14598
909.762	14587
909.878	14602
909.993	14564
910.108	14556
910.224	14488
910.339	14484
910.454	14393
910.57	14358
910.685	14347
910.8	14549
910.915	14499
911.03	14400
911.145	14191
911.259	14187
911.374	14225
911.489	14161
911.604	13997
911.718	13902
911.833	13963
911.947	13772
912.062	13769
912.176	13826
912.291	13875
912.405	13963
912.519	14062
912.633	14008
912.748	14027
912.862	13917
912.976	13704
913.09	13655
913.204	13776
913.318	13803
913.431	13860
913.545	13871
913.659	13849
913.772	13746
913.886	13582
914	13540
914.113	13651
914.226	13708
914.34	13693
914.453	13514
914.566	13662
914.68	13491
914.793	13381
914.906	13312
915.019	13221
915.132	13179
915.245	13202
915.358	13285
915.47	13335
915.583	13324
915.696	13304
915.809	13343
915.921	13331
916.034	13129
916.146	13198
916.259	13141
916.371	13266
916.483	13274
916.595	13141
916.708	13095
916.82	13145
916.932	13088
917.044	13042
917.156	13019
917.268	12962
917.38	12966
917.491	12897
917.603	12920
917.715	13072
917.826	13015
917.938	12958
918.049	12814
918.161	12958
918.272	13122
918.384	13057
918.495	12871
918.606	12783
918.717	12662
918.828	12734
918.939	12916
919.05	12696
919.161	12768
919.272	12547
919.383	12616
919.494	12745
919.604	12901
919.715	12791
919.826	12650
919.936	12715
920.047	12730
920.157	12730
920.267	12920
920.378	12631
920.488	12715
920.598	12840
920.708	13008
920.818	12875
920.928	12867
921.038	13023
921.148	12996
921.258	12642
921.368	12559
921.477	12578
921.587	12528
921.697	12334
921.806	12555
921.916	12429
922.025	12197
922.134	12224
922.244	12060
922.353	12262
922.462	11996
922.571	11973
922.68	11855
922.789	11786
922.898	11794
923.007	11745
923.116	11901
923.224	11691
923.333	11748
923.442	11661
923.55	11722
923.659	11676
923.767	11649
923.876	11585
923.984	11646
924.092	11554
924.201	11627
924.309	11516
924.417	11581
924.525	11486
924.633	11532
924.741	12300
924.849	11410
924.956	11520
925.064	11356
925.172	11318
925.279	11364
925.387	11337
925.494	11322
925.602	11558
925.709	11360
925.816	11277
925.924	11277
926.031	11395
926.138	11284
926.245	11410
926.352	11311
926.459	11379
926.566	11425
926.673	11269
926.779	11174
926.886	11132
926.993	11075
927.099	10968
927.206	10889
927.312	10946
927.419	11056
927.525	10919
927.631	10892
927.737	10786
927.843	10873
927.95	10725
928.056	10809
928.162	10805
928.267	10873
928.373	11353
928.479	10885
928.585	10656
928.69	10725
928.796	10809
928.901	10641
929.007	10516
929.112	10672
929.218	10683
929.323	10596
929.428	10584
929.533	10630
929.638	10538
929.743	10493
929.848	10489
929.953	10535
930.058	10451
930.163	10306
930.267	10246
930.372	10443
930.477	10284
930.581	10516
930.685	10405
930.79	10200
930.894	10257
930.998	10093
931.103	10284
931.207	9903
931.311	9861
931.415	9774
931.519	9641
931.623	9542
