Data from test_V78500241_901.txt Node
Date: Fri Mar 25 14:39:59 CST 2022
User: usil
Spectrometer: V785-0024
Trigger mode: 0
Integration Time (sec): 4.000000E-1
Scans to average: 1
Nonlinearity correction enabled: false
Boxcar width: 0
Storing dark spectrum: false
XAxis mode: Wavelengths
Number of Pixels in Spectrum: 1024
>>>>>Begin Spectral Data<<<<<
801.071	25099
801.214	24958
801.356	24791
801.499	24654
801.641	24525
801.783	24426
801.926	24540
802.068	24433
802.211	24330
802.353	24300
802.496	23878
802.638	23920
802.78	23863
802.923	23809
803.065	23786
803.208	23874
803.35	23821
803.492	23855
803.635	23859
803.777	23775
803.919	23885
804.061	24182
804.204	23946
804.346	23771
804.488	23741
804.63	23729
804.773	23661
804.915	23722
805.057	24030
805.199	23843
805.341	23916
805.483	24003
805.626	23878
805.768	23901
805.91	23904
806.052	23927
806.194	23927
806.336	24174
806.478	24087
806.62	24102
806.762	24235
806.904	24426
807.046	24654
807.188	24730
807.33	24852
807.472	24973
807.614	25080
807.756	25346
807.898	25350
808.04	25662
808.182	26096
808.324	26727
808.465	27542
808.607	28173
808.749	28942
808.891	29284
809.033	29398
809.174	28790
809.316	28211
809.458	27519
809.6	26769
809.741	26244
809.883	25814
810.025	25689
810.166	25308
810.308	25289
810.45	24989
810.591	24833
810.733	24608
810.875	24604
811.016	24304
811.158	24338
811.299	24464
811.441	24467
811.582	24365
811.724	24273
811.865	24174
812.007	24205
812.148	24076
812.29	24300
812.431	24429
812.573	24456
812.714	24620
812.855	24540
812.997	24760
813.138	24821
813.279	24650
813.421	24578
813.562	24403
813.703	24323
813.845	24319
813.986	23935
814.127	23672
814.268	23611
814.41	23695
814.551	23570
814.692	23672
814.833	23501
814.974	23448
815.115	23600
815.256	23459
815.397	23360
815.539	23349
815.68	23273
815.821	23159
815.962	23299
816.103	23402
816.244	23189
816.385	22984
816.526	23025
816.666	22809
816.807	22637
816.948	22748
817.089	22736
817.23	22774
817.371	22672
817.512	22694
817.653	22580
817.793	22634
817.934	22637
818.075	22527
818.216	22637
818.356	22519
818.497	22474
818.638	22379
818.778	22314
818.919	22379
819.06	22409
819.2	22421
819.341	22481
819.481	22310
819.622	22588
819.762	22892
819.903	22637
820.043	22656
820.184	22508
820.324	22603
820.465	22626
820.605	22626
820.746	22573
820.886	22409
821.026	22531
821.167	22447
821.307	22561
821.447	22428
821.588	22371
821.728	22200
821.868	21964
822.008	21960
822.149	21880
822.289	21945
822.429	21641
822.569	21526
822.709	21492
822.849	21310
822.99	21355
823.13	21332
823.27	21283
823.41	21161
823.55	21093
823.69	21138
823.83	21047
823.97	21077
824.11	20902
824.25	20941
824.389	20960
824.529	20998
824.669	20929
824.809	21013
824.949	20941
825.089	21043
825.228	20979
825.368	20883
825.508	20727
825.648	20663
825.787	20807
825.927	20845
826.067	20739
826.206	20697
826.346	20773
826.485	20826
826.625	20686
826.765	20811
826.904	20754
827.044	20328
827.183	20408
827.323	20278
827.462	20473
827.601	20381
827.741	20301
827.88	20298
828.02	20313
828.159	20355
828.298	20275
828.437	20366
828.577	20355
828.716	20518
828.855	20282
828.994	20077
829.134	20107
829.273	20062
829.412	20062
829.551	20020
829.69	20096
829.829	20043
829.968	20176
830.107	20054
830.246	20073
830.385	19978
830.524	19982
830.663	19944
830.802	19753
830.941	19624
831.08	19632
831.219	19830
831.357	19647
831.496	19936
831.635	19666
831.774	19540
831.913	19609
832.051	19556
832.19	19392
832.329	19438
832.467	19285
832.606	19251
832.744	19350
832.883	19297
833.022	19289
833.16	19426
833.299	19495
833.437	19472
833.576	19506
833.714	19628
833.852	19616
833.991	19651
834.129	19681
834.267	19655
834.406	19609
834.544	19563
834.682	19537
834.821	19457
834.959	19685
835.097	19430
835.235	19506
835.373	19445
835.511	19362
835.65	19213
835.788	19194
835.926	19015
836.064	18973
836.202	19050
836.34	19198
836.478	19236
836.615	19213
836.753	19175
836.891	19282
837.029	19244
837.167	19095
837.305	19183
837.443	19023
837.58	18993
837.718	19000
837.856	18977
837.993	18958
838.131	19171
838.269	18954
838.406	18840
838.544	18726
838.681	18604
838.819	18711
838.956	18407
839.094	18429
839.231	18513
839.369	18597
839.506	18806
839.643	18677
839.781	18475
839.918	18460
840.055	18437
840.193	18479
840.33	18357
840.467	18388
840.604	18483
840.742	18707
840.879	18235
841.016	18429
841.153	18456
841.29	18475
841.427	18597
841.564	18429
841.701	18327
841.838	18433
841.975	18300
842.112	18334
842.249	18228
842.385	18205
842.522	18300
842.659	18289
842.796	18098
842.933	18228
843.069	18144
843.206	18117
843.343	18361
843.479	18186
843.616	18209
843.752	18060
843.889	18053
844.025	18155
844.162	17996
844.298	18251
844.435	18129
844.571	18068
844.708	18258
844.844	18342
844.98	18540
845.117	18555
845.253	18620
845.389	18814
845.525	19628
845.661	20830
845.798	22223
845.934	23421
846.07	23855
846.206	23805
846.342	22976
846.478	21329
846.614	19830
846.75	19008
846.886	18391
847.022	18159
847.158	17935
847.294	17764
847.429	17840
847.565	17627
847.701	17821
847.837	17356
847.972	17273
848.108	17353
848.244	17227
848.379	17265
848.515	17025
848.65	17166
848.786	17048
848.921	17143
849.057	17212
849.192	17140
849.328	17189
849.463	17102
849.598	16995
849.734	16957
849.869	16873
850.004	16885
850.14	16843
850.275	16869
850.41	16725
850.545	16854
850.68	16793
850.815	16752
850.95	16831
851.085	17052
851.22	16736
851.355	16790
851.49	16809
851.625	16767
851.76	16828
851.895	16698
852.03	16691
852.165	16797
852.299	16790
852.434	16972
852.569	16725
852.703	16831
852.838	16949
852.973	16976
853.107	16999
853.242	16828
853.376	16664
853.511	16599
853.645	16675
853.78	16778
853.914	16729
854.048	16820
854.183	16698
854.317	16835
854.451	16816
854.585	16641
854.72	16733
854.854	16748
854.988	16710
855.122	16660
855.256	16558
855.39	16641
855.524	16713
855.658	16668
855.792	16755
855.926	16683
856.06	16782
856.194	16725
856.327	16630
856.461	16615
856.595	16596
856.729	16603
856.862	16717
856.996	16649
857.13	16805
857.263	16664
857.397	16649
857.53	16637
857.664	16656
857.797	16637
857.931	16725
858.064	16668
858.197	16687
858.331	16649
858.464	16519
858.597	16485
858.731	16717
858.864	16645
858.997	16573
859.13	16675
859.263	16607
859.396	16675
859.529	16535
859.662	16580
859.795	16542
859.928	16645
860.061	16744
860.194	16683
860.327	16622
860.46	16508
860.592	16672
860.725	16725
860.858	16752
860.99	16519
861.123	16542
861.256	16508
861.388	16558
861.521	17246
861.653	16440
861.786	16352
861.918	16375
862.05	16504
862.183	16500
862.315	16558
862.447	16542
862.58	16599
862.712	16352
862.844	16310
862.976	16440
863.108	16447
863.24	16877
863.372	16226
863.504	16375
863.636	16299
863.768	16257
863.9	16337
864.032	16169
864.164	16314
864.296	16329
864.428	16413
864.559	16398
864.691	16466
864.823	16287
864.954	16299
865.086	16344
865.217	16211
865.349	16131
865.48	16314
865.612	16329
865.743	16516
865.875	16352
866.006	16173
866.137	16207
866.269	16265
866.4	16242
866.531	16226
866.662	16166
866.793	16265
866.924	16246
867.055	16249
867.186	16166
867.317	16226
867.448	16207
867.579	16276
867.71	16181
867.841	16093
867.972	16310
868.103	16272
868.233	16268
868.364	16272
868.495	16363
868.625	16386
868.756	16546
868.886	16382
869.017	16402
869.147	16512
869.278	16546
869.408	16558
869.539	16485
869.669	16656
869.799	16527
869.929	16455
870.06	16596
870.19	16755
870.32	16812
870.45	16866
870.58	16877
870.71	17029
870.84	16984
870.97	16809
871.1	16889
871.23	17014
871.36	17117
871.489	16949
871.619	17140
871.749	17056
871.879	17037
872.008	17166
872.138	17094
872.267	17109
872.397	16965
872.526	17018
872.656	16980
872.785	16904
872.915	17083
873.044	17197
873.173	17185
873.303	17284
873.432	17223
873.561	17235
873.69	17200
873.819	17200
873.948	17193
874.077	17143
874.206	17147
874.335	17288
874.464	17368
874.593	17425
874.722	17410
874.851	17512
874.979	17535
875.108	17600
875.237	17566
875.365	17493
875.494	17516
875.623	17672
875.751	17554
875.88	17627
876.008	17718
876.136	17870
876.265	18019
876.393	18152
876.521	18098
876.65	18087
876.778	18076
876.906	18003
877.034	18083
877.162	18079
877.29	18026
877.418	18167
877.546	18171
877.674	18106
877.802	18060
877.93	18171
878.058	18148
878.185	18220
878.313	18475
878.441	18330
878.568	18407
878.696	18551
878.824	18852
878.951	19069
879.079	19480
879.206	19951
879.333	20317
879.461	20602
879.588	20998
879.715	21108
879.842	20899
879.97	20355
880.097	19685
880.224	19358
880.351	19110
880.478	18913
880.605	18677
880.732	18650
880.859	18802
880.986	18654
881.112	18608
881.239	18486
881.366	18361
881.493	18266
881.619	18072
881.746	18178
881.872	18136
881.999	18247
882.125	18174
882.252	18304
882.378	18213
882.505	18407
882.631	18091
882.757	17980
882.883	18030
883.01	17954
883.136	17916
883.262	17889
883.388	17843
883.514	18022
883.64	18083
883.766	17923
883.892	17901
884.018	17843
884.143	18087
884.269	18072
884.395	17710
884.52	17783
884.646	17783
884.772	17794
884.897	17577
885.023	17733
885.148	17722
885.274	17828
885.399	17794
885.524	17680
885.65	17638
885.775	17668
885.9	17562
886.025	17687
886.15	17417
886.275	17402
886.4	17349
886.525	17391
886.65	17239
886.775	17288
886.9	17474
887.025	17554
887.149	17265
887.274	17223
887.399	16984
887.523	17052
887.648	17105
887.773	16976
887.897	17109
888.021	17109
888.146	16972
888.27	17102
888.395	17113
888.519	17064
888.643	16976
888.767	16896
888.891	16889
889.015	16748
889.139	16858
889.263	16706
889.387	16866
889.511	16949
889.635	16816
889.759	16672
889.883	16641
890.006	16759
890.13	16854
890.254	16618
890.377	16618
890.501	16478
890.624	16409
890.748	16611
890.871	16386
890.995	16337
891.118	16223
891.241	16337
891.364	16394
891.488	16402
891.611	16310
891.734	16360
891.857	16295
891.98	16238
892.103	16455
892.226	16306
892.349	16185
892.471	16135
892.594	16253
892.717	16207
892.839	16158
892.962	16204
893.085	16386
893.207	16276
893.33	16040
893.452	16086
893.575	16295
893.697	16013
893.819	16318
893.941	16413
894.064	16303
894.186	16071
894.308	16185
894.43	16215
894.552	16428
894.674	16333
894.796	16105
894.918	16097
895.04	16162
895.161	16246
895.283	16318
895.405	16101
895.526	16226
895.648	16238
895.769	16196
895.891	16253
896.012	16261
896.134	16341
896.255	16284
896.376	16162
896.498	16234
896.619	16299
896.74	16329
896.861	16360
896.982	16565
897.103	16729
897.224	16409
897.345	16580
897.466	16440
897.587	16466
897.708	16653
897.828	16577
897.949	16455
898.07	16428
898.19	16451
898.311	16615
898.431	16440
898.552	16592
898.672	16603
898.792	16698
898.913	16561
899.033	16630
899.153	16440
899.273	16314
899.393	16459
899.513	16436
899.633	16322
899.753	16497
899.873	16417
899.993	16436
900.113	16417
900.232	16299
900.352	16284
900.472	16295
900.591	16207
900.711	16314
900.83	16166
900.95	16337
901.069	16318
901.189	16226
901.308	16021
901.427	15793
901.546	15922
901.665	15895
901.784	15926
901.904	15774
902.023	15751
902.141	15557
902.26	15355
902.379	15549
902.498	15370
902.617	15344
902.735	15431
902.854	15382
902.973	15355
903.091	15173
903.21	15074
903.328	15119
903.446	14891
903.565	14975
903.683	14948
903.801	14800
903.919	14979
904.038	14765
904.156	14712
904.274	14655
904.392	14659
904.51	14648
904.627	14617
904.745	14785
904.863	14689
904.981	14495
905.098	14427
905.216	14263
905.334	14374
905.451	14305
905.569	14351
905.686	14347
905.803	14275
905.921	14187
906.038	14187
906.155	14126
906.272	14012
906.389	13997
906.506	13906
906.623	13928
906.74	13833
906.857	13689
906.974	13830
907.091	13868
907.208	14031
907.324	13925
907.441	13811
907.557	13575
907.674	13544
907.79	13514
907.907	13525
908.023	13582
908.139	13544
908.256	13419
908.372	13514
908.488	13407
908.604	13316
908.72	13339
908.836	13304
908.952	13365
909.068	13301
909.184	13487
909.3	13240
909.415	13419
909.531	13327
909.647	13027
909.762	13042
909.878	13088
909.993	13038
910.108	13034
910.224	12951
910.339	13088
910.454	13000
910.57	12905
910.685	12738
910.8	13072
910.915	13034
911.03	12798
911.145	12749
911.259	12642
911.374	12677
911.489	12616
911.604	12589
911.718	12525
911.833	12471
911.947	12350
912.062	12327
912.176	12395
912.291	12403
912.405	12388
912.519	12673
912.633	12635
912.748	12490
912.862	12433
912.976	12251
913.09	12152
913.204	12266
913.318	12296
913.431	12334
913.545	12346
913.659	12460
913.772	12330
913.886	12167
914	12102
914.113	12315
914.226	12251
914.34	12220
914.453	12125
914.566	12182
914.68	12171
914.793	12064
914.906	11942
915.019	11851
915.132	11771
915.245	11882
915.358	11851
915.47	11901
915.583	11912
915.696	11908
915.809	12038
915.921	11969
916.034	11859
916.146	11893
916.259	11794
916.371	11942
916.483	11916
916.595	11729
916.708	11710
916.82	11840
916.932	11798
917.044	11771
917.156	11790
917.268	11691
917.38	11634
917.491	11653
917.603	11539
917.715	11688
917.826	11726
917.938	11642
918.049	11493
918.161	11585
918.272	11733
918.384	11752
918.495	11688
918.606	11482
918.717	11414
918.828	11452
918.939	11486
919.05	11391
919.161	11467
919.272	11246
919.383	11360
919.494	11455
919.604	11657
919.715	11501
919.826	11414
919.936	11455
920.047	11501
920.157	11558
920.267	11642
920.378	11615
920.488	11501
920.598	11619
920.708	11771
920.818	11691
920.928	11657
921.038	11805
921.148	11775
921.258	11520
921.368	11417
921.477	11330
921.587	11197
921.697	11212
921.806	11349
921.916	11102
922.025	10972
922.134	10877
922.244	10896
922.353	11014
922.462	10828
922.571	10862
922.68	10630
922.789	10584
922.898	10694
923.007	10478
923.116	10664
923.224	10615
923.333	10573
923.442	10531
923.55	10493
923.659	10550
923.767	10573
923.876	10466
923.984	10561
924.092	10371
924.201	10413
924.309	10523
924.417	10462
924.525	10325
924.633	10500
924.741	11220
924.849	10253
924.956	10394
925.064	10192
925.172	10177
925.279	10204
925.387	10253
925.494	10162
925.602	10409
925.709	10295
925.816	10116
925.924	10234
926.031	10268
926.138	10257
926.245	10287
926.352	10124
926.459	10185
926.566	10322
926.673	10223
926.779	10032
926.886	10109
926.993	9960
927.099	9827
927.206	9899
927.312	9895
927.419	10032
927.525	9861
927.631	9972
927.737	9812
927.843	9766
927.95	9713
928.056	9842
928.162	9823
928.267	9789
928.373	10405
928.479	9876
928.585	9667
928.69	9682
928.796	9797
928.901	9671
929.007	9488
929.112	9686
929.218	9663
929.323	9614
929.428	9682
929.533	9705
929.638	9485
929.743	9637
929.848	9549
929.953	9553
930.058	9412
930.163	9351
930.267	9348
930.372	9485
930.477	9237
930.581	9511
930.685	9382
930.79	9233
930.894	9325
930.998	9283
931.103	9397
931.207	9036
931.311	8910
931.415	8906
931.519	8743
931.623	8686
