Data from test_V78500241_2152.txt Node
Date: Fri Mar 25 14:48:41 CST 2022
User: usil
Spectrometer: V785-0024
Trigger mode: 0
Integration Time (sec): 4.000000E-1
Scans to average: 1
Nonlinearity correction enabled: false
Boxcar width: 0
Storing dark spectrum: false
XAxis mode: Wavelengths
Number of Pixels in Spectrum: 1024
>>>>>Begin Spectral Data<<<<<
801.071	22192
801.214	22143
801.356	21869
801.499	21667
801.641	21637
801.783	21690
801.926	21637
802.068	21530
802.211	21492
802.353	21348
802.496	21093
802.638	21112
802.78	21013
802.923	21036
803.065	20857
803.208	20853
803.35	21009
803.492	21047
803.635	21020
803.777	20975
803.919	20986
804.061	21275
804.204	20990
804.346	20971
804.488	20754
804.63	20796
804.773	20777
804.915	20883
805.057	20864
805.199	20804
805.341	20925
805.483	20971
805.626	20944
805.768	20830
805.91	20823
806.052	20887
806.194	20693
806.336	20918
806.478	20864
806.62	20880
806.762	20773
806.904	20960
807.046	21287
807.188	21188
807.33	21214
807.472	21241
807.614	21108
807.756	21123
807.898	20921
808.04	21005
808.182	20906
808.324	20845
808.465	21058
808.607	21237
808.749	21264
808.891	21370
809.033	21485
809.174	21393
809.316	21180
809.458	21283
809.6	21169
809.741	21336
809.883	21340
810.025	21405
810.166	21378
810.308	21344
810.45	21412
810.591	21279
810.733	21081
810.875	20948
811.016	20986
811.158	21020
811.299	20944
811.441	21199
811.582	21138
811.724	20933
811.865	20967
812.007	20899
812.148	21047
812.29	21051
812.431	21260
812.573	21351
812.714	21431
812.855	21549
812.997	21603
813.138	21816
813.279	21519
813.421	21507
813.562	21393
813.703	21317
813.845	21104
813.986	20880
814.127	20632
814.268	20552
814.41	20579
814.551	20629
814.692	20769
814.833	20465
814.974	20492
815.115	20564
815.256	20499
815.397	20370
815.539	20442
815.68	20324
815.821	20221
815.962	20267
816.103	20248
816.244	20062
816.385	20100
816.526	20073
816.666	19875
816.807	19784
816.948	19765
817.089	19852
817.23	19704
817.371	19662
817.512	19696
817.653	19483
817.793	19685
817.934	19689
818.075	19643
818.216	19765
818.356	19632
818.497	19434
818.638	19388
818.778	19381
818.919	19346
819.06	19411
819.2	19525
819.341	19441
819.481	19666
819.622	19784
819.762	19955
819.903	19750
820.043	19666
820.184	19670
820.324	19742
820.465	19719
820.605	19681
820.746	19662
820.886	19525
821.026	19609
821.167	19620
821.307	19788
821.447	19597
821.588	19552
821.728	19335
821.868	19206
822.008	19057
822.149	19164
822.289	18977
822.429	18928
822.569	18829
822.709	18749
822.849	18677
822.99	18608
823.13	18517
823.27	18490
823.41	18292
823.55	18270
823.69	18372
823.83	18426
823.97	18327
824.11	18159
824.25	18091
824.389	18110
824.529	18262
824.669	18224
824.809	18300
824.949	18209
825.089	18281
825.228	18155
825.368	17973
825.508	17897
825.648	18026
825.787	17885
825.927	17973
826.067	17828
826.206	17817
826.346	17969
826.485	17916
826.625	17954
826.765	18015
826.904	17942
827.044	17668
827.183	17585
827.323	17509
827.462	17680
827.601	17554
827.741	17509
827.88	17608
828.02	17433
828.159	17562
828.298	17623
828.437	17684
828.577	17512
828.716	17767
828.855	17570
828.994	17334
829.134	17406
829.273	17391
829.412	17269
829.551	17330
829.69	17364
829.829	17288
829.968	17425
830.107	17345
830.246	17326
830.385	17216
830.524	17151
830.663	17250
830.802	16968
830.941	16987
831.08	16881
831.219	17109
831.357	16953
831.496	17254
831.635	16858
831.774	16869
831.913	16896
832.051	16740
832.19	16812
832.329	16774
832.467	16626
832.606	16599
832.744	16622
832.883	16626
833.022	16592
833.16	16637
833.299	16656
833.437	16649
833.576	16729
833.714	16679
833.852	16740
833.991	16763
834.129	16809
834.267	16793
834.406	16748
834.544	16713
834.682	16687
834.821	16767
834.959	16820
835.097	16622
835.235	16793
835.373	16683
835.511	16672
835.65	16664
835.788	16558
835.926	16466
836.064	16417
836.202	16394
836.34	16580
836.478	16550
836.615	16500
836.753	16618
836.891	16752
837.029	16615
837.167	16618
837.305	16504
837.443	16535
837.58	16459
837.718	16561
837.856	16538
837.993	16421
838.131	16394
838.269	16405
838.406	16459
838.544	16284
838.681	16223
838.819	16253
838.956	16032
839.094	16002
839.231	16029
839.369	16188
839.506	16478
839.643	16249
839.781	16093
839.918	15911
840.055	16006
840.193	16010
840.33	15983
840.467	16010
840.604	16025
840.742	16284
840.879	15895
841.016	15968
841.153	15937
841.29	16124
841.427	15979
841.564	16025
841.701	16021
841.838	15846
841.975	15945
842.112	15895
842.249	15770
842.385	15675
842.522	16006
842.659	15751
842.796	15739
842.933	15785
843.069	15800
843.206	15720
843.343	15854
843.479	15895
843.616	15785
843.752	15599
843.889	15553
844.025	15789
844.162	15557
844.298	15682
844.435	15553
844.571	15599
844.708	15663
844.844	15739
844.98	15793
845.117	15739
845.253	15504
845.389	15545
845.525	15431
845.661	15431
845.798	15443
845.934	15378
846.07	15389
846.206	15408
846.342	15545
846.478	15401
846.614	15184
846.75	15108
846.886	15100
847.022	15268
847.158	15112
847.294	15142
847.429	15154
847.565	15161
847.701	15382
847.837	14918
847.972	14838
848.108	14990
848.244	14918
848.379	14781
848.515	14823
848.65	14674
848.786	14800
848.921	14731
849.057	14754
849.192	14815
849.328	14883
849.463	14853
849.598	14773
849.734	14663
849.869	14648
850.004	14495
850.14	14511
850.275	14610
850.41	14442
850.545	14419
850.68	14541
850.815	14583
850.95	14457
851.085	14750
851.22	14648
851.355	14530
851.49	14454
851.625	14564
851.76	14473
851.895	14495
852.03	14408
852.165	14564
852.299	14606
852.434	14579
852.569	14552
852.703	14495
852.838	14552
852.973	14739
853.107	14762
853.242	14442
853.376	14423
853.511	14278
853.645	14286
853.78	14522
853.914	14377
854.048	14446
854.183	14412
854.317	14347
854.451	14594
854.585	14358
854.72	14339
854.854	14431
854.988	14218
855.122	14366
855.256	14233
855.39	14347
855.524	14480
855.658	14366
855.792	14461
855.926	14385
856.06	14419
856.194	14415
856.327	14442
856.461	14286
856.595	14286
856.729	14343
856.862	14423
856.996	14381
857.13	14381
857.263	14503
857.397	14575
857.53	14381
857.664	14408
857.797	14393
857.931	14476
858.064	14568
858.197	14530
858.331	14381
858.464	14339
858.597	14263
858.731	14324
858.864	14457
858.997	14320
859.13	14415
859.263	14385
859.396	14412
859.529	14385
859.662	14320
859.795	14366
859.928	14328
860.061	14545
860.194	14568
860.327	14427
860.46	14358
860.592	14465
860.725	14594
860.858	14431
860.99	14381
861.123	14244
861.256	14343
861.388	14381
861.521	15074
861.653	14282
861.786	14286
861.918	14309
862.05	14339
862.183	14374
862.315	14351
862.447	14374
862.58	14358
862.712	14138
862.844	14119
862.976	14282
863.108	14244
863.24	14530
863.372	14024
863.504	14065
863.636	14096
863.768	14252
863.9	14115
864.032	14103
864.164	14043
864.296	14134
864.428	14298
864.559	14172
864.691	14237
864.823	14259
864.954	14168
865.086	14206
865.217	14107
865.349	14039
865.48	14107
865.612	14225
865.743	14263
865.875	14256
866.006	14027
866.137	14138
866.269	14157
866.4	14115
866.531	14092
866.662	14062
866.793	14016
866.924	14088
867.055	14126
867.186	14092
867.317	14138
867.448	13974
867.579	14126
867.71	13993
867.841	14062
867.972	14138
868.103	14221
868.233	14168
868.364	14111
868.495	14157
868.625	14366
868.756	14495
868.886	14252
869.017	14237
869.147	14492
869.278	14492
869.408	14427
869.539	14362
869.669	14454
869.799	14434
869.929	14533
870.06	14446
870.19	14708
870.32	14636
870.45	14819
870.58	14762
870.71	14864
870.84	14929
870.97	14777
871.1	14845
871.23	15005
871.36	15081
871.489	14826
871.619	14956
871.749	15013
871.879	15024
872.008	15036
872.138	14986
872.267	14952
872.397	14853
872.526	14811
872.656	14842
872.785	14857
872.915	15005
873.044	15066
873.173	14963
873.303	15009
873.432	15055
873.561	15154
873.69	15142
873.819	15020
873.948	15077
874.077	15199
874.206	15020
874.335	15146
874.464	15199
874.593	15374
874.722	15260
874.851	15325
874.979	15431
875.108	15382
875.237	15355
875.365	15279
875.494	15313
875.623	15462
875.751	15374
875.88	15382
876.008	15523
876.136	15595
876.265	15819
876.393	15972
876.521	15903
876.65	15926
876.778	15766
876.906	15694
877.034	15766
877.162	15713
877.29	15644
877.418	15850
877.546	15694
877.674	15857
877.802	15774
877.93	15804
878.058	15671
878.185	15698
878.313	15762
878.441	15766
878.568	15637
878.696	15816
878.824	15838
878.951	15789
879.079	15907
879.206	16131
879.333	16067
879.461	15861
879.588	15903
879.715	15956
879.842	16082
879.97	15865
880.097	15641
880.224	15652
880.351	15625
880.478	15698
880.605	15587
880.732	15663
880.859	15857
880.986	15641
881.112	15724
881.239	15568
881.366	15397
881.493	15397
881.619	15359
881.746	15211
881.872	15260
881.999	15226
882.125	15252
882.252	15332
882.378	15340
882.505	15443
882.631	15230
882.757	15173
882.883	15154
883.01	15093
883.136	15077
883.262	15043
883.388	14899
883.514	15165
883.64	15131
883.766	14921
883.892	14883
884.018	14872
884.143	15070
884.269	15131
884.395	14876
884.52	14823
884.646	14826
884.772	14792
884.897	14686
885.023	14762
885.148	14849
885.274	14967
885.399	14834
885.524	14857
885.65	14807
885.775	14800
885.9	14670
886.025	14948
886.15	14914
886.275	14754
886.4	14659
886.525	14754
886.65	14743
886.775	14606
886.9	14929
887.025	15077
887.149	14796
887.274	14583
887.399	14530
887.523	14587
887.648	14587
887.773	14526
887.897	14697
888.021	14746
888.146	14552
888.27	14716
888.395	14720
888.519	14727
888.643	14667
888.767	14705
888.891	14568
889.015	14552
889.139	14484
889.263	14499
889.387	14632
889.511	14640
889.635	14598
889.759	14377
889.883	14499
890.006	14522
890.13	14511
890.254	14389
890.377	14457
890.501	14412
890.624	14225
890.748	14381
890.871	14191
890.995	14164
891.118	14088
891.241	14282
891.364	14294
891.488	14351
891.611	14153
891.734	14210
891.857	14180
891.98	14233
892.103	14180
892.226	14172
892.349	14103
892.471	14005
892.594	14225
892.717	14202
892.839	14149
892.962	14088
893.085	14225
893.207	14126
893.33	14100
893.452	14088
893.575	14221
893.697	14183
893.819	14381
893.941	14431
894.064	14355
894.186	14126
894.308	14062
894.43	14324
894.552	14499
894.674	14324
894.796	14092
894.918	14259
895.04	14271
895.161	14355
895.283	14328
895.405	14267
895.526	14347
895.648	14339
895.769	14286
895.891	14355
896.012	14355
896.134	14423
896.255	14339
896.376	14237
896.498	14389
896.619	14412
896.74	14366
896.861	14374
896.982	14716
897.103	14823
897.224	14636
897.345	14655
897.466	14518
897.587	14640
897.708	14659
897.828	14689
897.949	14564
898.07	14526
898.19	14492
898.311	14697
898.431	14632
898.552	14644
898.672	14682
898.792	14773
898.913	14735
899.033	14636
899.153	14537
899.273	14385
899.393	14564
899.513	14480
899.633	14571
899.753	14560
899.873	14438
899.993	14579
900.113	14590
900.232	14560
900.352	14621
900.472	14442
900.591	14358
900.711	14400
900.83	14393
900.95	14499
901.069	14465
901.189	14408
901.308	14153
901.427	14050
901.546	14180
901.665	14123
901.784	14115
901.904	14039
902.023	13845
902.141	13750
902.26	13632
902.379	13830
902.498	13582
902.617	13616
902.735	13674
902.854	13647
902.973	13529
903.091	13468
903.21	13373
903.328	13362
903.446	13282
903.565	13175
903.683	13244
903.801	13149
903.919	13255
904.038	13175
904.156	13053
904.274	13168
904.392	12947
904.51	13118
904.627	13091
904.745	13137
904.863	13114
904.981	12825
905.098	12730
905.216	12658
905.334	12817
905.451	12749
905.569	12650
905.686	12825
905.803	12639
905.921	12559
906.038	12684
906.155	12646
906.272	12494
906.389	12490
906.506	12300
906.623	12251
906.74	12270
906.857	12224
906.974	12308
907.091	12437
907.208	12372
907.324	12410
907.441	12178
907.557	12038
907.674	12049
907.79	11988
907.907	12068
908.023	12030
908.139	12060
908.256	12057
908.372	12072
908.488	11935
908.604	11893
908.72	11775
908.836	11912
908.952	11756
909.068	11866
909.184	11904
909.3	11866
909.415	11908
909.531	11843
909.647	11646
909.762	11600
909.878	11623
909.993	11649
910.108	11528
910.224	11539
910.339	11585
910.454	11486
910.57	11448
910.685	11429
910.8	11688
910.915	11589
911.03	11455
911.145	11341
911.259	11242
911.374	11288
911.489	11235
911.604	11136
911.718	11014
911.833	11128
911.947	10938
912.062	10873
912.176	11022
912.291	11025
912.405	11136
912.519	11258
912.633	11265
912.748	11162
912.862	11086
912.976	11006
913.09	10839
913.204	10866
913.318	10908
913.431	10927
913.545	11003
913.659	10934
913.772	10949
913.886	10816
914	10786
914.113	10885
914.226	10889
914.34	10934
914.453	10649
914.566	10949
914.68	10763
914.793	10797
914.906	10607
915.019	10630
915.132	10478
915.245	10474
915.358	10546
915.47	10611
915.583	10622
915.696	10634
915.809	10691
915.921	10706
916.034	10508
916.146	10554
916.259	10481
916.371	10531
916.483	10611
916.595	10500
916.708	10531
916.82	10493
916.932	10428
917.044	10443
917.156	10455
917.268	10341
917.38	10344
917.491	10352
917.603	10382
917.715	10512
917.826	10508
917.938	10470
918.049	10230
918.161	10440
918.272	10489
918.384	10481
918.495	10367
918.606	10265
918.717	10150
918.828	10341
918.939	10299
919.05	10234
919.161	10303
919.272	10029
919.383	10177
919.494	10246
919.604	10519
919.715	10291
919.826	10181
919.936	10246
920.047	10284
920.157	10249
920.267	10451
920.378	10303
920.488	10322
920.598	10519
920.708	10637
920.818	10485
920.928	10462
921.038	10641
921.148	10558
921.258	10230
921.368	10280
921.477	10169
921.587	10055
921.697	10040
921.806	10215
921.916	10036
922.025	9892
922.134	9857
922.244	9774
922.353	9854
922.462	9747
922.571	9660
922.68	9561
922.789	9435
922.898	9504
923.007	9477
923.116	9557
923.224	9553
923.333	9515
923.442	9386
923.55	9416
923.659	9439
923.767	9466
923.876	9405
923.984	9428
924.092	9359
924.201	9344
924.309	9359
924.417	9405
924.525	9336
924.633	9405
924.741	10029
924.849	9123
924.956	9374
925.064	9127
925.172	9089
925.279	9093
925.387	9230
925.494	9203
925.602	9279
925.709	9291
925.816	9119
925.924	9146
926.031	9135
926.138	9131
926.245	9192
926.352	9093
926.459	9249
926.566	9275
926.673	9104
926.779	9070
926.886	9017
926.993	8952
927.099	8941
927.206	8830
927.312	8826
927.419	8990
927.525	8948
927.631	8895
927.737	8762
927.843	8689
927.95	8682
928.056	8731
928.162	8861
928.267	8826
928.373	9332
928.479	8994
928.585	8670
928.69	8758
928.796	8804
928.901	8689
929.007	8587
929.112	8678
929.218	8708
929.323	8541
929.428	8552
929.533	8724
929.638	8526
929.743	8511
929.848	8659
929.953	8598
930.058	8488
930.163	8370
930.267	8419
930.372	8469
930.477	8370
930.581	8594
930.685	8495
930.79	8279
930.894	8355
930.998	8309
931.103	8381
931.207	7989
931.311	8027
931.415	8012
931.519	7830
931.623	7822
