Data from test_V78500241_1866.txt Node
Date: Fri Mar 25 14:46:42 CST 2022
User: usil
Spectrometer: V785-0024
Trigger mode: 0
Integration Time (sec): 4.000000E-1
Scans to average: 1
Nonlinearity correction enabled: false
Boxcar width: 0
Storing dark spectrum: false
XAxis mode: Wavelengths
Number of Pixels in Spectrum: 1024
>>>>>Begin Spectral Data<<<<<
801.071	22188
801.214	22082
801.356	21694
801.499	21656
801.641	21447
801.783	21599
801.926	21485
802.068	21412
802.211	21329
802.353	21249
802.496	21093
802.638	20933
802.78	20948
802.923	20902
803.065	20830
803.208	20743
803.35	20864
803.492	21093
803.635	20864
803.777	20914
803.919	20849
804.061	21093
804.204	20887
804.346	20606
804.488	20746
804.63	20826
804.773	20834
804.915	20823
805.057	20941
805.199	20712
805.341	20838
805.483	20777
805.626	20902
805.768	20754
805.91	20842
806.052	20754
806.194	20838
806.336	20830
806.478	20720
806.62	20735
806.762	20838
806.904	20857
807.046	21138
807.188	21013
807.33	21089
807.472	21169
807.614	21077
807.756	21051
807.898	20819
808.04	20773
808.182	20823
808.324	20815
808.465	20986
808.607	20990
808.749	21066
808.891	21264
809.033	21268
809.174	21237
809.316	21036
809.458	21093
809.6	21119
809.741	21146
809.883	21169
810.025	21264
810.166	21386
810.308	21108
810.45	21226
810.591	21135
810.733	20956
810.875	20834
811.016	20788
811.158	20720
811.299	21066
811.441	21013
811.582	21013
811.724	20933
811.865	20853
812.007	20864
812.148	20929
812.29	20944
812.431	20998
812.573	21207
812.714	21184
812.855	21222
812.997	21416
813.138	21583
813.279	21435
813.421	21458
813.562	21332
813.703	21195
813.845	21009
813.986	20868
814.127	20640
814.268	20545
814.41	20530
814.551	20492
814.692	20473
814.833	20317
814.974	20355
815.115	20442
815.256	20229
815.397	20271
815.539	20286
815.68	20240
815.821	20001
815.962	20206
816.103	20149
816.244	20107
816.385	19921
816.526	19947
816.666	19765
816.807	19544
816.948	19719
817.089	19719
817.23	19647
817.371	19537
817.512	19540
817.653	19548
817.793	19468
817.934	19483
818.075	19620
818.216	19495
818.356	19518
818.497	19331
818.638	19426
818.778	19278
818.919	19392
819.06	19198
819.2	19403
819.341	19441
819.481	19457
819.622	19639
819.762	19719
819.903	19704
820.043	19750
820.184	19594
820.324	19491
820.465	19499
820.605	19552
820.746	19502
820.886	19335
821.026	19544
821.167	19594
821.307	19567
821.447	19460
821.588	19282
821.728	19228
821.868	19027
822.008	18966
822.149	19031
822.289	18932
822.429	18749
822.569	18612
822.709	18734
822.849	18544
822.99	18414
823.13	18369
823.27	18437
823.41	18361
823.55	18220
823.69	18296
823.83	18262
823.97	18228
824.11	18026
824.25	18076
824.389	18049
824.529	18045
824.669	18007
824.809	18186
824.949	18095
825.089	18064
825.228	18034
825.368	17904
825.508	17878
825.648	17878
825.787	17961
825.927	17863
826.067	17779
826.206	17798
826.346	17821
826.485	17855
826.625	17756
826.765	18022
826.904	17840
827.044	17608
827.183	17676
827.323	17585
827.462	17600
827.601	17627
827.741	17509
827.88	17505
828.02	17376
828.159	17532
828.298	17589
828.437	17547
828.577	17551
828.716	17592
828.855	17474
828.994	17254
829.134	17326
829.273	17429
829.412	17246
829.551	17265
829.69	17322
829.829	17364
829.968	17349
830.107	17326
830.246	17402
830.385	17231
830.524	17307
830.663	17121
830.802	17018
830.941	16904
831.08	16889
831.219	17003
831.357	17025
831.496	17185
831.635	16980
831.774	16831
831.913	16820
832.051	16767
832.19	16664
832.329	16675
832.467	16573
832.606	16588
832.744	16603
832.883	16599
833.022	16637
833.16	16580
833.299	16691
833.437	16744
833.576	16729
833.714	16622
833.852	16683
833.991	16786
834.129	16740
834.267	16653
834.406	16683
834.544	16748
834.682	16782
834.821	16687
834.959	16847
835.097	16573
835.235	16729
835.373	16672
835.511	16759
835.65	16626
835.788	16626
835.926	16390
836.064	16485
836.202	16478
836.34	16508
836.478	16706
836.615	16497
836.753	16622
836.891	16717
837.029	16729
837.167	16599
837.305	16504
837.443	16512
837.58	16497
837.718	16523
837.856	16363
837.993	16485
838.131	16440
838.269	16314
838.406	16428
838.544	16322
838.681	16223
838.819	16116
838.956	16013
839.094	16040
839.231	16105
839.369	16101
839.506	16398
839.643	16322
839.781	16025
839.918	15945
840.055	15930
840.193	16032
840.33	16025
840.467	16109
840.604	15960
840.742	16204
840.879	15698
841.016	15907
841.153	15892
841.29	16105
841.427	16078
841.564	16105
841.701	15994
841.838	15941
841.975	15892
842.112	15968
842.249	15838
842.385	15778
842.522	15979
842.659	15774
842.796	15880
842.933	15732
843.069	15747
843.206	15728
843.343	15831
843.479	15816
843.616	15762
843.752	15526
843.889	15625
844.025	15732
844.162	15523
844.298	15709
844.435	15523
844.571	15542
844.708	15709
844.844	15762
844.98	15789
845.117	15694
845.253	15603
845.389	15481
845.525	15549
845.661	15507
845.798	15405
845.934	15443
846.07	15473
846.206	15359
846.342	15553
846.478	15374
846.614	15226
846.75	15154
846.886	15077
847.022	15230
847.158	15176
847.294	15157
847.429	15203
847.565	15058
847.701	15420
847.837	14910
847.972	14857
848.108	14929
848.244	14906
848.379	14838
848.515	14682
848.65	14735
848.786	14777
848.921	14834
849.057	14807
849.192	14880
849.328	14857
849.463	14720
849.598	14762
849.734	14610
849.869	14602
850.004	14648
850.14	14621
850.275	14499
850.41	14473
850.545	14419
850.68	14423
850.815	14613
850.95	14549
851.085	14705
851.22	14594
851.355	14549
851.49	14503
851.625	14473
851.76	14450
851.895	14469
852.03	14389
852.165	14503
852.299	14511
852.434	14552
852.569	14514
852.703	14522
852.838	14617
852.973	14659
853.107	14583
853.242	14377
853.376	14434
853.511	14206
853.645	14336
853.78	14552
853.914	14446
854.048	14389
854.183	14244
854.317	14488
854.451	14480
854.585	14358
854.72	14374
854.854	14362
854.988	14328
855.122	14301
855.256	14309
855.39	14339
855.524	14484
855.658	14320
855.792	14370
855.926	14457
856.06	14522
856.194	14476
856.327	14339
856.461	14400
856.595	14385
856.729	14377
856.862	14503
856.996	14465
857.13	14556
857.263	14484
857.397	14434
857.53	14381
857.664	14511
857.797	14393
857.931	14533
858.064	14499
858.197	14587
858.331	14560
858.464	14267
858.597	14336
858.731	14324
858.864	14408
858.997	14298
859.13	14381
859.263	14434
859.396	14415
859.529	14366
859.662	14275
859.795	14278
859.928	14423
860.061	14587
860.194	14613
860.327	14446
860.46	14404
860.592	14507
860.725	14511
860.858	14556
860.99	14358
861.123	14309
861.256	14389
861.388	14362
861.521	14998
861.653	14370
861.786	14202
861.918	14305
862.05	14275
862.183	14259
862.315	14362
862.447	14450
862.58	14324
862.712	14126
862.844	14062
862.976	14301
863.108	14309
863.24	14495
863.372	14161
863.504	14084
863.636	14142
863.768	14233
863.9	14218
864.032	14077
864.164	14062
864.296	14096
864.428	14358
864.559	14275
864.691	14256
864.823	14278
864.954	14206
865.086	14191
865.217	14168
865.349	14119
865.48	14050
865.612	14157
865.743	14256
865.875	14202
866.006	14088
866.137	14111
866.269	14180
866.4	14103
866.531	14119
866.662	14069
866.793	14119
866.924	14084
867.055	14081
867.186	14168
867.317	14073
867.448	14024
867.579	14043
867.71	14130
867.841	14092
867.972	14100
868.103	14149
868.233	14073
868.364	14103
868.495	14278
868.625	14488
868.756	14495
868.886	14313
869.017	14339
869.147	14484
869.278	14590
869.408	14381
869.539	14480
869.669	14499
869.799	14438
869.929	14560
870.06	14412
870.19	14682
870.32	14644
870.45	14785
870.58	14739
870.71	14807
870.84	14887
870.97	14769
871.1	14781
871.23	15005
871.36	14933
871.489	14941
871.619	14906
871.749	14990
871.879	15009
872.008	15108
872.138	15013
872.267	14941
872.397	14800
872.526	14842
872.656	14819
872.785	14887
872.915	15077
873.044	15165
873.173	15077
873.303	15028
873.432	15108
873.561	15127
873.69	15062
873.819	15013
873.948	15116
874.077	15066
874.206	15085
874.335	14986
874.464	15249
874.593	15382
874.722	15211
874.851	15355
874.979	15420
875.108	15447
875.237	15310
875.365	15211
875.494	15374
875.623	15424
875.751	15233
875.88	15340
876.008	15545
876.136	15504
876.265	15774
876.393	15884
876.521	15823
876.65	15895
876.778	15823
876.906	15736
877.034	15663
877.162	15732
877.29	15682
877.418	15774
877.546	15838
877.674	15781
877.802	15755
877.93	15816
878.058	15743
878.185	15618
878.313	15660
878.441	15785
878.568	15595
878.696	15701
878.824	15694
878.951	15808
879.079	15949
879.206	16101
879.333	15895
879.461	15804
879.588	15823
879.715	15953
879.842	16063
879.97	15903
880.097	15557
880.224	15538
880.351	15656
880.478	15584
880.605	15576
880.732	15568
880.859	15789
880.986	15652
881.112	15557
881.239	15542
881.366	15294
881.493	15298
881.619	15260
881.746	15279
881.872	15233
881.999	15222
882.125	15199
882.252	15351
882.378	15408
882.505	15389
882.631	15176
882.757	15116
882.883	15241
883.01	15127
883.136	15097
883.262	14975
883.388	14921
883.514	15100
883.64	15093
883.766	15093
883.892	14868
884.018	15001
884.143	15028
884.269	15123
884.395	14773
884.52	14727
884.646	14811
884.772	14727
884.897	14724
885.023	14746
885.148	14937
885.274	14902
885.399	14849
885.524	14853
885.65	14804
885.775	14845
885.9	14815
886.025	14902
886.15	14929
886.275	14804
886.4	14735
886.525	14686
886.65	14731
886.775	14785
886.9	14941
887.025	14925
887.149	14868
887.274	14552
887.399	14579
887.523	14629
887.648	14667
887.773	14560
887.897	14613
888.021	14674
888.146	14507
888.27	14648
888.395	14727
888.519	14579
888.643	14682
888.767	14708
888.891	14522
889.015	14530
889.139	14480
889.263	14389
889.387	14587
889.511	14663
889.635	14648
889.759	14431
889.883	14469
890.006	14480
890.13	14640
890.254	14408
890.377	14476
890.501	14237
890.624	14328
890.748	14377
890.871	14210
890.995	14043
891.118	14142
891.241	14225
891.364	14172
891.488	14256
891.611	14096
891.734	14237
891.857	14278
891.98	14195
892.103	14275
892.226	14263
892.349	14149
892.471	14035
892.594	14145
892.717	14153
892.839	14176
892.962	14172
893.085	14233
893.207	14088
893.33	14092
893.452	14153
893.575	14237
893.697	14115
893.819	14305
893.941	14381
894.064	14355
894.186	14191
894.308	14103
894.43	14282
894.552	14404
894.674	14271
894.796	14100
894.918	14218
895.04	14214
895.161	14248
895.283	14290
895.405	14267
895.526	14145
895.648	14233
895.769	14221
895.891	14324
896.012	14446
896.134	14351
896.255	14317
896.376	14370
896.498	14328
896.619	14336
896.74	14347
896.861	14370
896.982	14758
897.103	14739
897.224	14655
897.345	14560
897.466	14587
897.587	14659
897.708	14735
897.828	14697
897.949	14587
898.07	14438
898.19	14499
898.311	14815
898.431	14640
898.552	14720
898.672	14830
898.792	14746
898.913	14765
899.033	14606
899.153	14522
899.273	14541
899.393	14530
899.513	14552
899.633	14526
899.753	14587
899.873	14503
899.993	14598
900.113	14514
900.232	14655
900.352	14484
900.472	14469
900.591	14347
900.711	14461
900.83	14324
900.95	14400
901.069	14457
901.189	14336
901.308	14065
901.427	14008
901.546	14176
901.665	14119
901.784	14077
901.904	14027
902.023	13917
902.141	13632
902.26	13662
902.379	13719
902.498	13662
902.617	13571
902.735	13636
902.854	13518
902.973	13487
903.091	13373
903.21	13331
903.328	13464
903.446	13320
903.565	13198
903.683	13187
903.801	13129
903.919	13266
904.038	13202
904.156	12932
904.274	13164
904.392	13012
904.51	12989
904.627	12932
904.745	13110
904.863	13088
904.981	12909
905.098	12669
905.216	12684
905.334	12730
905.451	12730
905.569	12604
905.686	12757
905.803	12722
905.921	12631
906.038	12639
906.155	12574
906.272	12407
906.389	12631
906.506	12235
906.623	12315
906.74	12235
906.857	12220
906.974	12194
907.091	12380
907.208	12471
907.324	12319
907.441	12232
907.557	12022
907.674	12057
907.79	11988
907.907	11942
908.023	12068
908.139	12072
908.256	11984
908.372	11965
908.488	11958
908.604	11889
908.72	11767
908.836	11878
908.952	11821
909.068	11847
909.184	11935
909.3	11813
909.415	11855
909.531	11790
909.647	11604
909.762	11596
909.878	11558
909.993	11585
910.108	11573
910.224	11528
910.339	11638
910.454	11467
910.57	11402
910.685	11273
910.8	11691
910.915	11573
911.03	11376
911.145	11292
911.259	11334
911.374	11307
911.489	11227
911.604	11124
911.718	11037
911.833	11113
911.947	10896
912.062	10881
912.176	11014
912.291	11003
912.405	11109
912.519	11239
912.633	11212
912.748	11045
912.862	11056
912.976	10911
913.09	10763
913.204	10831
913.318	11010
913.431	11025
913.545	10999
913.659	11060
913.772	10946
913.886	10786
914	10733
914.113	10892
914.226	10908
914.34	10896
914.453	10721
914.566	10873
914.68	10767
914.793	10710
914.906	10603
915.019	10535
915.132	10474
915.245	10523
915.358	10546
915.47	10538
915.583	10538
915.696	10550
915.809	10725
915.921	10641
916.034	10497
916.146	10497
916.259	10459
916.371	10573
916.483	10500
916.595	10436
916.708	10504
916.82	10508
916.932	10561
917.044	10367
917.156	10470
917.268	10352
917.38	10421
917.491	10405
917.603	10386
917.715	10432
917.826	10573
917.938	10280
918.049	10276
918.161	10398
918.272	10542
918.384	10535
918.495	10432
918.606	10265
918.717	10192
918.828	10234
918.939	10318
919.05	10120
919.161	10227
919.272	10013
919.383	10029
919.494	10306
919.604	10470
919.715	10322
919.826	10185
919.936	10268
920.047	10322
920.157	10276
920.267	10455
920.378	10246
920.488	10227
920.598	10428
920.708	10584
920.818	10428
920.928	10398
921.038	10584
921.148	10554
921.258	10360
921.368	10249
921.477	10230
921.587	10036
921.697	10051
921.806	10086
921.916	9972
922.025	9846
922.134	9850
922.244	9743
922.353	9838
922.462	9713
922.571	9625
922.68	9504
922.789	9454
922.898	9447
923.007	9481
923.116	9557
923.224	9557
923.333	9485
923.442	9355
923.55	9378
923.659	9458
923.767	9458
923.876	9412
923.984	9443
924.092	9272
924.201	9488
924.309	9321
924.417	9420
924.525	9272
924.633	9214
924.741	10227
924.849	9142
924.956	9298
925.064	9211
925.172	9100
925.279	9081
925.387	9180
925.494	9169
925.602	9306
925.709	9188
925.816	9138
925.924	9218
926.031	9260
926.138	9222
926.245	9272
926.352	9074
926.459	9256
926.566	9260
926.673	9074
926.779	9005
926.886	9013
926.993	8861
927.099	8830
927.206	8785
927.312	8788
927.419	8998
927.525	8853
927.631	8899
927.737	8769
927.843	8773
927.95	8705
928.056	8743
928.162	8724
928.267	8750
928.373	9420
928.479	8891
928.585	8640
928.69	8769
928.796	8769
928.901	8682
929.007	8560
929.112	8697
929.218	8693
929.323	8610
929.428	8606
929.533	8788
929.638	8457
929.743	8526
929.848	8579
929.953	8575
930.058	8530
930.163	8309
930.267	8423
930.372	8484
930.477	8358
930.581	8526
930.685	8446
930.79	8282
930.894	8320
930.998	8305
931.103	8442
931.207	8077
931.311	8054
931.415	8020
931.519	7761
931.623	7841
