Data from test_V78500241_3002.txt Node
Date: Fri Mar 25 14:54:37 CST 2022
User: usil
Spectrometer: V785-0024
Trigger mode: 0
Integration Time (sec): 4.000000E-1
Scans to average: 1
Nonlinearity correction enabled: false
Boxcar width: 0
Storing dark spectrum: false
XAxis mode: Wavelengths
Number of Pixels in Spectrum: 1024
>>>>>Begin Spectral Data<<<<<
801.071	22048
801.214	22032
801.356	21747
801.499	21682
801.641	21469
801.783	21393
801.926	21549
802.068	21447
802.211	21344
802.353	21161
802.496	20948
802.638	21036
802.78	20804
802.923	20876
803.065	20815
803.208	20842
803.35	20842
803.492	21013
803.635	20861
803.777	20811
803.919	20944
804.061	21146
804.204	20864
804.346	20785
804.488	20674
804.63	20762
804.773	20686
804.915	20834
805.057	20815
805.199	20682
805.341	20750
805.483	20853
805.626	20739
805.768	20583
805.91	20785
806.052	20845
806.194	20705
806.336	20895
806.478	20667
806.62	20606
806.762	20823
806.904	20902
807.046	21104
807.188	21131
807.33	21001
807.472	21135
807.614	20963
807.756	20956
807.898	20788
808.04	20724
808.182	20781
808.324	20895
808.465	20857
808.607	21009
808.749	21119
808.891	21218
809.033	21192
809.174	21096
809.316	21055
809.458	21085
809.6	21017
809.741	21222
809.883	21043
810.025	21325
810.166	21222
810.308	21302
810.45	21039
810.591	21169
810.733	20895
810.875	20891
811.016	20655
811.158	20693
811.299	20857
811.441	21089
811.582	20883
811.724	20887
811.865	20815
812.007	20811
812.148	20883
812.29	20902
812.431	20929
812.573	21218
812.714	21233
812.855	21298
812.997	21549
813.138	21637
813.279	21500
813.421	21393
813.562	21344
813.703	21157
813.845	21108
813.986	20731
814.127	20629
814.268	20499
814.41	20442
814.551	20476
814.692	20461
814.833	20332
814.974	20339
815.115	20434
815.256	20309
815.397	20191
815.539	20237
815.68	20145
815.821	20027
815.962	20172
816.103	20119
816.244	19894
816.385	19986
816.526	19944
816.666	19677
816.807	19537
816.948	19666
817.089	19662
817.23	19666
817.371	19537
817.512	19533
817.653	19578
817.793	19518
817.934	19335
818.075	19548
818.216	19613
818.356	19525
818.497	19365
818.638	19057
818.778	19202
818.919	19247
819.06	19285
819.2	19339
819.341	19495
819.481	19460
819.622	19533
819.762	19780
819.903	19624
820.043	19521
820.184	19586
820.324	19483
820.465	19662
820.605	19563
820.746	19426
820.886	19476
821.026	19460
821.167	19384
821.307	19559
821.447	19407
821.588	19308
821.728	19183
821.868	19000
822.008	19034
822.149	18985
822.289	18935
822.429	18517
822.569	18540
822.709	18593
822.849	18414
822.99	18464
823.13	18433
823.27	18429
823.41	18167
823.55	18152
823.69	18117
823.83	18205
823.97	18129
824.11	17988
824.25	18003
824.389	17999
824.529	17977
824.669	17920
824.809	18072
824.949	18095
825.089	18095
825.228	17988
825.368	17760
825.508	17733
825.648	17794
825.787	17813
825.927	17794
826.067	17661
826.206	17748
826.346	17771
826.485	17756
826.625	17695
826.765	17779
826.904	17733
827.044	17535
827.183	17440
827.323	17307
827.462	17573
827.601	17573
827.741	17452
827.88	17406
828.02	17318
828.159	17452
828.298	17440
828.437	17528
828.577	17326
828.716	17520
828.855	17376
828.994	17075
829.134	17261
829.273	17204
829.412	17136
829.551	17155
829.69	17208
829.829	17060
829.968	17250
830.107	17102
830.246	17117
830.385	17143
830.524	17045
830.663	17014
830.802	16839
830.941	16835
831.08	16694
831.219	16843
831.357	16839
831.496	16892
831.635	16820
831.774	16736
831.913	16774
832.051	16641
832.19	16508
832.329	16683
832.467	16451
832.606	16375
832.744	16485
832.883	16447
833.022	16394
833.16	16436
833.299	16474
833.437	16634
833.576	16535
833.714	16569
833.852	16500
833.991	16573
834.129	16618
834.267	16599
834.406	16443
834.544	16599
834.682	16504
834.821	16489
834.959	16607
835.097	16512
835.235	16592
835.373	16470
835.511	16489
835.65	16325
835.788	16390
835.926	16219
836.064	16215
836.202	16230
836.34	16371
836.478	16386
836.615	16322
836.753	16386
836.891	16516
837.029	16432
837.167	16417
837.305	16440
837.443	16166
837.58	16204
837.718	16363
837.856	16356
837.993	16253
838.131	16261
838.269	16234
838.406	16116
838.544	16226
838.681	16116
838.819	16029
838.956	15812
839.094	15857
839.231	15827
839.369	15968
839.506	16207
839.643	16078
839.781	15861
839.918	15751
840.055	15911
840.193	15808
840.33	15778
840.467	15808
840.604	15762
840.742	15953
840.879	15660
841.016	15694
841.153	15724
841.29	15918
841.427	15755
841.564	15827
841.701	15827
841.838	15781
841.975	15751
842.112	15739
842.249	15633
842.385	15561
842.522	15743
842.659	15686
842.796	15595
842.933	15618
843.069	15538
843.206	15515
843.343	15561
843.479	15610
843.616	15694
843.752	15363
843.889	15405
844.025	15587
844.162	15382
844.298	15443
844.435	15469
844.571	15325
844.708	15428
844.844	15515
844.98	15580
845.117	15511
845.253	15370
845.389	15268
845.525	15367
845.661	15211
845.798	15161
845.934	15218
846.07	15161
846.206	15245
846.342	15313
846.478	15070
846.614	15032
846.75	14914
846.886	14967
847.022	15036
847.158	14948
847.294	14880
847.429	15100
847.565	14921
847.701	15154
847.837	14655
847.972	14731
848.108	14872
848.244	14781
848.379	14590
848.515	14495
848.65	14522
848.786	14636
848.921	14564
849.057	14648
849.192	14602
849.328	14594
849.463	14640
849.598	14499
849.734	14412
849.869	14434
850.004	14328
850.14	14415
850.275	14347
850.41	14278
850.545	14195
850.68	14248
850.815	14347
850.95	14267
851.085	14492
851.22	14522
851.355	14339
851.49	14336
851.625	14278
851.76	14347
851.895	14149
852.03	14256
852.165	14275
852.299	14366
852.434	14415
852.569	14339
852.703	14298
852.838	14366
852.973	14499
853.107	14434
853.242	14336
853.376	14221
853.511	14111
853.645	14225
853.78	14305
853.914	14153
854.048	14149
854.183	14084
854.317	14176
854.451	14259
854.585	14244
854.72	14134
854.854	14267
854.988	14073
855.122	14202
855.256	14149
855.39	14202
855.524	14145
855.658	14214
855.792	14210
855.926	14233
856.06	14282
856.194	14271
856.327	14202
856.461	14195
856.595	14199
856.729	14134
856.862	14324
856.996	14237
857.13	14259
857.263	14317
857.397	14351
857.53	14202
857.664	14199
857.797	14229
857.931	14301
858.064	14267
858.197	14263
858.331	14149
858.464	14081
858.597	14111
858.731	14172
858.864	14142
858.997	14164
859.13	14180
859.263	14248
859.396	14263
859.529	14130
859.662	14088
859.795	14168
859.928	14248
860.061	14393
860.194	14328
860.327	14176
860.46	14256
860.592	14301
860.725	14275
860.858	14343
860.99	14206
861.123	14088
861.256	14088
861.388	14343
861.521	14895
861.653	14046
861.786	14008
861.918	14050
862.05	14088
862.183	14123
862.315	14088
862.447	14210
862.58	14130
862.712	14043
862.844	13913
862.976	14100
863.108	14027
863.24	14366
863.372	13818
863.504	13864
863.636	13944
863.768	14043
863.9	13928
864.032	13902
864.164	13963
864.296	14039
864.428	14043
864.559	14115
864.691	14058
864.823	14054
864.954	13928
865.086	13986
865.217	13917
865.349	13925
865.48	13978
865.612	13906
865.743	13993
865.875	13879
866.006	13830
866.137	13925
866.269	13902
866.4	13898
866.531	13902
866.662	13868
866.793	13970
866.924	13932
867.055	13864
867.186	13856
867.317	13970
867.448	13879
867.579	13970
867.71	13822
867.841	13921
867.972	13986
868.103	13951
868.233	13993
868.364	13902
868.495	14005
868.625	14107
868.756	14377
868.886	14081
869.017	14195
869.147	14298
869.278	14294
869.408	14259
869.539	14180
869.669	14305
869.799	14172
869.929	14290
870.06	14294
870.19	14537
870.32	14473
870.45	14522
870.58	14484
870.71	14678
870.84	14663
870.97	14564
871.1	14507
871.23	14750
871.36	14914
871.489	14716
871.619	14811
871.749	14826
871.879	14796
872.008	14910
872.138	14762
872.267	14785
872.397	14632
872.526	14632
872.656	14587
872.785	14621
872.915	14811
873.044	14979
873.173	14853
873.303	14838
873.432	14891
873.561	14899
873.69	14887
873.819	14861
873.948	14933
874.077	14921
874.206	14834
874.335	14891
874.464	14929
874.593	15142
874.722	15211
874.851	15188
874.979	15226
875.108	15119
875.237	15070
875.365	15131
875.494	15097
875.623	15199
875.751	15135
875.88	15237
876.008	15344
876.136	15397
876.265	15618
876.393	15667
876.521	15580
876.65	15713
876.778	15663
876.906	15523
877.034	15549
877.162	15595
877.29	15599
877.418	15599
877.546	15606
877.674	15679
877.802	15568
877.93	15580
878.058	15492
878.185	15542
878.313	15496
878.441	15690
878.568	15401
878.696	15610
878.824	15694
878.951	15732
879.079	15781
879.206	15812
879.333	15835
879.461	15584
879.588	15720
879.715	15751
879.842	15918
879.97	15675
880.097	15462
880.224	15466
880.351	15344
880.478	15496
880.605	15424
880.732	15325
880.859	15747
880.986	15485
881.112	15469
881.239	15348
881.366	15199
881.493	15100
881.619	15150
881.746	15047
881.872	15127
881.999	15173
882.125	15081
882.252	15127
882.378	15119
882.505	15199
882.631	15051
882.757	14861
882.883	14998
883.01	14868
883.136	14826
883.262	14724
883.388	14667
883.514	14944
883.64	14887
883.766	14902
883.892	14750
884.018	14697
884.143	14842
884.269	15020
884.395	14716
884.52	14667
884.646	14640
884.772	14560
884.897	14552
885.023	14701
885.148	14735
885.274	14800
885.399	14667
885.524	14670
885.65	14568
885.775	14587
885.9	14564
886.025	14785
886.15	14682
886.275	14564
886.4	14602
886.525	14552
886.65	14476
886.775	14461
886.9	14788
887.025	14842
887.149	14590
887.274	14442
887.399	14415
887.523	14434
887.648	14336
887.773	14366
887.897	14514
888.021	14507
888.146	14419
888.27	14476
888.395	14507
888.519	14541
888.643	14530
888.767	14625
888.891	14442
889.015	14259
889.139	14271
889.263	14355
889.387	14358
889.511	14469
889.635	14446
889.759	14305
889.883	14218
890.006	14347
890.13	14328
890.254	14237
890.377	14221
890.501	14039
890.624	14008
890.748	14168
890.871	14039
890.995	13883
891.118	13959
891.241	14024
891.364	13974
891.488	14081
891.611	13970
891.734	14027
891.857	14069
891.98	14008
892.103	14145
892.226	13940
892.349	14043
892.471	13864
892.594	14027
892.717	14020
892.839	13951
892.962	13944
893.085	14058
893.207	13986
893.33	13982
893.452	13894
893.575	14001
893.697	13974
893.819	14191
893.941	14157
894.064	14123
894.186	14081
894.308	14024
894.43	14100
894.552	14256
894.674	14134
894.796	13970
894.918	14069
895.04	14069
895.161	14248
895.283	14100
895.405	14145
895.526	14126
895.648	14096
895.769	14084
895.891	14084
896.012	14142
896.134	14180
896.255	14153
896.376	14183
896.498	14092
896.619	14256
896.74	14210
896.861	14187
896.982	14507
897.103	14689
897.224	14511
897.345	14423
897.466	14358
897.587	14404
897.708	14492
897.828	14495
897.949	14480
898.07	14484
898.19	14412
898.311	14590
898.431	14488
898.552	14560
898.672	14541
898.792	14575
898.913	14583
899.033	14522
899.153	14389
899.273	14221
899.393	14408
899.513	14396
899.633	14358
899.753	14461
899.873	14438
899.993	14381
900.113	14423
900.232	14488
900.352	14309
900.472	14286
900.591	14225
900.711	14339
900.83	14229
900.95	14377
901.069	14423
901.189	14199
901.308	14012
901.427	13925
901.546	13925
901.665	13978
901.784	14001
901.904	13833
902.023	13708
902.141	13582
902.26	13468
902.379	13487
902.498	13464
902.617	13453
902.735	13529
902.854	13521
902.973	13430
903.091	13236
903.21	13206
903.328	13339
903.446	13297
903.565	13034
903.683	13023
903.801	13008
903.919	13133
904.038	13023
904.156	12905
904.274	12970
904.392	12920
904.51	12901
904.627	12916
904.745	12958
904.863	12928
904.981	12696
905.098	12612
905.216	12597
905.334	12601
905.451	12536
905.569	12547
905.686	12650
905.803	12551
905.921	12395
906.038	12479
906.155	12471
906.272	12251
906.389	12330
906.506	12239
906.623	12178
906.74	12163
906.857	12136
906.974	12019
907.091	12205
907.208	12334
907.324	12254
907.441	12110
907.557	11969
907.674	11889
907.79	11874
907.907	11870
908.023	11992
908.139	11980
908.256	11863
908.372	11893
908.488	11824
908.604	11767
908.72	11672
908.836	11695
908.952	11581
909.068	11786
909.184	11855
909.3	11634
909.415	11786
909.531	11748
909.647	11478
909.762	11516
909.878	11463
909.993	11539
910.108	11436
910.224	11448
910.339	11417
910.454	11364
910.57	11318
910.685	11220
910.8	11539
910.915	11459
911.03	11356
911.145	11220
911.259	11124
911.374	11128
911.489	11086
911.604	11102
911.718	10881
911.833	10938
911.947	10843
912.062	10736
912.176	10984
912.291	10923
912.405	10885
912.519	11083
912.633	11136
912.748	10908
912.862	10911
912.976	10862
913.09	10698
913.204	10843
913.318	10866
913.431	10858
913.545	10900
913.659	10930
913.772	10854
913.886	10649
914	10740
914.113	10782
914.226	10828
914.34	10805
914.453	10611
914.566	10778
914.68	10596
914.793	10660
914.906	10474
915.019	10436
915.132	10398
915.245	10390
915.358	10447
915.47	10417
915.583	10424
915.696	10459
915.809	10569
915.921	10519
916.034	10409
916.146	10344
916.259	10348
916.371	10440
916.483	10417
916.595	10325
916.708	10272
916.82	10386
916.932	10352
917.044	10386
917.156	10299
917.268	10223
917.38	10291
917.491	10272
917.603	10318
917.715	10390
917.826	10360
917.938	10227
918.049	10082
918.161	10268
918.272	10363
918.384	10356
918.495	10318
918.606	10143
918.717	10093
918.828	10188
918.939	10124
919.05	10128
919.161	10116
919.272	9819
919.383	9972
919.494	10166
919.604	10375
919.715	10173
919.826	10036
919.936	10158
920.047	10272
920.157	10158
920.267	10363
920.378	10131
920.488	10128
920.598	10329
920.708	10542
920.818	10344
920.928	10314
921.038	10573
921.148	10493
921.258	10204
921.368	10086
921.477	10010
921.587	10032
921.697	9854
921.806	10093
921.916	9945
922.025	9705
922.134	9690
922.244	9720
922.353	9694
922.462	9622
922.571	9519
922.68	9420
922.789	9389
922.898	9408
923.007	9325
923.116	9439
923.224	9405
923.333	9424
923.442	9374
923.55	9294
923.659	9340
923.767	9233
923.876	9256
923.984	9325
924.092	9233
924.201	9359
924.309	9154
924.417	9260
924.525	9230
924.633	9184
924.741	10196
924.849	9077
924.956	9188
925.064	9028
925.172	8941
925.279	8998
925.387	9138
925.494	9081
925.602	9302
925.709	9150
925.816	9001
925.924	9108
926.031	9203
926.138	9112
926.245	9127
926.352	8967
926.459	9112
926.566	9203
926.673	9017
926.779	8883
926.886	8899
926.993	8861
927.099	8830
927.206	8693
927.312	8735
927.419	8845
927.525	8804
927.631	8910
927.737	8773
927.843	8644
927.95	8610
928.056	8686
928.162	8686
928.267	8655
928.373	9302
928.479	8823
928.585	8556
928.69	8667
928.796	8678
928.901	8568
929.007	8396
929.112	8644
929.218	8533
929.323	8469
929.428	8530
929.533	8712
929.638	8404
929.743	8412
929.848	8537
929.953	8480
930.058	8446
930.163	8233
930.267	8313
930.372	8404
930.477	8218
930.581	8518
930.685	8332
930.79	8206
930.894	8263
930.998	8172
931.103	8393
931.207	7940
931.311	7967
931.415	7955
931.519	7700
931.623	7742
