Data from test_V78500241_568.txt Node
Date: Fri Mar 25 14:37:40 CST 2022
User: usil
Spectrometer: V785-0024
Trigger mode: 0
Integration Time (sec): 4.000000E-1
Scans to average: 1
Nonlinearity correction enabled: false
Boxcar width: 0
Storing dark spectrum: false
XAxis mode: Wavelengths
Number of Pixels in Spectrum: 1024
>>>>>Begin Spectral Data<<<<<
801.071	27732
801.214	27580
801.356	27287
801.499	27256
801.641	27032
801.783	27116
801.926	27020
802.068	26971
802.211	26853
802.353	26743
802.496	26629
802.638	26549
802.78	26549
802.923	26564
803.065	26511
803.208	26457
803.35	26552
803.492	26613
803.635	26712
803.777	26537
803.919	26727
804.061	26906
804.204	26743
804.346	26667
804.488	26545
804.63	26590
804.773	26552
804.915	26781
805.057	26891
805.199	26807
805.341	26807
805.483	27028
805.626	26967
805.768	26842
805.91	26998
806.052	27039
806.194	26990
806.336	27355
806.478	27367
806.62	27374
806.762	27614
806.904	27956
807.046	28310
807.188	28443
807.33	28603
807.472	29033
807.614	29231
807.756	29802
807.898	30216
808.04	31114
808.182	32187
808.324	33500
808.465	35025
808.607	36871
808.749	38370
808.891	39104
809.033	39283
809.174	38297
809.316	36715
809.458	35048
809.6	33222
809.741	31989
809.883	30779
810.025	30247
810.166	29467
810.308	29109
810.45	28656
810.591	28645
810.733	28219
810.875	27930
811.016	27846
811.158	27622
811.299	27606
811.441	27667
811.582	27568
811.724	27485
811.865	27408
812.007	27207
812.148	27211
812.29	27203
812.431	27389
812.573	27500
812.714	27530
812.855	27485
812.997	27557
813.138	27751
813.279	27538
813.421	27454
813.562	27405
813.703	27294
813.845	27161
813.986	26758
814.127	26530
814.268	26412
814.41	26419
814.551	26320
814.692	26465
814.833	26351
814.974	26393
815.115	26298
815.256	26077
815.397	26183
815.539	26130
815.68	25982
815.821	26065
815.962	26065
816.103	25986
816.244	25814
816.385	25670
816.526	25647
816.666	25445
816.807	25434
816.948	25422
817.089	25533
817.23	25324
817.371	25285
817.512	25316
817.653	25301
817.793	25350
817.934	25247
818.075	25320
818.216	25285
818.356	25247
818.497	25088
818.638	24966
818.778	25012
818.919	25046
819.06	24966
819.2	25057
819.341	25183
819.481	25236
819.622	25266
819.762	25647
819.903	25354
820.043	25320
820.184	25255
820.324	25274
820.465	25293
820.605	25327
820.746	25213
820.886	25042
821.026	25251
821.167	25084
821.307	25236
821.447	25053
821.588	24977
821.728	24886
821.868	24502
822.008	24608
822.149	24555
822.289	24437
822.429	24216
822.569	23999
822.709	24110
822.849	24060
822.99	23973
823.13	23805
823.27	23817
823.41	23741
823.55	23779
823.69	23767
823.83	23737
823.97	23634
824.11	23360
824.25	23440
824.389	23562
824.529	23615
824.669	23478
824.809	23672
824.949	23668
825.089	23596
825.228	23589
825.368	23204
825.508	23254
825.648	23391
825.787	23311
825.927	23220
826.067	23280
826.206	23254
826.346	23208
826.485	23265
826.625	23223
826.765	23360
826.904	23261
827.044	23124
827.183	23010
827.323	22889
827.462	22904
827.601	22995
827.741	22908
827.88	22911
828.02	22702
828.159	22877
828.298	22999
828.437	23014
828.577	22820
828.716	23018
828.855	22759
828.994	22565
829.134	22706
829.273	22603
829.412	22630
829.551	22508
829.69	22603
829.829	22603
829.968	22626
830.107	22687
830.246	22691
830.385	22577
830.524	22550
830.663	22440
830.802	22363
830.941	22272
831.08	22154
831.219	22268
831.357	22325
831.496	22417
831.635	22204
831.774	22226
831.913	22048
832.051	21892
832.19	22032
832.329	22048
832.467	22040
832.606	21937
832.744	21876
832.883	21987
833.022	22040
833.16	22131
833.299	22185
833.437	22097
833.576	22299
833.714	22276
833.852	22402
833.991	22531
834.129	22470
834.267	22573
834.406	22497
834.544	22508
834.682	22344
834.821	22211
834.959	22329
835.097	22234
835.235	22158
835.373	22074
835.511	22078
835.65	21842
835.788	21869
835.926	21762
836.064	21561
836.202	21557
836.34	21842
836.478	21778
836.615	21686
836.753	21736
836.891	21732
837.029	21785
837.167	21583
837.305	21603
837.443	21473
837.58	21462
837.718	21576
837.856	21595
837.993	21435
838.131	21580
838.269	21443
838.406	21420
838.544	21256
838.681	21184
838.819	21245
838.956	20944
839.094	21047
839.231	21039
839.369	21051
839.506	21302
839.643	21180
839.781	20990
839.918	20918
840.055	20975
840.193	20895
840.33	20830
840.467	20925
840.604	20883
840.742	21150
840.879	20758
841.016	20864
841.153	20765
841.29	21047
841.427	20975
841.564	20853
841.701	20895
841.838	20804
841.975	20765
842.112	20861
842.249	20663
842.385	20541
842.522	20815
842.659	20811
842.796	20632
842.933	20655
843.069	20621
843.206	20568
843.343	20739
843.479	20693
843.616	20678
843.752	20602
843.889	20571
844.025	20708
844.162	20663
844.298	20849
844.435	20705
844.571	20956
844.708	20982
844.844	21222
844.98	21447
845.117	21808
845.253	22162
845.389	22972
845.525	24779
845.661	27694
845.798	31183
845.934	34006
846.07	35060
846.206	34641
846.342	32396
846.478	28649
846.614	25533
846.75	23547
846.886	22215
847.022	21492
847.158	21013
847.294	20640
847.429	20492
847.565	20336
847.701	20427
847.837	19883
847.972	19814
848.108	19849
848.244	19890
848.379	19620
848.515	19544
848.65	19567
848.786	19582
848.921	19628
849.057	19708
849.192	19632
849.328	19590
849.463	19495
849.598	19510
849.734	19384
849.869	19285
850.004	19293
850.14	19198
850.275	19240
850.41	19141
850.545	19217
850.68	19126
850.815	19175
850.95	19168
851.085	19331
851.22	19312
851.355	19221
851.49	19202
851.625	19137
851.76	19206
851.895	19080
852.03	19046
852.165	19213
852.299	19339
852.434	19232
852.569	19225
852.703	19247
852.838	19274
852.973	19384
853.107	19293
853.242	19285
853.376	19069
853.511	19156
853.645	19133
853.78	19396
853.914	19335
854.048	19095
854.183	19209
854.317	19209
854.451	19354
854.585	19198
854.72	19088
854.854	19304
854.988	19122
855.122	19072
855.256	18973
855.39	19110
855.524	19240
855.658	19057
855.792	19095
855.926	19110
856.06	19088
856.194	19148
856.327	18901
856.461	19046
856.595	18958
856.729	18951
856.862	19183
856.996	19031
857.13	19027
857.263	19171
857.397	19141
857.53	18863
857.664	19004
857.797	19065
857.931	19015
858.064	18973
858.197	19095
858.331	18882
858.464	18825
858.597	18825
858.731	18821
858.864	18859
858.997	18817
859.13	18913
859.263	18920
859.396	19046
859.529	18871
859.662	18829
859.795	18966
859.928	18871
860.061	18962
860.194	19034
860.327	18863
860.46	18875
860.592	18863
860.725	18954
860.858	19027
860.99	18920
861.123	18810
861.256	18863
861.388	18878
861.521	19537
861.653	18837
861.786	18753
861.918	18783
862.05	18825
862.183	18844
862.315	18966
862.447	18939
862.58	18795
862.712	18734
862.844	18578
862.976	18749
863.108	18639
863.24	18985
863.372	18559
863.504	18593
863.636	18597
863.768	18509
863.9	18585
864.032	18452
864.164	18479
864.296	18639
864.428	18658
864.559	18753
864.691	18563
864.823	18536
864.954	18563
865.086	18585
865.217	18528
865.349	18365
865.48	18471
865.612	18559
865.743	18688
865.875	18506
866.006	18308
866.137	18544
866.269	18388
866.4	18544
866.531	18479
866.662	18460
866.793	18513
866.924	18361
867.055	18528
867.186	18601
867.317	18407
867.448	18403
867.579	18327
867.71	18380
867.841	18365
867.972	18437
868.103	18395
868.233	18437
868.364	18452
868.495	18604
868.625	18654
868.756	18646
868.886	18635
869.017	18654
869.147	18741
869.278	18863
869.408	18707
869.539	18757
869.669	18779
869.799	18677
869.929	18741
870.06	18802
870.19	18970
870.32	18905
870.45	19080
870.58	19217
870.71	19202
870.84	19373
870.97	19156
871.1	19050
871.23	19255
871.36	19312
871.489	19164
871.619	19316
871.749	19225
871.879	19419
872.008	19464
872.138	19373
872.267	19270
872.397	19308
872.526	19171
872.656	19179
872.785	19228
872.915	19426
873.044	19624
873.173	19460
873.303	19487
873.432	19578
873.561	19441
873.69	19594
873.819	19476
873.948	19586
874.077	19719
874.206	19468
874.335	19533
874.464	19753
874.593	19814
874.722	19852
874.851	19883
874.979	19906
875.108	19970
875.237	19921
875.365	19871
875.494	19890
875.623	20065
875.751	19936
875.88	20103
876.008	20145
876.136	20240
876.265	20579
876.393	20503
876.521	20682
876.65	20693
876.778	20640
876.906	20537
877.034	20651
877.162	20560
877.29	20667
877.418	20712
877.546	20868
877.674	20739
877.802	20914
877.93	21036
878.058	21062
878.185	21062
878.313	21313
878.441	21450
878.568	21656
878.696	21915
878.824	22284
878.951	22995
879.079	23942
879.206	24951
879.333	26100
879.461	26849
879.588	27507
879.715	27595
879.842	27279
879.97	26084
880.097	24806
880.224	23878
880.351	23509
880.478	22839
880.605	22611
880.732	22386
880.859	22436
880.986	22055
881.112	22101
881.239	22063
881.366	21884
881.493	21781
881.619	21648
881.746	21713
881.872	21698
881.999	21736
882.125	21743
882.252	21785
882.378	21827
882.505	21956
882.631	21785
882.757	21622
882.883	21774
883.01	21591
883.136	21466
883.262	21359
883.388	21382
883.514	21568
883.64	21580
883.766	21580
883.892	21199
884.018	21306
884.143	21511
884.269	21534
884.395	21321
884.52	21363
884.646	21230
884.772	21233
884.897	21184
885.023	21203
885.148	21279
885.274	21310
885.399	21233
885.524	21138
885.65	21047
885.775	20921
885.9	20933
886.025	20929
886.15	20807
886.275	20644
886.4	20522
886.525	20545
886.65	20442
886.775	20336
886.9	20442
887.025	20507
887.149	20301
887.274	20130
887.399	19967
887.523	19890
887.648	19849
887.773	19780
887.897	19814
888.021	19738
888.146	19731
888.27	19841
888.395	19811
888.519	19689
888.643	19643
888.767	19563
888.891	19681
889.015	19365
889.139	19457
889.263	19419
889.387	19354
889.511	19499
889.635	19491
889.759	19255
889.883	19392
890.006	19221
890.13	19240
890.254	19209
890.377	19038
890.501	18924
890.624	18844
890.748	19137
890.871	18859
890.995	18798
891.118	18715
891.241	18700
891.364	18726
891.488	18787
891.611	18684
891.734	18616
891.857	18722
891.98	18764
892.103	18760
892.226	18639
892.349	18646
892.471	18418
892.594	18502
892.717	18585
892.839	18498
892.962	18479
893.085	18563
893.207	18380
893.33	18361
893.452	18361
893.575	18479
893.697	18403
893.819	18525
893.941	18494
894.064	18448
894.186	18308
894.308	18285
894.43	18330
894.552	18441
894.674	18311
894.796	18114
894.918	18311
895.04	18194
895.161	18327
895.283	18353
895.405	18125
895.526	18216
895.648	18213
895.769	18346
895.891	18323
896.012	18235
896.134	18285
896.255	18277
896.376	18258
896.498	18270
896.619	18273
896.74	18235
896.861	18296
896.982	18601
897.103	18661
897.224	18437
897.345	18483
897.466	18357
897.587	18445
897.708	18498
897.828	18437
897.949	18414
898.07	18201
898.19	18254
898.311	18566
898.431	18372
898.552	18448
898.672	18475
898.792	18494
898.913	18471
899.033	18342
899.153	18228
899.273	18087
899.393	18155
899.513	18159
899.633	18235
899.753	18308
899.873	18178
899.993	18232
900.113	18106
900.232	18254
900.352	18064
900.472	18034
900.591	18110
900.711	18068
900.83	17939
900.95	18186
901.069	18121
901.189	17954
901.308	17676
901.427	17672
901.546	17623
901.665	17573
901.784	17748
901.904	17497
902.023	17368
902.141	17193
902.26	17109
902.379	17166
902.498	17014
902.617	17025
902.735	17086
902.854	17075
902.973	16938
903.091	16736
903.21	16771
903.328	16858
903.446	16611
903.565	16618
903.683	16599
903.801	16451
903.919	16451
904.038	16436
904.156	16329
904.274	16284
904.392	16272
904.51	16287
904.627	16253
904.745	16303
904.863	16306
904.981	16051
905.098	15899
905.216	15975
905.334	16002
905.451	15895
905.569	15888
905.686	15945
905.803	15975
905.921	15736
906.038	15823
906.155	15797
906.272	15663
906.389	15701
906.506	15439
906.623	15526
906.74	15485
906.857	15329
906.974	15374
907.091	15530
907.208	15561
907.324	15477
907.441	15401
907.557	15306
907.674	15188
907.79	15062
907.907	15161
908.023	15199
908.139	15226
908.256	15032
908.372	14956
908.488	15024
908.604	14842
908.72	14883
908.836	14963
908.952	14815
909.068	14853
909.184	14914
909.3	14815
909.415	14899
909.531	14834
909.647	14571
909.762	14617
909.878	14598
909.993	14640
910.108	14503
910.224	14545
910.339	14533
910.454	14587
910.57	14374
910.685	14286
910.8	14777
910.915	14549
911.03	14454
911.145	14195
911.259	14214
911.374	14317
911.489	14172
911.604	14031
911.718	14001
911.833	14001
911.947	13909
912.062	13712
912.176	13944
912.291	13951
912.405	13974
912.519	14183
912.633	14214
912.748	14069
912.862	13921
912.976	13837
913.09	13655
913.204	13689
913.318	13822
913.431	13913
913.545	13894
913.659	13936
913.772	13666
913.886	13658
914	13616
914.113	13677
914.226	13811
914.34	13742
914.453	13677
914.566	13689
914.68	13533
914.793	13540
914.906	13457
915.019	13285
915.132	13251
915.245	13289
915.358	13350
915.47	13308
915.583	13350
915.696	13407
915.809	13453
915.921	13453
916.034	13247
916.146	13236
916.259	13202
916.371	13339
916.483	13343
916.595	13217
916.708	13282
916.82	13217
916.932	13236
917.044	13282
917.156	13206
917.268	13053
917.38	13076
917.491	13046
917.603	13050
917.715	13099
917.826	13145
917.938	13061
918.049	12985
918.161	12951
918.272	13133
918.384	13091
918.495	13027
918.606	12867
918.717	12764
918.828	12833
918.939	12806
919.05	12722
919.161	12711
919.272	12654
919.383	12726
919.494	12810
919.604	13080
919.715	12829
919.826	12673
919.936	12730
920.047	12856
920.157	12840
920.267	12951
920.378	12783
920.488	12795
920.598	12947
920.708	13065
920.818	12939
920.928	12859
921.038	12996
921.148	13023
921.258	12722
921.368	12684
921.477	12654
921.587	12483
921.697	12414
921.806	12494
921.916	12391
922.025	12224
922.134	12239
922.244	12197
922.353	12144
922.462	12083
922.571	12003
922.68	11847
922.789	11802
922.898	11866
923.007	11783
923.116	11866
923.224	11767
923.333	11882
923.442	11726
923.55	11741
923.659	11726
923.767	11729
923.876	11615
923.984	11790
924.092	11589
924.201	11695
924.309	11630
924.417	11703
924.525	11585
924.633	11619
924.741	12277
924.849	11410
924.956	11520
925.064	11383
925.172	11322
925.279	11360
925.387	11372
925.494	11455
925.602	11471
925.709	11417
925.816	11292
925.924	11326
926.031	11505
926.138	11311
926.245	11341
926.352	11216
926.459	11368
926.566	11395
926.673	11288
926.779	11235
926.886	11189
926.993	11071
927.099	10991
927.206	10976
927.312	10965
927.419	11075
927.525	10934
927.631	11022
927.737	10862
927.843	10869
927.95	10782
928.056	10721
928.162	10850
928.267	10938
928.373	11356
928.479	10934
928.585	10702
928.69	10923
928.796	10854
928.901	10694
929.007	10626
929.112	10733
929.218	10645
929.323	10596
929.428	10618
929.533	10755
929.638	10531
929.743	10489
929.848	10615
929.953	10580
930.058	10481
930.163	10306
930.267	10367
930.372	10470
930.477	10356
930.581	10512
930.685	10459
930.79	10276
930.894	10310
930.998	10200
931.103	10398
931.207	10036
931.311	9880
931.415	9865
931.519	9656
931.623	9633
