Data from test_V78500241_1827.txt Node
Date: Fri Mar 25 14:46:26 CST 2022
User: usil
Spectrometer: V785-0024
Trigger mode: 0
Integration Time (sec): 4.000000E-1
Scans to average: 1
Nonlinearity correction enabled: false
Boxcar width: 0
Storing dark spectrum: false
XAxis mode: Wavelengths
Number of Pixels in Spectrum: 1024
>>>>>Begin Spectral Data<<<<<
801.071	22185
801.214	21987
801.356	21831
801.499	21743
801.641	21545
801.783	21500
801.926	21580
802.068	21393
802.211	21329
802.353	21416
802.496	21112
802.638	20975
802.78	20975
802.923	20830
803.065	20792
803.208	20750
803.35	20864
803.492	20914
803.635	20895
803.777	20765
803.919	20933
804.061	21310
804.204	20944
804.346	20842
804.488	20720
804.63	20891
804.773	20609
804.915	20781
805.057	20895
805.199	20743
805.341	20902
805.483	20986
805.626	20823
805.768	20720
805.91	20788
806.052	20781
806.194	20632
806.336	20842
806.478	20720
806.62	20651
806.762	20800
806.904	21077
807.046	21184
807.188	21077
807.33	21104
807.472	21146
807.614	20921
807.756	21074
807.898	20769
808.04	20876
808.182	20861
808.324	20899
808.465	20864
808.607	20982
808.749	21039
808.891	21237
809.033	21302
809.174	21222
809.316	21188
809.458	21249
809.6	21009
809.741	21336
809.883	21222
810.025	21344
810.166	21351
810.308	21325
810.45	21233
810.591	21287
810.733	20963
810.875	21074
811.016	20883
811.158	20762
811.299	20899
811.441	21127
811.582	20960
811.724	20876
811.865	20925
812.007	20785
812.148	20876
812.29	20967
812.431	21108
812.573	21237
812.714	21336
812.855	21477
812.997	21477
813.138	21587
813.279	21534
813.421	21386
813.562	21370
813.703	21058
813.845	21154
813.986	20804
814.127	20663
814.268	20621
814.41	20537
814.551	20465
814.692	20530
814.833	20442
814.974	20415
815.115	20488
815.256	20347
815.397	20336
815.539	20275
815.68	20157
815.821	20191
815.962	20214
816.103	20111
816.244	19970
816.385	19879
816.526	19955
816.666	19727
816.807	19597
816.948	19715
817.089	19696
817.23	19639
817.371	19578
817.512	19601
817.653	19582
817.793	19594
817.934	19514
818.075	19628
818.216	19605
818.356	19647
818.497	19419
818.638	19289
818.778	19308
818.919	19190
819.06	19331
819.2	19358
819.341	19575
819.481	19411
819.622	19529
819.762	19704
819.903	19704
820.043	19616
820.184	19616
820.324	19476
820.465	19734
820.605	19670
820.746	19464
820.886	19495
821.026	19594
821.167	19506
821.307	19674
821.447	19597
821.588	19468
821.728	19297
821.868	19206
822.008	19023
822.149	19034
822.289	19008
822.429	18798
822.569	18654
822.709	18734
822.849	18544
822.99	18536
823.13	18410
823.27	18308
823.41	18327
823.55	18239
823.69	18182
823.83	18216
823.97	18327
824.11	18129
824.25	18034
824.389	18011
824.529	18102
824.669	18011
824.809	18205
824.949	18152
825.089	18106
825.228	18106
825.368	17882
825.508	17824
825.648	17954
825.787	17840
825.927	17805
826.067	17752
826.206	17809
826.346	17798
826.485	17908
826.625	17786
826.765	17885
826.904	17855
827.044	17554
827.183	17516
827.323	17471
827.462	17543
827.601	17463
827.741	17463
827.88	17596
828.02	17463
828.159	17524
828.298	17585
828.437	17570
828.577	17417
828.716	17558
828.855	17482
828.994	17273
829.134	17288
829.273	17277
829.412	17227
829.551	17246
829.69	17277
829.829	17239
829.968	17349
830.107	17322
830.246	17140
830.385	17288
830.524	17258
830.663	17109
830.802	16999
830.941	16938
831.08	16904
831.219	17014
831.357	17052
831.496	17094
831.635	16946
831.774	16831
831.913	16805
832.051	16820
832.19	16694
832.329	16656
832.467	16683
832.606	16531
832.744	16694
832.883	16546
833.022	16554
833.16	16603
833.299	16641
833.437	16694
833.576	16656
833.714	16660
833.852	16656
833.991	16748
834.129	16729
834.267	16656
834.406	16664
834.544	16748
834.682	16664
834.821	16736
834.959	16824
835.097	16599
835.235	16729
835.373	16706
835.511	16736
835.65	16580
835.788	16626
835.926	16367
836.064	16379
836.202	16371
836.34	16596
836.478	16763
836.615	16550
836.753	16611
836.891	16660
837.029	16603
837.167	16569
837.305	16493
837.443	16424
837.58	16421
837.718	16478
837.856	16546
837.993	16284
838.131	16382
838.269	16390
838.406	16295
838.544	16314
838.681	16150
838.819	16105
838.956	15934
839.094	15941
839.231	16048
839.369	16143
839.506	16253
839.643	16143
839.781	15949
839.918	15994
840.055	16044
840.193	15949
840.33	15941
840.467	15987
840.604	16071
840.742	16246
840.879	15827
841.016	15869
841.153	15911
841.29	16188
841.427	16032
841.564	16036
841.701	15964
841.838	15991
841.975	15876
842.112	15869
842.249	15827
842.385	15797
842.522	15918
842.659	15800
842.796	15717
842.933	15804
843.069	15644
843.206	15603
843.343	15819
843.479	15679
843.616	15812
843.752	15561
843.889	15477
844.025	15755
844.162	15572
844.298	15652
844.435	15568
844.571	15538
844.708	15705
844.844	15743
844.98	15751
845.117	15629
845.253	15576
845.389	15523
845.525	15496
845.661	15359
845.798	15279
845.934	15332
846.07	15351
846.206	15450
846.342	15504
846.478	15310
846.614	15154
846.75	15074
846.886	15142
847.022	15192
847.158	15135
847.294	15055
847.429	15188
847.565	15066
847.701	15355
847.837	14929
847.972	14834
848.108	14967
848.244	14887
848.379	14842
848.515	14746
848.65	14804
848.786	14651
848.921	14716
849.057	14906
849.192	14906
849.328	14788
849.463	14743
849.598	14781
849.734	14667
849.869	14606
850.004	14541
850.14	14594
850.275	14579
850.41	14469
850.545	14469
850.68	14473
850.815	14571
850.95	14514
851.085	14590
851.22	14632
851.355	14552
851.49	14488
851.625	14560
851.76	14473
851.895	14450
852.03	14385
852.165	14317
852.299	14461
852.434	14579
852.569	14575
852.703	14575
852.838	14564
852.973	14629
853.107	14648
853.242	14488
853.376	14370
853.511	14225
853.645	14267
853.78	14522
853.914	14351
854.048	14454
854.183	14362
854.317	14324
854.451	14457
854.585	14305
854.72	14336
854.854	14499
854.988	14218
855.122	14320
855.256	14183
855.39	14408
855.524	14408
855.658	14431
855.792	14290
855.926	14446
856.06	14408
856.194	14533
856.327	14434
856.461	14324
856.595	14320
856.729	14336
856.862	14328
856.996	14408
857.13	14404
857.263	14503
857.397	14476
857.53	14427
857.664	14404
857.797	14400
857.931	14465
858.064	14396
858.197	14358
858.331	14396
858.464	14347
858.597	14294
858.731	14324
858.864	14339
858.997	14381
859.13	14381
859.263	14385
859.396	14446
859.529	14324
859.662	14328
859.795	14385
859.928	14396
860.061	14514
860.194	14556
860.327	14419
860.46	14408
860.592	14465
860.725	14465
860.858	14552
860.99	14370
861.123	14351
861.256	14294
861.388	14336
861.521	15070
861.653	14294
861.786	14176
861.918	14191
862.05	14286
862.183	14320
862.315	14362
862.447	14484
862.58	14332
862.712	14214
862.844	14081
862.976	14202
863.108	14161
863.24	14533
863.372	14027
863.504	14138
863.636	14069
863.768	14195
863.9	14119
864.032	14107
864.164	14027
864.296	14172
864.428	14362
864.559	14233
864.691	14176
864.823	14126
864.954	14282
865.086	14221
865.217	14202
865.349	13997
865.48	14065
865.612	14161
865.743	14286
865.875	14183
866.006	14161
866.137	14199
866.269	14168
866.4	14157
866.531	14046
866.662	14126
866.793	14096
866.924	14115
867.055	14157
867.186	14069
867.317	14111
867.448	13982
867.579	14001
867.71	13970
867.841	14084
867.972	14218
868.103	14183
868.233	14130
868.364	14107
868.495	14282
868.625	14332
868.756	14473
868.886	14271
869.017	14427
869.147	14514
869.278	14461
869.408	14423
869.539	14385
869.669	14530
869.799	14415
869.929	14454
870.06	14488
870.19	14670
870.32	14629
870.45	14765
870.58	14804
870.71	14887
870.84	14880
870.97	14739
871.1	14807
871.23	15039
871.36	15001
871.489	14788
871.619	14971
871.749	15017
871.879	14891
872.008	15097
872.138	14963
872.267	15039
872.397	14819
872.526	14716
872.656	14765
872.785	14800
872.915	15055
873.044	15154
873.173	14933
873.303	15089
873.432	14998
873.561	15032
873.69	15036
873.819	15047
873.948	15089
874.077	15104
874.206	15043
874.335	15062
874.464	15241
874.593	15294
874.722	15211
874.851	15367
874.979	15428
875.108	15294
875.237	15291
875.365	15184
875.494	15431
875.623	15329
875.751	15230
875.88	15382
876.008	15447
876.136	15591
876.265	15812
876.393	15949
876.521	15861
876.65	15816
876.778	15762
876.906	15797
877.034	15667
877.162	15698
877.29	15736
877.418	15774
877.546	15709
877.674	15808
877.802	15850
877.93	15679
878.058	15663
878.185	15686
878.313	15732
878.441	15709
878.568	15701
878.696	15694
878.824	15774
878.951	15789
879.079	16006
879.206	16040
879.333	15949
879.461	15880
879.588	15857
879.715	15991
879.842	16029
879.97	15831
880.097	15614
880.224	15576
880.351	15644
880.478	15526
880.605	15564
880.732	15507
880.859	15778
880.986	15564
881.112	15641
881.239	15614
881.366	15249
881.493	15340
881.619	15199
881.746	15310
881.872	15279
881.999	15203
882.125	15260
882.252	15313
882.378	15249
882.505	15447
882.631	15268
882.757	15097
882.883	15150
883.01	15043
883.136	15005
883.262	14948
883.388	14883
883.514	15104
883.64	15195
883.766	15070
883.892	14864
884.018	14899
884.143	14979
884.269	15108
884.395	14815
884.52	14731
884.646	14876
884.772	14781
884.897	14663
885.023	14781
885.148	14807
885.274	14918
885.399	14933
885.524	14743
885.65	14883
885.775	14887
885.9	14735
886.025	14933
886.15	14781
886.275	14731
886.4	14564
886.525	14792
886.65	14670
886.775	14697
886.9	14891
887.025	15036
887.149	14807
887.274	14655
887.399	14545
887.523	14651
887.648	14511
887.773	14514
887.897	14640
888.021	14644
888.146	14495
888.27	14678
888.395	14769
888.519	14602
888.643	14640
888.767	14663
888.891	14431
889.015	14431
889.139	14537
889.263	14404
889.387	14598
889.511	14697
889.635	14590
889.759	14412
889.883	14465
890.006	14537
890.13	14537
890.254	14263
890.377	14518
890.501	14271
890.624	14206
890.748	14389
890.871	14199
890.995	14126
891.118	14096
891.241	14115
891.364	14176
891.488	14259
891.611	14084
891.734	14103
891.857	14126
891.98	14096
892.103	14145
892.226	14305
892.349	14138
892.471	14077
892.594	14115
892.717	14145
892.839	14183
892.962	14145
893.085	14233
893.207	14134
893.33	13993
893.452	14035
893.575	14168
893.697	14123
893.819	14237
893.941	14408
894.064	14256
894.186	14142
894.308	14168
894.43	14328
894.552	14294
894.674	14256
894.796	14271
894.918	14298
895.04	14195
895.161	14332
895.283	14309
895.405	14145
895.526	14263
895.648	14298
895.769	14282
895.891	14343
896.012	14404
896.134	14305
896.255	14305
896.376	14252
896.498	14370
896.619	14355
896.74	14427
896.861	14419
896.982	14659
897.103	14823
897.224	14716
897.345	14556
897.466	14556
897.587	14625
897.708	14663
897.828	14682
897.949	14571
898.07	14404
898.19	14571
898.311	14697
898.431	14598
898.552	14629
898.672	14754
898.792	14674
898.913	14727
899.033	14659
899.153	14541
899.273	14454
899.393	14469
899.513	14552
899.633	14621
899.753	14537
899.873	14476
899.993	14526
900.113	14438
900.232	14583
900.352	14476
900.472	14415
900.591	14351
900.711	14404
900.83	14442
900.95	14518
901.069	14587
901.189	14336
901.308	14195
901.427	14096
901.546	14065
901.665	14092
901.784	14107
901.904	13963
902.023	13868
902.141	13632
902.26	13537
902.379	13719
902.498	13681
902.617	13563
902.735	13639
902.854	13601
902.973	13495
903.091	13388
903.21	13236
903.328	13369
903.446	13331
903.565	13175
903.683	13259
903.801	13114
903.919	13168
904.038	13137
904.156	13034
904.274	13133
904.392	13027
904.51	13080
904.627	12996
904.745	13015
904.863	12985
904.981	12757
905.098	12719
905.216	12722
905.334	12684
905.451	12711
905.569	12700
905.686	12734
905.803	12688
905.921	12452
906.038	12669
906.155	12582
906.272	12479
906.389	12498
906.506	12334
906.623	12311
906.74	12338
906.857	12136
906.974	12209
907.091	12353
907.208	12513
907.324	12308
907.441	12239
907.557	12087
907.674	12091
907.79	11961
907.907	12015
908.023	12098
908.139	12011
908.256	12087
908.372	12007
908.488	11999
908.604	11836
908.72	11817
908.836	11859
908.952	11817
909.068	11847
909.184	11897
909.3	11851
909.415	11916
909.531	11912
909.647	11581
909.762	11592
909.878	11566
909.993	11577
910.108	11467
910.224	11543
910.339	11608
910.454	11455
910.57	11421
910.685	11417
910.8	11665
910.915	11589
911.03	11482
911.145	11318
911.259	11277
911.374	11258
911.489	11159
911.604	11178
911.718	11006
911.833	11041
911.947	11006
912.062	10812
912.176	11041
912.291	10938
912.405	11079
912.519	11140
912.633	11227
912.748	11113
912.862	11022
912.976	10911
913.09	10767
913.204	10801
913.318	10889
913.431	10991
913.545	10896
913.659	11033
913.772	10923
913.886	10862
914	10733
914.113	10915
914.226	10942
914.34	10896
914.453	10653
914.566	10911
914.68	10698
914.793	10767
914.906	10519
915.019	10470
915.132	10436
915.245	10603
915.358	10500
915.47	10535
915.583	10580
915.696	10577
915.809	10683
915.921	10820
916.034	10500
916.146	10478
916.259	10470
916.371	10577
916.483	10516
916.595	10405
916.708	10459
916.82	10413
916.932	10424
917.044	10409
917.156	10455
917.268	10333
917.38	10382
917.491	10356
917.603	10394
917.715	10474
917.826	10516
917.938	10303
918.049	10253
918.161	10413
918.272	10459
918.384	10466
918.495	10371
918.606	10291
918.717	10166
918.828	10318
918.939	10337
919.05	10128
919.161	10154
919.272	9991
919.383	10200
919.494	10261
919.604	10462
919.715	10291
919.826	10177
919.936	10234
920.047	10291
920.157	10261
920.267	10424
920.378	10318
920.488	10318
920.598	10478
920.708	10599
920.818	10493
920.928	10443
921.038	10558
921.148	10535
921.258	10310
921.368	10093
921.477	10139
921.587	10101
921.697	9983
921.806	10120
921.916	9991
922.025	9915
922.134	9854
922.244	9755
922.353	9827
922.462	9675
922.571	9663
922.68	9511
922.789	9485
922.898	9450
923.007	9450
923.116	9526
923.224	9545
923.333	9477
923.442	9359
923.55	9420
923.659	9431
923.767	9485
923.876	9340
923.984	9488
924.092	9302
924.201	9447
924.309	9370
924.417	9386
924.525	9344
924.633	9351
924.741	10242
924.849	9161
924.956	9306
925.064	9207
925.172	9123
925.279	9108
925.387	9195
925.494	9116
925.602	9256
925.709	9222
925.816	9108
925.924	9165
926.031	9184
926.138	9169
926.245	9165
926.352	9127
926.459	9294
926.566	9275
926.673	9062
926.779	9043
926.886	9070
926.993	8921
927.099	8933
927.206	8727
927.312	8792
927.419	8887
927.525	8883
927.631	8895
927.737	8781
927.843	8758
927.95	8743
928.056	8731
928.162	8769
928.267	8792
928.373	9325
928.479	8853
928.585	8568
928.69	8693
928.796	8815
928.901	8663
929.007	8541
929.112	8655
929.218	8659
929.323	8587
929.428	8511
929.533	8693
929.638	8511
929.743	8511
929.848	8651
929.953	8492
930.058	8480
930.163	8339
930.267	8385
930.372	8492
930.477	8347
930.581	8526
930.685	8431
930.79	8377
930.894	8408
930.998	8309
931.103	8389
931.207	8054
931.311	8024
931.415	7909
931.519	7761
931.623	7822
