Data from test_V78500241_3629.txt Node
Date: Fri Mar 25 14:58:59 CST 2022
User: usil
Spectrometer: V785-0024
Trigger mode: 0
Integration Time (sec): 4.000000E-1
Scans to average: 1
Nonlinearity correction enabled: false
Boxcar width: 0
Storing dark spectrum: false
XAxis mode: Wavelengths
Number of Pixels in Spectrum: 1024
>>>>>Begin Spectral Data<<<<<
801.071	22086
801.214	21838
801.356	21610
801.499	21534
801.641	21408
801.783	21393
801.926	21348
802.068	21260
802.211	21207
802.353	20967
802.496	20963
802.638	20823
802.78	20845
802.923	20670
803.065	20708
803.208	20549
803.35	20655
803.492	20712
803.635	20796
803.777	20678
803.919	20682
804.061	21013
804.204	20697
804.346	20644
804.488	20564
804.63	20537
804.773	20385
804.915	20522
805.057	20590
805.199	20514
805.341	20514
805.483	20716
805.626	20735
805.768	20423
805.91	20499
806.052	20667
806.194	20431
806.336	20617
806.478	20404
806.62	20366
806.762	20606
806.904	20731
807.046	20910
807.188	20773
807.33	20880
807.472	20944
807.614	20807
807.756	20785
807.898	20716
808.04	20602
808.182	20396
808.324	20602
808.465	20621
808.607	20842
808.749	20944
808.891	21036
809.033	20990
809.174	20921
809.316	20800
809.458	20826
809.6	20804
809.741	20948
809.883	21013
810.025	20971
810.166	20971
810.308	20853
810.45	20952
810.591	20853
810.733	20804
810.875	20606
811.016	20636
811.158	20625
811.299	20644
811.441	20739
811.582	20739
811.724	20750
811.865	20526
812.007	20621
812.148	20629
812.29	20724
812.431	20800
812.573	20952
812.714	21005
812.855	21165
812.997	21192
813.138	21264
813.279	21332
813.421	21131
813.562	21104
813.703	20986
813.845	20830
813.986	20640
814.127	20320
814.268	20225
814.41	20248
814.551	20157
814.692	20161
814.833	20119
814.974	20130
815.115	20187
815.256	20069
815.397	20035
815.539	20054
815.68	19788
815.821	19887
815.962	19814
816.103	19917
816.244	19761
816.385	19639
816.526	19605
816.666	19441
816.807	19324
816.948	19514
817.089	19335
817.23	19381
817.371	19179
817.512	19316
817.653	19346
817.793	19213
817.934	19251
818.075	19331
818.216	19270
818.356	19232
818.497	18996
818.638	19023
818.778	19015
818.919	18985
819.06	19015
819.2	19000
819.341	19133
819.481	19228
819.622	19228
819.762	19457
819.903	19441
820.043	19343
820.184	19358
820.324	19354
820.465	19384
820.605	19331
820.746	19244
820.886	19206
821.026	19202
821.167	19244
821.307	19297
821.447	19160
821.588	19114
821.728	18943
821.868	18856
822.008	18589
822.149	18719
822.289	18627
822.429	18422
822.569	18361
822.709	18407
822.849	18171
822.99	18201
823.13	18095
823.27	18174
823.41	17965
823.55	17946
823.69	17931
823.83	17965
823.97	17874
824.11	17729
824.25	17676
824.389	17786
824.529	17771
824.669	17714
824.809	17813
824.949	17893
825.089	17866
825.228	17779
825.368	17627
825.508	17547
825.648	17589
825.787	17585
825.927	17562
826.067	17547
826.206	17459
826.346	17398
826.485	17570
826.625	17524
826.765	17699
826.904	17577
827.044	17463
827.183	17181
827.323	17212
827.462	17311
827.601	17261
827.741	17250
827.88	17242
828.02	17109
828.159	17258
828.298	17227
828.437	17303
828.577	17136
828.716	17322
828.855	17140
828.994	16968
829.134	16968
829.273	17147
829.412	16991
829.551	16824
829.69	17018
829.829	16930
829.968	17060
830.107	17067
830.246	17117
830.385	16987
830.524	16896
830.663	16820
830.802	16725
830.941	16615
831.08	16672
831.219	16656
831.357	16664
831.496	16858
831.635	16603
831.774	16588
831.913	16459
832.051	16424
832.19	16443
832.329	16428
832.467	16367
832.606	16265
832.744	16287
832.883	16337
833.022	16287
833.16	16280
833.299	16329
833.437	16253
833.576	16489
833.714	16428
833.852	16462
833.991	16371
834.129	16542
834.267	16360
834.406	16402
834.544	16447
834.682	16421
834.821	16348
834.959	16489
835.097	16306
835.235	16402
835.373	16341
835.511	16367
835.65	16333
835.788	16295
835.926	16173
836.064	16131
836.202	16173
836.34	16329
836.478	16371
836.615	16390
836.753	16322
836.891	16402
837.029	16348
837.167	16295
837.305	16158
837.443	16169
837.58	16147
837.718	16238
837.856	16238
837.993	15987
838.131	16196
838.269	16158
838.406	16158
838.544	16063
838.681	15861
838.819	15854
838.956	15720
839.094	15739
839.231	15797
839.369	15781
839.506	16093
839.643	15941
839.781	15789
839.918	15701
840.055	15717
840.193	15652
840.33	15629
840.467	15618
840.604	15755
840.742	15975
840.879	15614
841.016	15530
841.153	15561
841.29	15876
841.427	15755
841.564	15732
841.701	15713
841.838	15709
841.975	15724
842.112	15656
842.249	15507
842.385	15412
842.522	15675
842.659	15576
842.796	15504
842.933	15462
843.069	15447
843.206	15397
843.343	15614
843.479	15545
843.616	15523
843.752	15348
843.889	15279
844.025	15408
844.162	15298
844.298	15355
844.435	15275
844.571	15192
844.708	15332
844.844	15443
844.98	15382
845.117	15298
845.253	15287
845.389	15241
845.525	15237
845.661	15249
845.798	15081
845.934	15119
846.07	15062
846.206	15211
846.342	15161
846.478	15150
846.614	15017
846.75	14834
846.886	14800
847.022	14956
847.158	14857
847.294	14826
847.429	14944
847.565	14880
847.701	15119
847.837	14545
847.972	14537
848.108	14765
848.244	14648
848.379	14499
848.515	14495
848.65	14446
848.786	14461
848.921	14465
849.057	14549
849.192	14556
849.328	14514
849.463	14480
849.598	14522
849.734	14415
849.869	14271
850.004	14210
850.14	14221
850.275	14176
850.41	14187
850.545	14111
850.68	14263
850.815	14267
850.95	14221
851.085	14423
851.22	14347
851.355	14202
851.49	14229
851.625	14278
851.76	14252
851.895	14202
852.03	14069
852.165	14199
852.299	14202
852.434	14286
852.569	14332
852.703	14290
852.838	14298
852.973	14431
853.107	14377
853.242	14180
853.376	14176
853.511	13982
853.645	14046
853.78	14263
853.914	14073
854.048	13993
854.183	14153
854.317	14081
854.451	14275
854.585	14123
854.72	14126
854.854	14153
854.988	14081
855.122	14027
855.256	13925
855.39	14088
855.524	14191
855.658	14199
855.792	14092
855.926	14176
856.06	14237
856.194	14271
856.327	14126
856.461	13963
856.595	14126
856.729	14092
856.862	14195
856.996	14111
857.13	14153
857.263	14259
857.397	14195
857.53	14130
857.664	14210
857.797	14206
857.931	14168
858.064	14062
858.197	14263
858.331	14054
858.464	14050
858.597	13944
858.731	14092
858.864	14103
858.997	14096
859.13	14225
859.263	14081
859.396	14145
859.529	14214
859.662	14088
859.795	14043
859.928	14149
860.061	14267
860.194	14358
860.327	14138
860.46	14046
860.592	14142
860.725	14244
860.858	14161
860.99	14084
861.123	14069
861.256	14054
861.388	14058
861.521	14918
861.653	14005
861.786	13978
861.918	13879
862.05	13959
862.183	14084
862.315	14123
862.447	14134
862.58	14043
862.712	13887
862.844	13879
862.976	13997
863.108	13967
863.24	14263
863.372	13807
863.504	13898
863.636	13856
863.768	13898
863.9	13898
864.032	13936
864.164	13868
864.296	13936
864.428	13947
864.559	14100
864.691	13967
864.823	13951
864.954	13921
865.086	13906
865.217	13860
865.349	13879
865.48	13776
865.612	13860
865.743	14001
865.875	13852
866.006	13875
866.137	13955
866.269	13731
866.4	13772
866.531	13833
866.662	13909
866.793	13753
866.924	13875
867.055	13913
867.186	13917
867.317	13803
867.448	13803
867.579	13856
867.71	13795
867.841	13826
867.972	13887
868.103	13925
868.233	13917
868.364	13925
868.495	13936
868.625	14062
868.756	14229
868.886	14100
869.017	14119
869.147	14347
869.278	14259
869.408	14199
869.539	14107
869.669	14157
869.799	14214
869.929	14168
870.06	14240
870.19	14503
870.32	14457
870.45	14492
870.58	14590
870.71	14495
870.84	14640
870.97	14419
871.1	14454
871.23	14731
871.36	14640
871.489	14613
871.619	14758
871.749	14708
871.879	14781
872.008	14948
872.138	14777
872.267	14659
872.397	14560
872.526	14579
872.656	14606
872.785	14598
872.915	14777
873.044	14811
873.173	14720
873.303	14792
873.432	14937
873.561	14807
873.69	14830
873.819	14765
873.948	14891
874.077	14800
874.206	14792
874.335	14785
874.464	14853
874.593	15039
874.722	14998
874.851	15214
874.979	15150
875.108	15085
875.237	15051
875.365	14990
875.494	15150
875.623	15169
875.751	15142
875.88	15062
876.008	15184
876.136	15298
876.265	15523
876.393	15603
876.521	15462
876.65	15580
876.778	15519
876.906	15466
877.034	15389
877.162	15633
877.29	15523
877.418	15454
877.546	15481
877.674	15511
877.802	15576
877.93	15580
878.058	15462
878.185	15447
878.313	15496
878.441	15561
878.568	15249
878.696	15374
878.824	15515
878.951	15580
879.079	15648
879.206	15895
879.333	15701
879.461	15599
879.588	15610
879.715	15587
879.842	15720
879.97	15671
880.097	15450
880.224	15370
880.351	15428
880.478	15332
880.605	15313
880.732	15321
880.859	15526
880.986	15378
881.112	15374
881.239	15310
881.366	15093
881.493	15131
881.619	15036
881.746	15127
881.872	15039
881.999	14910
882.125	14944
882.252	15093
882.378	15116
882.505	15192
882.631	14967
882.757	14804
882.883	14994
883.01	14845
883.136	14834
883.262	14648
883.388	14625
883.514	14887
883.64	14906
883.766	14819
883.892	14697
884.018	14746
884.143	14952
884.269	14861
884.395	14587
884.52	14568
884.646	14568
884.772	14514
884.897	14488
885.023	14556
885.148	14579
885.274	14754
885.399	14708
885.524	14583
885.65	14537
885.775	14518
885.9	14476
886.025	14678
886.15	14686
886.275	14488
886.4	14465
886.525	14522
886.65	14476
886.775	14495
886.9	14632
887.025	14815
887.149	14575
887.274	14370
887.399	14317
887.523	14282
887.648	14294
887.773	14317
887.897	14332
888.021	14434
888.146	14275
888.27	14434
888.395	14526
888.519	14541
888.643	14404
888.767	14450
888.891	14317
889.015	14256
889.139	14286
889.263	14263
889.387	14396
889.511	14427
889.635	14431
889.759	14206
889.883	14313
890.006	14271
890.13	14362
890.254	14157
890.377	14259
890.501	14027
890.624	13982
890.748	14100
890.871	13989
890.995	13936
891.118	13818
891.241	13875
891.364	14027
891.488	13970
891.611	14020
891.734	13917
891.857	14081
891.98	13951
892.103	14058
892.226	13947
892.349	14001
892.471	13772
892.594	13978
892.717	13906
892.839	13982
892.962	13944
893.085	13997
893.207	13951
893.33	13898
893.452	13856
893.575	13944
893.697	13944
893.819	14157
893.941	14229
894.064	14214
894.186	13947
894.308	13887
894.43	14096
894.552	14142
894.674	14130
894.796	13883
894.918	13970
895.04	13921
895.161	14050
895.283	14054
895.405	14012
895.526	14050
895.648	14046
895.769	14077
895.891	14096
896.012	14195
896.134	14134
896.255	14145
896.376	14123
896.498	14069
896.619	14161
896.74	14210
896.861	14210
896.982	14446
897.103	14579
897.224	14423
897.345	14298
897.466	14362
897.587	14438
897.708	14454
897.828	14473
897.949	14473
898.07	14202
898.19	14366
898.311	14579
898.431	14389
898.552	14465
898.672	14545
898.792	14571
898.913	14541
899.033	14469
899.153	14237
899.273	14225
899.393	14305
899.513	14377
899.633	14244
899.753	14393
899.873	14290
899.993	14431
900.113	14305
900.232	14396
900.352	14225
900.472	14271
900.591	14081
900.711	14214
900.83	14123
900.95	14206
901.069	14305
901.189	14058
901.308	13978
901.427	13845
901.546	13906
901.665	13982
901.784	13868
901.904	13742
902.023	13731
902.141	13464
902.26	13434
902.379	13502
902.498	13426
902.617	13377
902.735	13438
902.854	13426
902.973	13381
903.091	13149
903.21	13187
903.328	13240
903.446	13168
903.565	13015
903.683	13034
903.801	12913
903.919	13072
904.038	12989
904.156	12939
904.274	12894
904.392	12802
904.51	12837
904.627	12817
904.745	12791
904.863	12958
904.981	12631
905.098	12407
905.216	12532
905.334	12582
905.451	12506
905.569	12502
905.686	12544
905.803	12566
905.921	12353
906.038	12426
906.155	12330
906.272	12315
906.389	12258
906.506	12163
906.623	12182
906.74	12167
906.857	11965
906.974	12057
907.091	12197
907.208	12235
907.324	12178
907.441	12007
907.557	11874
907.674	11946
907.79	11916
907.907	11866
908.023	11840
908.139	11901
908.256	11771
908.372	11764
908.488	11783
908.604	11634
908.72	11691
908.836	11668
908.952	11623
909.068	11695
909.184	11726
909.3	11672
909.415	11627
909.531	11611
909.647	11444
909.762	11463
909.878	11410
909.993	11467
910.108	11364
910.224	11459
910.339	11433
910.454	11239
910.57	11296
910.685	11250
910.8	11444
910.915	11402
911.03	11284
911.145	11151
911.259	11075
911.374	11128
911.489	11003
911.604	10968
911.718	10892
911.833	10873
911.947	10706
912.062	10710
912.176	10877
912.291	10862
912.405	10801
912.519	11086
912.633	11128
912.748	10923
912.862	10881
912.976	10759
913.09	10656
913.204	10603
913.318	10786
913.431	10797
913.545	10847
913.659	10885
913.772	10805
913.886	10588
914	10599
914.113	10714
914.226	10809
914.34	10694
914.453	10588
914.566	10710
914.68	10577
914.793	10500
914.906	10390
915.019	10303
915.132	10291
915.245	10348
915.358	10455
915.47	10409
915.583	10405
915.696	10413
915.809	10493
915.921	10523
916.034	10390
916.146	10367
916.259	10333
916.371	10421
916.483	10394
916.595	10287
916.708	10314
916.82	10375
916.932	10257
917.044	10314
917.156	10284
917.268	10173
917.38	10227
917.491	10188
917.603	10207
917.715	10314
917.826	10284
917.938	10230
918.049	10017
918.161	10238
918.272	10329
918.384	10318
918.495	10196
918.606	10067
918.717	10032
918.828	10082
918.939	10116
919.05	9960
919.161	10040
919.272	9941
919.383	9953
919.494	10268
919.604	10318
919.715	10044
919.826	9994
919.936	10124
920.047	10211
920.157	10116
920.267	10310
920.378	10150
920.488	10036
920.598	10272
920.708	10451
920.818	10272
920.928	10211
921.038	10489
921.148	10432
921.258	10147
921.368	10021
921.477	9945
921.587	10013
921.697	9907
921.806	9998
921.916	9827
922.025	9747
922.134	9709
922.244	9667
922.353	9728
922.462	9519
922.571	9523
922.68	9351
922.789	9389
922.898	9397
923.007	9317
923.116	9454
923.224	9363
923.333	9401
923.442	9313
923.55	9207
923.659	9233
923.767	9336
923.876	9241
923.984	9306
924.092	9211
924.201	9199
924.309	9226
924.417	9203
924.525	9226
924.633	9214
924.741	9945
924.849	9024
924.956	9138
925.064	9043
925.172	8918
925.279	8998
925.387	9093
925.494	8994
925.602	9180
925.709	9112
925.816	8921
925.924	9097
926.031	9135
926.138	9112
926.245	9119
926.352	8906
926.459	9074
926.566	9077
926.673	8956
926.779	8853
926.886	8880
926.993	8830
927.099	8743
927.206	8693
927.312	8693
927.419	8777
927.525	8716
927.631	8769
927.737	8716
927.843	8610
927.95	8484
928.056	8625
928.162	8613
928.267	8712
928.373	9199
928.479	8731
928.585	8526
928.69	8636
928.796	8644
928.901	8594
929.007	8434
929.112	8583
929.218	8556
929.323	8530
929.428	8446
929.533	8587
929.638	8400
929.743	8454
929.848	8549
929.953	8522
930.058	8377
930.163	8214
930.267	8317
930.372	8393
930.477	8225
930.581	8511
930.685	8317
930.79	8199
930.894	8286
930.998	8153
931.103	8309
931.207	7993
931.311	7894
931.415	7898
931.519	7696
931.623	7655
