Data from test_V78500241_958.txt Node
Date: Fri Mar 25 14:40:23 CST 2022
User: usil
Spectrometer: V785-0024
Trigger mode: 0
Integration Time (sec): 4.000000E-1
Scans to average: 1
Nonlinearity correction enabled: false
Boxcar width: 0
Storing dark spectrum: false
XAxis mode: Wavelengths
Number of Pixels in Spectrum: 1024
>>>>>Begin Spectral Data<<<<<
801.071	23501
801.214	23292
801.356	23075
801.499	22923
801.641	22809
801.783	22858
801.926	22869
802.068	22763
802.211	22672
802.353	22512
802.496	22478
802.638	22223
802.78	22280
802.923	22238
803.065	22150
803.208	22116
803.35	22234
803.492	22306
803.635	22253
803.777	22150
803.919	22329
804.061	22466
804.204	22333
804.346	22185
804.488	22070
804.63	22143
804.773	22128
804.915	22211
805.057	22280
805.199	22017
805.341	22268
805.483	22257
805.626	22253
805.768	22177
805.91	22166
806.052	22109
806.194	22169
806.336	22386
806.478	22329
806.62	22200
806.762	22413
806.904	22443
807.046	22854
807.188	22752
807.33	22782
807.472	22881
807.614	22831
807.756	22972
807.898	22900
808.04	23159
808.182	23261
808.324	23455
808.465	23794
808.607	24201
808.749	24521
808.891	24589
809.033	24905
809.174	24711
809.316	24327
809.458	23847
809.6	23703
809.741	23444
809.883	23223
810.025	23292
810.166	23197
810.308	23200
810.45	23025
810.591	22946
810.733	22736
810.875	22615
811.016	22535
811.158	22379
811.299	22607
811.441	22691
811.582	22569
811.724	22363
811.865	22344
812.007	22432
812.148	22474
812.29	22485
812.431	22497
812.573	22763
812.714	22847
812.855	22949
812.997	23029
813.138	23159
813.279	22968
813.421	22987
813.562	22858
813.703	22641
813.845	22599
813.986	22367
814.127	22128
814.268	21922
814.41	21819
814.551	21846
814.692	21991
814.833	21880
814.974	21888
815.115	21918
815.256	21736
815.397	21705
815.539	21759
815.68	21709
815.821	21644
815.962	21686
816.103	21568
816.244	21458
816.385	21447
816.526	21260
816.666	21211
816.807	21074
816.948	21013
817.089	21222
817.23	21138
817.371	21066
817.512	21062
817.653	21051
817.793	21070
817.934	21039
818.075	21161
818.216	21032
818.356	21032
818.497	20754
818.638	20724
818.778	20750
818.919	20826
819.06	20785
819.2	20796
819.341	20918
819.481	20906
819.622	21051
819.762	21211
819.903	21116
820.043	21138
820.184	21112
820.324	20944
820.465	21074
820.605	21013
820.746	21051
820.886	20754
821.026	20948
821.167	20956
821.307	21135
821.447	21001
821.588	20739
821.728	20724
821.868	20575
822.008	20400
822.149	20328
822.289	20328
822.429	20024
822.569	20100
822.709	20031
822.849	19879
822.99	19818
823.13	19753
823.27	19902
823.41	19734
823.55	19571
823.69	19700
823.83	19662
823.97	19616
824.11	19422
824.25	19419
824.389	19396
824.529	19491
824.669	19499
824.809	19525
824.949	19540
825.089	19567
825.228	19411
825.368	19190
825.508	19255
825.648	19327
825.787	19316
825.927	19396
826.067	19247
826.206	19293
826.346	19221
826.485	19400
826.625	19297
826.765	19308
826.904	19251
827.044	18882
827.183	18886
827.323	18901
827.462	18981
827.601	18928
827.741	18844
827.88	18867
828.02	18802
828.159	18844
828.298	18954
828.437	18970
828.577	18848
828.716	18913
828.855	18875
828.994	18642
829.134	18669
829.273	18696
829.412	18471
829.551	18673
829.69	18627
829.829	18623
829.968	18745
830.107	18696
830.246	18658
830.385	18566
830.524	18528
830.663	18456
830.802	18403
830.941	18311
831.08	18266
831.219	18376
831.357	18213
831.496	18479
831.635	18228
831.774	18140
831.913	18083
832.051	17923
832.19	17973
832.329	18072
832.467	17946
832.606	17874
832.744	17927
832.883	18038
833.022	17931
833.16	18095
833.299	18003
833.437	18194
833.576	18114
833.714	17999
833.852	18114
833.991	18003
834.129	18190
834.267	18102
834.406	18144
834.544	17999
834.682	18041
834.821	18045
834.959	18201
835.097	17996
835.235	18053
835.373	18011
835.511	17992
835.65	17897
835.788	17771
835.926	17710
836.064	17794
836.202	17695
836.34	17885
836.478	17958
836.615	17832
836.753	17805
836.891	17939
837.029	17904
837.167	17843
837.305	17760
837.443	17790
837.58	17695
837.718	17771
837.856	17752
837.993	17558
838.131	17627
838.269	17630
838.406	17672
838.544	17455
838.681	17474
838.819	17349
838.956	17174
839.094	17258
839.231	17261
839.369	17391
839.506	17551
839.643	17440
839.781	17261
839.918	17170
840.055	17265
840.193	17235
840.33	17258
840.467	17159
840.604	17162
840.742	17505
840.879	17136
841.016	17056
841.153	17147
841.29	17258
841.427	17242
841.564	17200
841.701	17250
841.838	17170
841.975	17014
842.112	17071
842.249	16995
842.385	16957
842.522	17132
842.659	16930
842.796	16930
842.933	16869
843.069	17006
843.206	16835
843.343	17056
843.479	17006
843.616	17003
843.752	16816
843.889	16869
844.025	16965
844.162	16828
844.298	16904
844.435	16816
844.571	16790
844.708	16915
844.844	16995
844.98	16999
845.117	17006
845.253	17075
845.389	16987
845.525	17360
845.661	17790
845.798	18418
845.934	18905
846.07	19103
846.206	18977
846.342	18703
846.478	18079
846.614	17292
846.75	16869
846.886	16641
847.022	16596
847.158	16390
847.294	16390
847.429	16337
847.565	16367
847.701	16535
847.837	16131
847.972	15892
848.108	16071
848.244	16211
848.379	15922
848.515	15934
848.65	15835
848.786	15960
848.921	15854
849.057	16044
849.192	16002
849.328	16067
849.463	15857
849.598	15880
849.734	15762
849.869	15781
850.004	15713
850.14	15759
850.275	15599
850.41	15511
850.545	15637
850.68	15656
850.815	15652
850.95	15515
851.085	15778
851.22	15766
851.355	15633
851.49	15625
851.625	15538
851.76	15610
851.895	15595
852.03	15538
852.165	15641
852.299	15660
852.434	15797
852.569	15739
852.703	15648
852.838	15679
852.973	15717
853.107	15797
853.242	15530
853.376	15595
853.511	15321
853.645	15477
853.78	15545
853.914	15549
854.048	15515
854.183	15591
854.317	15568
854.451	15720
854.585	15504
854.72	15488
854.854	15542
854.988	15401
855.122	15515
855.256	15389
855.39	15431
855.524	15663
855.658	15481
855.792	15389
855.926	15477
856.06	15568
856.194	15591
856.327	15481
856.461	15447
856.595	15526
856.729	15351
856.862	15561
856.996	15488
857.13	15538
857.263	15652
857.397	15660
857.53	15511
857.664	15538
857.797	15488
857.931	15587
858.064	15534
858.197	15523
858.331	15458
858.464	15530
858.597	15370
858.731	15485
858.864	15523
858.997	15515
859.13	15519
859.263	15462
859.396	15496
859.529	15454
859.662	15549
859.795	15439
859.928	15416
860.061	15698
860.194	15686
860.327	15447
860.46	15492
860.592	15576
860.725	15549
860.858	15629
860.99	15412
861.123	15355
861.256	15450
861.388	15488
861.521	16078
861.653	15397
861.786	15237
861.918	15298
862.05	15408
862.183	15424
862.315	15481
862.447	15515
862.58	15416
862.712	15169
862.844	15252
862.976	15294
863.108	15287
863.24	15686
863.372	15138
863.504	15146
863.636	15260
863.768	15256
863.9	15249
864.032	15161
864.164	15249
864.296	15260
864.428	15317
864.559	15359
864.691	15268
864.823	15214
864.954	15283
865.086	15367
865.217	15199
865.349	15165
865.48	15222
865.612	15332
865.743	15363
865.875	15291
866.006	15207
866.137	15222
866.269	15173
866.4	15203
866.531	15195
866.662	15135
866.793	15104
866.924	15218
867.055	15184
867.186	15070
867.317	15055
867.448	15104
867.579	15184
867.71	15100
867.841	15085
867.972	15233
868.103	15169
868.233	15230
868.364	15154
868.495	15287
868.625	15321
868.756	15568
868.886	15393
869.017	15424
869.147	15511
869.278	15648
869.408	15370
869.539	15405
869.669	15496
869.799	15412
869.929	15614
870.06	15549
870.19	15819
870.32	15732
870.45	15755
870.58	15911
870.71	15979
870.84	15945
870.97	15869
871.1	15846
871.23	16025
871.36	15975
871.489	15968
871.619	15941
871.749	16017
871.879	15953
872.008	16135
872.138	16097
872.267	16002
872.397	15949
872.526	15911
872.656	15804
872.785	15922
872.915	16071
873.044	16135
873.173	16071
873.303	16071
873.432	16082
873.561	16116
873.69	16063
873.819	16093
873.948	16162
874.077	16196
874.206	16139
874.335	16112
874.464	16306
874.593	16382
874.722	16333
874.851	16379
874.979	16443
875.108	16390
875.237	16447
875.365	16447
875.494	16432
875.623	16512
875.751	16413
875.88	16538
876.008	16611
876.136	16641
876.265	16809
876.393	16972
876.521	16984
876.65	16987
876.778	16915
876.906	16755
877.034	16866
877.162	16869
877.29	16759
877.418	16904
877.546	16900
877.674	16968
877.802	16923
877.93	16968
878.058	16991
878.185	16869
878.313	16919
878.441	17079
878.568	16919
878.696	17025
878.824	17265
878.951	17315
879.079	17490
879.206	17866
879.333	17961
879.461	17927
879.588	18072
879.715	18247
879.842	18311
879.97	17950
880.097	17573
880.224	17250
880.351	17200
880.478	17200
880.605	17048
880.732	17098
880.859	17242
880.986	16991
881.112	17075
881.239	16847
881.366	16782
881.493	16626
881.619	16607
881.746	16538
881.872	16656
881.999	16637
882.125	16542
882.252	16729
882.378	16664
882.505	16744
882.631	16618
882.757	16466
882.883	16459
883.01	16561
883.136	16428
883.262	16363
883.388	16299
883.514	16447
883.64	16550
883.766	16459
883.892	16310
884.018	16295
884.143	16519
884.269	16615
884.395	16173
884.52	16261
884.646	16215
884.772	16097
884.897	16139
885.023	16124
885.148	16230
885.274	16344
885.399	16299
885.524	16131
885.65	16063
885.775	16124
885.9	16074
886.025	16177
886.15	16181
886.275	15994
886.4	16021
886.525	15949
886.65	15960
886.775	16036
886.9	16154
887.025	16265
887.149	16040
887.274	15873
887.399	15720
887.523	15762
887.648	15774
887.773	15720
887.897	15838
888.021	15850
888.146	15759
888.27	15895
888.395	15975
888.519	15755
888.643	15774
888.767	15816
888.891	15720
889.015	15595
889.139	15633
889.263	15485
889.387	15629
889.511	15781
889.635	15732
889.759	15561
889.883	15523
890.006	15572
890.13	15629
890.254	15504
890.377	15526
890.501	15473
890.624	15336
890.748	15336
890.871	15249
890.995	15302
891.118	15256
891.241	15214
891.364	15279
891.488	15317
891.611	15272
891.734	15108
891.857	15222
891.98	15268
892.103	15325
892.226	15317
892.349	15203
892.471	15093
892.594	15135
892.717	15249
892.839	15108
892.962	15188
893.085	15268
893.207	15104
893.33	15058
893.452	15142
893.575	15157
893.697	15138
893.819	15283
893.941	15332
894.064	15310
894.186	15127
894.308	15119
894.43	15317
894.552	15370
894.674	15218
894.796	15195
894.918	15119
895.04	15154
895.161	15268
895.283	15294
895.405	15127
895.526	15176
895.648	15264
895.769	15233
895.891	15268
896.012	15401
896.134	15321
896.255	15310
896.376	15135
896.498	15264
896.619	15363
896.74	15321
896.861	15348
896.982	15629
897.103	15728
897.224	15564
897.345	15496
897.466	15492
897.587	15473
897.708	15652
897.828	15629
897.949	15481
898.07	15428
898.19	15488
898.311	15637
898.431	15568
898.552	15637
898.672	15743
898.792	15724
898.913	15660
899.033	15679
899.153	15466
899.273	15405
899.393	15469
899.513	15492
899.633	15549
899.753	15545
899.873	15424
899.993	15519
900.113	15488
900.232	15542
900.352	15412
900.472	15393
900.591	15420
900.711	15405
900.83	15291
900.95	15424
901.069	15473
901.189	15310
901.308	15032
901.427	14963
901.546	14921
901.665	15020
901.784	14998
901.904	14960
902.023	14712
902.141	14613
902.26	14533
902.379	14663
902.498	14564
902.617	14480
902.735	14545
902.854	14431
902.973	14454
903.091	14286
903.21	14271
903.328	14271
903.446	14256
903.565	14195
903.683	14077
903.801	14008
903.919	14016
904.038	14008
904.156	13917
904.274	13917
904.392	13879
904.51	13788
904.627	13902
904.745	13894
904.863	13974
904.981	13651
905.098	13544
905.216	13597
905.334	13658
905.451	13578
905.569	13499
905.686	13499
905.803	13537
905.921	13491
906.038	13407
906.155	13422
906.272	13274
906.389	13289
906.506	13137
906.623	13149
906.74	13080
906.857	12981
906.974	13110
907.091	13171
907.208	13301
907.324	13141
907.441	13027
907.557	12935
907.674	12825
907.79	12844
907.907	12791
908.023	12875
908.139	12821
908.256	12825
908.372	12783
908.488	12623
908.604	12597
908.72	12506
908.836	12563
908.952	12513
909.068	12597
909.184	12715
909.3	12506
909.415	12608
909.531	12559
909.647	12429
909.762	12220
909.878	12342
909.993	12422
910.108	12334
910.224	12258
910.339	12285
910.454	12289
910.57	12213
910.685	12072
910.8	12460
910.915	12323
911.03	12136
911.145	12015
911.259	12083
911.374	12079
911.489	11908
911.604	11893
911.718	11733
911.833	11767
911.947	11608
912.062	11653
912.176	11767
912.291	11752
912.405	11783
912.519	11965
912.633	11904
912.748	11851
912.862	11733
912.976	11589
913.09	11577
913.204	11604
913.318	11581
913.431	11786
913.545	11615
913.659	11668
913.772	11657
913.886	11562
914	11448
914.113	11642
914.226	11657
914.34	11524
914.453	11417
914.566	11589
914.68	11497
914.793	11505
914.906	11261
915.019	11246
915.132	11033
915.245	11280
915.358	11212
915.47	11315
915.583	11159
915.696	11227
915.809	11402
915.921	11349
916.034	11178
916.146	11155
916.259	11140
916.371	11280
916.483	11246
916.595	11193
916.708	11227
916.82	11159
916.932	11185
917.044	11109
917.156	11124
917.268	11006
917.38	11048
917.491	10976
917.603	11113
917.715	11056
917.826	11147
917.938	10965
918.049	10911
918.161	11109
918.272	11136
918.384	11098
918.495	11052
918.606	10858
918.717	10862
918.828	10877
918.939	10957
919.05	10881
919.161	10904
919.272	10660
919.383	10744
919.494	10911
919.604	11079
919.715	10892
919.826	10885
919.936	10820
920.047	10854
920.157	10835
920.267	11094
920.378	10976
920.488	10843
920.598	11048
920.708	11246
920.818	11117
920.928	11170
921.038	11292
921.148	11242
921.258	10908
921.368	10831
921.477	10733
921.587	10736
921.697	10580
921.806	10763
921.916	10634
922.025	10447
922.134	10348
922.244	10390
922.353	10421
922.462	10322
922.571	10268
922.68	10158
922.789	10059
922.898	10188
923.007	10010
923.116	10169
923.224	10154
923.333	10112
923.442	10006
923.55	10055
923.659	9918
923.767	10059
923.876	9960
923.984	10032
924.092	9895
924.201	9937
924.309	9983
924.417	10002
924.525	9861
924.633	9945
924.741	10634
924.849	9720
924.956	9873
925.064	9778
925.172	9720
925.279	9709
925.387	9667
925.494	9694
925.602	9915
925.709	9857
925.816	9625
925.924	9701
926.031	9835
926.138	9717
926.245	9736
926.352	9625
926.459	9816
926.566	9835
926.673	9713
926.779	9599
926.886	9637
926.993	9496
927.099	9435
927.206	9424
927.312	9397
927.419	9481
927.525	9355
927.631	9454
927.737	9340
927.843	9306
927.95	9264
928.056	9310
928.162	9306
928.267	9344
928.373	9842
928.479	9386
928.585	9195
928.69	9332
928.796	9367
928.901	9199
929.007	9104
929.112	9211
929.218	9260
929.323	9192
929.428	9108
929.533	9192
929.638	9108
929.743	9138
929.848	9097
929.953	9043
930.058	9005
930.163	8781
930.267	8952
930.372	9039
930.477	8826
930.581	9089
930.685	9005
930.79	8804
930.894	8845
930.998	8762
931.103	8834
931.207	8625
931.311	8594
931.415	8442
931.519	8298
931.623	8320
