Data from test_V78500241_2834.txt Node
Date: Fri Mar 25 14:53:26 CST 2022
User: usil
Spectrometer: V785-0024
Trigger mode: 0
Integration Time (sec): 4.000000E-1
Scans to average: 1
Nonlinearity correction enabled: false
Boxcar width: 0
Storing dark spectrum: false
XAxis mode: Wavelengths
Number of Pixels in Spectrum: 1024
>>>>>Begin Spectral Data<<<<<
801.071	21930
801.214	21838
801.356	21644
801.499	21629
801.641	21492
801.783	21500
801.926	21431
802.068	21332
802.211	21306
802.353	21150
802.496	20925
802.638	20963
802.78	20876
802.923	20796
803.065	20769
803.208	20701
803.35	20712
803.492	20792
803.635	20807
803.777	20644
803.919	20743
804.061	21066
804.204	20712
804.346	20651
804.488	20716
804.63	20762
804.773	20579
804.915	20735
805.057	20750
805.199	20682
805.341	20545
805.483	20765
805.626	20686
805.768	20492
805.91	20655
806.052	20602
806.194	20465
806.336	20819
806.478	20571
806.62	20644
806.762	20693
806.904	20716
807.046	21020
807.188	20994
807.33	20921
807.472	21032
807.614	20876
807.756	20876
807.898	20682
808.04	20587
808.182	20670
808.324	20746
808.465	20921
808.607	20963
808.749	21123
808.891	21127
809.033	21161
809.174	21127
809.316	21074
809.458	20986
809.6	21001
809.741	21005
809.883	21142
810.025	21100
810.166	21260
810.308	21112
810.45	21089
810.591	21066
810.733	20937
810.875	20918
811.016	20701
811.158	20838
811.299	20777
811.441	21051
811.582	20902
811.724	20895
811.865	20701
812.007	20735
812.148	20792
812.29	20815
812.431	21001
812.573	21237
812.714	21188
812.855	21313
812.997	21317
813.138	21469
813.279	21302
813.421	21367
813.562	21180
813.703	21123
813.845	20982
813.986	20621
814.127	20419
814.268	20393
814.41	20454
814.551	20298
814.692	20351
814.833	20199
814.974	20187
815.115	20358
815.256	20256
815.397	20252
815.539	20248
815.68	20164
815.821	20035
815.962	20126
816.103	20016
816.244	19967
816.385	19814
816.526	19814
816.666	19609
816.807	19578
816.948	19635
817.089	19666
817.23	19597
817.371	19491
817.512	19445
817.653	19441
817.793	19464
817.934	19377
818.075	19499
818.216	19510
818.356	19533
818.497	19373
818.638	19141
818.778	19156
818.919	19164
819.06	19251
819.2	19209
819.341	19377
819.481	19335
819.622	19594
819.762	19719
819.903	19662
820.043	19556
820.184	19449
820.324	19430
820.465	19529
820.605	19400
820.746	19487
820.886	19255
821.026	19308
821.167	19415
821.307	19441
821.447	19407
821.588	19320
821.728	19194
821.868	18977
822.008	18932
822.149	18859
822.289	18798
822.429	18623
822.569	18566
822.709	18578
822.849	18365
822.99	18365
823.13	18319
823.27	18338
823.41	18117
823.55	18106
823.69	18117
823.83	18171
823.97	18068
824.11	17946
824.25	17874
824.389	17923
824.529	17973
824.669	17935
824.809	18011
824.949	18053
825.089	17965
825.228	18015
825.368	17771
825.508	17783
825.648	17783
825.787	17760
825.927	17726
826.067	17756
826.206	17653
826.346	17741
826.485	17760
826.625	17805
826.765	17775
826.904	17718
827.044	17433
827.183	17463
827.323	17356
827.462	17509
827.601	17391
827.741	17288
827.88	17406
828.02	17258
828.159	17360
828.298	17543
828.437	17486
828.577	17273
828.716	17417
828.855	17337
828.994	17235
829.134	17231
829.273	17155
829.412	16980
829.551	17124
829.69	17151
829.829	17185
829.968	17216
830.107	17181
830.246	17250
830.385	17041
830.524	17098
830.663	17006
830.802	16957
830.941	16778
831.08	16710
831.219	16828
831.357	16774
831.496	17025
831.635	16755
831.774	16740
831.913	16653
832.051	16550
832.19	16531
832.329	16546
832.467	16550
832.606	16508
832.744	16413
832.883	16481
833.022	16436
833.16	16405
833.299	16580
833.437	16405
833.576	16580
833.714	16470
833.852	16500
833.991	16497
834.129	16664
834.267	16527
834.406	16542
834.544	16538
834.682	16622
834.821	16519
834.959	16687
835.097	16523
835.235	16607
835.373	16531
835.511	16516
835.65	16436
835.788	16413
835.926	16318
836.064	16226
836.202	16154
836.34	16375
836.478	16535
836.615	16398
836.753	16474
836.891	16462
837.029	16500
837.167	16363
837.305	16310
837.443	16356
837.58	16211
837.718	16333
837.856	16257
837.993	16131
838.131	16322
838.269	16261
838.406	16223
838.544	16185
838.681	16067
838.819	15998
838.956	15873
839.094	15854
839.231	15888
839.369	16128
839.506	16185
839.643	16074
839.781	15846
839.918	15876
840.055	15857
840.193	15850
840.33	15838
840.467	15838
840.604	15888
840.742	16051
840.879	15736
841.016	15819
841.153	15793
841.29	16067
841.427	15850
841.564	15857
841.701	15918
841.838	15857
841.975	15713
842.112	15743
842.249	15679
842.385	15625
842.522	15873
842.659	15671
842.796	15709
842.933	15644
843.069	15652
843.206	15526
843.343	15728
843.479	15572
843.616	15736
843.752	15462
843.889	15435
844.025	15530
844.162	15504
844.298	15561
844.435	15386
844.571	15325
844.708	15481
844.844	15488
844.98	15542
845.117	15519
845.253	15313
845.389	15317
845.525	15363
845.661	15355
845.798	15184
845.934	15241
846.07	15173
846.206	15389
846.342	15386
846.478	15214
846.614	15032
846.75	14925
846.886	14986
847.022	15047
847.158	14986
847.294	15093
847.429	14979
847.565	14963
847.701	15180
847.837	14762
847.972	14648
848.108	14834
848.244	14826
848.379	14663
848.515	14492
848.65	14465
848.786	14606
848.921	14533
849.057	14670
849.192	14727
849.328	14598
849.463	14583
849.598	14533
849.734	14427
849.869	14454
850.004	14385
850.14	14442
850.275	14396
850.41	14294
850.545	14351
850.68	14328
850.815	14408
850.95	14347
851.085	14560
851.22	14465
851.355	14396
851.49	14351
851.625	14336
851.76	14370
851.895	14206
852.03	14229
852.165	14370
852.299	14355
852.434	14423
852.569	14358
852.703	14313
852.838	14427
852.973	14438
853.107	14552
853.242	14328
853.376	14320
853.511	14142
853.645	14138
853.78	14305
853.914	14161
854.048	14126
854.183	14107
854.317	14267
854.451	14339
854.585	14256
854.72	14187
854.854	14298
854.988	14119
855.122	14267
855.256	14103
855.39	14176
855.524	14336
855.658	14324
855.792	14248
855.926	14313
856.06	14332
856.194	14286
856.327	14164
856.461	14195
856.595	14142
856.729	14263
856.862	14324
856.996	14218
857.13	14328
857.263	14313
857.397	14347
857.53	14195
857.664	14210
857.797	14343
857.931	14278
858.064	14298
858.197	14275
858.331	14259
858.464	14225
858.597	14081
858.731	14183
858.864	14164
858.997	14199
859.13	14286
859.263	14248
859.396	14347
859.529	14298
859.662	14233
859.795	14149
859.928	14202
860.061	14313
860.194	14415
860.327	14119
860.46	14191
860.592	14343
860.725	14328
860.858	14313
860.99	14313
861.123	14240
861.256	14206
861.388	14191
861.521	14883
861.653	14012
861.786	14054
861.918	14088
862.05	14145
862.183	14176
862.315	14168
862.447	14290
862.58	14164
862.712	14043
862.844	13944
862.976	14058
863.108	14088
863.24	14336
863.372	14035
863.504	13951
863.636	14069
863.768	14062
863.9	14043
864.032	13951
864.164	13997
864.296	13947
864.428	14119
864.559	14119
864.691	14027
864.823	14073
864.954	14001
865.086	13947
865.217	13974
865.349	13925
865.48	14027
865.612	13940
865.743	14206
865.875	14012
866.006	13982
866.137	14035
866.269	13963
866.4	14001
866.531	13993
866.662	13879
866.793	13967
866.924	13959
867.055	14005
867.186	14008
867.317	13917
867.448	13871
867.579	13902
867.71	13959
867.841	13917
867.972	13993
868.103	13967
868.233	14046
868.364	13978
868.495	14035
868.625	14214
868.756	14301
868.886	14100
869.017	14157
869.147	14400
869.278	14313
869.408	14267
869.539	14256
869.669	14362
869.799	14298
869.929	14389
870.06	14298
870.19	14526
870.32	14465
870.45	14590
870.58	14617
870.71	14697
870.84	14739
870.97	14568
871.1	14549
871.23	14773
871.36	14823
871.489	14762
871.619	14750
871.749	14819
871.879	14815
872.008	14842
872.138	14788
872.267	14762
872.397	14781
872.526	14640
872.656	14670
872.785	14743
872.915	14868
873.044	14971
873.173	14849
873.303	14823
873.432	14948
873.561	14990
873.69	14956
873.819	14842
873.948	14937
874.077	14792
874.206	14849
874.335	14921
874.464	14990
874.593	15195
874.722	15119
874.851	15195
874.979	15237
875.108	15211
875.237	15165
875.365	15180
875.494	15188
875.623	15279
875.751	15218
875.88	15146
876.008	15302
876.136	15500
876.265	15587
876.393	15747
876.521	15641
876.65	15728
876.778	15618
876.906	15526
877.034	15511
877.162	15603
877.29	15492
877.418	15743
877.546	15625
877.674	15561
877.802	15705
877.93	15633
878.058	15595
878.185	15553
878.313	15606
878.441	15603
878.568	15462
878.696	15492
878.824	15614
878.951	15686
879.079	15789
879.206	15968
879.333	15789
879.461	15633
879.588	15766
879.715	15724
879.842	15873
879.97	15732
880.097	15454
880.224	15473
880.351	15500
880.478	15477
880.605	15447
880.732	15424
880.859	15690
880.986	15454
881.112	15454
881.239	15412
881.366	15340
881.493	15199
881.619	15157
881.746	15173
881.872	15150
881.999	14986
882.125	15077
882.252	15214
882.378	15195
882.505	15275
882.631	15127
882.757	14941
882.883	15024
883.01	14925
883.136	15001
883.262	14864
883.388	14823
883.514	14948
883.64	15017
883.766	14918
883.892	14872
884.018	14819
884.143	14849
884.269	15005
884.395	14788
884.52	14651
884.646	14697
884.772	14560
884.897	14598
885.023	14689
885.148	14739
885.274	14967
885.399	14769
885.524	14640
885.65	14667
885.775	14746
885.9	14659
886.025	14838
886.15	14773
886.275	14651
886.4	14602
886.525	14651
886.65	14659
886.775	14651
886.9	14724
887.025	14914
887.149	14678
887.274	14511
887.399	14446
887.523	14530
887.648	14404
887.773	14431
887.897	14552
888.021	14686
888.146	14400
888.27	14507
888.395	14602
888.519	14583
888.643	14606
888.767	14549
888.891	14431
889.015	14336
889.139	14412
889.263	14400
889.387	14484
889.511	14594
889.635	14473
889.759	14263
889.883	14374
890.006	14370
890.13	14412
890.254	14271
890.377	14370
890.501	14218
890.624	14172
890.748	14206
890.871	14065
890.995	14096
891.118	13944
891.241	14058
891.364	14050
891.488	14183
891.611	14111
891.734	14103
891.857	14187
891.98	13993
892.103	14142
892.226	14115
892.349	14084
892.471	13841
892.594	13989
892.717	14081
892.839	14062
892.962	14138
893.085	14100
893.207	14058
893.33	13947
893.452	14043
893.575	14103
893.697	14043
893.819	14221
893.941	14172
894.064	14210
894.186	14084
894.308	14016
894.43	14172
894.552	14320
894.674	14084
894.796	14088
894.918	14069
895.04	14153
895.161	14168
895.283	14168
895.405	14065
895.526	14176
895.648	14199
895.769	14183
895.891	14237
896.012	14305
896.134	14309
896.255	14252
896.376	14206
896.498	14282
896.619	14282
896.74	14324
896.861	14275
896.982	14579
897.103	14800
897.224	14606
897.345	14473
897.466	14434
897.587	14473
897.708	14731
897.828	14537
897.949	14484
898.07	14393
898.19	14450
898.311	14689
898.431	14465
898.552	14571
898.672	14754
898.792	14629
898.913	14667
899.033	14560
899.153	14366
899.273	14377
899.393	14446
899.513	14434
899.633	14389
899.753	14450
899.873	14488
899.993	14511
900.113	14454
900.232	14541
900.352	14431
900.472	14305
900.591	14240
900.711	14351
900.83	14278
900.95	14461
901.069	14396
901.189	14286
901.308	14043
901.427	13936
901.546	14001
901.665	14012
901.784	14012
901.904	13871
902.023	13830
902.141	13616
902.26	13552
902.379	13601
902.498	13556
902.617	13567
902.735	13636
902.854	13590
902.973	13521
903.091	13278
903.21	13183
903.328	13209
903.446	13217
903.565	13004
903.683	13175
903.801	12970
903.919	13145
904.038	13031
904.156	12932
904.274	13046
904.392	12958
904.51	12920
904.627	12993
904.745	13012
904.863	12981
904.981	12787
905.098	12589
905.216	12620
905.334	12681
905.451	12604
905.569	12639
905.686	12665
905.803	12741
905.921	12475
906.038	12566
906.155	12494
906.272	12395
906.389	12380
906.506	12232
906.623	12171
906.74	12167
906.857	12045
906.974	12117
907.091	12319
907.208	12285
907.324	12334
907.441	12098
907.557	11988
907.674	11977
907.79	11885
907.907	11946
908.023	12011
908.139	12045
908.256	11927
908.372	11958
908.488	11863
908.604	11699
908.72	11592
908.836	11729
908.952	11680
909.068	11764
909.184	11802
909.3	11771
909.415	11794
909.531	11748
909.647	11558
909.762	11455
909.878	11490
909.993	11478
910.108	11452
910.224	11425
910.339	11490
910.454	11376
910.57	11379
910.685	11273
910.8	11680
910.915	11474
911.03	11284
911.145	11197
911.259	11162
911.374	11273
911.489	11121
911.604	10968
911.718	10980
911.833	10972
911.947	10892
912.062	10763
912.176	10965
912.291	10911
912.405	10896
912.519	11121
912.633	11094
912.748	11018
912.862	10999
912.976	10816
913.09	10858
913.204	10839
913.318	10930
913.431	10942
913.545	10961
913.659	10976
913.772	10877
913.886	10721
914	10755
914.113	10847
914.226	10790
914.34	10854
914.453	10634
914.566	10702
914.68	10641
914.793	10675
914.906	10478
915.019	10455
915.132	10443
915.245	10402
915.358	10481
915.47	10485
915.583	10489
915.696	10535
915.809	10603
915.921	10577
916.034	10409
916.146	10451
916.259	10451
916.371	10489
916.483	10523
916.595	10405
916.708	10367
916.82	10379
916.932	10394
917.044	10371
917.156	10356
917.268	10242
917.38	10230
917.491	10280
917.603	10242
917.715	10371
917.826	10436
917.938	10295
918.049	10150
918.161	10265
918.272	10459
918.384	10413
918.495	10280
918.606	10192
918.717	10116
918.828	10185
918.939	10192
919.05	10101
919.161	10188
919.272	10021
919.383	9987
919.494	10238
919.604	10428
919.715	10238
919.826	10158
919.936	10116
920.047	10234
920.157	10166
920.267	10382
920.378	10173
920.488	10219
920.598	10394
920.708	10497
920.818	10333
920.928	10360
921.038	10527
921.148	10516
921.258	10192
921.368	10173
921.477	10101
921.587	10040
921.697	9895
921.806	10093
921.916	9937
922.025	9785
922.134	9762
922.244	9785
922.353	9751
922.462	9606
922.571	9610
922.68	9587
922.789	9439
922.898	9469
923.007	9420
923.116	9515
923.224	9492
923.333	9420
923.442	9329
923.55	9249
923.659	9306
923.767	9405
923.876	9302
923.984	9329
924.092	9173
924.201	9306
924.309	9325
924.417	9272
924.525	9173
924.633	9294
924.741	10177
924.849	9036
924.956	9253
925.064	9108
925.172	8986
925.279	9051
925.387	9131
925.494	9123
925.602	9317
925.709	9161
925.816	8998
925.924	9112
926.031	9249
926.138	9081
926.245	9085
926.352	9043
926.459	9222
926.566	9230
926.673	9032
926.779	8921
926.886	8967
926.993	8899
927.099	8758
927.206	8762
927.312	8773
927.419	8883
927.525	8845
927.631	8823
927.737	8739
927.843	8762
927.95	8518
928.056	8743
928.162	8766
928.267	8781
928.373	9287
928.479	8834
928.585	8556
928.69	8625
928.796	8769
928.901	8594
929.007	8495
929.112	8648
929.218	8663
929.323	8526
929.428	8488
929.533	8708
929.638	8495
929.743	8545
929.848	8564
929.953	8545
930.058	8450
930.163	8259
930.267	8309
930.372	8473
930.477	8290
930.581	8503
930.685	8381
930.79	8271
930.894	8282
930.998	8210
931.103	8355
931.207	8073
931.311	7902
931.415	7955
931.519	7765
931.623	7772
