Data from test_V78500241_1485.txt Node
Date: Fri Mar 25 14:44:03 CST 2022
User: usil
Spectrometer: V785-0024
Trigger mode: 0
Integration Time (sec): 4.000000E-1
Scans to average: 1
Nonlinearity correction enabled: false
Boxcar width: 0
Storing dark spectrum: false
XAxis mode: Wavelengths
Number of Pixels in Spectrum: 1024
>>>>>Begin Spectral Data<<<<<
801.071	22455
801.214	22333
801.356	22063
801.499	21934
801.641	21835
801.783	21789
801.926	21835
802.068	21804
802.211	21724
802.353	21595
802.496	21439
802.638	21237
802.78	21317
802.923	21096
803.065	21302
803.208	21180
803.35	21112
803.492	21211
803.635	21340
803.777	21169
803.919	21230
804.061	21549
804.204	21180
804.346	21009
804.488	20975
804.63	21077
804.773	21009
804.915	20986
805.057	21184
805.199	20975
805.341	21165
805.483	21199
805.626	21119
805.768	21070
805.91	21074
806.052	21070
806.194	20921
806.336	21184
806.478	20982
806.62	20963
806.762	21077
806.904	21199
807.046	21507
807.188	21504
807.33	21549
807.472	21553
807.614	21351
807.756	21329
807.898	21252
808.04	21218
808.182	21317
808.324	21382
808.465	21401
808.607	21538
808.749	21641
808.891	21778
809.033	21930
809.174	21800
809.316	21720
809.458	21523
809.6	21428
809.741	21717
809.883	21549
810.025	21690
810.166	21698
810.308	21614
810.45	21545
810.591	21500
810.733	21500
810.875	21298
811.016	21279
811.158	21256
811.299	21363
811.441	21454
811.582	21382
811.724	21195
811.865	21313
812.007	21207
812.148	21272
812.29	21306
812.431	21439
812.573	21549
812.714	21644
812.855	21599
812.997	21850
813.138	21934
813.279	21915
813.421	21690
813.562	21690
813.703	21561
813.845	21469
813.986	21024
814.127	20982
814.268	20804
814.41	20861
814.551	20804
814.692	20845
814.833	20697
814.974	20777
815.115	20773
815.256	20575
815.397	20693
815.539	20769
815.68	20560
815.821	20560
815.962	20438
816.103	20514
816.244	20427
816.385	20240
816.526	20172
816.666	20149
816.807	19852
816.948	20043
817.089	20043
817.23	20027
817.371	19947
817.512	19890
817.653	19936
817.793	19906
817.934	19928
818.075	19947
818.216	19967
818.356	19803
818.497	19731
818.638	19658
818.778	19700
818.919	19616
819.06	19586
819.2	19708
819.341	19696
819.481	19814
819.622	19963
819.762	20149
819.903	20001
820.043	19940
820.184	19925
820.324	19909
820.465	19906
820.605	19944
820.746	19818
820.886	19814
821.026	19864
821.167	19791
821.307	19921
821.447	19814
821.588	19776
821.728	19635
821.868	19445
822.008	19316
822.149	19312
822.289	19202
822.429	19114
822.569	19080
822.709	19038
822.849	18703
822.99	18764
823.13	18776
823.27	18909
823.41	18673
823.55	18540
823.69	18711
823.83	18574
823.97	18467
824.11	18433
824.25	18407
824.389	18479
824.529	18555
824.669	18346
824.809	18509
824.949	18555
825.089	18521
825.228	18429
825.368	18232
825.508	18186
825.648	18308
825.787	18239
825.927	18289
826.067	18254
826.206	18045
826.346	18194
826.485	18266
826.625	18190
826.765	18247
826.904	18232
827.044	17878
827.183	17832
827.323	17821
827.462	17916
827.601	17885
827.741	17809
827.88	17851
828.02	17741
828.159	17756
828.298	17779
828.437	17916
828.577	17786
828.716	17988
828.855	17733
828.994	17585
829.134	17505
829.273	17649
829.412	17455
829.551	17512
829.69	17493
829.829	17665
829.968	17684
830.107	17687
830.246	17627
830.385	17516
830.524	17486
830.663	17387
830.802	17311
830.941	17326
831.08	17254
831.219	17277
831.357	17261
831.496	17395
831.635	17159
831.774	17220
831.913	17102
832.051	16881
832.19	16915
832.329	17060
832.467	16869
832.606	16824
832.744	16774
832.883	16873
833.022	16892
833.16	16885
833.299	16957
833.437	16942
833.576	16896
833.714	16927
833.852	16991
833.991	17075
834.129	17075
834.267	17079
834.406	16892
834.544	16995
834.682	17025
834.821	16957
834.959	17170
835.097	16790
835.235	17003
835.373	16938
835.511	16919
835.65	16923
835.788	16900
835.926	16675
836.064	16721
836.202	16561
836.34	16812
836.478	16877
836.615	16797
836.753	16881
836.891	16923
837.029	16843
837.167	16820
837.305	16771
837.443	16801
837.58	16672
837.718	16713
837.856	16729
837.993	16626
838.131	16675
838.269	16656
838.406	16584
838.544	16569
838.681	16379
838.819	16409
838.956	16295
839.094	16226
839.231	16204
839.369	16341
839.506	16660
839.643	16535
839.781	16253
839.918	16143
840.055	16276
840.193	16226
840.33	16272
840.467	16173
840.604	16280
840.742	16382
840.879	16067
841.016	16238
841.153	16101
841.29	16409
841.427	16242
841.564	16280
841.701	16265
841.838	16158
841.975	16329
842.112	16112
842.249	15994
842.385	16021
842.522	16230
842.659	16051
842.796	16071
842.933	16074
843.069	15960
843.206	15873
843.343	15987
843.479	16112
843.616	16010
843.752	15876
843.889	15793
844.025	16090
844.162	15732
844.298	15934
844.435	15884
844.571	15827
844.708	15823
844.844	15949
844.98	15983
845.117	15869
845.253	15819
845.389	15743
845.525	15838
845.661	15876
845.798	15751
845.934	15880
846.07	15751
846.206	15827
846.342	15842
846.478	15774
846.614	15458
846.75	15416
846.886	15389
847.022	15477
847.158	15370
847.294	15435
847.429	15348
847.565	15306
847.701	15507
847.837	15127
847.972	15043
848.108	15249
848.244	15157
848.379	14979
848.515	14971
848.65	14910
848.786	14902
848.921	15051
849.057	15047
849.192	15062
849.328	14979
849.463	14982
849.598	14918
849.734	14906
849.869	14811
850.004	14765
850.14	14792
850.275	14724
850.41	14693
850.545	14705
850.68	14701
850.815	14712
850.95	14735
851.085	14781
851.22	14880
851.355	14788
851.49	14705
851.625	14716
851.76	14667
851.895	14579
852.03	14587
852.165	14670
852.299	14781
852.434	14758
852.569	14735
852.703	14765
852.838	14804
852.973	14864
853.107	14842
853.242	14769
853.376	14590
853.511	14446
853.645	14541
853.78	14617
853.914	14606
854.048	14400
854.183	14564
854.317	14663
854.451	14800
854.585	14568
854.72	14499
854.854	14712
854.988	14446
855.122	14530
855.256	14381
855.39	14632
855.524	14689
855.658	14670
855.792	14564
855.926	14686
856.06	14644
856.194	14651
856.327	14625
856.461	14549
856.595	14461
856.729	14518
856.862	14674
856.996	14682
857.13	14640
857.263	14788
857.397	14724
857.53	14606
857.664	14560
857.797	14686
857.931	14686
858.064	14651
858.197	14670
858.331	14640
858.464	14594
858.597	14488
858.731	14511
858.864	14674
858.997	14533
859.13	14678
859.263	14644
859.396	14720
859.529	14511
859.662	14530
859.795	14606
859.928	14575
860.061	14750
860.194	14823
860.327	14697
860.46	14731
860.592	14735
860.725	14720
860.858	14602
860.99	14556
861.123	14545
861.256	14587
861.388	14564
861.521	15222
861.653	14533
861.786	14461
861.918	14480
862.05	14617
862.183	14541
862.315	14598
862.447	14724
862.58	14610
862.712	14366
862.844	14336
862.976	14423
863.108	14495
863.24	14929
863.372	14381
863.504	14298
863.636	14419
863.768	14446
863.9	14446
864.032	14374
864.164	14381
864.296	14415
864.428	14537
864.559	14434
864.691	14583
864.823	14419
864.954	14404
865.086	14423
865.217	14423
865.349	14339
865.48	14457
865.612	14351
865.743	14533
865.875	14415
866.006	14294
866.137	14374
866.269	14294
866.4	14484
866.531	14313
866.662	14324
866.793	14263
866.924	14317
867.055	14298
867.186	14408
867.317	14298
867.448	14324
867.579	14320
867.71	14305
867.841	14256
867.972	14362
868.103	14366
868.233	14400
868.364	14351
868.495	14431
868.625	14667
868.756	14708
868.886	14587
869.017	14571
869.147	14796
869.278	14739
869.408	14629
869.539	14640
869.669	14693
869.799	14579
869.929	14724
870.06	14754
870.19	14975
870.32	15017
870.45	15062
870.58	15017
870.71	15150
870.84	15089
870.97	14948
871.1	14986
871.23	15222
871.36	15154
871.489	15138
871.619	15180
871.749	15146
871.879	15249
872.008	15268
872.138	15275
872.267	15237
872.397	15108
872.526	14956
872.656	15024
872.785	15066
872.915	15252
873.044	15302
873.173	15268
873.303	15336
873.432	15275
873.561	15275
873.69	15264
873.819	15214
873.948	15405
874.077	15306
874.206	15192
874.335	15237
874.464	15477
874.593	15637
874.722	15496
874.851	15610
874.979	15713
875.108	15618
875.237	15526
875.365	15466
875.494	15523
875.623	15637
875.751	15614
875.88	15561
876.008	15831
876.136	15892
876.265	15991
876.393	16071
876.521	16078
876.65	16074
876.778	15975
876.906	15968
877.034	15987
877.162	15930
877.29	15930
877.418	15998
877.546	15979
877.674	15968
877.802	15926
877.93	16010
878.058	15930
878.185	15873
878.313	16032
878.441	15964
878.568	15934
878.696	15892
878.824	16051
878.951	16059
879.079	16200
879.206	16421
879.333	16287
879.461	16166
879.588	16291
879.715	16249
879.842	16382
879.97	16139
880.097	15953
880.224	15918
880.351	15994
880.478	15846
880.605	15907
880.732	15827
880.859	16169
880.986	15812
881.112	15922
881.239	15694
881.366	15633
881.493	15568
881.619	15462
881.746	15485
881.872	15572
881.999	15458
882.125	15439
882.252	15648
882.378	15587
882.505	15675
882.631	15462
882.757	15344
882.883	15313
883.01	15336
883.136	15370
883.262	15165
883.388	15146
883.514	15424
883.64	15443
883.766	15313
883.892	15089
884.018	15150
884.143	15393
884.269	15386
884.395	15100
884.52	15070
884.646	15043
884.772	15039
884.897	14975
885.023	15104
885.148	15146
885.274	15161
885.399	15055
885.524	15043
885.65	15047
885.775	14979
885.9	15066
886.025	15077
886.15	15036
886.275	15013
886.4	14971
886.525	15013
886.65	14956
886.775	14982
886.9	15116
887.025	15199
887.149	14998
887.274	14910
887.399	14883
887.523	14819
887.648	14796
887.773	14777
887.897	14941
888.021	14918
888.146	14849
888.27	14914
888.395	14891
888.519	14800
888.643	14910
888.767	14887
888.891	14800
889.015	14781
889.139	14826
889.263	14708
889.387	14845
889.511	14895
889.635	14883
889.759	14670
889.883	14659
890.006	14693
890.13	14880
890.254	14602
890.377	14560
890.501	14541
890.624	14355
890.748	14526
890.871	14473
890.995	14415
891.118	14324
891.241	14389
891.364	14396
891.488	14514
891.611	14396
891.734	14332
891.857	14484
891.98	14412
892.103	14450
892.226	14393
892.349	14313
892.471	14248
892.594	14351
892.717	14298
892.839	14324
892.962	14381
893.085	14457
893.207	14393
893.33	14313
893.452	14343
893.575	14457
893.697	14377
893.819	14610
893.941	14556
894.064	14503
894.186	14324
894.308	14374
894.43	14499
894.552	14533
894.674	14488
894.796	14313
894.918	14469
895.04	14465
895.161	14438
895.283	14454
895.405	14362
895.526	14526
895.648	14518
895.769	14568
895.891	14507
896.012	14613
896.134	14549
896.255	14560
896.376	14583
896.498	14526
896.619	14564
896.74	14537
896.861	14583
896.982	14864
897.103	15074
897.224	14914
897.345	14891
897.466	14754
897.587	14830
897.708	14861
897.828	14883
897.949	14746
898.07	14739
898.19	14807
898.311	14937
898.431	14811
898.552	14910
898.672	15089
898.792	15013
898.913	14842
899.033	14815
899.153	14746
899.273	14590
899.393	14724
899.513	14750
899.633	14670
899.753	14712
899.873	14712
899.993	14743
900.113	14785
900.232	14891
900.352	14731
900.472	14644
900.591	14594
900.711	14697
900.83	14522
900.95	14720
901.069	14754
901.189	14526
901.308	14336
901.427	14294
901.546	14267
901.665	14389
901.784	14202
901.904	14157
902.023	14126
902.141	13852
902.26	13917
902.379	13947
902.498	13932
902.617	13940
902.735	13970
902.854	13818
902.973	13784
903.091	13559
903.21	13544
903.328	13613
903.446	13487
903.565	13384
903.683	13483
903.801	13384
903.919	13346
904.038	13400
904.156	13198
904.274	13225
904.392	13232
904.51	13209
904.627	13251
904.745	13343
904.863	13255
904.981	13084
905.098	12878
905.216	12924
905.334	12924
905.451	12913
905.569	12928
905.686	12935
905.803	12859
905.921	12681
906.038	12863
906.155	12745
906.272	12585
906.389	12601
906.506	12479
906.623	12445
906.74	12475
906.857	12376
906.974	12441
907.091	12525
907.208	12665
907.324	12536
907.441	12494
907.557	12330
907.674	12308
907.79	12163
907.907	12140
908.023	12235
908.139	12235
908.256	12205
908.372	12117
908.488	12201
908.604	11946
908.72	11946
908.836	12011
908.952	12019
909.068	11996
909.184	12114
909.3	12003
909.415	12053
909.531	11958
909.647	11710
909.762	11733
909.878	11729
909.993	11748
910.108	11748
910.224	11741
910.339	11680
910.454	11748
910.57	11589
910.685	11554
910.8	11809
910.915	11760
911.03	11611
911.145	11440
911.259	11311
911.374	11455
911.489	11406
911.604	11299
911.718	11166
911.833	11235
911.947	11056
912.062	10923
912.176	11166
912.291	11143
912.405	11181
912.519	11387
912.633	11425
912.748	11181
912.862	11231
912.976	11132
913.09	10934
913.204	10976
913.318	11109
913.431	11132
913.545	11140
913.659	11174
913.772	11041
913.886	11010
914	10957
914.113	11037
914.226	11037
914.34	11067
914.453	10873
914.566	11006
914.68	10908
914.793	10904
914.906	10694
915.019	10736
915.132	10588
915.245	10679
915.358	10725
915.47	10801
915.583	10801
915.696	10687
915.809	10835
915.921	10873
916.034	10672
916.146	10656
916.259	10641
916.371	10767
916.483	10656
916.595	10615
916.708	10630
916.82	10706
916.932	10588
917.044	10569
917.156	10618
917.268	10516
917.38	10546
917.491	10481
917.603	10546
917.715	10664
917.826	10668
917.938	10443
918.049	10451
918.161	10558
918.272	10736
918.384	10626
918.495	10538
918.606	10417
918.717	10341
918.828	10421
918.939	10451
919.05	10310
919.161	10428
919.272	10261
919.383	10291
919.494	10436
919.604	10561
919.715	10337
919.826	10379
919.936	10367
920.047	10447
920.157	10432
920.267	10599
920.378	10451
920.488	10493
920.598	10618
920.708	10714
920.818	10558
920.928	10615
921.038	10740
921.148	10714
921.258	10421
921.368	10356
921.477	10257
921.587	10219
921.697	10154
921.806	10284
921.916	10109
922.025	10021
922.134	9915
922.244	9808
922.353	10032
922.462	9857
922.571	9827
922.68	9686
922.789	9648
922.898	9625
923.007	9595
923.116	9740
923.224	9663
923.333	9660
923.442	9557
923.55	9477
923.659	9488
923.767	9644
923.876	9500
923.984	9561
924.092	9454
924.201	9561
924.309	9542
924.417	9523
924.525	9511
924.633	9424
924.741	10451
924.849	9351
924.956	9496
925.064	9279
925.172	9237
925.279	9180
925.387	9302
925.494	9306
925.602	9408
925.709	9355
925.816	9233
925.924	9241
926.031	9401
926.138	9351
926.245	9313
926.352	9226
926.459	9359
926.566	9412
926.673	9291
926.779	9195
926.886	9112
926.993	8998
927.099	9058
927.206	9009
927.312	8895
927.419	9028
927.525	9013
927.631	9028
927.737	8956
927.843	8948
927.95	8826
928.056	8872
928.162	8902
928.267	9005
928.373	9656
928.479	8967
928.585	8762
928.69	8895
928.796	8929
928.901	8838
929.007	8781
929.112	8853
929.218	8788
929.323	8762
929.428	8731
929.533	8929
929.638	8750
929.743	8746
929.848	8807
929.953	8766
930.058	8655
930.163	8495
930.267	8511
930.372	8663
930.477	8473
930.581	8724
930.685	8606
930.79	8427
930.894	8522
930.998	8442
931.103	8575
931.207	8263
931.311	8263
931.415	8164
931.519	7986
931.623	7940
