Data from test_V78500241_2090.txt Node
Date: Fri Mar 25 14:48:15 CST 2022
User: usil
Spectrometer: V785-0024
Trigger mode: 0
Integration Time (sec): 4.000000E-1
Scans to average: 1
Nonlinearity correction enabled: false
Boxcar width: 0
Storing dark spectrum: false
XAxis mode: Wavelengths
Number of Pixels in Spectrum: 1024
>>>>>Begin Spectral Data<<<<<
801.071	22116
801.214	22131
801.356	21797
801.499	21663
801.641	21561
801.783	21458
801.926	21519
802.068	21359
802.211	21401
802.353	21313
802.496	21062
802.638	20963
802.78	20845
802.923	20891
803.065	20811
803.208	20857
803.35	20842
803.492	20979
803.635	20823
803.777	20899
803.919	20880
804.061	21264
804.204	20902
804.346	20819
804.488	20526
804.63	20838
804.773	20602
804.915	20689
805.057	20826
805.199	20746
805.341	20815
805.483	20826
805.626	20746
805.768	20701
805.91	20777
806.052	20842
806.194	20651
806.336	20872
806.478	20838
806.62	20678
806.762	20830
806.904	20826
807.046	21161
807.188	21024
807.33	20982
807.472	21055
807.614	20975
807.756	21009
807.898	20819
808.04	20876
808.182	20815
808.324	20876
808.465	20853
808.607	21085
808.749	21131
808.891	21173
809.033	21230
809.174	21154
809.316	21112
809.458	21100
809.6	21161
809.741	21116
809.883	21192
810.025	21325
810.166	21222
810.308	21291
810.45	21218
810.591	21192
810.733	20960
810.875	20986
811.016	20724
811.158	20796
811.299	20986
811.441	20956
811.582	20883
811.724	20956
811.865	20823
812.007	20895
812.148	20845
812.29	20880
812.431	21169
812.573	21070
812.714	21363
812.855	21435
812.997	21420
813.138	21583
813.279	21481
813.421	21260
813.562	21241
813.703	21154
813.845	21104
813.986	20838
814.127	20765
814.268	20465
814.41	20522
814.551	20431
814.692	20484
814.833	20351
814.974	20431
815.115	20457
815.256	20275
815.397	20240
815.539	20298
815.68	20240
815.821	20187
815.962	20180
816.103	20103
816.244	20103
816.385	19875
816.526	19936
816.666	19902
816.807	19616
816.948	19662
817.089	19712
817.23	19696
817.371	19727
817.512	19651
817.653	19601
817.793	19586
817.934	19590
818.075	19628
818.216	19548
818.356	19483
818.497	19441
818.638	19304
818.778	19240
818.919	19285
819.06	19255
819.2	19567
819.341	19548
819.481	19449
819.622	19571
819.762	19712
819.903	19746
820.043	19643
820.184	19613
820.324	19556
820.465	19613
820.605	19514
820.746	19575
820.886	19426
821.026	19533
821.167	19544
821.307	19658
821.447	19483
821.588	19415
821.728	19327
821.868	19065
822.008	19015
822.149	18966
822.289	18886
822.429	18707
822.569	18734
822.709	18642
822.849	18521
822.99	18437
823.13	18422
823.27	18445
823.41	18323
823.55	18232
823.69	18380
823.83	18266
823.97	18262
824.11	18022
824.25	18087
824.389	18155
824.529	18060
824.669	18144
824.809	18380
824.949	18152
825.089	18235
825.228	18159
825.368	17904
825.508	17893
825.648	17927
825.787	17908
825.927	17859
826.067	17779
826.206	17859
826.346	17771
826.485	17954
826.625	17847
826.765	17885
826.904	17863
827.044	17668
827.183	17649
827.323	17493
827.462	17653
827.601	17493
827.741	17440
827.88	17592
828.02	17486
828.159	17486
828.298	17463
828.437	17547
828.577	17417
828.716	17710
828.855	17558
828.994	17246
829.134	17311
829.273	17220
829.412	17121
829.551	17174
829.69	17296
829.829	17227
829.968	17410
830.107	17368
830.246	17345
830.385	17212
830.524	17220
830.663	17178
830.802	16987
830.941	16927
831.08	16961
831.219	16991
831.357	16953
831.496	17132
831.635	16911
831.774	16797
831.913	16900
832.051	16691
832.19	16736
832.329	16630
832.467	16523
832.606	16694
832.744	16531
832.883	16626
833.022	16569
833.16	16573
833.299	16660
833.437	16561
833.576	16679
833.714	16538
833.852	16717
833.991	16645
834.129	16687
834.267	16645
834.406	16713
834.544	16634
834.682	16618
834.821	16675
834.959	16885
835.097	16618
835.235	16752
835.373	16675
835.511	16634
835.65	16611
835.788	16554
835.926	16428
836.064	16386
836.202	16443
836.34	16649
836.478	16592
836.615	16565
836.753	16405
836.891	16599
837.029	16584
837.167	16527
837.305	16485
837.443	16417
837.58	16451
837.718	16519
837.856	16481
837.993	16386
838.131	16379
838.269	16352
838.406	16310
838.544	16261
838.681	16074
838.819	16051
838.956	15983
839.094	15945
839.231	16082
839.369	16196
839.506	16390
839.643	16238
839.781	15994
839.918	15876
840.055	15915
840.193	15930
840.33	15922
840.467	15972
840.604	15918
840.742	16169
840.879	15831
841.016	15884
841.153	15865
841.29	16143
841.427	15979
841.564	15888
841.701	16032
841.838	16029
841.975	15915
842.112	15892
842.249	15701
842.385	15774
842.522	15991
842.659	15751
842.796	15808
842.933	15831
843.069	15682
843.206	15690
843.343	15876
843.479	15857
843.616	15816
843.752	15530
843.889	15580
844.025	15747
844.162	15530
844.298	15591
844.435	15488
844.571	15435
844.708	15637
844.844	15656
844.98	15637
845.117	15660
845.253	15492
845.389	15454
845.525	15481
845.661	15401
845.798	15408
845.934	15298
846.07	15256
846.206	15287
846.342	15416
846.478	15397
846.614	15123
846.75	15020
846.886	15123
847.022	15214
847.158	15100
847.294	15104
847.429	15135
847.565	15089
847.701	15355
847.837	14804
847.972	14910
848.108	14921
848.244	14857
848.379	14838
848.515	14716
848.65	14731
848.786	14708
848.921	14826
849.057	14823
849.192	14853
849.328	14807
849.463	14667
849.598	14758
849.734	14651
849.869	14522
850.004	14530
850.14	14457
850.275	14442
850.41	14408
850.545	14442
850.68	14457
850.815	14488
850.95	14385
851.085	14632
851.22	14590
851.355	14579
851.49	14351
851.625	14393
851.76	14438
851.895	14336
852.03	14381
852.165	14446
852.299	14610
852.434	14613
852.569	14495
852.703	14590
852.838	14610
852.973	14629
853.107	14606
853.242	14488
853.376	14309
853.511	14191
853.645	14275
853.78	14564
853.914	14324
854.048	14377
854.183	14229
854.317	14305
854.451	14492
854.585	14278
854.72	14305
854.854	14404
854.988	14351
855.122	14336
855.256	14172
855.39	14393
855.524	14457
855.658	14438
855.792	14351
855.926	14343
856.06	14351
856.194	14442
856.327	14400
856.461	14240
856.595	14298
856.729	14206
856.862	14419
856.996	14393
857.13	14404
857.263	14381
857.397	14465
857.53	14336
857.664	14400
857.797	14415
857.931	14476
858.064	14446
858.197	14476
858.331	14309
858.464	14317
858.597	14263
858.731	14431
858.864	14317
858.997	14324
859.13	14355
859.263	14324
859.396	14427
859.529	14347
859.662	14298
859.795	14324
859.928	14355
860.061	14457
860.194	14522
860.327	14381
860.46	14385
860.592	14415
860.725	14545
860.858	14393
860.99	14309
861.123	14248
861.256	14233
861.388	14313
861.521	15013
861.653	14206
861.786	14309
861.918	14282
862.05	14309
862.183	14320
862.315	14320
862.447	14282
862.58	14256
862.712	14145
862.844	14126
862.976	14172
863.108	14100
863.24	14454
863.372	14039
863.504	14077
863.636	14126
863.768	14176
863.9	14039
864.032	13989
864.164	14073
864.296	14111
864.428	14267
864.559	14138
864.691	14225
864.823	14237
864.954	14039
865.086	14172
865.217	14103
865.349	13974
865.48	14123
865.612	14119
865.743	14157
865.875	14046
866.006	14062
866.137	14176
866.269	13963
866.4	14069
866.531	14100
866.662	14008
866.793	14016
866.924	14100
867.055	14008
867.186	14115
867.317	13982
867.448	14016
867.579	14001
867.71	14001
867.841	14054
867.972	14126
868.103	14096
868.233	14187
868.364	14100
868.495	14176
868.625	14366
868.756	14457
868.886	14347
869.017	14328
869.147	14446
869.278	14404
869.408	14408
869.539	14389
869.669	14381
869.799	14393
869.929	14469
870.06	14393
870.19	14686
870.32	14697
870.45	14663
870.58	14705
870.71	14925
870.84	14864
870.97	14773
871.1	14724
871.23	14823
871.36	14941
871.489	14815
871.619	14864
871.749	14910
871.879	14960
872.008	15024
872.138	14918
872.267	14838
872.397	14921
872.526	14746
872.656	14716
872.785	14819
872.915	14937
873.044	15127
873.173	15032
873.303	15020
873.432	15032
873.561	15047
873.69	15093
873.819	14998
873.948	15074
874.077	15104
874.206	14986
874.335	15043
874.464	15157
874.593	15348
874.722	15233
874.851	15344
874.979	15359
875.108	15412
875.237	15272
875.365	15252
875.494	15332
875.623	15416
875.751	15336
875.88	15283
876.008	15435
876.136	15545
876.265	15778
876.393	15892
876.521	15724
876.65	15762
876.778	15774
876.906	15736
877.034	15701
877.162	15797
877.29	15637
877.418	15675
877.546	15701
877.674	15755
877.802	15660
877.93	15819
878.058	15686
878.185	15603
878.313	15633
878.441	15778
878.568	15622
878.696	15584
878.824	15580
878.951	15819
879.079	15922
879.206	16067
879.333	15854
879.461	15816
879.588	15789
879.715	15926
879.842	15983
879.97	15819
880.097	15557
880.224	15477
880.351	15603
880.478	15644
880.605	15507
880.732	15584
880.859	15842
880.986	15542
881.112	15641
881.239	15519
881.366	15306
881.493	15348
881.619	15298
881.746	15256
881.872	15332
881.999	15294
882.125	15222
882.252	15306
882.378	15214
882.505	15359
882.631	15146
882.757	15085
882.883	15055
883.01	15055
883.136	15089
883.262	14868
883.388	14883
883.514	14998
883.64	15123
883.766	15017
883.892	14807
884.018	14868
884.143	15062
884.269	14948
884.395	14788
884.52	14838
884.646	14811
884.772	14686
884.897	14617
885.023	14781
885.148	14830
885.274	14921
885.399	14872
885.524	14708
885.65	14815
885.775	14849
885.9	14663
886.025	14830
886.15	14823
886.275	14663
886.4	14613
886.525	14735
886.65	14644
886.775	14746
886.9	14819
887.025	14986
887.149	14773
887.274	14602
887.399	14610
887.523	14465
887.648	14488
887.773	14511
887.897	14613
888.021	14571
888.146	14507
888.27	14613
888.395	14739
888.519	14655
888.643	14613
888.767	14682
888.891	14499
889.015	14415
889.139	14355
889.263	14446
889.387	14492
889.511	14556
889.635	14461
889.759	14408
889.883	14381
890.006	14511
890.13	14431
890.254	14412
890.377	14434
890.501	14278
890.624	14195
890.748	14282
890.871	14096
890.995	14111
891.118	14020
891.241	14157
891.364	14145
891.488	14130
891.611	14096
891.734	14195
891.857	14278
891.98	14111
892.103	14240
892.226	14221
892.349	14096
892.471	13986
892.594	14096
892.717	14202
892.839	14016
892.962	14142
893.085	14084
893.207	14046
893.33	14035
893.452	14008
893.575	14214
893.697	14168
893.819	14328
893.941	14355
894.064	14298
894.186	14145
894.308	14164
894.43	14320
894.552	14355
894.674	14362
894.796	13982
894.918	14218
895.04	14202
895.161	14214
895.283	14248
895.405	14157
895.526	14256
895.648	14252
895.769	14237
895.891	14366
896.012	14339
896.134	14332
896.255	14347
896.376	14278
896.498	14317
896.619	14408
896.74	14343
896.861	14377
896.982	14651
897.103	14834
897.224	14564
897.345	14522
897.466	14598
897.587	14594
897.708	14765
897.828	14606
897.949	14575
898.07	14556
898.19	14492
898.311	14800
898.431	14621
898.552	14613
898.672	14735
898.792	14823
898.913	14659
899.033	14438
899.153	14552
899.273	14358
899.393	14503
899.513	14469
899.633	14503
899.753	14507
899.873	14495
899.993	14594
900.113	14450
900.232	14552
900.352	14484
900.472	14404
900.591	14320
900.711	14339
900.83	14259
900.95	14454
901.069	14598
901.189	14374
901.308	14107
901.427	14001
901.546	14069
901.665	14081
901.784	14073
901.904	13936
902.023	13852
902.141	13636
902.26	13590
902.379	13624
902.498	13582
902.617	13533
902.735	13609
902.854	13670
902.973	13502
903.091	13373
903.21	13297
903.328	13388
903.446	13179
903.565	13179
903.683	13240
903.801	13034
903.919	13149
904.038	13179
904.156	12943
904.274	13027
904.392	12977
904.51	12916
904.627	12962
904.745	13042
904.863	13019
904.981	12783
905.098	12654
905.216	12681
905.334	12738
905.451	12719
905.569	12658
905.686	12783
905.803	12738
905.921	12528
906.038	12681
906.155	12559
906.272	12414
906.389	12380
906.506	12308
906.623	12281
906.74	12300
906.857	12220
906.974	12083
907.091	12266
907.208	12494
907.324	12258
907.441	12213
907.557	12041
907.674	12030
907.79	11999
907.907	11927
908.023	12091
908.139	12060
908.256	11923
908.372	12007
908.488	11992
908.604	11840
908.72	11802
908.836	11775
908.952	11737
909.068	11790
909.184	11904
909.3	11794
909.415	11817
909.531	11836
909.647	11653
909.762	11505
909.878	11463
909.993	11615
910.108	11516
910.224	11585
910.339	11619
910.454	11425
910.57	11406
910.685	11322
910.8	11596
910.915	11684
911.03	11455
911.145	11242
911.259	11277
911.374	11356
911.489	11193
911.604	11201
911.718	11045
911.833	11045
911.947	10862
912.062	10793
912.176	10968
912.291	11022
912.405	10904
912.519	11204
912.633	11159
912.748	11105
912.862	11086
912.976	10843
913.09	10774
913.204	10752
913.318	10923
913.431	10938
913.545	10961
913.659	11003
913.772	10934
913.886	10725
914	10740
914.113	10900
914.226	10904
914.34	10885
914.453	10653
914.566	10953
914.68	10675
914.793	10687
914.906	10550
915.019	10497
915.132	10398
915.245	10443
915.358	10523
915.47	10580
915.583	10588
915.696	10656
915.809	10649
915.921	10668
916.034	10470
916.146	10474
916.259	10398
916.371	10561
916.483	10516
916.595	10531
916.708	10470
916.82	10424
916.932	10413
917.044	10436
917.156	10440
917.268	10337
917.38	10360
917.491	10318
917.603	10363
917.715	10409
917.826	10459
917.938	10390
918.049	10211
918.161	10371
918.272	10455
918.384	10462
918.495	10276
918.606	10188
918.717	10154
918.828	10272
918.939	10181
919.05	10200
919.161	10139
919.272	10078
919.383	10093
919.494	10314
919.604	10417
919.715	10177
919.826	10200
919.936	10223
920.047	10310
920.157	10322
920.267	10489
920.378	10325
920.488	10257
920.598	10489
920.708	10550
920.818	10459
920.928	10398
921.038	10592
921.148	10535
921.258	10204
921.368	10215
921.477	10120
921.587	10090
921.697	10059
921.806	10196
921.916	9983
922.025	9808
922.134	9797
922.244	9759
922.353	9804
922.462	9698
922.571	9652
922.68	9504
922.789	9504
922.898	9462
923.007	9481
923.116	9534
923.224	9504
923.333	9450
923.442	9363
923.55	9405
923.659	9351
923.767	9485
923.876	9359
923.984	9526
924.092	9332
924.201	9355
924.309	9348
924.417	9351
924.525	9214
924.633	9283
924.741	10329
924.849	9157
924.956	9272
925.064	9097
925.172	9066
925.279	9116
925.387	9093
925.494	9131
925.602	9226
925.709	9313
925.816	9039
925.924	9188
926.031	9272
926.138	9173
926.245	9218
926.352	9131
926.459	9218
926.566	9245
926.673	9157
926.779	9062
926.886	9047
926.993	8853
927.099	8918
927.206	8826
927.312	8766
927.419	8910
927.525	8853
927.631	8883
927.737	8861
927.843	8724
927.95	8655
928.056	8762
928.162	8769
928.267	8845
928.373	9412
928.479	8906
928.585	8613
928.69	8819
928.796	8811
928.901	8636
929.007	8514
929.112	8689
929.218	8686
929.323	8549
929.428	8663
929.533	8705
929.638	8503
929.743	8560
929.848	8613
929.953	8552
930.058	8480
930.163	8286
930.267	8374
930.372	8415
930.477	8290
930.581	8469
930.685	8374
930.79	8324
930.894	8275
930.998	8229
931.103	8370
931.207	8145
931.311	8031
931.415	8020
931.519	7784
931.623	7788
