Data from test_V78500241_2985.txt Node
Date: Fri Mar 25 14:54:29 CST 2022
User: usil
Spectrometer: V785-0024
Trigger mode: 0
Integration Time (sec): 4.000000E-1
Scans to average: 1
Nonlinearity correction enabled: false
Boxcar width: 0
Storing dark spectrum: false
XAxis mode: Wavelengths
Number of Pixels in Spectrum: 1024
>>>>>Begin Spectral Data<<<<<
801.071	22124
801.214	21968
801.356	21778
801.499	21629
801.641	21583
801.783	21568
801.926	21408
802.068	21397
802.211	21458
802.353	21279
802.496	21127
802.638	20986
802.78	21047
802.923	20830
803.065	20762
803.208	20838
803.35	20815
803.492	21039
803.635	20872
803.777	20769
803.919	20785
804.061	21112
804.204	20876
804.346	20735
804.488	20686
804.63	20804
804.773	20667
804.915	20743
805.057	20880
805.199	20899
805.341	20758
805.483	20880
805.626	20781
805.768	20613
805.91	20712
806.052	20781
806.194	20724
806.336	20773
806.478	20686
806.62	20708
806.762	20792
806.904	20975
807.046	21211
807.188	21032
807.33	21138
807.472	21161
807.614	20963
807.756	20952
807.898	20777
808.04	20906
808.182	20914
808.324	20876
808.465	20864
808.607	20880
808.749	21142
808.891	21207
809.033	21359
809.174	21203
809.316	21020
809.458	21112
809.6	21039
809.741	21104
809.883	21222
810.025	21332
810.166	21359
810.308	21294
810.45	21214
810.591	21062
810.733	21028
810.875	20925
811.016	20800
811.158	20804
811.299	20986
811.441	20979
811.582	21062
811.724	20872
811.865	20746
812.007	20815
812.148	20952
812.29	20872
812.431	21017
812.573	21169
812.714	21233
812.855	21344
812.997	21507
813.138	21561
813.279	21488
813.421	21393
813.562	21245
813.703	21119
813.845	21001
813.986	20765
814.127	20670
814.268	20412
814.41	20522
814.551	20393
814.692	20564
814.833	20431
814.974	20415
815.115	20457
815.256	20221
815.397	20294
815.539	20362
815.68	20149
815.821	20202
815.962	20103
816.103	20100
816.244	20043
816.385	19951
816.526	19883
816.666	19765
816.807	19616
816.948	19632
817.089	19647
817.23	19639
817.371	19540
817.512	19521
817.653	19544
817.793	19495
817.934	19578
818.075	19460
818.216	19468
818.356	19487
818.497	19339
818.638	19282
818.778	19145
818.919	19221
819.06	19194
819.2	19327
819.341	19289
819.481	19411
819.622	19483
819.762	19769
819.903	19712
820.043	19597
820.184	19518
820.324	19495
820.465	19563
820.605	19449
820.746	19434
820.886	19369
821.026	19521
821.167	19464
821.307	19575
821.447	19449
821.588	19392
821.728	19179
821.868	19004
822.008	18871
822.149	18932
822.289	19008
822.429	18681
822.569	18525
822.709	18665
822.849	18464
822.99	18506
823.13	18460
823.27	18429
823.41	18228
823.55	18106
823.69	18216
823.83	18194
823.97	18140
824.11	18038
824.25	17923
824.389	17931
824.529	18163
824.669	17977
824.809	18076
824.949	18045
825.089	18064
825.228	17984
825.368	17748
825.508	17767
825.648	17745
825.787	17866
825.927	17798
826.067	17775
826.206	17642
826.346	17828
826.485	17741
826.625	17771
826.765	17794
826.904	17828
827.044	17611
827.183	17444
827.323	17368
827.462	17417
827.601	17486
827.741	17345
827.88	17398
828.02	17334
828.159	17414
828.298	17448
828.437	17566
828.577	17299
828.716	17551
828.855	17448
828.994	17189
829.134	17105
829.273	17220
829.412	17094
829.551	17094
829.69	17162
829.829	17174
829.968	17265
830.107	17227
830.246	17235
830.385	17090
830.524	17143
830.663	16942
830.802	16984
830.941	16850
831.08	16812
831.219	16873
831.357	16892
831.496	16953
831.635	16801
831.774	16664
831.913	16729
832.051	16599
832.19	16512
832.329	16535
832.467	16542
832.606	16455
832.744	16554
832.883	16493
833.022	16356
833.16	16546
833.299	16535
833.437	16428
833.576	16508
833.714	16470
833.852	16569
833.991	16512
834.129	16592
834.267	16527
834.406	16546
834.544	16577
834.682	16645
834.821	16535
834.959	16687
835.097	16523
835.235	16550
835.373	16599
835.511	16470
835.65	16466
835.788	16440
835.926	16249
836.064	16223
836.202	16207
836.34	16432
836.478	16561
836.615	16375
836.753	16554
836.891	16519
837.029	16504
837.167	16489
837.305	16268
837.443	16272
837.58	16295
837.718	16459
837.856	16310
837.993	16215
838.131	16299
838.269	16314
838.406	16268
838.544	16116
838.681	16116
838.819	15930
838.956	15934
839.094	15895
839.231	15827
839.369	15987
839.506	16242
839.643	16071
839.781	15831
839.918	15751
840.055	15804
840.193	15800
840.33	15724
840.467	15842
840.604	15884
840.742	15930
840.879	15667
841.016	15724
841.153	15675
841.29	15937
841.427	15850
841.564	15930
841.701	15899
841.838	15797
841.975	15717
842.112	15800
842.249	15675
842.385	15564
842.522	15781
842.659	15732
842.796	15580
842.933	15545
843.069	15507
843.206	15549
843.343	15595
843.479	15458
843.616	15561
843.752	15431
843.889	15469
844.025	15568
844.162	15382
844.298	15443
844.435	15408
844.571	15370
844.708	15488
844.844	15523
844.98	15568
845.117	15477
845.253	15447
845.389	15256
845.525	15401
845.661	15268
845.798	15127
845.934	15272
846.07	15195
846.206	15154
846.342	15298
846.478	15146
846.614	15036
846.75	14994
846.886	14963
847.022	15104
847.158	15009
847.294	14960
847.429	15009
847.565	14990
847.701	15249
847.837	14743
847.972	14629
848.108	14727
848.244	14781
848.379	14651
848.515	14412
848.65	14530
848.786	14484
848.921	14621
849.057	14621
849.192	14708
849.328	14533
849.463	14488
849.598	14545
849.734	14552
849.869	14400
850.004	14343
850.14	14408
850.275	14415
850.41	14347
850.545	14252
850.68	14317
850.815	14294
850.95	14313
851.085	14564
851.22	14442
851.355	14271
851.49	14320
851.625	14347
851.76	14328
851.895	14259
852.03	14172
852.165	14423
852.299	14339
852.434	14385
852.569	14317
852.703	14290
852.838	14396
852.973	14522
853.107	14442
853.242	14271
853.376	14271
853.511	14069
853.645	14252
853.78	14332
853.914	14214
854.048	14130
854.183	14092
854.317	14244
854.451	14358
854.585	14183
854.72	14145
854.854	14282
854.988	14062
855.122	14088
855.256	13951
855.39	14206
855.524	14244
855.658	14195
855.792	14229
855.926	14187
856.06	14298
856.194	14286
856.327	14210
856.461	14168
856.595	14092
856.729	14233
856.862	14320
856.996	14157
857.13	14309
857.263	14267
857.397	14221
857.53	14103
857.664	14282
857.797	14225
857.931	14187
858.064	14305
858.197	14317
858.331	14153
858.464	14195
858.597	14092
858.731	14225
858.864	14225
858.997	14134
859.13	14157
859.263	14229
859.396	14294
859.529	14187
859.662	14172
859.795	14153
859.928	14153
860.061	14339
860.194	14366
860.327	14301
860.46	14107
860.592	14320
860.725	14294
860.858	14320
860.99	14111
861.123	14096
861.256	14145
861.388	14240
861.521	14826
861.653	14111
861.786	14031
861.918	13955
862.05	14138
862.183	14103
862.315	14187
862.447	14248
862.58	14111
862.712	14020
862.844	13959
862.976	14084
863.108	14008
863.24	14423
863.372	13849
863.504	14054
863.636	13978
863.768	14134
863.9	13978
864.032	13947
864.164	13909
864.296	13959
864.428	14054
864.559	14024
864.691	14050
864.823	14073
864.954	13959
865.086	14031
865.217	14001
865.349	13898
865.48	13989
865.612	13909
865.743	14119
865.875	14020
866.006	14058
866.137	14005
866.269	13997
866.4	13928
866.531	13986
866.662	13890
866.793	13856
866.924	13989
867.055	14039
867.186	13947
867.317	13860
867.448	13887
867.579	13830
867.71	13883
867.841	13871
867.972	13944
868.103	13974
868.233	14005
868.364	13978
868.495	14092
868.625	14126
868.756	14195
868.886	14107
869.017	14065
869.147	14324
869.278	14286
869.408	14195
869.539	14206
869.669	14278
869.799	14138
869.929	14305
870.06	14294
870.19	14537
870.32	14492
870.45	14488
870.58	14530
870.71	14777
870.84	14727
870.97	14526
871.1	14655
871.23	14746
871.36	14830
871.489	14819
871.619	14765
871.749	14834
871.879	14861
872.008	14868
872.138	14739
872.267	14883
872.397	14640
872.526	14697
872.656	14701
872.785	14746
872.915	14781
873.044	14830
873.173	14826
873.303	14925
873.432	14823
873.561	14929
873.69	14800
873.819	14826
873.948	14910
874.077	14910
874.206	14853
874.335	14819
874.464	14960
874.593	15165
874.722	15020
874.851	15218
874.979	15214
875.108	15226
875.237	15116
875.365	15024
875.494	15074
875.623	15245
875.751	15176
875.88	15218
876.008	15306
876.136	15359
876.265	15431
876.393	15759
876.521	15667
876.65	15667
876.778	15675
876.906	15561
877.034	15481
877.162	15603
877.29	15511
877.418	15488
877.546	15637
877.674	15568
877.802	15675
877.93	15587
878.058	15549
878.185	15526
878.313	15534
878.441	15542
878.568	15325
878.696	15485
878.824	15538
878.951	15701
879.079	15755
879.206	15907
879.333	15751
879.461	15618
879.588	15641
879.715	15663
879.842	15865
879.97	15732
880.097	15405
880.224	15370
880.351	15466
880.478	15500
880.605	15420
880.732	15401
880.859	15648
880.986	15496
881.112	15481
881.239	15367
881.366	15230
881.493	15123
881.619	15032
881.746	15180
881.872	15180
881.999	15089
882.125	14998
882.252	15161
882.378	15154
882.505	15226
882.631	15005
882.757	15009
882.883	14952
883.01	14937
883.136	14960
883.262	14804
883.388	14811
883.514	14834
883.64	14944
883.766	14811
883.892	14796
884.018	14739
884.143	14902
884.269	15112
884.395	14552
884.52	14613
884.646	14560
884.772	14495
884.897	14511
885.023	14667
885.148	14750
885.274	14754
885.399	14724
885.524	14537
885.65	14636
885.775	14590
885.9	14663
886.025	14720
886.15	14621
886.275	14568
886.4	14511
886.525	14541
886.65	14621
886.775	14552
886.9	14735
887.025	14895
887.149	14629
887.274	14495
887.399	14313
887.523	14442
887.648	14473
887.773	14317
887.897	14507
888.021	14480
888.146	14423
888.27	14621
888.395	14602
888.519	14625
888.643	14541
888.767	14545
888.891	14301
889.015	14332
889.139	14343
889.263	14309
889.387	14377
889.511	14488
889.635	14412
889.759	14240
889.883	14286
890.006	14396
890.13	14396
890.254	14298
890.377	14294
890.501	14096
890.624	14016
890.748	14199
890.871	14081
890.995	14043
891.118	13936
891.241	13989
891.364	14046
891.488	14149
891.611	13879
891.734	13940
891.857	14058
891.98	13959
892.103	14103
892.226	14058
892.349	14058
892.471	13883
892.594	14039
892.717	14005
892.839	13982
892.962	14012
893.085	14100
893.207	14043
893.33	13913
893.452	13902
893.575	13989
893.697	14069
893.819	14214
893.941	14256
894.064	14157
894.186	13997
894.308	13917
894.43	14092
894.552	14225
894.674	14100
894.796	13967
894.918	14153
895.04	14077
895.161	14115
895.283	14206
895.405	14046
895.526	14069
895.648	14111
895.769	14176
895.891	14195
896.012	14157
896.134	14199
896.255	14180
896.376	14084
896.498	14210
896.619	14252
896.74	14191
896.861	14229
896.982	14526
897.103	14594
897.224	14590
897.345	14389
897.466	14469
897.587	14473
897.708	14495
897.828	14549
897.949	14377
898.07	14282
898.19	14469
898.311	14617
898.431	14473
898.552	14636
898.672	14610
898.792	14518
898.913	14632
899.033	14606
899.153	14434
899.273	14336
899.393	14393
899.513	14457
899.633	14336
899.753	14389
899.873	14396
899.993	14492
900.113	14339
900.232	14457
900.352	14412
900.472	14343
900.591	14172
900.711	14434
900.83	14244
900.95	14290
901.069	14427
901.189	14301
901.308	13978
901.427	13906
901.546	13932
901.665	13947
901.784	14050
901.904	13795
902.023	13704
902.141	13674
902.26	13594
902.379	13601
902.498	13457
902.617	13544
902.735	13578
902.854	13571
902.973	13499
903.091	13301
903.21	13160
903.328	13179
903.446	13152
903.565	13084
903.683	13122
903.801	13012
903.919	13084
904.038	13160
904.156	12901
904.274	13053
904.392	12871
904.51	12890
904.627	12916
904.745	12954
904.863	12951
904.981	12791
905.098	12612
905.216	12559
905.334	12566
905.451	12662
905.569	12525
905.686	12639
905.803	12620
905.921	12410
906.038	12418
906.155	12471
906.272	12365
906.389	12391
906.506	12178
906.623	12171
906.74	12205
906.857	11977
906.974	12026
907.091	12258
907.208	12266
907.324	12232
907.441	12175
907.557	12019
907.674	11916
907.79	11859
907.907	11878
908.023	12030
908.139	11817
908.256	11874
908.372	11855
908.488	11859
908.604	11646
908.72	11630
908.836	11756
908.952	11642
909.068	11760
909.184	11786
909.3	11710
909.415	11767
909.531	11707
909.647	11520
909.762	11509
909.878	11360
909.993	11467
910.108	11414
910.224	11493
910.339	11448
910.454	11353
910.57	11265
910.685	11189
910.8	11520
910.915	11509
911.03	11307
911.145	11261
911.259	11166
911.374	11189
911.489	11117
911.604	11056
911.718	10953
911.833	10900
911.947	10752
912.062	10809
912.176	10892
912.291	10957
912.405	10923
912.519	11060
912.633	11159
912.748	11018
912.862	10927
912.976	10790
913.09	10691
913.204	10854
913.318	10805
913.431	10949
913.545	10835
913.659	10915
913.772	10809
913.886	10679
914	10649
914.113	10850
914.226	10782
914.34	10755
914.453	10645
914.566	10714
914.68	10599
914.793	10664
914.906	10470
915.019	10367
915.132	10363
915.245	10382
915.358	10417
915.47	10478
915.583	10451
915.696	10489
915.809	10531
915.921	10569
916.034	10386
916.146	10306
916.259	10424
916.371	10478
916.483	10447
916.595	10329
916.708	10367
916.82	10352
916.932	10356
917.044	10337
917.156	10295
917.268	10215
917.38	10227
917.491	10173
917.603	10318
917.715	10284
917.826	10382
917.938	10158
918.049	10185
918.161	10291
918.272	10489
918.384	10371
918.495	10314
918.606	10051
918.717	10086
918.828	10150
918.939	10215
919.05	10109
919.161	10135
919.272	9983
919.383	10116
919.494	10249
919.604	10409
919.715	10215
919.826	10124
919.936	10150
920.047	10257
920.157	10192
920.267	10375
920.378	10242
920.488	10207
920.598	10344
920.708	10527
920.818	10363
920.928	10375
921.038	10462
921.148	10497
921.258	10211
921.368	10131
921.477	10112
921.587	9960
921.697	9934
921.806	10109
921.916	9888
922.025	9759
922.134	9797
922.244	9698
922.353	9762
922.462	9637
922.571	9553
922.68	9447
922.789	9370
922.898	9450
923.007	9389
923.116	9443
923.224	9408
923.333	9401
923.442	9260
923.55	9321
923.659	9397
923.767	9386
923.876	9184
923.984	9325
924.092	9199
924.201	9317
924.309	9268
924.417	9272
924.525	9188
924.633	9302
924.741	10082
924.849	9013
924.956	9127
925.064	9070
925.172	8933
925.279	9058
925.387	9066
925.494	9039
925.602	9249
925.709	9192
925.816	9009
925.924	9108
926.031	9097
926.138	9085
926.245	9108
926.352	9036
926.459	9142
926.566	9169
926.673	8994
926.779	8956
926.886	8971
926.993	8819
927.099	8853
927.206	8727
927.312	8712
927.419	8845
927.525	8800
927.631	8830
927.737	8610
927.843	8659
927.95	8549
928.056	8655
928.162	8697
928.267	8708
928.373	9256
928.479	8781
928.585	8579
928.69	8739
928.796	8788
928.901	8590
929.007	8533
929.112	8708
929.218	8587
929.323	8571
929.428	8446
929.533	8648
929.638	8408
929.743	8473
929.848	8594
929.953	8495
930.058	8423
930.163	8263
930.267	8324
930.372	8473
930.477	8195
930.581	8511
930.685	8358
930.79	8233
930.894	8202
930.998	8210
931.103	8298
931.207	8001
931.311	8001
931.415	7944
931.519	7742
931.623	7708
