Data from test_V78500241_191.txt Node
Date: Fri Mar 25 14:35:03 CST 2022
User: usil
Spectrometer: V785-0024
Trigger mode: 0
Integration Time (sec): 4.000000E-1
Scans to average: 1
Nonlinearity correction enabled: false
Boxcar width: 0
Storing dark spectrum: false
XAxis mode: Wavelengths
Number of Pixels in Spectrum: 1024
>>>>>Begin Spectral Data<<<<<
801.071	28238
801.214	28322
801.356	28093
801.499	27850
801.641	27884
801.783	27675
801.926	27667
802.068	27694
802.211	27580
802.353	27538
802.496	27382
802.638	27294
802.78	27329
802.923	27294
803.065	27283
803.208	27325
803.35	27195
803.492	27298
803.635	27393
803.777	27370
803.919	27401
804.061	27637
804.204	27287
804.346	27199
804.488	27108
804.63	27306
804.773	27195
804.915	27359
805.057	27310
805.199	27211
805.341	27340
805.483	27363
805.626	27287
805.768	27420
805.91	27469
806.052	27306
806.194	27268
806.336	27587
806.478	27496
806.62	27534
806.762	27401
806.904	27713
807.046	27816
807.188	27835
807.33	27873
807.472	27941
807.614	27930
807.756	27934
807.898	27934
808.04	27922
808.182	27994
808.324	28261
808.465	28341
808.607	28683
808.749	28820
808.891	28991
809.033	29083
809.174	28892
809.316	28790
809.458	28660
809.6	28508
809.741	28352
809.883	28200
810.025	28367
810.166	28249
810.308	28280
810.45	28246
810.591	28128
810.733	28013
810.875	27895
811.016	27827
811.158	27690
811.299	27793
811.441	27956
811.582	27846
811.724	27675
811.865	27827
812.007	27686
812.148	27747
812.29	27823
812.431	27949
812.573	28059
812.714	28048
812.855	28124
812.997	28344
813.138	28443
813.279	28363
813.421	28192
813.562	28249
813.703	28090
813.845	27838
813.986	27682
814.127	27359
814.268	27256
814.41	27325
814.551	27302
814.692	27245
814.833	27252
814.974	27222
815.115	27268
815.256	27165
815.397	27199
815.539	27268
815.68	26979
815.821	26902
815.962	27089
816.103	26940
816.244	26914
816.385	26796
816.526	26693
816.666	26492
816.807	26381
816.948	26343
817.089	26514
817.23	26286
817.371	26313
817.512	26530
817.653	26301
817.793	26256
817.934	26351
818.075	26221
818.216	26362
818.356	26294
818.497	26282
818.638	26054
818.778	25970
818.919	26031
819.06	26126
819.2	26290
819.341	26275
819.481	26145
819.622	26415
819.762	26480
819.903	26556
820.043	26427
820.184	26347
820.324	26339
820.465	26408
820.605	26309
820.746	26453
820.886	26237
821.026	26229
821.167	26172
821.307	26412
821.447	26332
821.588	26039
821.728	25864
821.868	25765
822.008	25780
822.149	25693
822.289	25632
822.429	25396
822.569	25312
822.709	25320
822.849	25088
822.99	25122
823.13	25095
823.27	24985
823.41	24954
823.55	24943
823.69	24878
823.83	24947
823.97	24787
824.11	24635
824.25	24601
824.389	24658
824.529	24787
824.669	24544
824.809	24856
824.949	24646
825.089	24951
825.228	24635
825.368	24429
825.508	24441
825.648	24456
825.787	24445
825.927	24437
826.067	24448
826.206	24448
826.346	24448
826.485	24486
826.625	24410
826.765	24631
826.904	24403
827.044	24342
827.183	24346
827.323	24110
827.462	24182
827.601	24262
827.741	24091
827.88	24148
828.02	23984
828.159	24022
828.298	24163
828.437	24125
828.577	24095
828.716	24190
828.855	24018
828.994	23802
829.134	23897
829.273	23897
829.412	23851
829.551	23745
829.69	23889
829.829	23809
829.968	23840
830.107	23817
830.246	23745
830.385	23703
830.524	23695
830.663	23630
830.802	23402
830.941	23398
831.08	23387
831.219	23395
831.357	23478
831.496	23497
831.635	23220
831.774	23349
831.913	23143
832.051	23140
832.19	23064
832.329	23162
832.467	22991
832.606	23029
832.744	23010
832.883	23067
833.022	23044
833.16	22995
833.299	23022
833.437	22911
833.576	23109
833.714	22984
833.852	23044
833.991	23056
834.129	23083
834.267	23124
834.406	22991
834.544	23037
834.682	23052
834.821	22999
834.959	23189
835.097	23014
835.235	23044
835.373	23086
835.511	23003
835.65	22862
835.788	22778
835.926	22847
836.064	22771
836.202	22607
836.34	22873
836.478	22869
836.615	22725
836.753	22797
836.891	22930
837.029	22892
837.167	22869
837.305	22820
837.443	22790
837.58	22702
837.718	22774
837.856	22649
837.993	22706
838.131	22691
838.269	22668
838.406	22687
838.544	22561
838.681	22352
838.819	22367
838.956	22074
839.094	22048
839.231	22154
839.369	22128
839.506	22379
839.643	22344
839.781	22021
839.918	21991
840.055	22025
840.193	21968
840.33	21945
840.467	21930
840.604	22116
840.742	22230
840.879	21774
841.016	21956
841.153	21835
841.29	21983
841.427	21953
841.564	22017
841.701	21922
841.838	21846
841.975	21816
842.112	21819
842.249	21736
842.385	21717
842.522	21907
842.659	21720
842.796	21698
842.933	21610
843.069	21625
843.206	21580
843.343	21671
843.479	21648
843.616	21633
843.752	21363
843.889	21408
844.025	21618
844.162	21389
844.298	21504
844.435	21545
844.571	21488
844.708	21428
844.844	21679
844.98	21690
845.117	21637
845.253	21477
845.389	21488
845.525	21637
845.661	22013
845.798	22200
845.934	22599
846.07	22698
846.206	22660
846.342	22474
846.478	22010
846.614	21462
846.75	21252
846.886	21009
847.022	21009
847.158	20990
847.294	20925
847.429	21051
847.565	20902
847.701	21165
847.837	20701
847.972	20526
848.108	20629
848.244	20644
848.379	20431
848.515	20393
848.65	20343
848.786	20355
848.921	20518
849.057	20514
849.192	20473
849.328	20476
849.463	20389
849.598	20332
849.734	20263
849.869	20191
850.004	20259
850.14	20199
850.275	20176
850.41	19986
850.545	20187
850.68	20195
850.815	20172
850.95	20092
851.085	20320
851.22	20153
851.355	20214
851.49	20027
851.625	20161
851.76	20065
851.895	20134
852.03	19883
852.165	20149
852.299	20252
852.434	20218
852.569	20168
852.703	20088
852.838	20062
852.973	20248
853.107	20301
853.242	20092
853.376	19852
853.511	19845
853.645	19845
853.78	20176
853.914	19974
854.048	19967
854.183	19925
854.317	19906
854.451	20172
854.585	20035
854.72	19898
854.854	20005
854.988	19845
855.122	19807
855.256	19799
855.39	19811
855.524	19830
855.658	19959
855.792	19951
855.926	19868
856.06	19864
856.194	19955
856.327	19898
856.461	19902
856.595	19822
856.729	19868
856.862	20024
856.996	19860
857.13	19936
857.263	19982
857.397	19978
857.53	19841
857.664	19925
857.797	20027
857.931	20046
858.064	19849
858.197	20065
858.331	19852
858.464	19765
858.597	19799
858.731	19742
858.864	19849
858.997	19746
859.13	19803
859.263	19681
859.396	19963
859.529	19750
859.662	19780
859.795	19795
859.928	19830
860.061	19902
860.194	19986
860.327	19833
860.46	19856
860.592	20008
860.725	20024
860.858	19906
860.99	19879
861.123	19643
861.256	19715
861.388	19788
861.521	20358
861.653	19822
861.786	19708
861.918	19670
862.05	19868
862.183	19871
862.315	19791
862.447	19784
862.58	19826
862.712	19594
862.844	19476
862.976	19708
863.108	19632
863.24	19989
863.372	19533
863.504	19537
863.636	19483
863.768	19609
863.9	19540
864.032	19430
864.164	19548
864.296	19620
864.428	19670
864.559	19540
864.691	19624
864.823	19502
864.954	19548
865.086	19594
865.217	19495
865.349	19346
865.48	19373
865.612	19483
865.743	19578
865.875	19362
866.006	19381
866.137	19438
866.269	19495
866.4	19301
866.531	19388
866.662	19339
866.793	19331
866.924	19369
867.055	19518
867.186	19457
867.317	19301
867.448	19331
867.579	19320
867.71	19274
867.841	19327
867.972	19369
868.103	19388
868.233	19362
868.364	19362
868.495	19537
868.625	19613
868.756	19597
868.886	19594
869.017	19597
869.147	19704
869.278	19727
869.408	19578
869.539	19624
869.669	19753
869.799	19696
869.929	19723
870.06	19674
870.19	19913
870.32	19978
870.45	19894
870.58	20012
870.71	20161
870.84	20115
870.97	20020
871.1	19970
871.23	20267
871.36	20183
871.489	20172
871.619	20138
871.749	20107
871.879	20187
872.008	20271
872.138	20252
872.267	20164
872.397	20138
872.526	19986
872.656	20065
872.785	19974
872.915	20259
873.044	20358
873.173	20240
873.303	20290
873.432	20278
873.561	20305
873.69	20244
873.819	20168
873.948	20415
874.077	20317
874.206	20259
874.335	20298
874.464	20381
874.593	20545
874.722	20473
874.851	20511
874.979	20606
875.108	20522
875.237	20415
875.365	20457
875.494	20412
875.623	20629
875.751	20499
875.88	20579
876.008	20727
876.136	20769
876.265	20868
876.393	21089
876.521	21108
876.65	20941
876.778	20895
876.906	20967
877.034	20880
877.162	20986
877.29	20941
877.418	21047
877.546	20933
877.674	20948
877.802	20948
877.93	20891
878.058	20880
878.185	20895
878.313	20948
878.441	21032
878.568	20956
878.696	20906
878.824	21100
878.951	21241
879.079	21348
879.206	21629
879.333	21587
879.461	21587
879.588	21781
879.715	21835
879.842	21789
879.97	21507
880.097	21093
880.224	20975
880.351	21180
880.478	21058
880.605	20895
880.732	20952
880.859	21062
880.986	20864
881.112	20929
881.239	20811
881.366	20609
881.493	20640
881.619	20587
881.746	20530
881.872	20526
881.999	20495
882.125	20400
882.252	20530
882.378	20446
882.505	20670
882.631	20530
882.757	20305
882.883	20336
883.01	20396
883.136	20229
883.262	20263
883.388	20096
883.514	20275
883.64	20336
883.766	20248
883.892	20100
884.018	19993
884.143	20240
884.269	20278
884.395	20142
884.52	19883
884.646	19989
884.772	19803
884.897	19727
885.023	19974
885.148	20001
885.274	20103
885.399	19849
885.524	19830
885.65	19963
885.775	19883
885.9	19791
886.025	19982
886.15	19909
886.275	19818
886.4	19734
886.525	19799
886.65	19715
886.775	19670
886.9	19925
887.025	19970
887.149	19746
887.274	19472
887.399	19525
887.523	19559
887.648	19597
887.773	19514
887.897	19537
888.021	19693
888.146	19521
888.27	19597
888.395	19704
888.519	19533
888.643	19632
888.767	19601
888.891	19430
889.015	19320
889.139	19335
889.263	19270
889.387	19449
889.511	19597
889.635	19422
889.759	19339
889.883	19225
890.006	19202
890.13	19430
890.254	19118
890.377	19175
890.501	19027
890.624	19015
890.748	19088
890.871	18890
890.995	18951
891.118	18833
891.241	18951
891.364	18878
891.488	19034
891.611	18947
891.734	18981
891.857	18928
891.98	18909
892.103	18935
892.226	19023
892.349	18897
892.471	18677
892.594	18783
892.717	18909
892.839	18776
892.962	18817
893.085	18776
893.207	18837
893.33	18745
893.452	18688
893.575	18878
893.697	18703
893.819	18886
893.941	19091
894.064	18943
894.186	18757
894.308	18814
894.43	18932
894.552	19050
894.674	18901
894.796	18696
894.918	18703
895.04	18802
895.161	18684
895.283	18844
895.405	18669
895.526	18810
895.648	18779
895.769	18867
895.891	18928
896.012	19008
896.134	18821
896.255	18798
896.376	18787
896.498	18886
896.619	18840
896.74	18928
896.861	18973
896.982	19247
897.103	19331
897.224	19232
897.345	19080
897.466	19050
897.587	19080
897.708	19244
897.828	19099
897.949	19042
898.07	18958
898.19	19042
898.311	19069
898.431	19004
898.552	19080
898.672	19240
898.792	19080
898.913	19046
899.033	18970
899.153	18859
899.273	18787
899.393	18787
899.513	18760
899.633	18795
899.753	19057
899.873	18871
899.993	18863
900.113	18924
900.232	18844
900.352	18738
900.472	18681
900.591	18544
900.711	18738
900.83	18540
900.95	18795
901.069	18772
901.189	18582
901.308	18388
901.427	18300
901.546	18319
901.665	18330
901.784	18292
901.904	18098
902.023	18064
902.141	17931
902.26	17809
902.379	17840
902.498	17783
902.617	17733
902.735	17718
902.854	17722
902.973	17672
903.091	17395
903.21	17482
903.328	17425
903.446	17368
903.565	17159
903.683	17269
903.801	17212
903.919	17220
904.038	17231
904.156	16957
904.274	17071
904.392	16987
904.51	16942
904.627	17064
904.745	17029
904.863	16972
904.981	16793
905.098	16618
905.216	16554
905.334	16653
905.451	16573
905.569	16500
905.686	16599
905.803	16535
905.921	16413
906.038	16508
906.155	16409
906.272	16329
906.389	16303
906.506	16112
906.623	16139
906.74	16143
906.857	16131
906.974	16158
907.091	16109
907.208	16306
907.324	16238
907.441	15949
907.557	15827
907.674	15937
907.79	15850
907.907	15873
908.023	15827
908.139	15781
908.256	15774
908.372	15732
908.488	15736
908.604	15538
908.72	15564
908.836	15618
908.952	15431
909.068	15584
909.184	15606
909.3	15515
909.415	15603
909.531	15523
909.647	15348
909.762	15241
909.878	15142
909.993	15252
910.108	15173
910.224	15157
910.339	15272
910.454	15123
910.57	15032
910.685	15028
910.8	15241
910.915	15180
911.03	14982
911.145	14948
911.259	14743
911.374	14788
911.489	14727
911.604	14659
911.718	14674
911.833	14632
911.947	14461
912.062	14404
912.176	14575
912.291	14492
912.405	14522
912.519	14724
912.633	14781
912.748	14598
912.862	14545
912.976	14434
913.09	14305
913.204	14454
913.318	14370
913.431	14343
913.545	14473
913.659	14537
913.772	14454
913.886	14157
914	14214
914.113	14328
914.226	14396
914.34	14259
914.453	14119
914.566	14221
914.68	14157
914.793	14065
914.906	13955
915.019	13890
915.132	13753
915.245	13868
915.358	13906
915.47	13856
915.583	13906
915.696	13932
915.809	13967
915.921	13989
916.034	13837
916.146	13811
916.259	13811
916.371	13890
916.483	13837
916.595	13845
916.708	13784
916.82	13769
916.932	13731
917.044	13693
917.156	13632
917.268	13518
917.38	13514
917.491	13514
917.603	13632
917.715	13616
917.826	13700
917.938	13468
918.049	13445
918.161	13476
918.272	13715
918.384	13685
918.495	13434
918.606	13392
918.717	13354
918.828	13320
918.939	13415
919.05	13312
919.161	13289
919.272	13129
919.383	13149
919.494	13381
919.604	13514
919.715	13350
919.826	13213
919.936	13221
920.047	13381
920.157	13327
920.267	13453
920.378	13320
920.488	13198
920.598	13472
920.708	13620
920.818	13403
920.928	13434
921.038	13556
921.148	13499
921.258	13251
921.368	13183
921.477	13133
921.587	13042
921.697	12909
921.806	13080
921.916	12962
922.025	12722
922.134	12760
922.244	12749
922.353	12711
922.462	12528
922.571	12414
922.68	12448
922.789	12338
922.898	12372
923.007	12311
923.116	12372
923.224	12414
923.333	12285
923.442	12232
923.55	12163
923.659	12300
923.767	12239
923.876	12133
923.984	12254
924.092	12121
924.201	12178
924.309	12133
924.417	12190
924.525	12079
924.633	12022
924.741	12954
924.849	11878
924.956	11992
925.064	11821
925.172	11824
925.279	11840
925.387	11813
925.494	11779
925.602	11931
925.709	11874
925.816	11752
925.924	11828
926.031	11958
926.138	11798
926.245	11908
926.352	11653
926.459	11821
926.566	11912
926.673	11764
926.779	11581
926.886	11642
926.993	11398
927.099	11444
927.206	11387
927.312	11433
927.419	11402
927.525	11410
927.631	11395
927.737	11391
927.843	11292
927.95	11189
928.056	11261
928.162	11258
928.267	11349
928.373	11939
928.479	11292
928.585	11178
928.69	11201
928.796	11143
928.901	11147
929.007	11033
929.112	11083
929.218	11113
929.323	11022
929.428	11045
929.533	11113
929.638	11010
929.743	10889
929.848	11003
929.953	11037
930.058	10927
930.163	10759
930.267	10755
930.372	10934
930.477	10577
930.581	10862
930.685	10736
930.79	10634
930.894	10694
930.998	10611
931.103	10729
931.207	10375
931.311	10310
931.415	10219
931.519	10086
931.623	9998
