Data from test_V78500241_1520.txt Node
Date: Fri Mar 25 14:44:17 CST 2022
User: usil
Spectrometer: V785-0024
Trigger mode: 0
Integration Time (sec): 4.000000E-1
Scans to average: 1
Nonlinearity correction enabled: false
Boxcar width: 0
Storing dark spectrum: false
XAxis mode: Wavelengths
Number of Pixels in Spectrum: 1024
>>>>>Begin Spectral Data<<<<<
801.071	22436
801.214	22299
801.356	21991
801.499	21827
801.641	21778
801.783	21701
801.926	21724
802.068	21606
802.211	21663
802.353	21625
802.496	21329
802.638	21317
802.78	21192
802.923	21165
803.065	21157
803.208	21096
803.35	21135
803.492	21195
803.635	21275
803.777	21070
803.919	21256
804.061	21443
804.204	21214
804.346	21116
804.488	20948
804.63	21024
804.773	21055
804.915	21119
805.057	21184
805.199	21036
805.341	21108
805.483	21268
805.626	21062
805.768	20956
805.91	21001
806.052	21036
806.194	21032
806.336	20998
806.478	21077
806.62	20960
806.762	20986
806.904	21211
807.046	21393
807.188	21325
807.33	21363
807.472	21408
807.614	21412
807.756	21458
807.898	21203
808.04	21062
808.182	21173
808.324	21214
808.465	21291
808.607	21477
808.749	21603
808.891	21629
809.033	21884
809.174	21679
809.316	21538
809.458	21530
809.6	21576
809.741	21629
809.883	21591
810.025	21568
810.166	21682
810.308	21603
810.45	21469
810.591	21485
810.733	21492
810.875	21260
811.016	21180
811.158	21096
811.299	21294
811.441	21348
811.582	21329
811.724	21226
811.865	21142
812.007	21169
812.148	21146
812.29	21192
812.431	21378
812.573	21439
812.714	21698
812.855	21800
812.997	21869
813.138	21972
813.279	21827
813.421	21842
813.562	21485
813.703	21530
813.845	21321
813.986	21142
814.127	20800
814.268	20899
814.41	20864
814.551	20861
814.692	20853
814.833	20705
814.974	20785
815.115	20746
815.256	20518
815.397	20583
815.539	20674
815.68	20549
815.821	20374
815.962	20503
816.103	20465
816.244	20343
816.385	20229
816.526	20153
816.666	20020
816.807	20005
816.948	20084
817.089	20119
817.23	19974
817.371	19902
817.512	19871
817.653	19818
817.793	19871
817.934	19849
818.075	19814
818.216	19917
818.356	19875
818.497	19753
818.638	19609
818.778	19655
818.919	19586
819.06	19624
819.2	19639
819.341	19727
819.481	19742
819.622	19955
819.762	20084
819.903	19970
820.043	19909
820.184	19811
820.324	20043
820.465	19902
820.605	19898
820.746	19780
820.886	19693
821.026	19864
821.167	19795
821.307	19875
821.447	19788
821.588	19757
821.728	19700
821.868	19544
822.008	19293
822.149	19240
822.289	19312
822.429	19065
822.569	19050
822.709	18985
822.849	18734
822.99	18795
823.13	18722
823.27	18745
823.41	18631
823.55	18532
823.69	18540
823.83	18646
823.97	18494
824.11	18365
824.25	18357
824.389	18350
824.529	18399
824.669	18319
824.809	18502
824.949	18494
825.089	18338
825.228	18437
825.368	18220
825.508	18243
825.648	18205
825.787	18190
825.927	18216
826.067	18148
826.206	18114
826.346	18247
826.485	18053
826.625	18136
826.765	18220
826.904	18228
827.044	17954
827.183	17939
827.323	17847
827.462	17840
827.601	17828
827.741	17775
827.88	17840
828.02	17752
828.159	17783
828.298	17992
828.437	17897
828.577	17794
828.716	17912
828.855	17805
828.994	17627
829.134	17668
829.273	17611
829.412	17573
829.551	17539
829.69	17657
829.829	17699
829.968	17805
830.107	17608
830.246	17649
830.385	17573
830.524	17452
830.663	17410
830.802	17318
830.941	17136
831.08	17151
831.219	17265
831.357	17246
831.496	17421
831.635	17246
831.774	17155
831.913	17132
832.051	16946
832.19	16896
832.329	17010
832.467	16889
832.606	16778
832.744	16915
832.883	16847
833.022	16854
833.16	16873
833.299	16889
833.437	16949
833.576	16976
833.714	16927
833.852	16980
833.991	17029
834.129	16976
834.267	17006
834.406	16976
834.544	16938
834.682	16908
834.821	16972
834.959	17022
835.097	16908
835.235	16927
835.373	16904
835.511	16987
835.65	16755
835.788	16812
835.926	16687
836.064	16622
836.202	16763
836.34	16869
836.478	16862
836.615	16839
836.753	16847
836.891	16934
837.029	16881
837.167	16828
837.305	16672
837.443	16656
837.58	16653
837.718	16778
837.856	16736
837.993	16645
838.131	16656
838.269	16691
838.406	16603
838.544	16561
838.681	16413
838.819	16341
838.956	16200
839.094	16230
839.231	16325
839.369	16329
839.506	16649
839.643	16542
839.781	16207
839.918	16219
840.055	16173
840.193	16211
840.33	16200
840.467	16265
840.604	16261
840.742	16455
840.879	16074
841.016	16051
841.153	16185
841.29	16402
841.427	16265
841.564	16344
841.701	16211
841.838	16185
841.975	16055
842.112	16131
842.249	16021
842.385	16071
842.522	16116
842.659	16063
842.796	15998
842.933	15956
843.069	15972
843.206	15934
843.343	16112
843.479	16044
843.616	16116
843.752	15709
843.889	15800
844.025	15941
844.162	15797
844.298	15850
844.435	15789
844.571	15675
844.708	15812
844.844	15960
844.98	15941
845.117	15907
845.253	15751
845.389	15736
845.525	15785
845.661	15755
845.798	15831
845.934	15857
846.07	15743
846.206	15831
846.342	15876
846.478	15633
846.614	15580
846.75	15298
846.886	15424
847.022	15526
847.158	15310
847.294	15439
847.429	15431
847.565	15340
847.701	15572
847.837	15036
847.972	14963
848.108	15230
848.244	15150
848.379	15043
848.515	14925
848.65	14899
848.786	15001
848.921	14960
849.057	14982
849.192	15074
849.328	14952
849.463	14925
849.598	14887
849.734	14883
849.869	14982
850.004	14693
850.14	14792
850.275	14682
850.41	14594
850.545	14708
850.68	14625
850.815	14750
850.95	14659
851.085	14941
851.22	14743
851.355	14781
851.49	14708
851.625	14762
851.76	14777
851.895	14648
852.03	14613
852.165	14758
852.299	14697
852.434	14750
852.569	14773
852.703	14743
852.838	14785
852.973	14918
853.107	14838
853.242	14621
853.376	14701
853.511	14461
853.645	14613
853.78	14689
853.914	14541
854.048	14507
854.183	14556
854.317	14602
854.451	14765
854.585	14541
854.72	14533
854.854	14689
854.988	14431
855.122	14446
855.256	14396
855.39	14511
855.524	14659
855.658	14621
855.792	14617
855.926	14613
856.06	14571
856.194	14746
856.327	14552
856.461	14537
856.595	14564
856.729	14511
856.862	14667
856.996	14712
857.13	14629
857.263	14769
857.397	14678
857.53	14594
857.664	14762
857.797	14701
857.931	14636
858.064	14686
858.197	14678
858.331	14541
858.464	14454
858.597	14499
858.731	14587
858.864	14564
858.997	14511
859.13	14583
859.263	14644
859.396	14640
859.529	14495
859.662	14492
859.795	14583
859.928	14625
860.061	14746
860.194	14758
860.327	14644
860.46	14583
860.592	14739
860.725	14735
860.858	14750
860.99	14659
861.123	14526
861.256	14541
861.388	14560
861.521	15173
861.653	14408
861.786	14343
861.918	14431
862.05	14575
862.183	14484
862.315	14560
862.447	14644
862.58	14465
862.712	14259
862.844	14328
862.976	14393
863.108	14507
863.24	14796
863.372	14259
863.504	14393
863.636	14415
863.768	14431
863.9	14396
864.032	14256
864.164	14366
864.296	14415
864.428	14476
864.559	14381
864.691	14396
864.823	14366
864.954	14396
865.086	14339
865.217	14244
865.349	14244
865.48	14351
865.612	14408
865.743	14469
865.875	14282
866.006	14282
866.137	14389
866.269	14404
866.4	14305
866.531	14358
866.662	14252
866.793	14256
866.924	14233
867.055	14381
867.186	14305
867.317	14229
867.448	14233
867.579	14282
867.71	14240
867.841	14320
867.972	14271
868.103	14320
868.233	14267
868.364	14336
868.495	14457
868.625	14549
868.756	14693
868.886	14480
869.017	14511
869.147	14663
869.278	14754
869.408	14651
869.539	14689
869.669	14632
869.799	14625
869.929	14674
870.06	14705
870.19	14826
870.32	14864
870.45	15020
870.58	14944
870.71	15043
870.84	15097
870.97	14876
871.1	14944
871.23	15203
871.36	15237
871.489	15108
871.619	15062
871.749	15100
871.879	15207
872.008	15264
872.138	15188
872.267	15214
872.397	14948
872.526	15001
872.656	15032
872.785	15036
872.915	15222
873.044	15241
873.173	15252
873.303	15272
873.432	15348
873.561	15317
873.69	15169
873.819	15176
873.948	15306
874.077	15218
874.206	15150
874.335	15249
874.464	15344
874.593	15542
874.722	15447
874.851	15637
874.979	15618
875.108	15580
875.237	15561
875.365	15405
875.494	15542
875.623	15587
875.751	15526
875.88	15591
876.008	15709
876.136	15701
876.265	16025
876.393	16025
876.521	15968
876.65	16006
876.778	15960
876.906	15968
877.034	15888
877.162	15895
877.29	15899
877.418	15930
877.546	15884
877.674	15926
877.802	15888
877.93	16074
878.058	15907
878.185	15713
878.313	15907
878.441	16044
878.568	15739
878.696	15937
878.824	15983
878.951	15941
879.079	16120
879.206	16207
879.333	16291
879.461	16158
879.588	16082
879.715	16162
879.842	16265
879.97	16105
880.097	15808
880.224	15747
880.351	15835
880.478	15857
880.605	15846
880.732	15720
880.859	16101
880.986	15861
881.112	15941
881.239	15679
881.366	15584
881.493	15500
881.619	15447
881.746	15515
881.872	15435
881.999	15477
882.125	15393
882.252	15431
882.378	15500
882.505	15542
882.631	15378
882.757	15279
882.883	15340
883.01	15359
883.136	15207
883.262	15089
883.388	15173
883.514	15332
883.64	15283
883.766	15241
883.892	15058
884.018	15051
884.143	15287
884.269	15329
884.395	15077
884.52	14975
884.646	15024
884.772	14910
884.897	14902
885.023	14899
885.148	15051
885.274	15062
885.399	15043
885.524	15001
885.65	14948
885.775	14956
885.9	15005
886.025	15055
886.15	15058
886.275	14876
886.4	14899
886.525	14929
886.65	14864
886.775	14910
886.9	15097
887.025	15165
887.149	14967
887.274	14750
887.399	14891
887.523	14777
887.648	14754
887.773	14708
887.897	14788
888.021	14910
888.146	14769
888.27	14891
888.395	14914
888.519	14807
888.643	14876
888.767	14880
888.891	14644
889.015	14667
889.139	14617
889.263	14640
889.387	14743
889.511	14857
889.635	14804
889.759	14606
889.883	14670
890.006	14629
890.13	14758
890.254	14499
890.377	14632
890.501	14526
890.624	14552
890.748	14484
890.871	14396
890.995	14259
891.118	14313
891.241	14450
891.364	14377
891.488	14423
891.611	14286
891.734	14358
891.857	14385
891.98	14484
892.103	14499
892.226	14332
892.349	14313
892.471	14240
892.594	14267
892.717	14431
892.839	14301
892.962	14282
893.085	14339
893.207	14301
893.33	14134
893.452	14317
893.575	14336
893.697	14278
893.819	14495
893.941	14533
894.064	14530
894.186	14320
894.308	14278
894.43	14427
894.552	14503
894.674	14465
894.796	14332
894.918	14370
895.04	14450
895.161	14484
895.283	14415
895.405	14240
895.526	14419
895.648	14488
895.769	14480
895.891	14571
896.012	14533
896.134	14473
896.255	14560
896.376	14431
896.498	14507
896.619	14541
896.74	14488
896.861	14560
896.982	14807
897.103	14990
897.224	14804
897.345	14712
897.466	14716
897.587	14769
897.708	14929
897.828	14815
897.949	14727
898.07	14644
898.19	14754
898.311	14906
898.431	14788
898.552	14849
898.672	14975
898.792	15009
898.913	14914
899.033	14750
899.153	14727
899.273	14545
899.393	14682
899.513	14716
899.633	14708
899.753	14720
899.873	14686
899.993	14834
900.113	14655
900.232	14689
900.352	14667
900.472	14606
900.591	14476
900.711	14610
900.83	14545
900.95	14598
901.069	14746
901.189	14499
901.308	14309
901.427	14183
901.546	14195
901.665	14237
901.784	14244
901.904	14046
902.023	13974
902.141	13852
902.26	13799
902.379	13765
902.498	13784
902.617	13681
902.735	13837
902.854	13738
902.973	13704
903.091	13533
903.21	13548
903.328	13556
903.446	13457
903.565	13304
903.683	13343
903.801	13297
903.919	13274
904.038	13381
904.156	13137
904.274	13255
904.392	13110
904.51	13225
904.627	13217
904.745	13149
904.863	13247
904.981	12989
905.098	12875
905.216	12878
905.334	12890
905.451	12837
905.569	12783
905.686	12932
905.803	12825
905.921	12753
906.038	12779
906.155	12726
906.272	12650
906.389	12650
906.506	12407
906.623	12437
906.74	12486
906.857	12384
906.974	12418
907.091	12566
907.208	12540
907.324	12437
907.441	12471
907.557	12220
907.674	12163
907.79	12072
907.907	12106
908.023	12194
908.139	12243
908.256	12114
908.372	12148
908.488	12041
908.604	12026
908.72	11885
908.836	12038
908.952	11885
909.068	12011
909.184	12049
909.3	11954
909.415	11889
909.531	11980
909.647	11752
909.762	11729
909.878	11699
909.993	11760
910.108	11688
910.224	11710
910.339	11745
910.454	11547
910.57	11589
910.685	11459
910.8	11748
910.915	11748
911.03	11596
911.145	11448
911.259	11292
911.374	11395
911.489	11311
911.604	11318
911.718	11174
911.833	11155
911.947	11090
912.062	11022
912.176	11086
912.291	11162
912.405	11250
912.519	11398
912.633	11383
912.748	11239
912.862	11185
912.976	11117
913.09	10949
913.204	10991
913.318	11029
913.431	11079
913.545	11029
913.659	11208
913.772	11056
913.886	10991
914	10831
914.113	11094
914.226	11067
914.34	10987
914.453	10843
914.566	10965
914.68	10736
914.793	10862
914.906	10675
915.019	10630
915.132	10645
915.245	10622
915.358	10683
915.47	10736
915.583	10668
915.696	10706
915.809	10748
915.921	10778
916.034	10672
916.146	10622
916.259	10569
916.371	10698
916.483	10596
916.595	10550
916.708	10592
916.82	10542
916.932	10584
917.044	10538
917.156	10592
917.268	10500
917.38	10500
917.491	10489
917.603	10558
917.715	10637
917.826	10527
917.938	10493
918.049	10405
918.161	10508
918.272	10702
918.384	10660
918.495	10542
918.606	10363
918.717	10185
918.828	10363
918.939	10325
919.05	10299
919.161	10428
919.272	10154
919.383	10204
919.494	10436
919.604	10542
919.715	10398
919.826	10379
919.936	10379
920.047	10481
920.157	10432
920.267	10573
920.378	10405
920.488	10299
920.598	10588
920.708	10679
920.818	10561
920.928	10508
921.038	10774
921.148	10679
921.258	10394
921.368	10344
921.477	10234
921.587	10257
921.697	10192
921.806	10196
921.916	10112
922.025	9926
922.134	9930
922.244	9869
922.353	9941
922.462	9785
922.571	9827
922.68	9671
922.789	9595
922.898	9595
923.007	9580
923.116	9614
923.224	9629
923.333	9572
923.442	9466
923.55	9545
923.659	9492
923.767	9584
923.876	9443
923.984	9618
924.092	9389
924.201	9439
924.309	9481
924.417	9530
924.525	9500
924.633	9466
924.741	10310
924.849	9233
924.956	9408
925.064	9214
925.172	9108
925.279	9188
925.387	9310
925.494	9268
925.602	9488
925.709	9374
925.816	9272
925.924	9310
926.031	9302
926.138	9306
926.245	9306
926.352	9188
926.459	9359
926.566	9283
926.673	9173
926.779	9135
926.886	9112
926.993	9005
927.099	8971
927.206	8956
927.312	8902
927.419	8998
927.525	8963
927.631	8979
927.737	8906
927.843	8845
927.95	8781
928.056	8864
928.162	8834
928.267	8967
928.373	9405
928.479	9009
928.585	8739
928.69	8811
928.796	8876
928.901	8792
929.007	8625
929.112	8834
929.218	8758
929.323	8712
929.428	8697
929.533	8876
929.638	8667
929.743	8632
929.848	8727
929.953	8632
930.058	8594
930.163	8465
930.267	8499
930.372	8621
930.477	8446
930.581	8716
930.685	8408
930.79	8465
930.894	8484
930.998	8396
931.103	8537
931.207	8180
931.311	8130
931.415	8130
931.519	7925
931.623	7906
