Data from test_V78500241_3458.txt Node
Date: Fri Mar 25 14:57:47 CST 2022
User: usil
Spectrometer: V785-0024
Trigger mode: 0
Integration Time (sec): 4.000000E-1
Scans to average: 1
Nonlinearity correction enabled: false
Boxcar width: 0
Storing dark spectrum: false
XAxis mode: Wavelengths
Number of Pixels in Spectrum: 1024
>>>>>Begin Spectral Data<<<<<
801.071	22128
801.214	21808
801.356	21587
801.499	21538
801.641	21321
801.783	21252
801.926	21302
802.068	21226
802.211	21188
802.353	21176
802.496	20743
802.638	20815
802.78	20811
802.923	20754
803.065	20537
803.208	20583
803.35	20659
803.492	20587
803.635	20682
803.777	20606
803.919	20636
804.061	20963
804.204	20811
804.346	20484
804.488	20419
804.63	20518
804.773	20492
804.915	20587
805.057	20621
805.199	20495
805.341	20575
805.483	20670
805.626	20552
805.768	20484
805.91	20469
806.052	20530
806.194	20564
806.336	20697
806.478	20473
806.62	20377
806.762	20579
806.904	20621
807.046	21062
807.188	20792
807.33	20689
807.472	20960
807.614	20739
807.756	20716
807.898	20678
808.04	20575
808.182	20511
808.324	20674
808.465	20670
808.607	20720
808.749	20727
808.891	20986
809.033	21043
809.174	20944
809.316	20800
809.458	20842
809.6	20834
809.741	20925
809.883	20910
810.025	21036
810.166	21032
810.308	20982
810.45	20921
810.591	20872
810.733	20720
810.875	20670
811.016	20564
811.158	20587
811.299	20727
811.441	20705
811.582	20765
811.724	20651
811.865	20644
812.007	20640
812.148	20571
812.29	20682
812.431	20834
812.573	20990
812.714	21024
812.855	21203
812.997	21135
813.138	21386
813.279	21188
813.421	21055
813.562	20891
813.703	20864
813.845	20762
813.986	20514
814.127	20362
814.268	20332
814.41	20244
814.551	20081
814.692	20317
814.833	20096
814.974	20195
815.115	20275
815.256	19898
815.397	19959
815.539	20088
815.68	19875
815.821	19852
815.962	19959
816.103	19807
816.244	19731
816.385	19639
816.526	19575
816.666	19483
816.807	19251
816.948	19438
817.089	19434
817.23	19392
817.371	19316
817.512	19339
817.653	19240
817.793	19221
817.934	19236
818.075	19449
818.216	19400
818.356	19289
818.497	19198
818.638	18943
818.778	19042
818.919	18989
819.06	19023
819.2	19274
819.341	19133
819.481	19141
819.622	19350
819.762	19407
819.903	19430
820.043	19373
820.184	19335
820.324	19278
820.465	19320
820.605	19293
820.746	19240
820.886	19160
821.026	19240
821.167	19308
821.307	19293
821.447	19129
821.588	19107
821.728	18863
821.868	18901
822.008	18715
822.149	18753
822.289	18745
822.429	18403
822.569	18376
822.709	18433
822.849	18178
822.99	18232
823.13	18243
823.27	18136
823.41	18011
823.55	17889
823.69	17973
823.83	18011
823.97	17977
824.11	17813
824.25	17627
824.389	17760
824.529	17908
824.669	17764
824.809	17885
824.949	17817
825.089	17878
825.228	17866
825.368	17619
825.508	17452
825.648	17634
825.787	17585
825.927	17596
826.067	17570
826.206	17501
826.346	17391
826.485	17558
826.625	17520
826.765	17691
826.904	17558
827.044	17429
827.183	17162
827.323	17117
827.462	17383
827.601	17360
827.741	17170
827.88	17208
828.02	17140
828.159	17159
828.298	17227
828.437	17356
828.577	17220
828.716	17425
828.855	17185
828.994	17037
829.134	17067
829.273	17140
829.412	16976
829.551	16869
829.69	16946
829.829	17109
829.968	17117
830.107	17029
830.246	17025
830.385	16915
830.524	16900
830.663	16786
830.802	16755
830.941	16664
831.08	16649
831.219	16679
831.357	16611
831.496	16866
831.635	16660
831.774	16466
831.913	16554
832.051	16284
832.19	16398
832.329	16554
832.467	16360
832.606	16204
832.744	16219
832.883	16379
833.022	16230
833.16	16325
833.299	16242
833.437	16390
833.576	16405
833.714	16390
833.852	16417
833.991	16337
834.129	16379
834.267	16382
834.406	16379
834.544	16428
834.682	16421
834.821	16413
834.959	16466
835.097	16409
835.235	16500
835.373	16398
835.511	16375
835.65	16276
835.788	16314
835.926	16169
836.064	16017
836.202	16017
836.34	16363
836.478	16257
836.615	16276
836.753	16402
836.891	16428
837.029	16268
837.167	16253
837.305	16242
837.443	16238
837.58	16086
837.718	16329
837.856	16268
837.993	16177
838.131	16139
838.269	16200
838.406	16105
838.544	16059
838.681	15808
838.819	15846
838.956	15755
839.094	15736
839.231	15774
839.369	15899
839.506	16185
839.643	15911
839.781	15739
839.918	15618
840.055	15759
840.193	15736
840.33	15739
840.467	15717
840.604	15789
840.742	15998
840.879	15637
841.016	15652
841.153	15698
841.29	15823
841.427	15816
841.564	15770
841.701	15705
841.838	15667
841.975	15622
842.112	15618
842.249	15538
842.385	15492
842.522	15641
842.659	15507
842.796	15511
842.933	15485
843.069	15542
843.206	15534
843.343	15587
843.479	15557
843.616	15557
843.752	15294
843.889	15256
844.025	15450
844.162	15241
844.298	15313
844.435	15306
844.571	15306
844.708	15310
844.844	15428
844.98	15473
845.117	15469
845.253	15214
845.389	15264
845.525	15233
845.661	15256
845.798	15161
845.934	15245
846.07	15123
846.206	15226
846.342	15317
846.478	15138
846.614	14899
846.75	14845
846.886	14838
847.022	14979
847.158	14845
847.294	14883
847.429	14921
847.565	14910
847.701	15081
847.837	14575
847.972	14526
848.108	14731
848.244	14762
848.379	14503
848.515	14526
848.65	14419
848.786	14480
848.921	14473
849.057	14492
849.192	14549
849.328	14454
849.463	14454
849.598	14400
849.734	14488
849.869	14313
850.004	14320
850.14	14282
850.275	14202
850.41	14294
850.545	14240
850.68	14218
850.815	14210
850.95	14214
851.085	14370
851.22	14332
851.355	14221
851.49	14225
851.625	14256
851.76	14195
851.895	14157
852.03	14164
852.165	14218
852.299	14278
852.434	14328
852.569	14240
852.703	14252
852.838	14347
852.973	14389
853.107	14298
853.242	14229
853.376	14176
853.511	14073
853.645	14096
853.78	14161
853.914	14065
854.048	14100
854.183	14081
854.317	14103
854.451	14301
854.585	14123
854.72	14065
854.854	14157
854.988	13986
855.122	14176
855.256	13974
855.39	14088
855.524	14191
855.658	14157
855.792	14012
855.926	14123
856.06	14183
856.194	14218
856.327	14126
856.461	14088
856.595	14050
856.729	14096
856.862	14199
856.996	14149
857.13	14142
857.263	14161
857.397	14294
857.53	14161
857.664	14168
857.797	14145
857.931	14282
858.064	14180
858.197	14195
858.331	14107
858.464	14069
858.597	13887
858.731	14100
858.864	14077
858.997	14142
859.13	14157
859.263	14142
859.396	14244
859.529	14142
859.662	14043
859.795	14024
859.928	14084
860.061	14244
860.194	14244
860.327	14145
860.46	14164
860.592	14237
860.725	14259
860.858	14240
860.99	14119
861.123	14065
861.256	14050
861.388	14088
861.521	14769
861.653	13982
861.786	13898
861.918	13917
862.05	13997
862.183	14035
862.315	14092
862.447	14058
862.58	14073
862.712	13871
862.844	13845
862.976	13936
863.108	13967
863.24	14423
863.372	13799
863.504	13856
863.636	13936
863.768	13909
863.9	13879
864.032	13833
864.164	13830
864.296	13989
864.428	14027
864.559	13940
864.691	13982
864.823	13936
864.954	14027
865.086	13955
865.217	13860
865.349	13898
865.48	13837
865.612	13830
865.743	14020
865.875	13883
866.006	13921
866.137	13894
866.269	13932
866.4	13932
866.531	13917
866.662	13780
866.793	13860
866.924	13856
867.055	13955
867.186	13890
867.317	13822
867.448	13799
867.579	13864
867.71	13753
867.841	13860
867.972	13925
868.103	13898
868.233	13928
868.364	13947
868.495	13997
868.625	13978
868.756	14199
868.886	14024
869.017	14092
869.147	14240
869.278	14336
869.408	14168
869.539	14180
869.669	14206
869.799	14153
869.929	14256
870.06	14233
870.19	14469
870.32	14488
870.45	14442
870.58	14499
870.71	14636
870.84	14663
870.97	14583
871.1	14541
871.23	14625
871.36	14731
871.489	14613
871.619	14689
871.749	14659
871.879	14819
872.008	14796
872.138	14693
872.267	14663
872.397	14552
872.526	14602
872.656	14594
872.785	14629
872.915	14762
873.044	14788
873.173	14727
873.303	14929
873.432	14804
873.561	14883
873.69	14826
873.819	14697
873.948	14895
874.077	14815
874.206	14693
874.335	14796
874.464	14929
874.593	15047
874.722	15039
874.851	15157
874.979	15036
875.108	15142
875.237	15039
875.365	15055
875.494	15131
875.623	15173
875.751	15089
875.88	15176
876.008	15264
876.136	15336
876.265	15500
876.393	15667
876.521	15625
876.65	15606
876.778	15481
876.906	15485
877.034	15431
877.162	15625
877.29	15435
877.418	15538
877.546	15557
877.674	15587
877.802	15500
877.93	15545
878.058	15473
878.185	15485
878.313	15389
878.441	15549
878.568	15325
878.696	15496
878.824	15580
878.951	15682
879.079	15633
879.206	15804
879.333	15694
879.461	15603
879.588	15633
879.715	15686
879.842	15846
879.97	15656
880.097	15317
880.224	15344
880.351	15412
880.478	15462
880.605	15447
880.732	15435
880.859	15686
880.986	15405
881.112	15363
881.239	15256
881.366	15138
881.493	15001
881.619	15028
881.746	15074
881.872	15001
881.999	14967
882.125	14948
882.252	15036
882.378	15058
882.505	15180
882.631	15066
882.757	14891
882.883	14823
883.01	14830
883.136	14842
883.262	14708
883.388	14682
883.514	14891
883.64	14925
883.766	14834
883.892	14724
884.018	14682
884.143	14876
884.269	14948
884.395	14606
884.52	14610
884.646	14617
884.772	14530
884.897	14415
885.023	14568
885.148	14621
885.274	14655
885.399	14678
885.524	14571
885.65	14522
885.775	14499
885.9	14606
886.025	14693
886.15	14686
886.275	14522
886.4	14568
886.525	14522
886.65	14381
886.775	14533
886.9	14648
887.025	14724
887.149	14533
887.274	14400
887.399	14309
887.523	14362
887.648	14404
887.773	14256
887.897	14560
888.021	14419
888.146	14419
888.27	14526
888.395	14636
888.519	14434
888.643	14419
888.767	14465
888.891	14332
889.015	14199
889.139	14263
889.263	14233
889.387	14381
889.511	14446
889.635	14317
889.759	14225
889.883	14305
890.006	14271
890.13	14343
890.254	14187
890.377	14218
890.501	14077
890.624	13947
890.748	14210
890.871	14001
890.995	13951
891.118	13875
891.241	14008
891.364	13989
891.488	13993
891.611	13868
891.734	14001
891.857	14035
891.98	13978
892.103	14103
892.226	13982
892.349	13989
892.471	13871
892.594	13921
892.717	13928
892.839	13982
892.962	13951
893.085	14039
893.207	14020
893.33	13879
893.452	13963
893.575	13982
893.697	14016
893.819	14191
893.941	14161
894.064	14077
894.186	13906
894.308	13894
894.43	14214
894.552	14168
894.674	14096
894.796	13928
894.918	14012
895.04	14046
895.161	14077
895.283	14088
895.405	13993
895.526	13993
895.648	14164
895.769	14081
895.891	14183
896.012	14183
896.134	14180
896.255	14126
896.376	14039
896.498	14119
896.619	14180
896.74	14214
896.861	14218
896.982	14404
897.103	14625
897.224	14355
897.345	14400
897.466	14358
897.587	14271
897.708	14552
897.828	14530
897.949	14476
898.07	14328
898.19	14339
898.311	14568
898.431	14434
898.552	14450
898.672	14590
898.792	14621
898.913	14560
899.033	14438
899.153	14244
899.273	14240
899.393	14328
899.513	14438
899.633	14339
899.753	14465
899.873	14328
899.993	14457
900.113	14355
900.232	14362
900.352	14347
900.472	14233
900.591	14229
900.711	14218
900.83	14157
900.95	14358
901.069	14351
901.189	14081
901.308	13967
901.427	13761
901.546	13997
901.665	13879
901.784	13890
901.904	13769
902.023	13727
902.141	13533
902.26	13487
902.379	13552
902.498	13464
902.617	13343
902.735	13457
902.854	13438
902.973	13339
903.091	13187
903.21	13164
903.328	13179
903.446	13160
903.565	13080
903.683	13065
903.801	12981
903.919	13012
904.038	13042
904.156	12852
904.274	12920
904.392	12890
904.51	12798
904.627	12848
904.745	12913
904.863	12996
904.981	12665
905.098	12521
905.216	12658
905.334	12547
905.451	12601
905.569	12513
905.686	12547
905.803	12483
905.921	12346
906.038	12540
906.155	12327
906.272	12182
906.389	12270
906.506	12053
906.623	12083
906.74	12133
906.857	12072
906.974	12003
907.091	12190
907.208	12224
907.324	12216
907.441	12098
907.557	11847
907.674	11946
907.79	11847
907.907	11817
908.023	11931
908.139	11897
908.256	11729
908.372	11802
908.488	11794
908.604	11638
908.72	11691
908.836	11604
908.952	11562
909.068	11649
909.184	11783
909.3	11634
909.415	11668
909.531	11775
909.647	11410
909.762	11444
909.878	11341
909.993	11406
910.108	11425
910.224	11440
910.339	11467
910.454	11315
910.57	11242
910.685	11220
910.8	11532
910.915	11444
911.03	11280
911.145	11162
911.259	11151
911.374	11140
911.489	11075
911.604	10995
911.718	10862
911.833	10953
911.947	10809
912.062	10698
912.176	10911
912.291	10862
912.405	10869
912.519	11102
912.633	11102
912.748	10904
912.862	10866
912.976	10771
913.09	10679
913.204	10630
913.318	10714
913.431	10812
913.545	10820
913.659	10809
913.772	10759
913.886	10687
914	10656
914.113	10721
914.226	10767
914.34	10710
914.453	10542
914.566	10721
914.68	10618
914.793	10596
914.906	10371
915.019	10382
915.132	10295
915.245	10390
915.358	10402
915.47	10413
915.583	10402
915.696	10402
915.809	10531
915.921	10504
916.034	10421
916.146	10356
916.259	10230
916.371	10375
916.483	10413
916.595	10306
916.708	10329
916.82	10325
916.932	10284
917.044	10268
917.156	10352
917.268	10181
917.38	10215
917.491	10116
917.603	10261
917.715	10344
917.826	10344
917.938	10238
918.049	10105
918.161	10295
918.272	10386
918.384	10352
918.495	10265
918.606	10158
918.717	9991
918.828	10090
918.939	10128
919.05	10040
919.161	10067
919.272	9941
919.383	9991
919.494	10196
919.604	10238
919.715	10097
919.826	10036
919.936	10051
920.047	10238
920.157	10147
920.267	10344
920.378	10158
920.488	10131
920.598	10276
920.708	10481
920.818	10215
920.928	10310
921.038	10485
921.148	10421
921.258	10238
921.368	10059
921.477	9945
921.587	9968
921.697	9812
921.806	9922
921.916	9865
922.025	9785
922.134	9698
922.244	9641
922.353	9732
922.462	9667
922.571	9534
922.68	9416
922.789	9321
922.898	9416
923.007	9340
923.116	9389
923.224	9408
923.333	9408
923.442	9306
923.55	9260
923.659	9329
923.767	9355
923.876	9275
923.984	9359
924.092	9184
924.201	9294
924.309	9233
924.417	9233
924.525	9157
924.633	9203
924.741	10177
924.849	8948
924.956	9119
925.064	9051
925.172	8960
925.279	9058
925.387	9062
925.494	8956
925.602	9203
925.709	9093
925.816	8998
925.924	9108
926.031	9135
926.138	9108
926.245	9085
926.352	9013
926.459	9104
926.566	9020
926.673	9024
926.779	8918
926.886	8914
926.993	8777
927.099	8769
927.206	8739
927.312	8727
927.419	8857
927.525	8800
927.631	8830
927.737	8655
927.843	8701
927.95	8575
928.056	8575
928.162	8674
928.267	8686
928.373	9306
928.479	8754
928.585	8507
928.69	8583
928.796	8655
928.901	8533
929.007	8415
929.112	8549
929.218	8552
929.323	8457
929.428	8419
929.533	8617
929.638	8381
929.743	8480
929.848	8514
929.953	8408
930.058	8419
930.163	8161
930.267	8290
930.372	8393
930.477	8240
930.581	8484
930.685	8328
930.79	8161
930.894	8183
930.998	8199
931.103	8404
931.207	7925
931.311	8008
931.415	7951
931.519	7696
931.623	7719
