Data from test_V78500241_2756.txt Node
Date: Fri Mar 25 14:52:54 CST 2022
User: usil
Spectrometer: V785-0024
Trigger mode: 0
Integration Time (sec): 4.000000E-1
Scans to average: 1
Nonlinearity correction enabled: false
Boxcar width: 0
Storing dark spectrum: false
XAxis mode: Wavelengths
Number of Pixels in Spectrum: 1024
>>>>>Begin Spectral Data<<<<<
801.071	22040
801.214	21869
801.356	21720
801.499	21526
801.641	21526
801.783	21325
801.926	21408
802.068	21310
802.211	21260
802.353	21203
802.496	20971
802.638	20899
802.78	20880
802.923	20853
803.065	20686
803.208	20659
803.35	20724
803.492	20872
803.635	20845
803.777	20697
803.919	20861
804.061	21100
804.204	20819
804.346	20720
804.488	20609
804.63	20773
804.773	20473
804.915	20579
805.057	20739
805.199	20621
805.341	20663
805.483	20689
805.626	20762
805.768	20640
805.91	20697
806.052	20613
806.194	20514
806.336	20796
806.478	20731
806.62	20492
806.762	20754
806.904	20849
807.046	20948
807.188	20967
807.33	20979
807.472	20834
807.614	21039
807.756	20952
807.898	20785
808.04	20678
808.182	20602
808.324	20773
808.465	20746
808.607	20857
808.749	21039
808.891	21039
809.033	21268
809.174	21081
809.316	21009
809.458	20952
809.6	20952
809.741	21123
809.883	21096
810.025	21062
810.166	21127
810.308	21085
810.45	21104
810.591	20910
810.733	20952
810.875	20659
811.016	20777
811.158	20716
811.299	20826
811.441	20952
811.582	20819
811.724	20727
811.865	20708
812.007	20731
812.148	20849
812.29	20693
812.431	20853
812.573	21020
812.714	21169
812.855	21321
812.997	21317
813.138	21534
813.279	21348
813.421	21298
813.562	21199
813.703	20971
813.845	20960
813.986	20625
814.127	20514
814.268	20423
814.41	20408
814.551	20244
814.692	20427
814.833	20206
814.974	20256
815.115	20347
815.256	20145
815.397	20157
815.539	20115
815.68	20062
815.821	20046
815.962	20107
816.103	19967
816.244	19921
816.385	19826
816.526	19666
816.666	19567
816.807	19377
816.948	19521
817.089	19586
817.23	19575
817.371	19373
817.512	19362
817.653	19449
817.793	19369
817.934	19343
818.075	19438
818.216	19430
818.356	19430
818.497	19312
818.638	19122
818.778	19107
818.919	19099
819.06	19080
819.2	19175
819.341	19259
819.481	19301
819.622	19426
819.762	19639
819.903	19521
820.043	19487
820.184	19453
820.324	19495
820.465	19590
820.605	19419
820.746	19384
820.886	19331
821.026	19346
821.167	19369
821.307	19445
821.447	19392
821.588	19137
821.728	19080
821.868	18951
822.008	18764
822.149	18745
822.289	18810
822.429	18525
822.569	18563
822.709	18517
822.849	18361
822.99	18300
823.13	18300
823.27	18239
823.41	18079
823.55	18091
823.69	18152
823.83	17996
823.97	17954
824.11	17912
824.25	17859
824.389	18011
824.529	17977
824.669	17874
824.809	17996
824.949	17977
825.089	17878
825.228	17885
825.368	17760
825.508	17733
825.648	17699
825.787	17718
825.927	17726
826.067	17585
826.206	17646
826.346	17699
826.485	17707
826.625	17653
826.765	17733
826.904	17634
827.044	17524
827.183	17395
827.323	17387
827.462	17429
827.601	17341
827.741	17493
827.88	17265
828.02	17318
828.159	17265
828.298	17376
828.437	17387
828.577	17322
828.716	17421
828.855	17337
828.994	17185
829.134	17166
829.273	17242
829.412	17052
829.551	17086
829.69	17220
829.829	17189
829.968	17277
830.107	17174
830.246	17132
830.385	17048
830.524	17014
830.663	17018
830.802	16873
830.941	16752
831.08	16759
831.219	16904
831.357	16843
831.496	16828
831.635	16828
831.774	16599
831.913	16573
832.051	16447
832.19	16535
832.329	16615
832.467	16485
832.606	16352
832.744	16451
832.883	16424
833.022	16451
833.16	16466
833.299	16478
833.437	16500
833.576	16573
833.714	16417
833.852	16527
833.991	16527
834.129	16630
834.267	16550
834.406	16455
834.544	16542
834.682	16447
834.821	16451
834.959	16653
835.097	16344
835.235	16618
835.373	16500
835.511	16409
835.65	16500
835.788	16333
835.926	16265
836.064	16200
836.202	16219
836.34	16352
836.478	16432
836.615	16325
836.753	16413
836.891	16535
837.029	16504
837.167	16470
837.305	16405
837.443	16413
837.58	16226
837.718	16371
837.856	16333
837.993	16287
838.131	16257
838.269	16112
838.406	16204
838.544	16303
838.681	16048
838.819	15975
838.956	15812
839.094	15800
839.231	15861
839.369	15922
839.506	16246
839.643	16112
839.781	15987
839.918	15873
840.055	15766
840.193	15793
840.33	15751
840.467	15816
840.604	15850
840.742	16036
840.879	15580
841.016	15747
841.153	15648
841.29	15922
841.427	15846
841.564	15899
841.701	15888
841.838	15781
841.975	15785
842.112	15819
842.249	15686
842.385	15599
842.522	15876
842.659	15618
842.796	15610
842.933	15701
843.069	15614
843.206	15633
843.343	15690
843.479	15644
843.616	15690
843.752	15367
843.889	15424
844.025	15534
844.162	15439
844.298	15568
844.435	15412
844.571	15291
844.708	15447
844.844	15644
844.98	15618
845.117	15507
845.253	15408
845.389	15222
845.525	15317
845.661	15287
845.798	15176
845.934	15222
846.07	15214
846.206	15230
846.342	15298
846.478	15283
846.614	15081
846.75	14887
846.886	14906
847.022	15070
847.158	14994
847.294	15001
847.429	14979
847.565	14895
847.701	15245
847.837	14663
847.972	14708
848.108	14868
848.244	14823
848.379	14640
848.515	14701
848.65	14610
848.786	14526
848.921	14590
849.057	14613
849.192	14606
849.328	14606
849.463	14613
849.598	14526
849.734	14442
849.869	14408
850.004	14419
850.14	14351
850.275	14370
850.41	14263
850.545	14267
850.68	14317
850.815	14358
850.95	14366
851.085	14511
851.22	14446
851.355	14301
851.49	14263
851.625	14301
851.76	14248
851.895	14275
852.03	14218
852.165	14301
852.299	14355
852.434	14438
852.569	14370
852.703	14355
852.838	14454
852.973	14469
853.107	14374
853.242	14267
853.376	14244
853.511	14172
853.645	14157
853.78	14301
853.914	14278
854.048	14142
854.183	14134
854.317	14214
854.451	14301
854.585	14294
854.72	14229
854.854	14278
854.988	14206
855.122	14191
855.256	14145
855.39	14172
855.524	14324
855.658	14221
855.792	14282
855.926	14202
856.06	14210
856.194	14328
856.327	14244
856.461	14153
856.595	14153
856.729	14267
856.862	14301
856.996	14259
857.13	14286
857.263	14339
857.397	14408
857.53	14199
857.664	14271
857.797	14244
857.931	14370
858.064	14221
858.197	14298
858.331	14134
858.464	14111
858.597	14164
858.731	14240
858.864	14237
858.997	14263
859.13	14172
859.263	14282
859.396	14286
859.529	14218
859.662	14180
859.795	14195
859.928	14164
860.061	14377
860.194	14374
860.327	14275
860.46	14218
860.592	14313
860.725	14366
860.858	14286
860.99	14138
861.123	14119
861.256	14111
861.388	14267
861.521	14823
861.653	14096
861.786	14065
861.918	14084
862.05	14134
862.183	14161
862.315	14180
862.447	14240
862.58	14062
862.712	13967
862.844	13875
862.976	14111
863.108	14043
863.24	14560
863.372	13925
863.504	14024
863.636	14001
863.768	14084
863.9	13967
864.032	13879
864.164	14012
864.296	13997
864.428	14202
864.559	14111
864.691	14035
864.823	14050
864.954	13978
865.086	14031
865.217	13944
865.349	13814
865.48	14046
865.612	13974
865.743	14115
865.875	13925
866.006	13993
866.137	14016
866.269	13902
866.4	13944
866.531	13955
866.662	13913
866.793	13871
866.924	13887
867.055	14043
867.186	13902
867.317	13955
867.448	13909
867.579	13894
867.71	13982
867.841	13906
867.972	13974
868.103	13917
868.233	14012
868.364	14024
868.495	14016
868.625	14187
868.756	14320
868.886	14172
869.017	14119
869.147	14389
869.278	14282
869.408	14183
869.539	14202
869.669	14393
869.799	14298
869.929	14336
870.06	14396
870.19	14507
870.32	14522
870.45	14598
870.58	14590
870.71	14625
870.84	14769
870.97	14568
871.1	14636
871.23	14796
871.36	14910
871.489	14769
871.619	14693
871.749	14834
871.879	14785
872.008	14902
872.138	14880
872.267	14883
872.397	14636
872.526	14815
872.656	14670
872.785	14651
872.915	14864
873.044	14994
873.173	14826
873.303	14971
873.432	14929
873.561	14986
873.69	14872
873.819	14826
873.948	14918
874.077	14914
874.206	14883
874.335	14887
874.464	15100
874.593	15157
874.722	15123
874.851	15313
874.979	15207
875.108	15211
875.237	15157
875.365	15146
875.494	15135
875.623	15279
875.751	15131
875.88	15222
876.008	15386
876.136	15389
876.265	15656
876.393	15690
876.521	15686
876.65	15599
876.778	15660
876.906	15580
877.034	15519
877.162	15450
877.29	15557
877.418	15622
877.546	15701
877.674	15671
877.802	15614
877.93	15587
878.058	15599
878.185	15447
878.313	15671
878.441	15553
878.568	15485
878.696	15561
878.824	15568
878.951	15656
879.079	15808
879.206	15869
879.333	15808
879.461	15690
879.588	15755
879.715	15869
879.842	15831
879.97	15614
880.097	15469
880.224	15416
880.351	15511
880.478	15542
880.605	15389
880.732	15428
880.859	15705
880.986	15504
881.112	15466
881.239	15348
881.366	15199
881.493	15176
881.619	15093
881.746	15123
881.872	15135
881.999	15256
882.125	15195
882.252	15195
882.378	15192
882.505	15249
882.631	15036
882.757	14960
882.883	14944
883.01	14967
883.136	14910
883.262	14887
883.388	14735
883.514	14902
883.64	14921
883.766	14906
883.892	14785
884.018	14777
884.143	14838
884.269	15062
884.395	14705
884.52	14617
884.646	14682
884.772	14636
884.897	14514
885.023	14632
885.148	14781
885.274	14720
885.399	14731
885.524	14659
885.65	14583
885.775	14610
885.9	14651
886.025	14807
886.15	14735
886.275	14587
886.4	14613
886.525	14587
886.65	14549
886.775	14648
886.9	14727
887.025	14796
887.149	14701
887.274	14579
887.399	14427
887.523	14476
887.648	14377
887.773	14488
887.897	14610
888.021	14522
888.146	14518
888.27	14556
888.395	14526
888.519	14492
888.643	14678
888.767	14594
888.891	14492
889.015	14404
889.139	14465
889.263	14225
889.387	14484
889.511	14526
889.635	14480
889.759	14244
889.883	14370
890.006	14351
890.13	14511
890.254	14317
890.377	14271
890.501	14172
890.624	14088
890.748	14229
890.871	14100
890.995	14073
891.118	13986
891.241	14008
891.364	14081
891.488	14199
891.611	14043
891.734	14027
891.857	14008
891.98	14115
892.103	14176
892.226	14115
892.349	13970
892.471	13894
892.594	13993
892.717	14058
892.839	14035
892.962	14039
893.085	14134
893.207	14054
893.33	13959
893.452	13890
893.575	14157
893.697	13974
893.819	14183
893.941	14191
894.064	14172
894.186	14035
894.308	14016
894.43	14081
894.552	14233
894.674	14183
894.796	14024
894.918	14153
895.04	14077
895.161	14126
895.283	14187
895.405	14138
895.526	14142
895.648	14180
895.769	14206
895.891	14263
896.012	14267
896.134	14214
896.255	14191
896.376	14180
896.498	14176
896.619	14267
896.74	14298
896.861	14202
896.982	14621
897.103	14693
897.224	14503
897.345	14446
897.466	14400
897.587	14454
897.708	14594
897.828	14541
897.949	14454
898.07	14396
898.19	14438
898.311	14663
898.431	14507
898.552	14602
898.672	14781
898.792	14621
898.913	14526
899.033	14446
899.153	14389
899.273	14309
899.393	14355
899.513	14457
899.633	14389
899.753	14431
899.873	14419
899.993	14514
900.113	14358
900.232	14522
900.352	14366
900.472	14320
900.591	14233
900.711	14328
900.83	14206
900.95	14324
901.069	14381
901.189	14229
901.308	14100
901.427	14020
901.546	13978
901.665	13936
901.784	13845
901.904	13864
902.023	13734
902.141	13609
902.26	13624
902.379	13620
902.498	13647
902.617	13502
902.735	13613
902.854	13483
902.973	13480
903.091	13278
903.21	13168
903.328	13228
903.446	13206
903.565	13080
903.683	13175
903.801	13023
903.919	13126
904.038	13126
904.156	12954
904.274	13042
904.392	12859
904.51	12928
904.627	12852
904.745	12928
904.863	12970
904.981	12692
905.098	12642
905.216	12597
905.334	12719
905.451	12513
905.569	12601
905.686	12642
905.803	12658
905.921	12433
906.038	12502
906.155	12407
906.272	12338
906.389	12361
906.506	12167
906.623	12228
906.74	12102
906.857	12060
906.974	12022
907.091	12292
907.208	12311
907.324	12285
907.441	12133
907.557	11882
907.674	11965
907.79	11885
907.907	11973
908.023	11824
908.139	11939
908.256	11885
908.372	11832
908.488	11836
908.604	11718
908.72	11646
908.836	11695
908.952	11676
909.068	11748
909.184	11771
909.3	11672
909.415	11699
909.531	11718
909.647	11493
909.762	11543
909.878	11455
909.993	11535
910.108	11493
910.224	11478
910.339	11505
910.454	11417
910.57	11318
910.685	11269
910.8	11581
910.915	11474
911.03	11337
911.145	11296
911.259	11140
911.374	11242
911.489	11094
911.604	11037
911.718	11006
911.833	10984
911.947	10816
912.062	10771
912.176	10877
912.291	10965
912.405	10866
912.519	11128
912.633	11201
912.748	11029
912.862	10942
912.976	10809
913.09	10717
913.204	10778
913.318	10805
913.431	11003
913.545	10934
913.659	10980
913.772	10835
913.886	10664
914	10664
914.113	10812
914.226	10831
914.34	10778
914.453	10630
914.566	10763
914.68	10706
914.793	10634
914.906	10519
915.019	10402
915.132	10390
915.245	10394
915.358	10512
915.47	10474
915.583	10451
915.696	10481
915.809	10588
915.921	10653
916.034	10417
916.146	10386
916.259	10280
916.371	10500
916.483	10390
916.595	10455
916.708	10333
916.82	10413
916.932	10333
917.044	10337
917.156	10356
917.268	10257
917.38	10261
917.491	10287
917.603	10352
917.715	10447
917.826	10440
917.938	10169
918.049	10173
918.161	10299
918.272	10421
918.384	10443
918.495	10318
918.606	10185
918.717	10116
918.828	10215
918.939	10242
919.05	10086
919.161	10124
919.272	9926
919.383	10021
919.494	10154
919.604	10394
919.715	10139
919.826	10120
919.936	10207
920.047	10261
920.157	10227
920.267	10390
920.378	10211
920.488	10128
920.598	10402
920.708	10481
920.818	10428
920.928	10341
921.038	10561
921.148	10462
921.258	10211
921.368	10173
921.477	9979
921.587	10055
921.697	9888
921.806	10105
921.916	9915
922.025	9743
922.134	9720
922.244	9762
922.353	9816
922.462	9648
922.571	9530
922.68	9439
922.789	9340
922.898	9454
923.007	9374
923.116	9416
923.224	9462
923.333	9519
923.442	9317
923.55	9329
923.659	9302
923.767	9351
923.876	9268
923.984	9401
924.092	9203
924.201	9340
924.309	9272
924.417	9321
924.525	9256
924.633	9275
924.741	10044
924.849	9070
924.956	9233
925.064	9062
925.172	9013
925.279	8994
925.387	9127
925.494	9039
925.602	9283
925.709	9138
925.816	9051
925.924	9074
926.031	9161
926.138	9093
926.245	9176
926.352	9047
926.459	9127
926.566	9203
926.673	9058
926.779	8899
926.886	8975
926.993	8845
927.099	8823
927.206	8807
927.312	8758
927.419	8807
927.525	8823
927.631	8868
927.737	8743
927.843	8735
927.95	8644
928.056	8659
928.162	8746
928.267	8777
928.373	9431
928.479	8720
928.585	8564
928.69	8708
928.796	8670
928.901	8575
929.007	8461
929.112	8541
929.218	8575
929.323	8537
929.428	8549
929.533	8670
929.638	8518
929.743	8465
929.848	8602
929.953	8587
930.058	8442
930.163	8256
930.267	8256
930.372	8434
930.477	8256
930.581	8556
930.685	8404
930.79	8180
930.894	8324
930.998	8214
931.103	8328
931.207	8062
931.311	7967
931.415	7986
931.519	7708
931.623	7753
