Data from test_V78500241_1346.txt Node
Date: Fri Mar 25 14:43:05 CST 2022
User: usil
Spectrometer: V785-0024
Trigger mode: 0
Integration Time (sec): 4.000000E-1
Scans to average: 1
Nonlinearity correction enabled: false
Boxcar width: 0
Storing dark spectrum: false
XAxis mode: Wavelengths
Number of Pixels in Spectrum: 1024
>>>>>Begin Spectral Data<<<<<
801.071	22382
801.214	22451
801.356	22135
801.499	22051
801.641	21880
801.783	21736
801.926	21850
802.068	21682
802.211	21595
802.353	21561
802.496	21416
802.638	21306
802.78	21214
802.923	21302
803.065	21005
803.208	21119
803.35	21245
803.492	21230
803.635	21332
803.777	21245
803.919	21256
804.061	21473
804.204	21195
804.346	21081
804.488	21093
804.63	21116
804.773	20975
804.915	21070
805.057	21226
805.199	21081
805.341	21089
805.483	21203
805.626	21146
805.768	21055
805.91	21116
806.052	21100
806.194	20910
806.336	21310
806.478	21131
806.62	21005
806.762	21131
806.904	21188
807.046	21542
807.188	21408
807.33	21344
807.472	21545
807.614	21332
807.756	21481
807.898	21344
808.04	21150
808.182	21173
808.324	21245
808.465	21275
808.607	21572
808.749	21644
808.891	21838
809.033	21873
809.174	21823
809.316	21595
809.458	21614
809.6	21561
809.741	21549
809.883	21561
810.025	21720
810.166	21603
810.308	21606
810.45	21652
810.591	21481
810.733	21424
810.875	21169
811.016	21207
811.158	21184
811.299	21412
811.441	21428
811.582	21530
811.724	21226
811.865	21036
812.007	21226
812.148	21275
812.29	21283
812.431	21397
812.573	21428
812.714	21724
812.855	21751
812.997	21835
813.138	21922
813.279	21842
813.421	21789
813.562	21679
813.703	21469
813.845	21553
813.986	21211
814.127	20861
814.268	20804
814.41	20636
814.551	20773
814.692	20906
814.833	20716
814.974	20754
815.115	20804
815.256	20705
815.397	20670
815.539	20617
815.68	20503
815.821	20415
815.962	20602
816.103	20507
816.244	20396
816.385	20229
816.526	20233
816.666	20111
816.807	19955
816.948	20054
817.089	20035
817.23	19978
817.371	20016
817.512	19890
817.653	19795
817.793	19822
817.934	19993
818.075	20001
818.216	19970
818.356	19803
818.497	19647
818.638	19571
818.778	19597
818.919	19674
819.06	19704
819.2	19700
819.341	19852
819.481	19849
819.622	20012
819.762	20233
819.903	20145
820.043	19970
820.184	19936
820.324	19947
820.465	19989
820.605	19890
820.746	19795
820.886	19761
821.026	19845
821.167	19799
821.307	19978
821.447	19818
821.588	19795
821.728	19670
821.868	19529
822.008	19274
822.149	19312
822.289	19278
822.429	19019
822.569	19076
822.709	19080
822.849	18939
822.99	18787
823.13	18753
823.27	18749
823.41	18597
823.55	18574
823.69	18601
823.83	18559
823.97	18620
824.11	18403
824.25	18395
824.389	18376
824.529	18426
824.669	18350
824.809	18433
824.949	18566
825.089	18479
825.228	18509
825.368	18304
825.508	18232
825.648	18190
825.787	18334
825.927	18243
826.067	18144
826.206	18152
826.346	18163
826.485	18190
826.625	18205
826.765	18266
826.904	18144
827.044	17984
827.183	17851
827.323	17939
827.462	17923
827.601	17863
827.741	17885
827.88	17733
828.02	17771
828.159	17805
828.298	17840
828.437	17885
828.577	17866
828.716	18049
828.855	17779
828.994	17627
829.134	17619
829.273	17619
829.412	17573
829.551	17532
829.69	17623
829.829	17722
829.968	17756
830.107	17653
830.246	17577
830.385	17493
830.524	17505
830.663	17524
830.802	17265
830.941	17277
831.08	17200
831.219	17288
831.357	17273
831.496	17387
831.635	17197
831.774	17258
831.913	17140
832.051	17006
832.19	17060
832.329	17075
832.467	17033
832.606	16881
832.744	16847
832.883	16961
833.022	16892
833.16	16987
833.299	16976
833.437	16999
833.576	16927
833.714	16908
833.852	17010
833.991	17075
834.129	16984
834.267	17064
834.406	17018
834.544	16991
834.682	17033
834.821	16976
834.959	17159
835.097	16980
835.235	17025
835.373	17075
835.511	17041
835.65	16949
835.788	16869
835.926	16748
836.064	16611
836.202	16664
836.34	16904
836.478	16984
836.615	16968
836.753	16942
836.891	16957
837.029	16987
837.167	16869
837.305	16698
837.443	16691
837.58	16679
837.718	16809
837.856	16812
837.993	16740
838.131	16778
838.269	16550
838.406	16710
838.544	16759
838.681	16462
838.819	16478
838.956	16310
839.094	16295
839.231	16280
839.369	16451
839.506	16706
839.643	16455
839.781	16291
839.918	16257
840.055	16291
840.193	16265
840.33	16261
840.467	16223
840.604	16382
840.742	16584
840.879	16215
841.016	16242
841.153	16173
841.29	16375
841.427	16322
841.564	16280
841.701	16352
841.838	16177
841.975	16310
842.112	16192
842.249	16131
842.385	16086
842.522	16322
842.659	16086
842.796	15991
842.933	16116
843.069	16029
843.206	16040
843.343	16139
843.479	16112
843.616	16097
843.752	15903
843.889	15934
844.025	16017
844.162	15797
844.298	16006
844.435	15747
844.571	15804
844.708	15888
844.844	15941
844.98	16051
845.117	15918
845.253	15895
845.389	15785
845.525	15907
845.661	15884
845.798	15850
845.934	15869
846.07	15964
846.206	16097
846.342	15956
846.478	15766
846.614	15534
846.75	15412
846.886	15466
847.022	15557
847.158	15431
847.294	15424
847.429	15462
847.565	15408
847.701	15667
847.837	15195
847.972	15237
848.108	15275
848.244	15165
848.379	14979
848.515	15070
848.65	15009
848.786	15024
848.921	15047
849.057	15077
849.192	15100
849.328	15036
849.463	15070
849.598	14921
849.734	14971
849.869	14819
850.004	14769
850.14	14887
850.275	14792
850.41	14765
850.545	14682
850.68	14792
850.815	14807
850.95	14769
851.085	14967
851.22	14902
851.355	14746
851.49	14765
851.625	14693
851.76	14674
851.895	14716
852.03	14560
852.165	14880
852.299	14788
852.434	14861
852.569	14781
852.703	14754
852.838	14910
852.973	14918
853.107	15001
853.242	14727
853.376	14610
853.511	14583
853.645	14629
853.78	14750
853.914	14602
854.048	14686
854.183	14621
854.317	14727
854.451	14830
854.585	14625
854.72	14594
854.854	14746
854.988	14579
855.122	14640
855.256	14434
855.39	14606
855.524	14750
855.658	14724
855.792	14636
855.926	14632
856.06	14682
856.194	14674
856.327	14724
856.461	14560
856.595	14632
856.729	14720
856.862	14754
856.996	14670
857.13	14674
857.263	14739
857.397	14724
857.53	14712
857.664	14693
857.797	14663
857.931	14697
858.064	14625
858.197	14720
858.331	14617
858.464	14575
858.597	14590
858.731	14640
858.864	14640
858.997	14629
859.13	14621
859.263	14674
859.396	14701
859.529	14537
859.662	14617
859.795	14712
859.928	14674
860.061	14845
860.194	14925
860.327	14598
860.46	14632
860.592	14811
860.725	14743
860.858	14724
860.99	14610
861.123	14514
861.256	14606
861.388	14636
861.521	15348
861.653	14545
861.786	14473
861.918	14556
862.05	14511
862.183	14697
862.315	14701
862.447	14678
862.58	14571
862.712	14530
862.844	14332
862.976	14450
863.108	14454
863.24	14925
863.372	14286
863.504	14412
863.636	14366
863.768	14507
863.9	14415
864.032	14404
864.164	14434
864.296	14507
864.428	14545
864.559	14492
864.691	14556
864.823	14465
864.954	14450
865.086	14412
865.217	14431
865.349	14419
865.48	14351
865.612	14427
865.743	14461
865.875	14431
866.006	14347
866.137	14431
866.269	14396
866.4	14358
866.531	14396
866.662	14389
866.793	14358
866.924	14427
867.055	14324
867.186	14343
867.317	14339
867.448	14286
867.579	14286
867.71	14317
867.841	14233
867.972	14454
868.103	14282
868.233	14423
868.364	14389
868.495	14419
868.625	14697
868.756	14693
868.886	14537
869.017	14655
869.147	14663
869.278	14708
869.408	14549
869.539	14670
869.669	14678
869.799	14651
869.929	14819
870.06	14769
870.19	15009
870.32	14899
870.45	14982
870.58	15070
870.71	15176
870.84	15157
870.97	15112
871.1	15058
871.23	15157
871.36	15211
871.489	15135
871.619	15180
871.749	15131
871.879	15241
872.008	15325
872.138	15157
872.267	15207
872.397	15123
872.526	14975
872.656	15081
872.785	15039
872.915	15256
873.044	15272
873.173	15207
873.303	15359
873.432	15359
873.561	15237
873.69	15230
873.819	15287
873.948	15348
874.077	15287
874.206	15287
874.335	15329
874.464	15458
874.593	15500
874.722	15450
874.851	15534
874.979	15538
875.108	15622
875.237	15606
875.365	15561
875.494	15542
875.623	15663
875.751	15538
875.88	15644
876.008	15694
876.136	15838
876.265	15880
876.393	16093
876.521	16147
876.65	16006
876.778	16074
876.906	16040
877.034	15979
877.162	15968
877.29	15991
877.418	15983
877.546	16036
877.674	15991
877.802	16002
877.93	15975
878.058	16006
878.185	15915
878.313	16029
878.441	16044
878.568	15747
878.696	15911
878.824	16090
878.951	16120
879.079	16238
879.206	16333
879.333	16223
879.461	16131
879.588	16246
879.715	16348
879.842	16417
879.97	16173
880.097	15911
880.224	15884
880.351	16029
880.478	15934
880.605	15842
880.732	15956
880.859	16109
880.986	15979
881.112	15949
881.239	15797
881.366	15660
881.493	15625
881.619	15496
881.746	15603
881.872	15618
881.999	15481
882.125	15488
882.252	15637
882.378	15542
882.505	15709
882.631	15515
882.757	15279
882.883	15488
883.01	15370
883.136	15249
883.262	15241
883.388	15218
883.514	15405
883.64	15431
883.766	15298
883.892	15195
884.018	15199
884.143	15275
884.269	15408
884.395	15203
884.52	15028
884.646	15093
884.772	14956
884.897	14956
885.023	15077
885.148	15142
885.274	15165
885.399	15241
885.524	15051
885.65	15108
885.775	15127
885.9	15062
886.025	15119
886.15	15104
886.275	14937
886.4	14933
886.525	15039
886.65	14990
886.775	15009
886.9	15119
887.025	15230
887.149	15085
887.274	14952
887.399	14834
887.523	14895
887.648	14811
887.773	14811
887.897	14929
888.021	15013
888.146	14773
888.27	14899
888.395	15020
888.519	14891
888.643	14914
888.767	14883
888.891	14807
889.015	14727
889.139	14693
889.263	14682
889.387	14823
889.511	14960
889.635	14899
889.759	14762
889.883	14651
890.006	14826
890.13	14807
890.254	14785
890.377	14659
890.501	14606
890.624	14594
890.748	14602
890.871	14393
890.995	14385
891.118	14320
891.241	14419
891.364	14431
891.488	14412
891.611	14355
891.734	14396
891.857	14469
891.98	14465
892.103	14545
892.226	14473
892.349	14362
892.471	14278
892.594	14473
892.717	14393
892.839	14408
892.962	14408
893.085	14412
893.207	14408
893.33	14317
893.452	14381
893.575	14530
893.697	14366
893.819	14564
893.941	14648
894.064	14507
894.186	14320
894.308	14351
894.43	14522
894.552	14560
894.674	14522
894.796	14275
894.918	14431
895.04	14457
895.161	14636
895.283	14476
895.405	14457
895.526	14511
895.648	14461
895.769	14560
895.891	14560
896.012	14606
896.134	14556
896.255	14625
896.376	14499
896.498	14655
896.619	14602
896.74	14590
896.861	14648
896.982	14963
897.103	15089
897.224	14910
897.345	14826
897.466	14667
897.587	14910
897.708	14914
897.828	14864
897.949	14838
898.07	14716
898.19	14705
898.311	14960
898.431	14777
898.552	14895
898.672	14941
898.792	14971
898.913	14975
899.033	14868
899.153	14735
899.273	14610
899.393	14701
899.513	14781
899.633	14693
899.753	14853
899.873	14762
899.993	14918
900.113	14625
900.232	14823
900.352	14785
900.472	14648
900.591	14617
900.711	14670
900.83	14518
900.95	14739
901.069	14731
901.189	14602
901.308	14389
901.427	14290
901.546	14324
901.665	14347
901.784	14393
901.904	14130
902.023	14096
902.141	13963
902.26	13822
902.379	13837
902.498	13890
902.617	13795
902.735	13883
902.854	13909
902.973	13833
903.091	13552
903.21	13464
903.328	13544
903.446	13502
903.565	13343
903.683	13472
903.801	13236
903.919	13331
904.038	13419
904.156	13289
904.274	13270
904.392	13183
904.51	13152
904.627	13168
904.745	13190
904.863	13293
904.981	13076
905.098	12909
905.216	12897
905.334	12973
905.451	12924
905.569	12935
905.686	13004
905.803	12890
905.921	12791
906.038	12913
906.155	12604
906.272	12627
906.389	12662
906.506	12494
906.623	12521
906.74	12483
906.857	12277
906.974	12437
907.091	12563
907.208	12601
907.324	12445
907.441	12426
907.557	12270
907.674	12228
907.79	12201
907.907	12144
908.023	12262
908.139	12232
908.256	12239
908.372	12197
908.488	12076
908.604	12068
908.72	11893
908.836	11999
908.952	11999
909.068	11988
909.184	12110
909.3	11973
909.415	12064
909.531	11931
909.647	11843
909.762	11836
909.878	11680
909.993	11775
910.108	11794
910.224	11737
910.339	11733
910.454	11710
910.57	11623
910.685	11493
910.8	11908
910.915	11775
911.03	11638
911.145	11600
911.259	11391
911.374	11478
911.489	11341
911.604	11280
911.718	11239
911.833	11204
911.947	11064
912.062	11075
912.176	11181
912.291	11223
912.405	11212
912.519	11410
912.633	11486
912.748	11231
912.862	11189
912.976	11113
913.09	10942
913.204	11056
913.318	11151
913.431	11178
913.545	11197
913.659	11258
913.772	11060
913.886	10999
914	10949
914.113	10999
914.226	11166
914.34	11010
914.453	11006
914.566	11064
914.68	10961
914.793	10930
914.906	10725
915.019	10675
915.132	10656
915.245	10790
915.358	10725
915.47	10816
915.583	10725
915.696	10660
915.809	10801
915.921	10828
916.034	10736
916.146	10672
916.259	10599
916.371	10668
916.483	10733
916.595	10649
916.708	10603
916.82	10736
916.932	10584
917.044	10523
917.156	10626
917.268	10489
917.38	10519
917.491	10580
917.603	10516
917.715	10577
917.826	10698
917.938	10531
918.049	10436
918.161	10546
918.272	10691
918.384	10672
918.495	10519
918.606	10493
918.717	10375
918.828	10371
918.939	10436
919.05	10310
919.161	10455
919.272	10177
919.383	10253
919.494	10402
919.604	10603
919.715	10428
919.826	10356
919.936	10428
920.047	10466
920.157	10508
920.267	10702
920.378	10538
920.488	10379
920.598	10569
920.708	10755
920.818	10615
920.928	10683
921.038	10797
921.148	10740
921.258	10459
921.368	10455
921.477	10268
921.587	10242
921.697	10109
921.806	10253
921.916	10105
922.025	9960
922.134	9953
922.244	9884
922.353	10006
922.462	9861
922.571	9751
922.68	9614
922.789	9618
922.898	9614
923.007	9637
923.116	9724
923.224	9660
923.333	9614
923.442	9553
923.55	9507
923.659	9549
923.767	9660
923.876	9568
923.984	9614
924.092	9401
924.201	9504
924.309	9549
924.417	9488
924.525	9488
924.633	9447
924.741	10402
924.849	9325
924.956	9458
925.064	9310
925.172	9207
925.279	9283
925.387	9256
925.494	9256
925.602	9443
925.709	9317
925.816	9268
925.924	9317
926.031	9420
926.138	9325
926.245	9348
926.352	9279
926.459	9416
926.566	9370
926.673	9313
926.779	9138
926.886	9207
926.993	9066
927.099	8933
927.206	8952
927.312	8982
927.419	9077
927.525	9013
927.631	9093
927.737	8925
927.843	8887
927.95	8845
928.056	8948
928.162	8895
928.267	8914
928.373	9564
928.479	8975
928.585	8807
928.69	8899
928.796	8956
928.901	8811
929.007	8655
929.112	8796
929.218	8739
929.323	8693
929.428	8800
929.533	8918
929.638	8735
929.743	8644
929.848	8746
929.953	8716
930.058	8590
930.163	8454
930.267	8480
930.372	8648
930.477	8450
930.581	8636
930.685	8564
930.79	8476
930.894	8484
930.998	8408
931.103	8579
931.207	8195
931.311	8145
931.415	8153
931.519	7913
931.623	7909
