Data from test_V78500241_2362.txt Node
Date: Fri Mar 25 14:50:09 CST 2022
User: usil
Spectrometer: V785-0024
Trigger mode: 0
Integration Time (sec): 4.000000E-1
Scans to average: 1
Nonlinearity correction enabled: false
Boxcar width: 0
Storing dark spectrum: false
XAxis mode: Wavelengths
Number of Pixels in Spectrum: 1024
>>>>>Begin Spectral Data<<<<<
801.071	22185
801.214	22013
801.356	21797
801.499	21743
801.641	21485
801.783	21538
801.926	21466
802.068	21431
802.211	21424
802.353	21230
802.496	21043
802.638	21066
802.78	21001
802.923	20845
803.065	20811
803.208	20861
803.35	20823
803.492	20952
803.635	20887
803.777	20910
803.919	20906
804.061	21264
804.204	20918
804.346	20880
804.488	20792
804.63	20765
804.773	20686
804.915	20712
805.057	20788
805.199	20617
805.341	20800
805.483	20819
805.626	20769
805.768	20731
805.91	20788
806.052	20807
806.194	20727
806.336	21013
806.478	20762
806.62	20872
806.762	20834
806.904	21036
807.046	21180
807.188	21104
807.33	21100
807.472	21222
807.614	20956
807.756	21043
807.898	20857
808.04	20887
808.182	20750
808.324	20811
808.465	20899
808.607	21047
808.749	21169
808.891	21291
809.033	21294
809.174	21150
809.316	21036
809.458	21119
809.6	21161
809.741	21203
809.883	21142
810.025	21355
810.166	21245
810.308	21329
810.45	21321
810.591	21214
810.733	20937
810.875	20872
811.016	20921
811.158	20815
811.299	21013
811.441	21127
811.582	20956
811.724	20857
811.865	20906
812.007	20948
812.148	20933
812.29	20952
812.431	21108
812.573	21218
812.714	21306
812.855	21389
812.997	21367
813.138	21526
813.279	21500
813.421	21416
813.562	21405
813.703	21173
813.845	21169
813.986	20811
814.127	20537
814.268	20499
814.41	20571
814.551	20442
814.692	20587
814.833	20332
814.974	20473
815.115	20583
815.256	20313
815.397	20271
815.539	20290
815.68	20187
815.821	20115
815.962	20122
816.103	20107
816.244	20092
816.385	19955
816.526	19776
816.666	19807
816.807	19647
816.948	19719
817.089	19742
817.23	19643
817.371	19704
817.512	19582
817.653	19491
817.793	19499
817.934	19647
818.075	19613
818.216	19483
818.356	19495
818.497	19381
818.638	19263
818.778	19301
818.919	19282
819.06	19308
819.2	19381
819.341	19445
819.481	19609
819.622	19620
819.762	19753
819.903	19575
820.043	19704
820.184	19533
820.324	19518
820.465	19628
820.605	19571
820.746	19521
820.886	19422
821.026	19533
821.167	19533
821.307	19635
821.447	19537
821.588	19388
821.728	19350
821.868	19053
822.008	18894
822.149	19069
822.289	18905
822.429	18707
822.569	18753
822.709	18684
822.849	18513
822.99	18486
823.13	18445
823.27	18426
823.41	18369
823.55	18213
823.69	18327
823.83	18247
823.97	18235
824.11	18034
824.25	18022
824.389	17969
824.529	18159
824.669	17965
824.809	18194
824.949	18190
825.089	18110
825.228	18049
825.368	17855
825.508	17897
825.648	17832
825.787	17824
825.927	17904
826.067	17855
826.206	17874
826.346	17832
826.485	17863
826.625	17809
826.765	17931
826.904	17908
827.044	17615
827.183	17608
827.323	17501
827.462	17528
827.601	17516
827.741	17539
827.88	17444
828.02	17345
828.159	17391
828.298	17406
828.437	17615
828.577	17467
828.716	17596
828.855	17482
828.994	17368
829.134	17223
829.273	17292
829.412	17212
829.551	17159
829.69	17212
829.829	17220
829.968	17322
830.107	17330
830.246	17223
830.385	17261
830.524	17261
830.663	17048
830.802	17006
830.941	16801
831.08	16915
831.219	16786
831.357	16908
831.496	17014
831.635	16900
831.774	16771
831.913	16733
832.051	16675
832.19	16565
832.329	16805
832.467	16554
832.606	16485
832.744	16485
832.883	16447
833.022	16573
833.16	16512
833.299	16611
833.437	16592
833.576	16577
833.714	16630
833.852	16645
833.991	16577
834.129	16694
834.267	16656
834.406	16649
834.544	16497
834.682	16550
834.821	16542
834.959	16668
835.097	16618
835.235	16679
835.373	16649
835.511	16607
835.65	16535
835.788	16481
835.926	16341
836.064	16333
836.202	16371
836.34	16504
836.478	16596
836.615	16470
836.753	16538
836.891	16615
837.029	16580
837.167	16558
837.305	16394
837.443	16333
837.58	16314
837.718	16504
837.856	16310
837.993	16341
838.131	16287
838.269	16318
838.406	16253
838.544	16276
838.681	16131
838.819	15964
838.956	15857
839.094	15998
839.231	16025
839.369	16074
839.506	16280
839.643	16120
839.781	15975
839.918	15876
840.055	15911
840.193	15873
840.33	15895
840.467	15895
840.604	15899
840.742	16093
840.879	15778
841.016	15785
841.153	15949
841.29	16055
841.427	15956
841.564	15934
841.701	15922
841.838	15873
841.975	15778
842.112	15800
842.249	15781
842.385	15603
842.522	15949
842.659	15671
842.796	15606
842.933	15759
843.069	15686
843.206	15580
843.343	15816
843.479	15709
843.616	15736
843.752	15443
843.889	15519
844.025	15568
844.162	15393
844.298	15599
844.435	15416
844.571	15454
844.708	15488
844.844	15622
844.98	15595
845.117	15511
845.253	15367
845.389	15408
845.525	15386
845.661	15325
845.798	15268
845.934	15264
846.07	15260
846.206	15298
846.342	15401
846.478	15188
846.614	15100
846.75	15032
846.886	15032
847.022	15173
847.158	15077
847.294	15013
847.429	15047
847.565	15020
847.701	15272
847.837	14792
847.972	14731
848.108	14792
848.244	14910
848.379	14686
848.515	14648
848.65	14587
848.786	14625
848.921	14720
849.057	14731
849.192	14746
849.328	14708
849.463	14629
849.598	14594
849.734	14587
849.869	14499
850.004	14419
850.14	14484
850.275	14404
850.41	14317
850.545	14282
850.68	14347
850.815	14385
850.95	14446
851.085	14495
851.22	14541
851.355	14442
851.49	14336
851.625	14355
851.76	14282
851.895	14275
852.03	14317
852.165	14374
852.299	14271
852.434	14457
852.569	14332
852.703	14442
852.838	14446
852.973	14575
853.107	14606
853.242	14355
853.376	14301
853.511	14168
853.645	14221
853.78	14374
853.914	14225
854.048	14282
854.183	14320
854.317	14286
854.451	14419
854.585	14336
854.72	14225
854.854	14351
854.988	14145
855.122	14240
855.256	14081
855.39	14298
855.524	14362
855.658	14256
855.792	14313
855.926	14324
856.06	14286
856.194	14332
856.327	14290
856.461	14221
856.595	14195
856.729	14305
856.862	14393
856.996	14366
857.13	14450
857.263	14320
857.397	14393
857.53	14275
857.664	14355
857.797	14339
857.931	14328
858.064	14332
858.197	14454
858.331	14248
858.464	14225
858.597	14240
858.731	14332
858.864	14301
858.997	14290
859.13	14309
859.263	14294
859.396	14301
859.529	14221
859.662	14176
859.795	14119
859.928	14278
860.061	14389
860.194	14427
860.327	14332
860.46	14233
860.592	14370
860.725	14469
860.858	14374
860.99	14294
861.123	14233
861.256	14290
861.388	14374
861.521	14731
861.653	14176
861.786	14134
861.918	14096
862.05	14088
862.183	14145
862.315	14244
862.447	14355
862.58	14210
862.712	14073
862.844	14020
862.976	14069
863.108	14103
863.24	14404
863.372	13909
863.504	14035
863.636	14031
863.768	14073
863.9	14069
864.032	13970
864.164	14039
864.296	14107
864.428	14145
864.559	14058
864.691	14142
864.823	14024
864.954	14077
865.086	14024
865.217	13986
865.349	14020
865.48	14008
865.612	14073
865.743	14046
865.875	14062
866.006	13974
866.137	14024
866.269	14069
866.4	14012
866.531	13997
866.662	14020
866.793	13997
866.924	13959
867.055	13997
867.186	14020
867.317	13940
867.448	13925
867.579	14016
867.71	13860
867.841	13986
867.972	14024
868.103	13951
868.233	13997
868.364	14077
868.495	14119
868.625	14187
868.756	14431
868.886	14259
869.017	14286
869.147	14343
869.278	14309
869.408	14324
869.539	14339
869.669	14355
869.799	14328
869.929	14408
870.06	14336
870.19	14549
870.32	14617
870.45	14533
870.58	14678
870.71	14758
870.84	14727
870.97	14686
871.1	14598
871.23	14746
871.36	14921
871.489	14826
871.619	14830
871.749	14925
871.879	14876
872.008	14998
872.138	14990
872.267	14872
872.397	14739
872.526	14693
872.656	14670
872.785	14842
872.915	14758
873.044	14918
873.173	14788
873.303	14990
873.432	14948
873.561	14963
873.69	14895
873.819	14910
873.948	15100
874.077	14910
874.206	14876
874.335	15005
874.464	15024
874.593	15214
874.722	15176
874.851	15294
874.979	15252
875.108	15268
875.237	15154
875.365	15112
875.494	15195
875.623	15325
875.751	15317
875.88	15306
876.008	15435
876.136	15454
876.265	15679
876.393	15747
876.521	15766
876.65	15816
876.778	15675
876.906	15633
877.034	15587
877.162	15614
877.29	15625
877.418	15637
877.546	15606
877.674	15720
877.802	15770
877.93	15644
878.058	15523
878.185	15595
878.313	15614
878.441	15584
878.568	15504
878.696	15538
878.824	15667
878.951	15774
879.079	15804
879.206	15975
879.333	15907
879.461	15720
879.588	15694
879.715	15789
879.842	15975
879.97	15759
880.097	15530
880.224	15530
880.351	15435
880.478	15523
880.605	15431
880.732	15553
880.859	15675
880.986	15580
881.112	15393
881.239	15317
881.366	15214
881.493	15112
881.619	15192
881.746	15260
881.872	15203
881.999	15116
882.125	15058
882.252	15226
882.378	15180
882.505	15211
882.631	15089
882.757	15028
882.883	15066
883.01	14979
883.136	14815
883.262	14826
883.388	14773
883.514	14925
883.64	15005
883.766	14910
883.892	14857
884.018	14746
884.143	14918
884.269	14910
884.395	14651
884.52	14701
884.646	14682
884.772	14583
884.897	14693
885.023	14575
885.148	14845
885.274	14796
885.399	14811
885.524	14720
885.65	14785
885.775	14724
885.9	14785
886.025	14834
886.15	14773
886.275	14625
886.4	14670
886.525	14716
886.65	14579
886.775	14522
886.9	14712
887.025	14963
887.149	14705
887.274	14556
887.399	14446
887.523	14461
887.648	14427
887.773	14362
887.897	14602
888.021	14606
888.146	14461
888.27	14583
888.395	14693
888.519	14503
888.643	14533
888.767	14602
888.891	14507
889.015	14305
889.139	14465
889.263	14450
889.387	14537
889.511	14613
889.635	14492
889.759	14347
889.883	14454
890.006	14438
890.13	14457
890.254	14355
890.377	14320
890.501	14111
890.624	14183
890.748	14259
890.871	14240
890.995	13993
891.118	14016
891.241	14024
891.364	14084
891.488	14142
891.611	14096
891.734	14027
891.857	14100
891.98	14081
892.103	14168
892.226	14134
892.349	14088
892.471	13944
892.594	14001
892.717	14065
892.839	14058
892.962	14077
893.085	14263
893.207	14126
893.33	13932
893.452	13947
893.575	14100
893.697	14031
893.819	14275
893.941	14328
894.064	14301
894.186	14039
894.308	14081
894.43	14202
894.552	14271
894.674	14229
894.796	14035
894.918	14164
895.04	14176
895.161	14259
895.283	14195
895.405	14149
895.526	14244
895.648	14240
895.769	14282
895.891	14187
896.012	14317
896.134	14168
896.255	14320
896.376	14259
896.498	14180
896.619	14358
896.74	14218
896.861	14301
896.982	14533
897.103	14804
897.224	14571
897.345	14507
897.466	14442
897.587	14560
897.708	14617
897.828	14549
897.949	14598
898.07	14400
898.19	14461
898.311	14701
898.431	14507
898.552	14537
898.672	14693
898.792	14697
898.913	14682
899.033	14480
899.153	14514
899.273	14309
899.393	14412
899.513	14568
899.633	14431
899.753	14412
899.873	14438
899.993	14549
900.113	14507
900.232	14522
900.352	14415
900.472	14351
900.591	14381
900.711	14351
900.83	14252
900.95	14408
901.069	14495
901.189	14301
901.308	14119
901.427	13902
901.546	14119
901.665	14008
901.784	14050
901.904	13879
902.023	13856
902.141	13632
902.26	13647
902.379	13666
902.498	13525
902.617	13567
902.735	13590
902.854	13552
902.973	13510
903.091	13278
903.21	13316
903.328	13312
903.446	13316
903.565	13236
903.683	13145
903.801	13050
903.919	13099
904.038	13160
904.156	12973
904.274	13023
904.392	12943
904.51	12844
904.627	12943
904.745	12935
904.863	13061
904.981	12837
905.098	12681
905.216	12696
905.334	12726
905.451	12597
905.569	12589
905.686	12662
905.803	12673
905.921	12475
906.038	12517
906.155	12479
906.272	12338
906.389	12338
906.506	12323
906.623	12213
906.74	12239
906.857	12060
906.974	12232
907.091	12292
907.208	12384
907.324	12247
907.441	12171
907.557	11977
907.674	11942
907.79	11863
907.907	11988
908.023	11961
908.139	11988
908.256	11950
908.372	11942
908.488	11805
908.604	11836
908.72	11760
908.836	11779
908.952	11748
909.068	11817
909.184	11813
909.3	11745
909.415	11771
909.531	11672
909.647	11532
909.762	11539
909.878	11509
909.993	11539
910.108	11440
910.224	11444
910.339	11539
910.454	11364
910.57	11372
910.685	11353
910.8	11520
910.915	11516
911.03	11349
911.145	11280
911.259	11189
911.374	11254
911.489	11041
911.604	11060
911.718	10923
911.833	10923
911.947	10793
912.062	10698
912.176	10877
912.291	10927
912.405	10900
912.519	11201
912.633	11174
912.748	10980
912.862	10949
912.976	10809
913.09	10679
913.204	10782
913.318	10889
913.431	10972
913.545	10923
913.659	11003
913.772	10828
913.886	10744
914	10702
914.113	10809
914.226	10797
914.34	10877
914.453	10694
914.566	10740
914.68	10721
914.793	10637
914.906	10466
915.019	10402
915.132	10314
915.245	10470
915.358	10478
915.47	10466
915.583	10519
915.696	10542
915.809	10641
915.921	10580
916.034	10485
916.146	10432
916.259	10344
916.371	10451
916.483	10508
916.595	10341
916.708	10352
916.82	10451
916.932	10485
917.044	10424
917.156	10382
917.268	10227
917.38	10375
917.491	10333
917.603	10318
917.715	10379
917.826	10417
917.938	10360
918.049	10185
918.161	10402
918.272	10497
918.384	10451
918.495	10382
918.606	10257
918.717	10162
918.828	10185
918.939	10188
919.05	10063
919.161	10185
919.272	9972
919.383	10055
919.494	10299
919.604	10459
919.715	10268
919.826	10101
919.936	10265
920.047	10265
920.157	10261
920.267	10447
920.378	10291
920.488	10238
920.598	10375
920.708	10603
920.818	10322
920.928	10470
921.038	10607
921.148	10603
921.258	10314
921.368	10234
921.477	10078
921.587	10025
921.697	9991
921.806	10147
921.916	9918
922.025	9827
922.134	9808
922.244	9835
922.353	9880
922.462	9679
922.571	9622
922.68	9496
922.789	9473
922.898	9534
923.007	9389
923.116	9671
923.224	9473
923.333	9454
923.442	9424
923.55	9332
923.659	9443
923.767	9389
923.876	9302
923.984	9523
924.092	9291
924.201	9359
924.309	9389
924.417	9466
924.525	9355
924.633	9401
924.741	10120
924.849	9176
924.956	9313
925.064	9142
925.172	9039
925.279	9142
925.387	9195
925.494	9203
925.602	9214
925.709	9272
925.816	9097
925.924	9233
926.031	9237
926.138	9135
926.245	9192
926.352	9104
926.459	9214
926.566	9245
926.673	9127
926.779	9009
926.886	8975
926.993	8868
927.099	8872
927.206	8819
927.312	8739
927.419	9005
927.525	8883
927.631	8899
927.737	8796
927.843	8758
927.95	8716
928.056	8773
928.162	8792
928.267	8815
928.373	9382
928.479	8826
928.585	8727
928.69	8750
928.796	8845
928.901	8804
929.007	8545
929.112	8724
929.218	8663
929.323	8571
929.428	8579
929.533	8693
929.638	8526
929.743	8568
929.848	8636
929.953	8556
930.058	8480
930.163	8351
930.267	8370
930.372	8442
930.477	8305
930.581	8568
930.685	8431
930.79	8320
930.894	8309
930.998	8240
931.103	8503
931.207	8054
931.311	8065
931.415	7921
931.519	7811
931.623	7772
