Data from test_V78500241_1185.txt Node
Date: Fri Mar 25 14:41:58 CST 2022
User: usil
Spectrometer: V785-0024
Trigger mode: 0
Integration Time (sec): 4.000000E-1
Scans to average: 1
Nonlinearity correction enabled: false
Boxcar width: 0
Storing dark spectrum: false
XAxis mode: Wavelengths
Number of Pixels in Spectrum: 1024
>>>>>Begin Spectral Data<<<<<
801.071	22428
801.214	22421
801.356	22070
801.499	21987
801.641	21838
801.783	21808
801.926	21915
802.068	21724
802.211	21770
802.353	21671
802.496	21306
802.638	21264
802.78	21287
802.923	21093
803.065	21169
803.208	21195
803.35	21176
803.492	21195
803.635	21370
803.777	21096
803.919	21230
804.061	21519
804.204	21233
804.346	21157
804.488	21013
804.63	21043
804.773	20921
804.915	21226
805.057	21157
805.199	20948
805.341	21165
805.483	21237
805.626	21055
805.768	21062
805.91	21169
806.052	21188
806.194	20941
806.336	21218
806.478	21058
806.62	21108
806.762	21142
806.904	21363
807.046	21515
807.188	21424
807.33	21249
807.472	21462
807.614	21344
807.756	21393
807.898	21252
808.04	21233
808.182	21203
808.324	21325
808.465	21222
808.607	21481
808.749	21504
808.891	21751
809.033	21846
809.174	21557
809.316	21564
809.458	21477
809.6	21462
809.741	21595
809.883	21698
810.025	21690
810.166	21701
810.308	21591
810.45	21542
810.591	21542
810.733	21363
810.875	21272
811.016	21268
811.158	21199
811.299	21298
811.441	21485
811.582	21454
811.724	21233
811.865	21264
812.007	21180
812.148	21310
812.29	21245
812.431	21420
812.573	21656
812.714	21557
812.855	21682
812.997	21854
813.138	21994
813.279	21934
813.421	21812
813.562	21759
813.703	21648
813.845	21481
813.986	21127
814.127	21116
814.268	20826
814.41	20853
814.551	20712
814.692	20788
814.833	20792
814.974	20834
815.115	20769
815.256	20686
815.397	20625
815.539	20667
815.68	20484
815.821	20488
815.962	20465
816.103	20659
816.244	20488
816.385	20248
816.526	20355
816.666	20145
816.807	19917
816.948	20020
817.089	20111
817.23	20008
817.371	19936
817.512	19913
817.653	19947
817.793	19902
817.934	19925
818.075	20012
818.216	19928
818.356	19879
818.497	19799
818.638	19655
818.778	19575
818.919	19578
819.06	19643
819.2	19814
819.341	19738
819.481	19715
819.622	19959
819.762	20195
819.903	20054
820.043	19993
820.184	19921
820.324	20005
820.465	19871
820.605	20027
820.746	19932
820.886	19807
821.026	19909
821.167	20012
821.307	19921
821.447	19875
821.588	19811
821.728	19605
821.868	19514
822.008	19400
822.149	19396
822.289	19358
822.429	18996
822.569	18993
822.709	18973
822.849	18973
822.99	18886
823.13	18779
823.27	18844
823.41	18684
823.55	18642
823.69	18593
823.83	18559
823.97	18585
824.11	18517
824.25	18441
824.389	18513
824.529	18429
824.669	18471
824.809	18563
824.949	18471
825.089	18391
825.228	18456
825.368	18251
825.508	18388
825.648	18201
825.787	18205
825.927	18319
826.067	18243
826.206	18289
826.346	18273
826.485	18254
826.625	18239
826.765	18338
826.904	18213
827.044	18034
827.183	17988
827.323	17790
827.462	17904
827.601	17927
827.741	17889
827.88	17965
828.02	17836
828.159	17901
828.298	17897
828.437	17893
828.577	17889
828.716	18038
828.855	17954
828.994	17741
829.134	17649
829.273	17649
829.412	17596
829.551	17623
829.69	17687
829.829	17714
829.968	17813
830.107	17832
830.246	17707
830.385	17703
830.524	17653
830.663	17501
830.802	17315
830.941	17280
831.08	17128
831.219	17322
831.357	17345
831.496	17539
831.635	17261
831.774	17231
831.913	17200
832.051	17086
832.19	17124
832.329	17079
832.467	17113
832.606	16965
832.744	16923
832.883	16980
833.022	16987
833.16	17094
833.299	16999
833.437	17018
833.576	17136
833.714	17079
833.852	17048
833.991	17029
834.129	17105
834.267	17162
834.406	17128
834.544	17140
834.682	17094
834.821	17025
834.959	17216
835.097	16980
835.235	17121
835.373	17048
835.511	17025
835.65	16999
835.788	17029
835.926	16843
836.064	16790
836.202	16824
836.34	16976
836.478	17064
836.615	16980
836.753	16923
836.891	16999
837.029	17109
837.167	16923
837.305	16911
837.443	16900
837.58	16824
837.718	16900
837.856	16721
837.993	16672
838.131	16748
838.269	16767
838.406	16812
838.544	16649
838.681	16561
838.819	16542
838.956	16268
839.094	16363
839.231	16470
839.369	16531
839.506	16596
839.643	16596
839.781	16299
839.918	16367
840.055	16390
840.193	16356
840.33	16375
840.467	16322
840.604	16440
840.742	16523
840.879	16154
841.016	16287
841.153	16310
841.29	16531
841.427	16318
841.564	16341
841.701	16341
841.838	16207
841.975	16276
842.112	16276
842.249	16139
842.385	16112
842.522	16242
842.659	16173
842.796	16131
842.933	16188
843.069	16063
843.206	16101
843.343	16131
843.479	16135
843.616	16188
843.752	15964
843.889	15937
844.025	16211
844.162	15937
844.298	16036
844.435	15968
844.571	15857
844.708	15964
844.844	16177
844.98	16067
845.117	16044
845.253	15892
845.389	15785
845.525	15911
845.661	15876
845.798	15812
845.934	15915
846.07	15800
846.206	15930
846.342	15987
846.478	15930
846.614	15576
846.75	15542
846.886	15485
847.022	15633
847.158	15557
847.294	15431
847.429	15663
847.565	15515
847.701	15759
847.837	15230
847.972	15169
848.108	15367
848.244	15230
848.379	15169
848.515	15214
848.65	15081
848.786	15036
848.921	15127
849.057	15173
849.192	15169
849.328	15138
849.463	15127
849.598	15142
849.734	14937
849.869	14902
850.004	14910
850.14	14853
850.275	14804
850.41	14819
850.545	14758
850.68	14864
850.815	14895
850.95	14807
851.085	15009
851.22	14960
851.355	14963
851.49	14819
851.625	14929
851.76	14849
851.895	14735
852.03	14861
852.165	14834
852.299	14880
852.434	14967
852.569	14872
852.703	14933
852.838	14963
852.973	15051
853.107	14967
853.242	14826
853.376	14781
853.511	14571
853.645	14720
853.78	14838
853.914	14773
854.048	14731
854.183	14750
854.317	14708
854.451	14929
854.585	14807
854.72	14731
854.854	14720
854.988	14663
855.122	14758
855.256	14541
855.39	14743
855.524	14777
855.658	14857
855.792	14826
855.926	14804
856.06	14769
856.194	14823
856.327	14743
856.461	14727
856.595	14735
856.729	14708
856.862	14941
856.996	14769
857.13	14804
857.263	14807
857.397	14864
857.53	14815
857.664	14849
857.797	14895
857.931	14857
858.064	14811
858.197	14876
858.331	14746
858.464	14727
858.597	14659
858.731	14720
858.864	14727
858.997	14663
859.13	14724
859.263	14762
859.396	14788
859.529	14731
859.662	14625
859.795	14678
859.928	14629
860.061	14914
860.194	14910
860.327	14724
860.46	14739
860.592	14781
860.725	14826
860.858	14804
860.99	14735
861.123	14632
861.256	14705
861.388	14750
861.521	15473
861.653	14610
861.786	14488
861.918	14575
862.05	14594
862.183	14693
862.315	14731
862.447	14796
862.58	14632
862.712	14549
862.844	14442
862.976	14530
863.108	14499
863.24	14891
863.372	14374
863.504	14530
863.636	14461
863.768	14606
863.9	14495
864.032	14438
864.164	14457
864.296	14587
864.428	14579
864.559	14697
864.691	14552
864.823	14560
864.954	14602
865.086	14503
865.217	14427
865.349	14381
865.48	14499
865.612	14450
865.743	14644
865.875	14419
866.006	14575
866.137	14488
866.269	14507
866.4	14541
866.531	14427
866.662	14427
866.793	14465
866.924	14419
867.055	14473
867.186	14526
867.317	14423
867.448	14469
867.579	14469
867.71	14347
867.841	14393
867.972	14492
868.103	14454
868.233	14469
868.364	14469
868.495	14564
868.625	14731
868.756	14792
868.886	14697
869.017	14693
869.147	14781
869.278	14845
869.408	14697
869.539	14697
869.669	14823
869.799	14762
869.929	14864
870.06	14838
870.19	15020
870.32	14990
870.45	15150
870.58	15135
870.71	15184
870.84	15237
870.97	15127
871.1	15108
871.23	15340
871.36	15264
871.489	15233
871.619	15321
871.749	15382
871.879	15424
872.008	15481
872.138	15393
872.267	15367
872.397	15161
872.526	15211
872.656	15093
872.785	15192
872.915	15329
873.044	15431
873.173	15321
873.303	15367
873.432	15355
873.561	15454
873.69	15370
873.819	15230
873.948	15393
874.077	15405
874.206	15367
874.335	15317
874.464	15500
874.593	15633
874.722	15606
874.851	15800
874.979	15720
875.108	15747
875.237	15644
875.365	15663
875.494	15580
875.623	15797
875.751	15663
875.88	15732
876.008	15797
876.136	15876
876.265	16093
876.393	16215
876.521	16169
876.65	16101
876.778	16128
876.906	16101
877.034	16006
877.162	16044
877.29	16112
877.418	16124
877.546	16112
877.674	15998
877.802	16188
877.93	16044
878.058	16078
878.185	15911
878.313	16128
878.441	16223
878.568	15911
878.696	16044
878.824	16154
878.951	16078
879.079	16371
879.206	16432
879.333	16394
879.461	16147
879.588	16280
879.715	16405
879.842	16436
879.97	16230
880.097	16036
880.224	16010
880.351	16013
880.478	15998
880.605	15926
880.732	15857
880.859	16261
880.986	15869
881.112	16040
881.239	15873
881.366	15720
881.493	15667
881.619	15629
881.746	15629
881.872	15549
881.999	15572
882.125	15587
882.252	15629
882.378	15629
882.505	15724
882.631	15618
882.757	15469
882.883	15458
883.01	15340
883.136	15397
883.262	15306
883.388	15230
883.514	15447
883.64	15511
883.766	15428
883.892	15306
884.018	15233
884.143	15389
884.269	15519
884.395	15169
884.52	15077
884.646	15089
884.772	15070
884.897	14975
885.023	15192
885.148	15184
885.274	15382
885.399	15226
885.524	15192
885.65	15154
885.775	15093
885.9	15176
886.025	15310
886.15	15154
886.275	14990
886.4	14998
886.525	15104
886.65	14963
886.775	15051
886.9	15260
887.025	15321
887.149	15123
887.274	14918
887.399	14967
887.523	14895
887.648	14849
887.773	14906
887.897	15024
888.021	15062
888.146	14826
888.27	15058
888.395	15066
888.519	14925
888.643	14982
888.767	14967
888.891	14861
889.015	14750
889.139	14834
889.263	14811
889.387	14902
889.511	15013
889.635	14971
889.759	14731
889.883	14811
890.006	14883
890.13	14880
890.254	14731
890.377	14697
890.501	14617
890.624	14564
890.748	14670
890.871	14560
890.995	14484
891.118	14347
891.241	14552
891.364	14465
891.488	14560
891.611	14549
891.734	14549
891.857	14552
891.98	14590
892.103	14571
892.226	14575
892.349	14503
892.471	14332
892.594	14484
892.717	14473
892.839	14503
892.962	14495
893.085	14537
893.207	14499
893.33	14294
893.452	14438
893.575	14465
893.697	14374
893.819	14526
893.941	14708
894.064	14590
894.186	14355
894.308	14332
894.43	14617
894.552	14640
894.674	14640
894.796	14423
894.918	14488
895.04	14560
895.161	14648
895.283	14583
895.405	14518
895.526	14556
895.648	14545
895.769	14606
895.891	14617
896.012	14655
896.134	14648
896.255	14640
896.376	14514
896.498	14617
896.619	14663
896.74	14701
896.861	14659
896.982	15039
897.103	15097
897.224	14975
897.345	14804
897.466	14853
897.587	14910
897.708	14952
897.828	14975
897.949	14872
898.07	14762
898.19	14849
898.311	15024
898.431	14842
898.552	14948
898.672	15043
898.792	15070
898.913	15089
899.033	15036
899.153	14804
899.273	14670
899.393	14845
899.513	14914
899.633	14876
899.753	14845
899.873	14739
899.993	14880
900.113	14842
900.232	14906
900.352	14815
900.472	14826
900.591	14625
900.711	14583
900.83	14594
900.95	14750
901.069	14754
901.189	14590
901.308	14351
901.427	14320
901.546	14347
901.665	14374
901.784	14259
901.904	14202
902.023	14157
902.141	14084
902.26	13890
902.379	13879
902.498	13864
902.617	13890
902.735	13986
902.854	13951
902.973	13807
903.091	13685
903.21	13571
903.328	13586
903.446	13613
903.565	13499
903.683	13533
903.801	13441
903.919	13514
904.038	13457
904.156	13251
904.274	13358
904.392	13244
904.51	13270
904.627	13228
904.745	13331
904.863	13293
904.981	13190
905.098	12993
905.216	12962
905.334	12909
905.451	12985
905.569	12989
905.686	13042
905.803	13000
905.921	12821
906.038	12817
906.155	12787
906.272	12692
906.389	12688
906.506	12604
906.623	12604
906.74	12608
906.857	12445
906.974	12532
907.091	12608
907.208	12738
907.324	12684
907.441	12437
907.557	12311
907.674	12323
907.79	12281
907.907	12292
908.023	12311
908.139	12342
908.256	12220
908.372	12224
908.488	12315
908.604	12182
908.72	11996
908.836	12041
908.952	12038
909.068	12064
909.184	12182
909.3	12098
909.415	12133
909.531	12121
909.647	11741
909.762	11901
909.878	11828
909.993	11775
910.108	11870
910.224	11832
910.339	11805
910.454	11691
910.57	11668
910.685	11668
910.8	11958
910.915	11832
911.03	11684
911.145	11657
911.259	11547
911.374	11455
911.489	11455
911.604	11360
911.718	11250
911.833	11341
911.947	11162
912.062	11113
912.176	11345
912.291	11341
912.405	11189
912.519	11474
912.633	11425
912.748	11410
912.862	11212
912.976	11151
913.09	11048
913.204	11090
913.318	11136
913.431	11265
913.545	11193
913.659	11280
913.772	11208
913.886	11067
914	11090
914.113	11124
914.226	11189
914.34	11124
914.453	10961
914.566	11128
914.68	11022
914.793	11029
914.906	10778
915.019	10767
915.132	10729
915.245	10778
915.358	10831
915.47	10782
915.583	10805
915.696	10854
915.809	10927
915.921	10889
916.034	10725
916.146	10721
916.259	10721
916.371	10809
916.483	10809
916.595	10687
916.708	10774
916.82	10672
916.932	10668
917.044	10714
917.156	10615
917.268	10565
917.38	10592
917.491	10519
917.603	10679
917.715	10687
917.826	10641
917.938	10577
918.049	10440
918.161	10626
918.272	10725
918.384	10759
918.495	10649
918.606	10443
918.717	10405
918.828	10489
918.939	10504
919.05	10424
919.161	10409
919.272	10257
919.383	10344
919.494	10569
919.604	10729
919.715	10527
919.826	10337
919.936	10436
920.047	10573
920.157	10508
920.267	10668
920.378	10508
920.488	10554
920.598	10698
920.708	10824
920.818	10645
920.928	10679
921.038	10820
921.148	10714
921.258	10516
921.368	10386
921.477	10360
921.587	10314
921.697	10242
921.806	10314
921.916	10200
922.025	10048
922.134	9983
922.244	9968
922.353	9994
922.462	9949
922.571	9857
922.68	9743
922.789	9694
922.898	9720
923.007	9724
923.116	9724
923.224	9732
923.333	9759
923.442	9584
923.55	9633
923.659	9610
923.767	9675
923.876	9591
923.984	9603
924.092	9542
924.201	9595
924.309	9622
924.417	9599
924.525	9500
924.633	9473
924.741	10375
924.849	9348
924.956	9526
925.064	9344
925.172	9272
925.279	9344
925.387	9424
925.494	9359
925.602	9496
925.709	9424
925.816	9317
925.924	9329
926.031	9462
926.138	9332
926.245	9412
926.352	9256
926.459	9458
926.566	9401
926.673	9294
926.779	9287
926.886	9169
926.993	9135
927.099	9062
927.206	9013
927.312	9020
927.419	9116
927.525	9077
927.631	9184
927.737	8998
927.843	8979
927.95	8925
928.056	8975
928.162	9032
928.267	9047
928.373	9671
928.479	9089
928.585	8849
928.69	8910
928.796	8925
928.901	8887
929.007	8697
929.112	8902
929.218	8834
929.323	8769
929.428	8777
929.533	8918
929.638	8792
929.743	8727
929.848	8724
929.953	8746
930.058	8606
930.163	8571
930.267	8602
930.372	8701
930.477	8503
930.581	8686
930.685	8659
930.79	8419
930.894	8484
930.998	8533
931.103	8670
931.207	8301
931.311	8229
931.415	8191
931.519	8027
931.623	7947
