Data from test_V78500241_1312.txt Node
Date: Fri Mar 25 14:42:51 CST 2022
User: usil
Spectrometer: V785-0024
Trigger mode: 0
Integration Time (sec): 4.000000E-1
Scans to average: 1
Nonlinearity correction enabled: false
Boxcar width: 0
Storing dark spectrum: false
XAxis mode: Wavelengths
Number of Pixels in Spectrum: 1024
>>>>>Begin Spectral Data<<<<<
801.071	22455
801.214	22337
801.356	22010
801.499	21941
801.641	21880
801.783	21755
801.926	21705
802.068	21656
802.211	21622
802.353	21534
802.496	21344
802.638	21245
802.78	21218
802.923	21127
803.065	21070
803.208	21116
803.35	21150
803.492	21195
803.635	21214
803.777	21104
803.919	21211
804.061	21530
804.204	21108
804.346	21051
804.488	20963
804.63	21001
804.773	20944
804.915	21173
805.057	21222
805.199	20998
805.341	21131
805.483	21165
805.626	21169
805.768	21066
805.91	21013
806.052	21150
806.194	21005
806.336	21112
806.478	21093
806.62	20937
806.762	21001
806.904	21264
807.046	21542
807.188	21321
807.33	21321
807.472	21424
807.614	21252
807.756	21363
807.898	21283
808.04	21150
808.182	21294
808.324	21199
808.465	21233
808.607	21511
808.749	21652
808.891	21705
809.033	21743
809.174	21682
809.316	21561
809.458	21538
809.6	21466
809.741	21523
809.883	21568
810.025	21580
810.166	21599
810.308	21778
810.45	21492
810.591	21534
810.733	21294
810.875	21283
811.016	21176
811.158	21093
811.299	21268
811.441	21405
811.582	21317
811.724	21218
811.865	21218
812.007	21112
812.148	21150
812.29	21214
812.431	21298
812.573	21561
812.714	21553
812.855	21629
812.997	21751
813.138	21922
813.279	21781
813.421	21694
813.562	21572
813.703	21545
813.845	21252
813.986	21119
814.127	20887
814.268	20762
814.41	20746
814.551	20788
814.692	20834
814.833	20556
814.974	20686
815.115	20800
815.256	20579
815.397	20682
815.539	20522
815.68	20571
815.821	20488
815.962	20362
816.103	20412
816.244	20385
816.385	20233
816.526	20259
816.666	19959
816.807	19978
816.948	20062
817.089	20012
817.23	19986
817.371	19883
817.512	19833
817.653	19841
817.793	19982
817.934	19864
818.075	20005
818.216	19887
818.356	19742
818.497	19772
818.638	19575
818.778	19537
818.919	19521
819.06	19704
819.2	19666
819.341	19795
819.481	19674
819.622	19906
819.762	20024
819.903	19982
820.043	19864
820.184	19826
820.324	19811
820.465	19890
820.605	19830
820.746	19879
820.886	19746
821.026	19887
821.167	19917
821.307	19902
821.447	19864
821.588	19666
821.728	19548
821.868	19400
822.008	19217
822.149	19316
822.289	19232
822.429	18871
822.569	18928
822.709	18939
822.849	18821
822.99	18707
823.13	18920
823.27	18604
823.41	18612
823.55	18525
823.69	18506
823.83	18570
823.97	18509
824.11	18304
824.25	18426
824.389	18350
824.529	18418
824.669	18319
824.809	18498
824.949	18471
825.089	18414
825.228	18338
825.368	18243
825.508	18308
825.648	18232
825.787	18155
825.927	18277
826.067	18087
826.206	18034
826.346	18201
826.485	18178
826.625	18266
826.765	18289
826.904	18174
827.044	17935
827.183	17950
827.323	17828
827.462	17973
827.601	17942
827.741	17893
827.88	17908
828.02	17813
828.159	17779
828.298	17908
828.437	17916
828.577	17832
828.716	17996
828.855	17813
828.994	17619
829.134	17661
829.273	17630
829.412	17573
829.551	17558
829.69	17528
829.829	17699
829.968	17627
830.107	17642
830.246	17646
830.385	17440
830.524	17467
830.663	17436
830.802	17376
830.941	17227
831.08	17128
831.219	17334
831.357	17345
831.496	17410
831.635	17151
831.774	17121
831.913	17159
832.051	17014
832.19	17018
832.329	17048
832.467	16934
832.606	16889
832.744	16820
832.883	16972
833.022	16965
833.16	16934
833.299	16980
833.437	17060
833.576	16923
833.714	17052
833.852	16934
833.991	17014
834.129	17003
834.267	17037
834.406	17098
834.544	17090
834.682	16968
834.821	16995
834.959	17181
835.097	16858
835.235	17109
835.373	17010
835.511	17098
835.65	16934
835.788	16957
835.926	16797
836.064	16752
836.202	16721
836.34	16961
836.478	16953
836.615	16965
836.753	16869
836.891	16957
837.029	16976
837.167	16927
837.305	16934
837.443	16759
837.58	16767
837.718	16763
837.856	16793
837.993	16755
838.131	16755
838.269	16710
838.406	16721
838.544	16774
838.681	16432
838.819	16504
838.956	16310
839.094	16394
839.231	16451
839.369	16398
839.506	16706
839.643	16527
839.781	16230
839.918	16325
840.055	16478
840.193	16287
840.33	16337
840.467	16322
840.604	16367
840.742	16478
840.879	16158
841.016	16249
841.153	16207
841.29	16447
841.427	16314
841.564	16348
841.701	16341
841.838	16253
841.975	16291
842.112	16310
842.249	16128
842.385	15949
842.522	16230
842.659	16082
842.796	16040
842.933	16017
843.069	15998
843.206	15941
843.343	16223
843.479	16071
843.616	16063
843.752	15865
843.889	15880
844.025	16097
844.162	15865
844.298	15979
844.435	15808
844.571	15857
844.708	15979
844.844	16143
844.98	16013
845.117	15972
845.253	15766
845.389	15873
845.525	15823
845.661	15785
845.798	15861
845.934	15987
846.07	15846
846.206	15934
846.342	16002
846.478	15751
846.614	15492
846.75	15439
846.886	15405
847.022	15553
847.158	15538
847.294	15458
847.429	15523
847.565	15549
847.701	15705
847.837	15127
847.972	15127
848.108	15260
848.244	15230
848.379	14963
848.515	15070
848.65	14944
848.786	14941
848.921	15097
849.057	15116
849.192	15074
849.328	14960
849.463	15017
849.598	15058
849.734	14918
849.869	14880
850.004	14750
850.14	14826
850.275	14815
850.41	14689
850.545	14796
850.68	14765
850.815	14807
850.95	14739
851.085	14952
851.22	14811
851.355	14758
851.49	14731
851.625	14712
851.76	14773
851.895	14708
852.03	14629
852.165	14788
852.299	14724
852.434	14807
852.569	14762
852.703	14857
852.838	14800
852.973	14941
853.107	14986
853.242	14773
853.376	14663
853.511	14602
853.645	14651
853.78	14792
853.914	14716
854.048	14651
854.183	14636
854.317	14640
854.451	14807
854.585	14587
854.72	14701
854.854	14705
854.988	14568
855.122	14708
855.256	14503
855.39	14610
855.524	14773
855.658	14682
855.792	14727
855.926	14701
856.06	14796
856.194	14823
856.327	14583
856.461	14640
856.595	14571
856.729	14682
856.862	14849
856.996	14686
857.13	14659
857.263	14731
857.397	14731
857.53	14724
857.664	14773
857.797	14769
857.931	14762
858.064	14712
858.197	14743
858.331	14670
858.464	14583
858.597	14434
858.731	14625
858.864	14598
858.997	14689
859.13	14716
859.263	14708
859.396	14686
859.529	14678
859.662	14621
859.795	14579
859.928	14712
860.061	14796
860.194	14838
860.327	14670
860.46	14686
860.592	14762
860.725	14887
860.858	14785
860.99	14594
861.123	14579
861.256	14598
861.388	14568
861.521	15367
861.653	14545
861.786	14385
861.918	14484
862.05	14560
862.183	14571
862.315	14636
862.447	14712
862.58	14590
862.712	14431
862.844	14400
862.976	14488
863.108	14457
863.24	14941
863.372	14244
863.504	14396
863.636	14461
863.768	14423
863.9	14450
864.032	14313
864.164	14351
864.296	14476
864.428	14511
864.559	14473
864.691	14571
864.823	14560
864.954	14434
865.086	14362
865.217	14389
865.349	14400
865.48	14461
865.612	14419
865.743	14400
865.875	14427
866.006	14298
866.137	14400
866.269	14412
866.4	14389
866.531	14336
866.662	14313
866.793	14336
866.924	14389
867.055	14400
867.186	14457
867.317	14362
867.448	14347
867.579	14320
867.71	14324
867.841	14370
867.972	14412
868.103	14389
868.233	14461
868.364	14431
868.495	14454
868.625	14571
868.756	14724
868.886	14617
869.017	14651
869.147	14804
869.278	14864
869.408	14667
869.539	14594
869.669	14644
869.799	14689
869.929	14769
870.06	14800
870.19	15009
870.32	14967
870.45	15047
870.58	15020
870.71	15142
870.84	15154
870.97	15081
871.1	15055
871.23	15214
871.36	15272
871.489	15157
871.619	15256
871.749	15249
871.879	15310
872.008	15401
872.138	15230
872.267	15332
872.397	15142
872.526	15157
872.656	15024
872.785	15116
872.915	15310
873.044	15294
873.173	15291
873.303	15275
873.432	15310
873.561	15412
873.69	15424
873.819	15256
873.948	15340
874.077	15370
874.206	15252
874.335	15389
874.464	15450
874.593	15572
874.722	15477
874.851	15660
874.979	15705
875.108	15736
875.237	15564
875.365	15542
875.494	15660
875.623	15698
875.751	15549
875.88	15656
876.008	15842
876.136	15854
876.265	15994
876.393	16150
876.521	16120
876.65	16143
876.778	16021
876.906	15956
877.034	15937
877.162	16090
877.29	15899
877.418	15968
877.546	15937
877.674	15968
877.802	16013
877.93	16078
878.058	15994
878.185	16006
878.313	16055
878.441	16071
878.568	15899
878.696	16025
878.824	16071
878.951	16097
879.079	16207
879.206	16287
879.333	16223
879.461	16158
879.588	16192
879.715	16337
879.842	16398
879.97	16116
880.097	15994
880.224	16013
880.351	16025
880.478	15903
880.605	15861
880.732	15865
880.859	16173
880.986	15861
881.112	15979
881.239	15800
881.366	15667
881.493	15564
881.619	15515
881.746	15481
881.872	15584
881.999	15526
882.125	15568
882.252	15606
882.378	15561
882.505	15629
882.631	15488
882.757	15447
882.883	15344
883.01	15329
883.136	15207
883.262	15233
883.388	15142
883.514	15389
883.64	15374
883.766	15344
883.892	15169
884.018	15226
884.143	15367
884.269	15515
884.395	15169
884.52	15123
884.646	15001
884.772	15039
884.897	14880
885.023	15036
885.148	15093
885.274	15214
885.399	15100
885.524	15108
885.65	15062
885.775	15074
885.9	15051
886.025	15230
886.15	15104
886.275	14990
886.4	14925
886.525	14990
886.65	15036
886.775	14963
886.9	15272
887.025	15298
887.149	15055
887.274	14857
887.399	14883
887.523	14769
887.648	14887
887.773	14735
887.897	14956
888.021	14902
888.146	14906
888.27	14979
888.395	15055
888.519	14914
888.643	14918
888.767	14956
888.891	14804
889.015	14750
889.139	14826
889.263	14686
889.387	14743
889.511	14956
889.635	14830
889.759	14708
889.883	14617
890.006	14689
890.13	14834
890.254	14693
890.377	14693
890.501	14606
890.624	14549
890.748	14617
890.871	14632
890.995	14404
891.118	14294
891.241	14317
891.364	14461
891.488	14598
891.611	14408
891.734	14400
891.857	14484
891.98	14427
892.103	14465
892.226	14484
892.349	14396
892.471	14358
892.594	14358
892.717	14393
892.839	14396
892.962	14412
893.085	14412
893.207	14427
893.33	14305
893.452	14324
893.575	14408
893.697	14484
893.819	14488
893.941	14564
894.064	14594
894.186	14415
894.308	14317
894.43	14526
894.552	14621
894.674	14560
894.796	14396
894.918	14434
895.04	14476
895.161	14522
895.283	14476
895.405	14442
895.526	14495
895.648	14492
895.769	14537
895.891	14579
896.012	14552
896.134	14587
896.255	14511
896.376	14541
896.498	14583
896.619	14613
896.74	14556
896.861	14651
896.982	14956
897.103	15017
897.224	14899
897.345	14807
897.466	14682
897.587	14899
897.708	15001
897.828	14933
897.949	14804
898.07	14708
898.19	14800
898.311	14899
898.431	14777
898.552	14925
898.672	14979
898.792	14975
898.913	14941
899.033	14815
899.153	14727
899.273	14693
899.393	14796
899.513	14727
899.633	14815
899.753	14864
899.873	14724
899.993	14731
900.113	14663
900.232	14735
900.352	14750
900.472	14617
900.591	14579
900.711	14670
900.83	14568
900.95	14765
901.069	14735
901.189	14621
901.308	14252
901.427	14240
901.546	14298
901.665	14233
901.784	14351
901.904	14240
902.023	14020
902.141	13860
902.26	13852
902.379	13921
902.498	13799
902.617	13921
902.735	13967
902.854	13803
902.973	13814
903.091	13533
903.21	13597
903.328	13491
903.446	13556
903.565	13464
903.683	13415
903.801	13362
903.919	13438
904.038	13358
904.156	13251
904.274	13373
904.392	13270
904.51	13168
904.627	13221
904.745	13263
904.863	13282
904.981	12935
905.098	12871
905.216	12962
905.334	12932
905.451	12905
905.569	12825
905.686	13053
905.803	12966
905.921	12779
906.038	12802
906.155	12719
906.272	12662
906.389	12654
906.506	12525
906.623	12486
906.74	12536
906.857	12388
906.974	12414
907.091	12612
907.208	12623
907.324	12498
907.441	12410
907.557	12262
907.674	12262
907.79	12296
907.907	12224
908.023	12388
908.139	12224
908.256	12228
908.372	12224
908.488	12167
908.604	12053
908.72	11992
908.836	11901
908.952	12022
909.068	12064
909.184	12133
909.3	12015
909.415	12083
909.531	12102
909.647	11748
909.762	11741
909.878	11695
909.993	11809
910.108	11809
910.224	11859
910.339	11771
910.454	11653
910.57	11676
910.685	11604
910.8	11790
910.915	11798
911.03	11627
911.145	11440
911.259	11486
911.374	11547
911.489	11406
911.604	11410
911.718	11239
911.833	11273
911.947	11174
912.062	11033
912.176	11197
912.291	11174
912.405	11337
912.519	11421
912.633	11368
912.748	11307
912.862	11208
912.976	11128
913.09	11014
913.204	11079
913.318	11136
913.431	11151
913.545	11216
913.659	11166
913.772	11102
913.886	11048
914	10949
914.113	11067
914.226	11140
914.34	11056
914.453	10866
914.566	11117
914.68	10919
914.793	10892
914.906	10759
915.019	10687
915.132	10634
915.245	10687
915.358	10710
915.47	10729
915.583	10759
915.696	10740
915.809	10942
915.921	10911
916.034	10687
916.146	10702
916.259	10626
916.371	10698
916.483	10748
916.595	10592
916.708	10664
916.82	10641
916.932	10626
917.044	10592
917.156	10592
917.268	10459
917.38	10558
917.491	10455
917.603	10573
917.715	10626
917.826	10641
917.938	10554
918.049	10440
918.161	10592
918.272	10603
918.384	10653
918.495	10599
918.606	10489
918.717	10329
918.828	10424
918.939	10436
919.05	10386
919.161	10371
919.272	10238
919.383	10257
919.494	10497
919.604	10706
919.715	10402
919.826	10318
919.936	10375
920.047	10535
920.157	10455
920.267	10660
920.378	10459
920.488	10455
920.598	10569
920.708	10702
920.818	10542
920.928	10634
921.038	10721
921.148	10721
921.258	10462
921.368	10481
921.477	10314
921.587	10242
921.697	10185
921.806	10341
921.916	10181
922.025	10002
922.134	9998
922.244	9968
922.353	9987
922.462	9861
922.571	9854
922.68	9694
922.789	9686
922.898	9625
923.007	9557
923.116	9705
923.224	9705
923.333	9591
923.442	9584
923.55	9428
923.659	9511
923.767	9614
923.876	9412
923.984	9644
924.092	9439
924.201	9576
924.309	9511
924.417	9545
924.525	9511
924.633	9466
924.741	10379
924.849	9378
924.956	9450
925.064	9268
925.172	9279
925.279	9256
925.387	9359
925.494	9253
925.602	9439
925.709	9389
925.816	9233
925.924	9344
926.031	9336
926.138	9298
926.245	9321
926.352	9287
926.459	9359
926.566	9386
926.673	9279
926.779	9218
926.886	9116
926.993	9009
927.099	9009
927.206	9020
927.312	9005
927.419	9085
927.525	9032
927.631	9051
927.737	8937
927.843	8963
927.95	8819
928.056	8811
928.162	8883
928.267	8891
928.373	9595
928.479	9013
928.585	8804
928.69	8876
928.796	8937
928.901	8891
929.007	8670
929.112	8845
929.218	8838
929.323	8746
929.428	8735
929.533	8815
929.638	8678
929.743	8693
929.848	8796
929.953	8720
930.058	8590
930.163	8522
930.267	8511
930.372	8655
930.477	8423
930.581	8727
930.685	8533
930.79	8431
930.894	8431
930.998	8423
931.103	8587
931.207	8164
931.311	8164
931.415	8130
931.519	7936
931.623	7894
