Data from test_V78500241_2078.txt Node
Date: Fri Mar 25 14:48:10 CST 2022
User: usil
Spectrometer: V785-0024
Trigger mode: 0
Integration Time (sec): 4.000000E-1
Scans to average: 1
Nonlinearity correction enabled: false
Boxcar width: 0
Storing dark spectrum: false
XAxis mode: Wavelengths
Number of Pixels in Spectrum: 1024
>>>>>Begin Spectral Data<<<<<
801.071	22090
801.214	21991
801.356	21732
801.499	21629
801.641	21431
801.783	21351
801.926	21504
802.068	21397
802.211	21462
802.353	21279
802.496	21043
802.638	21070
802.78	20944
802.923	20902
803.065	20838
803.208	20781
803.35	20921
803.492	20815
803.635	20956
803.777	20864
803.919	20910
804.061	21085
804.204	20902
804.346	20811
804.488	20693
804.63	20830
804.773	20686
804.915	20640
805.057	20746
805.199	20842
805.341	20811
805.483	20861
805.626	20800
805.768	20705
805.91	20788
806.052	20716
806.194	20655
806.336	20963
806.478	20758
806.62	20682
806.762	20853
806.904	20876
807.046	21157
807.188	21062
807.33	21085
807.472	21047
807.614	20937
807.756	20937
807.898	20853
808.04	20785
808.182	20785
808.324	20800
808.465	20902
808.607	21043
808.749	21176
808.891	21272
809.033	21329
809.174	21123
809.316	21089
809.458	21192
809.6	21001
809.741	21096
809.883	21138
810.025	21188
810.166	21275
810.308	21195
810.45	21275
810.591	21230
810.733	20933
810.875	20838
811.016	20819
811.158	20720
811.299	20872
811.441	20906
811.582	21058
811.724	20914
811.865	20804
812.007	20845
812.148	20834
812.29	20948
812.431	21089
812.573	21203
812.714	21332
812.855	21389
812.997	21408
813.138	21576
813.279	21515
813.421	21542
813.562	21294
813.703	21116
813.845	21085
813.986	20705
814.127	20743
814.268	20549
814.41	20434
814.551	20431
814.692	20461
814.833	20484
814.974	20374
815.115	20499
815.256	20263
815.397	20301
815.539	20210
815.68	20267
815.821	19993
815.962	20214
816.103	20168
816.244	19909
816.385	19959
816.526	19955
816.666	19803
816.807	19544
816.948	19613
817.089	19685
817.23	19685
817.371	19639
817.512	19460
817.653	19533
817.793	19499
817.934	19563
818.075	19563
818.216	19525
818.356	19472
818.497	19324
818.638	19213
818.778	19327
818.919	19343
819.06	19171
819.2	19251
819.341	19529
819.481	19384
819.622	19601
819.762	19689
819.903	19769
820.043	19594
820.184	19445
820.324	19533
820.465	19647
820.605	19537
820.746	19480
820.886	19510
821.026	19514
821.167	19533
821.307	19563
821.447	19575
821.588	19419
821.728	19217
821.868	19118
822.008	18939
822.149	18954
822.289	18844
822.429	18684
822.569	18669
822.709	18681
822.849	18391
822.99	18452
823.13	18422
823.27	18388
823.41	18289
823.55	18186
823.69	18304
823.83	18319
823.97	18201
824.11	17992
824.25	18030
824.389	18072
824.529	18159
824.669	18022
824.809	18079
824.949	18110
825.089	18076
825.228	18087
825.368	17920
825.508	17771
825.648	17855
825.787	17832
825.927	17851
826.067	17790
826.206	17703
826.346	17794
826.485	17878
826.625	17718
826.765	17912
826.904	17779
827.044	17627
827.183	17543
827.323	17467
827.462	17573
827.601	17581
827.741	17474
827.88	17425
828.02	17364
828.159	17368
828.298	17463
828.437	17554
828.577	17486
828.716	17535
828.855	17436
828.994	17292
829.134	17109
829.273	17303
829.412	17227
829.551	17166
829.69	17155
829.829	17299
829.968	17372
830.107	17349
830.246	17258
830.385	17242
830.524	17193
830.663	17079
830.802	17060
830.941	16934
831.08	16866
831.219	17006
831.357	16915
831.496	17075
831.635	16771
831.774	16740
831.913	16828
832.051	16748
832.19	16744
832.329	16672
832.467	16546
832.606	16561
832.744	16394
832.883	16508
833.022	16421
833.16	16603
833.299	16508
833.437	16535
833.576	16516
833.714	16664
833.852	16641
833.991	16687
834.129	16618
834.267	16668
834.406	16615
834.544	16740
834.682	16580
834.821	16637
834.959	16729
835.097	16455
835.235	16660
835.373	16622
835.511	16584
835.65	16516
835.788	16527
835.926	16462
836.064	16325
836.202	16440
836.34	16569
836.478	16683
836.615	16451
836.753	16626
836.891	16675
837.029	16542
837.167	16504
837.305	16466
837.443	16379
837.58	16291
837.718	16497
837.856	16341
837.993	16310
838.131	16375
838.269	16337
838.406	16310
838.544	16246
838.681	16158
838.819	16150
838.956	15926
839.094	15972
839.231	15964
839.369	16032
839.506	16318
839.643	16181
839.781	16013
839.918	15823
840.055	16006
840.193	15941
840.33	15857
840.467	15888
840.604	15926
840.742	16192
840.879	15785
841.016	15865
841.153	15876
841.29	15991
841.427	15884
841.564	16010
841.701	15975
841.838	15766
841.975	15743
842.112	15804
842.249	15739
842.385	15587
842.522	15895
842.659	15770
842.796	15618
842.933	15656
843.069	15652
843.206	15568
843.343	15861
843.479	15762
843.616	15778
843.752	15504
843.889	15496
844.025	15652
844.162	15576
844.298	15641
844.435	15610
844.571	15420
844.708	15603
844.844	15656
844.98	15637
845.117	15629
845.253	15329
845.389	15370
845.525	15428
845.661	15428
845.798	15241
845.934	15283
846.07	15325
846.206	15359
846.342	15408
846.478	15249
846.614	15081
846.75	15051
846.886	14990
847.022	15169
847.158	15150
847.294	15085
847.429	15116
847.565	15070
847.701	15374
847.837	14819
847.972	14712
848.108	14929
848.244	14804
848.379	14663
848.515	14678
848.65	14697
848.786	14670
848.921	14651
849.057	14743
849.192	14731
849.328	14750
849.463	14621
849.598	14659
849.734	14552
849.869	14526
850.004	14511
850.14	14465
850.275	14545
850.41	14404
850.545	14377
850.68	14381
850.815	14507
850.95	14434
851.085	14511
851.22	14480
851.355	14461
851.49	14419
851.625	14400
851.76	14450
851.895	14309
852.03	14381
852.165	14469
852.299	14450
852.434	14522
852.569	14594
852.703	14454
852.838	14450
852.973	14571
853.107	14522
853.242	14431
853.376	14366
853.511	14161
853.645	14263
853.78	14469
853.914	14290
854.048	14385
854.183	14256
854.317	14317
854.451	14545
854.585	14358
854.72	14275
854.854	14370
854.988	14164
855.122	14267
855.256	14221
855.39	14275
855.524	14415
855.658	14434
855.792	14336
855.926	14358
856.06	14317
856.194	14530
856.327	14355
856.461	14320
856.595	14282
856.729	14278
856.862	14396
856.996	14324
857.13	14404
857.263	14408
857.397	14492
857.53	14336
857.664	14423
857.797	14431
857.931	14362
858.064	14362
858.197	14442
858.331	14328
858.464	14275
858.597	14187
858.731	14282
858.864	14244
858.997	14256
859.13	14343
859.263	14366
859.396	14370
859.529	14256
859.662	14286
859.795	14240
859.928	14339
860.061	14400
860.194	14514
860.327	14324
860.46	14347
860.592	14343
860.725	14317
860.858	14499
860.99	14317
861.123	14278
861.256	14218
861.388	14233
861.521	15127
861.653	14233
861.786	14119
861.918	14123
862.05	14309
862.183	14275
862.315	14362
862.447	14381
862.58	14355
862.712	14046
862.844	14058
862.976	14202
863.108	14195
863.24	14507
863.372	13978
863.504	14043
863.636	14180
863.768	14176
863.9	14134
864.032	14005
864.164	14062
864.296	14100
864.428	14130
864.559	14271
864.691	14214
864.823	14062
864.954	14153
865.086	14218
865.217	14035
865.349	14054
865.48	14062
865.612	14046
865.743	14187
865.875	14039
866.006	14043
866.137	14142
866.269	14069
866.4	14073
866.531	14031
866.662	14008
866.793	14012
866.924	14081
867.055	14077
867.186	14043
867.317	13940
867.448	14062
867.579	14024
867.71	13947
867.841	13932
867.972	14096
868.103	14054
868.233	14024
868.364	14069
868.495	14126
868.625	14282
868.756	14377
868.886	14191
869.017	14263
869.147	14362
869.278	14461
869.408	14229
869.539	14309
869.669	14328
869.799	14423
869.929	14423
870.06	14537
870.19	14682
870.32	14602
870.45	14743
870.58	14815
870.71	14830
870.84	14746
870.97	14777
871.1	14693
871.23	14921
871.36	14914
871.489	14807
871.619	14937
871.749	14876
871.879	14975
872.008	15043
872.138	14872
872.267	14990
872.397	14758
872.526	14743
872.656	14815
872.785	14781
872.915	14975
873.044	14956
873.173	15062
873.303	14975
873.432	15062
873.561	15020
873.69	14998
873.819	14986
873.948	14971
874.077	14994
874.206	15028
874.335	14986
874.464	15055
874.593	15321
874.722	15116
874.851	15389
874.979	15298
875.108	15367
875.237	15252
875.365	15237
875.494	15245
875.623	15340
875.751	15241
875.88	15287
876.008	15500
876.136	15515
876.265	15675
876.393	15823
876.521	15759
876.65	15759
876.778	15732
876.906	15614
877.034	15690
877.162	15675
877.29	15652
877.418	15679
877.546	15641
877.674	15705
877.802	15705
877.93	15530
878.058	15629
878.185	15580
878.313	15648
878.441	15663
878.568	15599
878.696	15606
878.824	15873
878.951	15804
879.079	15941
879.206	15972
879.333	15953
879.461	15778
879.588	15804
879.715	15865
879.842	15941
879.97	15819
880.097	15530
880.224	15488
880.351	15557
880.478	15530
880.605	15584
880.732	15500
880.859	15778
880.986	15561
881.112	15610
881.239	15424
881.366	15283
881.493	15287
881.619	15146
881.746	15195
881.872	15211
881.999	15207
882.125	15119
882.252	15275
882.378	15176
882.505	15344
882.631	15123
882.757	15005
882.883	14998
883.01	14990
883.136	14899
883.262	14872
883.388	14773
883.514	15047
883.64	15058
883.766	15036
883.892	14834
884.018	14853
884.143	15039
884.269	15028
884.395	14731
884.52	14739
884.646	14705
884.772	14727
884.897	14708
885.023	14659
885.148	14811
885.274	14937
885.399	14792
885.524	14800
885.65	14781
885.775	14777
885.9	14750
886.025	14785
886.15	14758
886.275	14655
886.4	14636
886.525	14720
886.65	14731
886.775	14636
886.9	14819
887.025	14906
887.149	14716
887.274	14575
887.399	14571
887.523	14480
887.648	14381
887.773	14495
887.897	14667
888.021	14655
888.146	14556
888.27	14750
888.395	14648
888.519	14537
888.643	14594
888.767	14590
888.891	14503
889.015	14396
889.139	14427
889.263	14431
889.387	14511
889.511	14629
889.635	14564
889.759	14400
889.883	14343
890.006	14362
890.13	14511
890.254	14393
890.377	14473
890.501	14172
890.624	14237
890.748	14355
890.871	14145
890.995	14092
891.118	14039
891.241	14126
891.364	14172
891.488	14263
891.611	14107
891.734	14100
891.857	14164
891.98	14199
892.103	14168
892.226	14084
892.349	14054
892.471	13940
892.594	14073
892.717	14206
892.839	14054
892.962	14145
893.085	14210
893.207	14225
893.33	13993
893.452	14119
893.575	14195
893.697	14020
893.819	14347
893.941	14412
894.064	14275
894.186	14183
894.308	14138
894.43	14393
894.552	14301
894.674	14324
894.796	14065
894.918	14134
895.04	14202
895.161	14339
895.283	14301
895.405	14210
895.526	14187
895.648	14309
895.769	14396
895.891	14191
896.012	14252
896.134	14396
896.255	14301
896.376	14202
896.498	14396
896.619	14374
896.74	14377
896.861	14476
896.982	14629
897.103	14746
897.224	14606
897.345	14503
897.466	14503
897.587	14499
897.708	14785
897.828	14674
897.949	14526
898.07	14412
898.19	14625
898.311	14651
898.431	14610
898.552	14682
898.672	14705
898.792	14743
898.913	14727
899.033	14571
899.153	14556
899.273	14347
899.393	14461
899.513	14480
899.633	14476
899.753	14549
899.873	14571
899.993	14606
900.113	14499
900.232	14526
900.352	14568
900.472	14511
900.591	14362
900.711	14389
900.83	14298
900.95	14503
901.069	14480
901.189	14328
901.308	14115
901.427	14058
901.546	14161
901.665	14054
901.784	14031
901.904	13986
902.023	13868
902.141	13662
902.26	13639
902.379	13719
902.498	13655
902.617	13514
902.735	13712
902.854	13590
902.973	13563
903.091	13324
903.21	13324
903.328	13400
903.446	13373
903.565	13221
903.683	13236
903.801	13206
903.919	13320
904.038	13149
904.156	13038
904.274	13088
904.392	13023
904.51	13072
904.627	13046
904.745	13091
904.863	13091
904.981	12776
905.098	12639
905.216	12738
905.334	12719
905.451	12741
905.569	12715
905.686	12810
905.803	12681
905.921	12513
906.038	12681
906.155	12551
906.272	12429
906.389	12433
906.506	12224
906.623	12323
906.74	12239
906.857	12216
906.974	12311
907.091	12323
907.208	12448
907.324	12334
907.441	12216
907.557	12026
907.674	12026
907.79	11950
907.907	12019
908.023	12110
908.139	12049
908.256	11939
908.372	12011
908.488	11927
908.604	11851
908.72	11805
908.836	11817
908.952	11752
909.068	11859
909.184	11893
909.3	11824
909.415	11779
909.531	11767
909.647	11608
909.762	11600
909.878	11482
909.993	11611
910.108	11547
910.224	11573
910.339	11524
910.454	11463
910.57	11398
910.685	11368
910.8	11649
910.915	11577
911.03	11459
911.145	11227
911.259	11299
911.374	11242
911.489	11132
911.604	11132
911.718	11064
911.833	10949
911.947	10858
912.062	10858
912.176	11010
912.291	11094
912.405	10991
912.519	11193
912.633	11235
912.748	11083
912.862	10984
912.976	10866
913.09	10862
913.204	10854
913.318	10923
913.431	11052
913.545	10972
913.659	11029
913.772	11014
913.886	10850
914	10744
914.113	10824
914.226	10835
914.34	10942
914.453	10714
914.566	10881
914.68	10672
914.793	10752
914.906	10630
915.019	10542
915.132	10436
915.245	10565
915.358	10546
915.47	10531
915.583	10596
915.696	10546
915.809	10679
915.921	10668
916.034	10497
916.146	10459
916.259	10550
916.371	10626
916.483	10558
916.595	10466
916.708	10413
916.82	10478
916.932	10394
917.044	10478
917.156	10462
917.268	10348
917.38	10443
917.491	10333
917.603	10371
917.715	10432
917.826	10508
917.938	10447
918.049	10276
918.161	10341
918.272	10531
918.384	10573
918.495	10363
918.606	10318
918.717	10150
918.828	10261
918.939	10291
919.05	10143
919.161	10188
919.272	10021
919.383	10143
919.494	10265
919.604	10413
919.715	10268
919.826	10173
919.936	10234
920.047	10341
920.157	10314
920.267	10451
920.378	10318
920.488	10291
920.598	10485
920.708	10603
920.818	10481
920.928	10417
921.038	10630
921.148	10611
921.258	10207
921.368	10188
921.477	10158
921.587	10147
921.697	9987
921.806	10150
921.916	9972
922.025	9857
922.134	9804
922.244	9705
922.353	9812
922.462	9770
922.571	9637
922.68	9504
922.789	9466
922.898	9530
923.007	9443
923.116	9580
923.224	9469
923.333	9515
923.442	9408
923.55	9351
923.659	9450
923.767	9458
923.876	9405
923.984	9466
924.092	9359
924.201	9351
924.309	9386
924.417	9367
924.525	9325
924.633	9321
924.741	10310
924.849	9165
924.956	9332
925.064	9165
925.172	9005
925.279	9157
925.387	9165
925.494	9150
925.602	9336
925.709	9180
925.816	9089
925.924	9207
926.031	9260
926.138	9180
926.245	9218
926.352	9077
926.459	9317
926.566	9268
926.673	9066
926.779	9039
926.886	8971
926.993	8902
927.099	8849
927.206	8876
927.312	8792
927.419	8944
927.525	8853
927.631	8861
927.737	8739
927.843	8762
927.95	8644
928.056	8693
928.162	8739
928.267	8804
928.373	9435
928.479	8872
928.585	8640
928.69	8804
928.796	8834
928.901	8640
929.007	8511
929.112	8689
929.218	8636
929.323	8670
929.428	8564
929.533	8716
929.638	8514
929.743	8579
929.848	8640
929.953	8571
930.058	8454
930.163	8355
930.267	8400
930.372	8476
930.477	8351
930.581	8522
930.685	8446
930.79	8290
930.894	8347
930.998	8301
931.103	8427
931.207	8043
931.311	8008
931.415	8008
931.519	7792
931.623	7807
