Data from test_V78500241_173.txt Node
Date: Fri Mar 25 14:34:55 CST 2022
User: usil
Spectrometer: V785-0024
Trigger mode: 0
Integration Time (sec): 4.000000E-1
Scans to average: 1
Nonlinearity correction enabled: false
Boxcar width: 0
Storing dark spectrum: false
XAxis mode: Wavelengths
Number of Pixels in Spectrum: 1024
>>>>>Begin Spectral Data<<<<<
801.071	28561
801.214	28573
801.356	28318
801.499	28162
801.641	28082
801.783	28101
801.926	28116
802.068	28082
802.211	27884
802.353	27804
802.496	27789
802.638	27629
802.78	27591
802.923	27454
803.065	27359
803.208	27542
803.35	27610
803.492	27583
803.635	27842
803.777	27622
803.919	27838
804.061	28131
804.204	27663
804.346	27694
804.488	27549
804.63	27599
804.773	27492
804.915	27652
805.057	27831
805.199	27656
805.341	27701
805.483	27743
805.626	27671
805.768	27515
805.91	27743
806.052	27949
806.194	27861
806.336	28093
806.478	27827
806.62	27812
806.762	27987
806.904	28109
807.046	28447
807.188	28379
807.33	28447
807.472	28535
807.614	28508
807.756	28584
807.898	28531
808.04	28812
808.182	28915
808.324	29242
808.465	29551
808.607	30235
808.749	30597
808.891	30810
809.033	30795
809.174	30574
809.316	30201
809.458	29840
809.6	29417
809.741	29341
809.883	29090
810.025	29064
810.166	29018
810.308	28767
810.45	28641
810.591	28554
810.733	28291
810.875	28428
811.016	28158
811.158	28169
811.299	28291
811.441	28341
811.582	28333
811.724	28154
811.865	28166
812.007	28101
812.148	28029
812.29	28341
812.431	28105
812.573	28466
812.714	28443
812.855	28641
812.997	28683
813.138	28767
813.279	28649
813.421	28710
813.562	28531
813.703	28451
813.845	28291
813.986	27918
814.127	27789
814.268	27679
814.41	27743
814.551	27568
814.692	27717
814.833	27519
814.974	27542
815.115	27568
815.256	27386
815.397	27386
815.539	27458
815.68	27378
815.821	27154
815.962	27332
816.103	27279
816.244	27077
816.385	27017
816.526	27096
816.666	26815
816.807	26644
816.948	26788
817.089	26906
817.23	26823
817.371	26754
817.512	26640
817.653	26788
817.793	26743
817.934	26655
818.075	26514
818.216	26621
818.356	26571
818.497	26648
818.638	26434
818.778	26446
818.919	26495
819.06	26434
819.2	26469
819.341	26659
819.481	26663
819.622	26705
819.762	26975
819.903	26883
820.043	26678
820.184	26746
820.324	26625
820.465	26720
820.605	26667
820.746	26674
820.886	26492
821.026	26678
821.167	26575
821.307	26648
821.447	26514
821.588	26484
821.728	26199
821.868	26046
822.008	25936
822.149	25944
822.289	25955
822.429	25826
822.569	25780
822.709	25628
822.849	25403
822.99	25540
823.13	25430
823.27	25354
823.41	25156
823.55	24966
823.69	25244
823.83	25259
823.97	25069
824.11	24958
824.25	24939
824.389	25023
824.529	24970
824.669	24973
824.809	25183
824.949	24897
825.089	25103
825.228	25061
825.368	24791
825.508	24814
825.648	24833
825.787	24894
825.927	24787
826.067	24863
826.206	24817
826.346	24791
826.485	24935
826.625	24791
826.765	24852
826.904	24852
827.044	24513
827.183	24620
827.323	24483
827.462	24593
827.601	24494
827.741	24486
827.88	24650
828.02	24456
828.159	24426
828.298	24338
828.437	24494
828.577	24346
828.716	24525
828.855	24403
828.994	24285
829.134	24083
829.273	24174
829.412	23946
829.551	24007
829.69	24136
829.829	24121
829.968	24178
830.107	24224
830.246	24083
830.385	24083
830.524	24026
830.663	23977
830.802	23786
830.941	23745
831.08	23592
831.219	23687
831.357	23783
831.496	23893
831.635	23676
831.774	23661
831.913	23558
832.051	23417
832.19	23463
832.329	23493
832.467	23379
832.606	23315
832.744	23345
832.883	23326
833.022	23337
833.16	23425
833.299	23368
833.437	23421
833.576	23353
833.714	23398
833.852	23581
833.991	23520
834.129	23596
834.267	23440
834.406	23421
834.544	23463
834.682	23448
834.821	23478
834.959	23642
835.097	23391
835.235	23341
835.373	23349
835.511	23258
835.65	23212
835.788	23239
835.926	23018
836.064	23006
836.202	23003
836.34	23086
836.478	23204
836.615	23071
836.753	23052
836.891	23197
837.029	23204
837.167	23094
837.305	23117
837.443	22961
837.58	23010
837.718	22987
837.856	22850
837.993	22919
838.131	23003
838.269	22771
838.406	22881
838.544	22744
838.681	22713
838.819	22527
838.956	22432
839.094	22428
839.231	22413
839.369	22557
839.506	22725
839.643	22611
839.781	22386
839.918	22261
840.055	22272
840.193	22299
840.33	22204
840.467	22257
840.604	22257
840.742	22580
840.879	22211
841.016	22246
841.153	22158
841.29	22341
841.427	22234
841.564	22211
841.701	22265
841.838	22177
841.975	22135
842.112	22105
842.249	21998
842.385	22036
842.522	22188
842.659	22063
842.796	21876
842.933	22017
843.069	21743
843.206	21846
843.343	21960
843.479	22150
843.616	22013
843.752	21755
843.889	21705
844.025	21960
844.162	21766
844.298	21762
844.435	21846
844.571	21831
844.708	21739
844.844	22048
844.98	22017
845.117	22002
845.253	22078
845.389	22063
845.525	22622
845.661	23098
845.798	23882
845.934	24410
846.07	24589
846.206	24711
846.342	24194
846.478	23425
846.614	22531
846.75	22002
846.886	21724
847.022	21549
847.158	21488
847.294	21428
847.429	21249
847.565	21302
847.701	21469
847.837	20960
847.972	20933
848.108	21058
848.244	21017
848.379	20765
848.515	20788
848.65	20629
848.786	20819
848.921	20914
849.057	20762
849.192	20667
849.328	20727
849.463	20800
849.598	20743
849.734	20625
849.869	20560
850.004	20495
850.14	20530
850.275	20541
850.41	20404
850.545	20404
850.68	20423
850.815	20366
850.95	20484
851.085	20560
851.22	20575
851.355	20427
851.49	20400
851.625	20396
851.76	20393
851.895	20332
852.03	20313
852.165	20381
852.299	20427
852.434	20461
852.569	20492
852.703	20514
852.838	20499
852.973	20514
853.107	20545
853.242	20347
853.376	20282
853.511	20027
853.645	20214
853.78	20374
853.914	20317
854.048	20202
854.183	20206
854.317	20294
854.451	20522
854.585	20195
854.72	20305
854.854	20385
854.988	20282
855.122	20210
855.256	20221
855.39	20298
855.524	20370
855.658	20267
855.792	20317
855.926	20244
856.06	20237
856.194	20298
856.327	20115
856.461	20062
856.595	20233
856.729	20180
856.862	20404
856.996	20286
857.13	20328
857.263	20324
857.397	20229
857.53	20218
857.664	20176
857.797	20218
857.931	20225
858.064	20271
858.197	20229
858.331	20328
858.464	20195
858.597	20058
858.731	20142
858.864	20134
858.997	20199
859.13	20252
859.263	20088
859.396	20195
859.529	20126
859.662	20153
859.795	20058
859.928	20130
860.061	20225
860.194	20263
860.327	20122
860.46	20263
860.592	20195
860.725	20294
860.858	20237
860.99	20062
861.123	19978
861.256	20046
861.388	20164
861.521	20724
861.653	19967
861.786	19970
861.918	19902
862.05	20122
862.183	20256
862.315	20259
862.447	20309
862.58	20206
862.712	20012
862.844	19852
862.976	19928
863.108	19906
863.24	20286
863.372	19799
863.504	19940
863.636	19868
863.768	19875
863.9	19830
864.032	19723
864.164	19822
864.296	19830
864.428	19993
864.559	19963
864.691	19807
864.823	19902
864.954	19883
865.086	19791
865.217	19674
865.349	19674
865.48	19769
865.612	19734
865.743	19856
865.875	19727
866.006	19643
866.137	19864
866.269	19769
866.4	19753
866.531	19677
866.662	19571
866.793	19715
866.924	19738
867.055	19666
867.186	19780
867.317	19616
867.448	19613
867.579	19689
867.71	19628
867.841	19533
867.972	19681
868.103	19746
868.233	19597
868.364	19655
868.495	19674
868.625	19947
868.756	19902
868.886	19738
869.017	19860
869.147	20031
869.278	19917
869.408	19856
869.539	19963
869.669	19936
869.799	19944
869.929	20001
870.06	19986
870.19	20191
870.32	20214
870.45	20218
870.58	20328
870.71	20336
870.84	20434
870.97	20275
871.1	20324
871.23	20499
871.36	20457
871.489	20469
871.619	20324
871.749	20499
871.879	20488
872.008	20609
872.138	20541
872.267	20465
872.397	20511
872.526	20362
872.656	20351
872.785	20412
872.915	20602
873.044	20564
873.173	20522
873.303	20560
873.432	20609
873.561	20735
873.69	20530
873.819	20575
873.948	20678
874.077	20579
874.206	20423
874.335	20606
874.464	20724
874.593	20979
874.722	20788
874.851	20937
874.979	20857
875.108	20864
875.237	20849
875.365	20853
875.494	20933
875.623	20906
875.751	20998
875.88	20902
876.008	21055
876.136	21211
876.265	21462
876.393	21492
876.521	21367
876.65	21469
876.778	21351
876.906	21378
877.034	21329
877.162	21317
877.29	21294
877.418	21298
877.546	21401
877.674	21370
877.802	21370
877.93	21439
878.058	21405
878.185	21275
878.313	21526
878.441	21454
878.568	21408
878.696	21519
878.824	21717
878.951	22036
879.079	22169
879.206	22462
879.333	22489
879.461	22763
879.588	22877
879.715	23022
879.842	22866
879.97	22554
880.097	22105
880.224	21926
880.351	21850
880.478	21675
880.605	21644
880.732	21553
880.859	21682
880.986	21583
881.112	21538
881.239	21363
881.366	21348
881.493	21161
881.619	21070
881.746	21169
881.872	21093
881.999	21009
882.125	21039
882.252	21051
882.378	21039
882.505	21150
882.631	21047
882.757	20853
882.883	21028
883.01	20880
883.136	20796
883.262	20667
883.388	20701
883.514	20876
883.64	20845
883.766	20792
883.892	20674
884.018	20720
884.143	20868
884.269	20800
884.395	20609
884.52	20438
884.646	20499
884.772	20473
884.897	20412
885.023	20537
885.148	20621
885.274	20533
885.399	20556
885.524	20385
885.65	20488
885.775	20457
885.9	20389
886.025	20541
886.15	20381
886.275	20317
886.4	20259
886.525	20336
886.65	20320
886.775	20233
886.9	20431
887.025	20480
887.149	20210
887.274	20149
887.399	20054
887.523	20134
887.648	20043
887.773	19959
887.897	20153
888.021	20073
888.146	19982
888.27	20088
888.395	20062
888.519	20100
888.643	20020
888.767	19913
888.891	19799
889.015	19761
889.139	19712
889.263	19776
889.387	19913
889.511	19807
889.635	19715
889.759	19670
889.883	19700
890.006	19601
890.13	19761
890.254	19597
890.377	19674
890.501	19499
890.624	19445
890.748	19434
890.871	19331
890.995	19263
891.118	19209
891.241	19316
891.364	19236
891.488	19346
891.611	19213
891.734	19259
891.857	19320
891.98	19350
892.103	19316
892.226	19206
892.349	19148
892.471	18966
892.594	19240
892.717	19183
892.839	19156
892.962	19213
893.085	19171
893.207	19137
893.33	19065
893.452	19088
893.575	19282
893.697	19148
893.819	19263
893.941	19358
894.064	19175
894.186	19095
894.308	19061
894.43	19179
894.552	19445
894.674	19190
894.796	19145
894.918	19145
895.04	19065
895.161	19110
895.283	19236
895.405	19072
895.526	19148
895.648	19065
895.769	19137
895.891	19240
896.012	19270
896.134	19213
896.255	19148
896.376	19091
896.498	19065
896.619	19168
896.74	19202
896.861	19160
896.982	19502
897.103	19552
897.224	19464
897.345	19415
897.466	19308
897.587	19453
897.708	19491
897.828	19358
897.949	19278
898.07	19240
898.19	19198
898.311	19384
898.431	19350
898.552	19263
898.672	19441
898.792	19453
898.913	19373
899.033	19183
899.153	19126
899.273	19107
899.393	18993
899.513	19095
899.633	19126
899.753	19099
899.873	18966
899.993	19225
900.113	18970
900.232	19015
900.352	19118
900.472	19046
900.591	18741
900.711	18966
900.83	18878
900.95	19012
901.069	19008
901.189	18833
901.308	18616
901.427	18525
901.546	18582
901.665	18475
901.784	18620
901.904	18391
902.023	18201
902.141	18057
902.26	18102
902.379	18125
902.498	18011
902.617	17927
902.735	18015
902.854	17920
902.973	17866
903.091	17722
903.21	17691
903.328	17634
903.446	17600
903.565	17395
903.683	17474
903.801	17349
903.919	17444
904.038	17376
904.156	17254
904.274	17391
904.392	17235
904.51	17254
904.627	17223
904.745	17330
904.863	17227
904.981	17064
905.098	16968
905.216	16866
905.334	16934
905.451	16889
905.569	16938
905.686	16847
905.803	16831
905.921	16771
906.038	16752
906.155	16675
906.272	16554
906.389	16634
906.506	16451
906.623	16531
906.74	16325
906.857	16287
906.974	16310
907.091	16451
907.208	16409
907.324	16455
907.441	16314
907.557	16192
907.674	16188
907.79	16135
907.907	16093
908.023	16029
908.139	16044
908.256	16013
908.372	15915
908.488	15968
908.604	15823
908.72	15713
908.836	15751
908.952	15762
909.068	15759
909.184	15869
909.3	15736
909.415	15861
909.531	15747
909.647	15504
909.762	15542
909.878	15519
909.993	15523
910.108	15405
910.224	15469
910.339	15344
910.454	15306
910.57	15408
910.685	15245
910.8	15523
910.915	15504
911.03	15283
911.145	15233
911.259	15020
911.374	15100
911.489	15097
911.604	14975
911.718	14765
911.833	14823
911.947	14826
912.062	14621
912.176	14910
912.291	14845
912.405	14826
912.519	14979
912.633	14979
912.748	14815
912.862	14796
912.976	14655
913.09	14454
913.204	14720
913.318	14533
913.431	14743
913.545	14579
913.659	14838
913.772	14625
913.886	14476
914	14530
914.113	14587
914.226	14670
914.34	14408
914.453	14438
914.566	14469
914.68	14324
914.793	14324
914.906	14218
915.019	14043
915.132	14043
915.245	14096
915.358	14161
915.47	14119
915.583	14123
915.696	14145
915.809	14237
915.921	14248
916.034	14035
916.146	14020
916.259	13982
916.371	14084
916.483	14054
916.595	14073
916.708	14043
916.82	13940
916.932	13955
917.044	13978
917.156	13944
917.268	13811
917.38	13807
917.491	13753
917.603	13757
917.715	13902
917.826	13913
917.938	13731
918.049	13590
918.161	13700
918.272	13864
918.384	13906
918.495	13681
918.606	13639
918.717	13559
918.828	13563
918.939	13674
919.05	13426
919.161	13567
919.272	13339
919.383	13343
919.494	13582
919.604	13746
919.715	13441
919.826	13548
919.936	13434
920.047	13605
920.157	13521
920.267	13769
920.378	13548
920.488	13457
920.598	13655
920.708	13811
920.818	13590
920.928	13628
921.038	13833
921.148	13791
921.258	13575
921.368	13381
921.477	13308
921.587	13152
921.697	13145
921.806	13240
921.916	13107
922.025	13019
922.134	12985
922.244	12817
922.353	12947
922.462	12783
922.571	12673
922.68	12608
922.789	12604
922.898	12597
923.007	12555
923.116	12578
923.224	12566
923.333	12502
923.442	12311
923.55	12338
923.659	12410
923.767	12528
923.876	12315
923.984	12380
924.092	12209
924.201	12361
924.309	12315
924.417	12372
924.525	12178
924.633	12243
924.741	13145
924.849	12045
924.956	12258
925.064	11980
925.172	11973
925.279	12007
925.387	11961
925.494	12106
925.602	12110
925.709	12110
925.816	11923
925.924	11931
926.031	12106
926.138	12038
926.245	12045
926.352	11920
926.459	12034
926.566	12121
926.673	11843
926.779	11790
926.886	11779
926.993	11688
927.099	11668
927.206	11543
927.312	11528
927.419	11589
927.525	11695
927.631	11688
927.737	11551
927.843	11509
927.95	11345
928.056	11391
928.162	11406
928.267	11543
928.373	12076
928.479	11448
928.585	11258
928.69	11425
928.796	11440
928.901	11330
929.007	11170
929.112	11337
929.218	11178
929.323	11227
929.428	11185
929.533	11330
929.638	11220
929.743	11140
929.848	11201
929.953	11136
930.058	11029
930.163	10896
930.267	10835
930.372	11025
930.477	10843
930.581	11121
930.685	10877
930.79	10721
930.894	10927
930.998	10710
931.103	10976
931.207	10504
931.311	10466
931.415	10382
931.519	10150
931.623	10177
