Data from test_V78500241_2971.txt Node
Date: Fri Mar 25 14:54:24 CST 2022
User: usil
Spectrometer: V785-0024
Trigger mode: 0
Integration Time (sec): 4.000000E-1
Scans to average: 1
Nonlinearity correction enabled: false
Boxcar width: 0
Storing dark spectrum: false
XAxis mode: Wavelengths
Number of Pixels in Spectrum: 1024
>>>>>Begin Spectral Data<<<<<
801.071	22078
801.214	22078
801.356	21861
801.499	21629
801.641	21603
801.783	21549
801.926	21515
802.068	21424
802.211	21275
802.353	21199
802.496	21013
802.638	21009
802.78	20933
802.923	20853
803.065	20804
803.208	20762
803.35	20834
803.492	20960
803.635	20834
803.777	20864
803.919	20895
804.061	21116
804.204	20811
804.346	20758
804.488	20602
804.63	20777
804.773	20606
804.915	20701
805.057	20842
805.199	20758
805.341	20777
805.483	20811
805.626	20796
805.768	20682
805.91	20648
806.052	20670
806.194	20609
806.336	21001
806.478	20708
806.62	20629
806.762	20693
806.904	20918
807.046	21169
807.188	21032
807.33	21013
807.472	21066
807.614	20971
807.756	21028
807.898	20880
808.04	20864
808.182	20735
808.324	20845
808.465	20724
808.607	20986
808.749	21157
808.891	21214
809.033	21176
809.174	21123
809.316	21142
809.458	21077
809.6	20979
809.741	21157
809.883	21142
810.025	21272
810.166	21188
810.308	21283
810.45	21081
810.591	21138
810.733	21070
810.875	21024
811.016	20735
811.158	20754
811.299	20853
811.441	21017
811.582	21055
811.724	20815
811.865	20883
812.007	20868
812.148	20891
812.29	20796
812.431	21123
812.573	21077
812.714	21249
812.855	21401
812.997	21458
813.138	21542
813.279	21557
813.421	21370
813.562	21214
813.703	21165
813.845	21089
813.986	20781
814.127	20499
814.268	20461
814.41	20499
814.551	20320
814.692	20526
814.833	20438
814.974	20389
815.115	20351
815.256	20298
815.397	20176
815.539	20290
815.68	20122
815.821	20142
815.962	20214
816.103	20081
816.244	20058
816.385	19959
816.526	19868
816.666	19632
816.807	19620
816.948	19738
817.089	19734
817.23	19563
817.371	19556
817.512	19537
817.653	19460
817.793	19426
817.934	19453
818.075	19586
818.216	19502
818.356	19430
818.497	19354
818.638	19168
818.778	19141
818.919	19247
819.06	19137
819.2	19308
819.341	19373
819.481	19506
819.622	19491
819.762	19712
819.903	19685
820.043	19556
820.184	19639
820.324	19449
820.465	19685
820.605	19537
820.746	19476
820.886	19430
821.026	19464
821.167	19491
821.307	19373
821.447	19301
821.588	19225
821.728	19194
821.868	19118
822.008	18825
822.149	18795
822.289	18913
822.429	18574
822.569	18593
822.709	18559
822.849	18452
822.99	18296
823.13	18410
823.27	18388
823.41	18213
823.55	18201
823.69	18247
823.83	18190
823.97	18102
824.11	17889
824.25	17999
824.389	17912
824.529	17977
824.669	17942
824.809	18057
824.949	17973
825.089	17935
825.228	17931
825.368	17786
825.508	17695
825.648	17771
825.787	17855
825.927	17764
826.067	17695
826.206	17653
826.346	17828
826.485	17843
826.625	17809
826.765	17817
826.904	17703
827.044	17600
827.183	17478
827.323	17318
827.462	17448
827.601	17337
827.741	17334
827.88	17421
828.02	17315
828.159	17406
828.298	17406
828.437	17482
828.577	17318
828.716	17509
828.855	17284
828.994	17231
829.134	17094
829.273	17258
829.412	17155
829.551	16995
829.69	17185
829.829	17079
829.968	17254
830.107	17181
830.246	17197
830.385	17151
830.524	17048
830.663	16953
830.802	16930
830.941	16828
831.08	16797
831.219	16850
831.357	16858
831.496	16984
831.635	16778
831.774	16687
831.913	16596
832.051	16637
832.19	16535
832.329	16618
832.467	16459
832.606	16341
832.744	16413
832.883	16478
833.022	16356
833.16	16432
833.299	16523
833.437	16516
833.576	16508
833.714	16432
833.852	16569
833.991	16588
834.129	16611
834.267	16561
834.406	16424
834.544	16523
834.682	16664
834.821	16592
834.959	16679
835.097	16436
835.235	16622
835.373	16466
835.511	16432
835.65	16424
835.788	16409
835.926	16272
836.064	16242
836.202	16185
836.34	16394
836.478	16508
836.615	16375
836.753	16527
836.891	16462
837.029	16493
837.167	16421
837.305	16398
837.443	16379
837.58	16257
837.718	16226
837.856	16333
837.993	16158
838.131	16337
838.269	16272
838.406	16169
838.544	16143
838.681	16059
838.819	15972
838.956	15812
839.094	15895
839.231	15819
839.369	15972
839.506	16200
839.643	16078
839.781	15838
839.918	15812
840.055	15736
840.193	15869
840.33	15831
840.467	15797
840.604	15793
840.742	16074
840.879	15671
841.016	15759
841.153	15762
841.29	15819
841.427	15816
841.564	15789
841.701	15865
841.838	15812
841.975	15755
842.112	15781
842.249	15629
842.385	15606
842.522	15785
842.659	15644
842.796	15606
842.933	15553
843.069	15595
843.206	15408
843.343	15736
843.479	15614
843.616	15576
843.752	15294
843.889	15336
844.025	15504
844.162	15367
844.298	15469
844.435	15523
844.571	15336
844.708	15431
844.844	15504
844.98	15549
845.117	15519
845.253	15260
845.389	15325
845.525	15287
845.661	15256
845.798	15142
845.934	15329
846.07	15188
846.206	15294
846.342	15431
846.478	15173
846.614	15028
846.75	14906
846.886	15005
847.022	15055
847.158	14944
847.294	15024
847.429	14994
847.565	14918
847.701	15233
847.837	14682
847.972	14674
848.108	14735
848.244	14724
848.379	14583
848.515	14488
848.65	14533
848.786	14617
848.921	14465
849.057	14724
849.192	14670
849.328	14541
849.463	14560
849.598	14446
849.734	14518
849.869	14434
850.004	14347
850.14	14355
850.275	14377
850.41	14218
850.545	14275
850.68	14290
850.815	14339
850.95	14290
851.085	14442
851.22	14412
851.355	14298
851.49	14309
851.625	14381
851.76	14237
851.895	14263
852.03	14214
852.165	14252
852.299	14404
852.434	14400
852.569	14343
852.703	14374
852.838	14328
852.973	14438
853.107	14473
853.242	14282
853.376	14180
853.511	14130
853.645	14153
853.78	14336
853.914	14161
854.048	14168
854.183	14092
854.317	14153
854.451	14240
854.585	14103
854.72	14191
854.854	14275
854.988	14123
855.122	14210
855.256	14043
855.39	14138
855.524	14298
855.658	14187
855.792	14081
855.926	14275
856.06	14267
856.194	14336
856.327	14195
856.461	14077
856.595	14134
856.729	14145
856.862	14336
856.996	14195
857.13	14199
857.263	14282
857.397	14290
857.53	14214
857.664	14275
857.797	14191
857.931	14309
858.064	14210
858.197	14263
858.331	14164
858.464	14142
858.597	14065
858.731	14115
858.864	14164
858.997	14134
859.13	14183
859.263	14244
859.396	14275
859.529	14069
859.662	14130
859.795	14077
859.928	14221
860.061	14362
860.194	14290
860.327	14180
860.46	14237
860.592	14267
860.725	14317
860.858	14336
860.99	14210
861.123	14065
861.256	14210
861.388	14164
861.521	14853
861.653	13940
861.786	14084
861.918	14024
862.05	14039
862.183	14153
862.315	14153
862.447	14248
862.58	14145
862.712	13986
862.844	13970
862.976	14054
863.108	13944
863.24	14473
863.372	13822
863.504	13955
863.636	13932
863.768	13898
863.9	13997
864.032	13868
864.164	13868
864.296	13940
864.428	14073
864.559	14077
864.691	14008
864.823	13989
864.954	14031
865.086	13955
865.217	13959
865.349	13925
865.48	13982
865.612	13974
865.743	14043
865.875	14012
866.006	13928
866.137	13982
866.269	13955
866.4	13921
866.531	13871
866.662	13822
866.793	13936
866.924	13951
867.055	13959
867.186	13936
867.317	13837
867.448	13830
867.579	13902
867.71	13890
867.841	13849
867.972	13894
868.103	13928
868.233	13856
868.364	13955
868.495	13951
868.625	14161
868.756	14237
868.886	14077
869.017	14096
869.147	14294
869.278	14313
869.408	14290
869.539	14145
869.669	14202
869.799	14252
869.929	14317
870.06	14343
870.19	14537
870.32	14419
870.45	14530
870.58	14659
870.71	14701
870.84	14594
870.97	14549
871.1	14613
871.23	14758
871.36	14781
871.489	14629
871.619	14830
871.749	14804
871.879	14883
872.008	14929
872.138	14880
872.267	14853
872.397	14545
872.526	14594
872.656	14629
872.785	14659
872.915	14807
873.044	14849
873.173	14830
873.303	14834
873.432	14819
873.561	14937
873.69	14941
873.819	14842
873.948	14834
874.077	14807
874.206	14823
874.335	14811
874.464	15055
874.593	15020
874.722	15165
874.851	15180
874.979	15180
875.108	15199
875.237	15157
875.365	15070
875.494	15123
875.623	15230
875.751	15150
875.88	15237
876.008	15298
876.136	15389
876.265	15698
876.393	15709
876.521	15694
876.65	15603
876.778	15603
876.906	15473
877.034	15618
877.162	15614
877.29	15519
877.418	15580
877.546	15580
877.674	15564
877.802	15564
877.93	15568
878.058	15553
878.185	15450
878.313	15553
878.441	15591
878.568	15488
878.696	15553
878.824	15542
878.951	15652
879.079	15778
879.206	15892
879.333	15739
879.461	15663
879.588	15663
879.715	15854
879.842	15937
879.97	15679
880.097	15500
880.224	15420
880.351	15515
880.478	15473
880.605	15401
880.732	15382
880.859	15698
880.986	15378
881.112	15393
881.239	15332
881.366	15233
881.493	15180
881.619	15119
881.746	15100
881.872	15142
881.999	15119
882.125	15089
882.252	15051
882.378	15108
882.505	15203
882.631	14963
882.757	14899
882.883	14963
883.01	14910
883.136	14807
883.262	14762
883.388	14708
883.514	14910
883.64	15020
883.766	14842
883.892	14606
884.018	14731
884.143	14944
884.269	15017
884.395	14632
884.52	14442
884.646	14530
884.772	14552
884.897	14541
885.023	14511
885.148	14716
885.274	14731
885.399	14667
885.524	14663
885.65	14556
885.775	14533
885.9	14594
886.025	14815
886.15	14632
886.275	14568
886.4	14503
886.525	14537
886.65	14602
886.775	14579
886.9	14583
887.025	14857
887.149	14533
887.274	14457
887.399	14328
887.523	14408
887.648	14339
887.773	14351
887.897	14522
888.021	14564
888.146	14366
888.27	14545
888.395	14583
888.519	14454
888.643	14469
888.767	14549
888.891	14358
889.015	14233
889.139	14438
889.263	14305
889.387	14400
889.511	14514
889.635	14431
889.759	14214
889.883	14244
890.006	14286
890.13	14446
890.254	14275
890.377	14252
890.501	14092
890.624	14111
890.748	14229
890.871	14092
890.995	13883
891.118	13868
891.241	14050
891.364	14027
891.488	14111
891.611	14058
891.734	14024
891.857	14084
891.98	14024
892.103	14046
892.226	14050
892.349	13989
892.471	13845
892.594	13936
892.717	14016
892.839	14027
892.962	14046
893.085	14039
893.207	14005
893.33	13879
893.452	13868
893.575	14092
893.697	13913
893.819	14145
893.941	14191
894.064	14111
894.186	13868
894.308	13928
894.43	14187
894.552	14176
894.674	14275
894.796	13921
894.918	14008
895.04	14111
895.161	14206
895.283	14172
895.405	14031
895.526	14130
895.648	14161
895.769	14240
895.891	14256
896.012	14229
896.134	14229
896.255	14210
896.376	14130
896.498	14164
896.619	14221
896.74	14221
896.861	14263
896.982	14549
897.103	14708
897.224	14438
897.345	14560
897.466	14389
897.587	14473
897.708	14651
897.828	14571
897.949	14423
898.07	14358
898.19	14381
898.311	14667
898.431	14552
898.552	14587
898.672	14693
898.792	14511
898.913	14541
899.033	14499
899.153	14465
899.273	14263
899.393	14419
899.513	14320
899.633	14427
899.753	14393
899.873	14351
899.993	14450
900.113	14461
900.232	14419
900.352	14457
900.472	14343
900.591	14145
900.711	14298
900.83	14202
900.95	14381
901.069	14358
901.189	14256
901.308	14027
901.427	13909
901.546	13917
901.665	13921
901.784	13936
901.904	13871
902.023	13715
902.141	13556
902.26	13567
902.379	13655
902.498	13396
902.617	13476
902.735	13556
902.854	13525
902.973	13422
903.091	13285
903.21	13263
903.328	13247
903.446	13095
903.565	13095
903.683	13168
903.801	12970
903.919	13084
904.038	13050
904.156	12867
904.274	12977
904.392	12848
904.51	12871
904.627	12859
904.745	12962
904.863	12821
904.981	12696
905.098	12585
905.216	12559
905.334	12623
905.451	12574
905.569	12502
905.686	12662
905.803	12544
905.921	12369
906.038	12437
906.155	12479
906.272	12285
906.389	12277
906.506	12178
906.623	12148
906.74	12140
906.857	11939
906.974	12129
907.091	12209
907.208	12239
907.324	12171
907.441	12110
907.557	11961
907.674	11901
907.79	11893
907.907	11935
908.023	11961
908.139	11958
908.256	11920
908.372	11904
908.488	11748
908.604	11714
908.72	11630
908.836	11642
908.952	11668
909.068	11752
909.184	11794
909.3	11638
909.415	11764
909.531	11661
909.647	11551
909.762	11387
909.878	11387
909.993	11467
910.108	11474
910.224	11368
910.339	11425
910.454	11284
910.57	11254
910.685	11189
910.8	11478
910.915	11486
911.03	11280
911.145	11132
911.259	11140
911.374	11162
911.489	11079
911.604	11048
911.718	10942
911.833	10908
911.947	10831
912.062	10729
912.176	10942
912.291	10896
912.405	10991
912.519	11067
912.633	11075
912.748	10911
912.862	10919
912.976	10778
913.09	10702
913.204	10763
913.318	10797
913.431	10904
913.545	10835
913.659	10927
913.772	10801
913.886	10649
914	10634
914.113	10752
914.226	10831
914.34	10782
914.453	10653
914.566	10740
914.68	10626
914.793	10561
914.906	10459
915.019	10341
915.132	10310
915.245	10447
915.358	10481
915.47	10432
915.583	10421
915.696	10573
915.809	10626
915.921	10592
916.034	10440
916.146	10375
916.259	10253
916.371	10500
916.483	10436
916.595	10325
916.708	10348
916.82	10356
916.932	10371
917.044	10382
917.156	10295
917.268	10166
917.38	10215
917.491	10261
917.603	10276
917.715	10360
917.826	10314
917.938	10230
918.049	10166
918.161	10318
918.272	10375
918.384	10440
918.495	10227
918.606	10166
918.717	10063
918.828	10181
918.939	10097
919.05	10071
919.161	10143
919.272	9922
919.383	9987
919.494	10169
919.604	10459
919.715	10150
919.826	10040
919.936	10185
920.047	10227
920.157	10173
920.267	10375
920.378	10150
920.488	10154
920.598	10329
920.708	10462
920.818	10440
920.928	10371
921.038	10535
921.148	10421
921.258	10147
921.368	10192
921.477	10029
921.587	10040
921.697	9926
921.806	10139
921.916	9869
922.025	9717
922.134	9698
922.244	9656
922.353	9755
922.462	9591
922.571	9511
922.68	9386
922.789	9431
922.898	9363
923.007	9332
923.116	9405
923.224	9420
923.333	9405
923.442	9237
923.55	9272
923.659	9298
923.767	9344
923.876	9264
923.984	9367
924.092	9256
924.201	9336
924.309	9298
924.417	9325
924.525	9268
924.633	9241
924.741	10128
924.849	9097
924.956	9268
925.064	9020
925.172	9020
925.279	8990
925.387	9104
925.494	9024
925.602	9218
925.709	9154
925.816	9032
925.924	9058
926.031	9180
926.138	9138
926.245	9051
926.352	8910
926.459	9192
926.566	9199
926.673	9009
926.779	8994
926.886	8971
926.993	8788
927.099	8834
927.206	8777
927.312	8739
927.419	8845
927.525	8830
927.631	8918
927.737	8754
927.843	8682
927.95	8583
928.056	8621
928.162	8682
928.267	8739
928.373	9325
928.479	8800
928.585	8533
928.69	8689
928.796	8731
928.901	8590
929.007	8450
929.112	8579
929.218	8568
929.323	8537
929.428	8526
929.533	8651
929.638	8454
929.743	8476
929.848	8549
929.953	8560
930.058	8339
930.163	8328
930.267	8347
930.372	8438
930.477	8240
930.581	8522
930.685	8320
930.79	8183
930.894	8199
930.998	8229
931.103	8389
931.207	8050
931.311	7963
931.415	7974
931.519	7731
931.623	7742
