Data from test_V78500241_1509.txt Node
Date: Fri Mar 25 14:44:13 CST 2022
User: usil
Spectrometer: V785-0024
Trigger mode: 0
Integration Time (sec): 4.000000E-1
Scans to average: 1
Nonlinearity correction enabled: false
Boxcar width: 0
Storing dark spectrum: false
XAxis mode: Wavelengths
Number of Pixels in Spectrum: 1024
>>>>>Begin Spectral Data<<<<<
801.071	22398
801.214	22310
801.356	22124
801.499	22109
801.641	21812
801.783	21800
801.926	21819
802.068	21656
802.211	21557
802.353	21496
802.496	21416
802.638	21348
802.78	21252
802.923	21256
803.065	21017
803.208	21089
803.35	21188
803.492	21348
803.635	21363
803.777	21188
803.919	21180
804.061	21401
804.204	21214
804.346	21089
804.488	21055
804.63	21051
804.773	21028
804.915	20994
805.057	21108
805.199	20975
805.341	21135
805.483	21180
805.626	21157
805.768	20971
805.91	21096
806.052	21218
806.194	21055
806.336	21249
806.478	21051
806.62	21070
806.762	21089
806.904	21283
807.046	21511
807.188	21507
807.33	21492
807.472	21507
807.614	21374
807.756	21412
807.898	21382
808.04	21222
808.182	21302
808.324	21214
808.465	21287
808.607	21511
808.749	21568
808.891	21717
809.033	21899
809.174	21743
809.316	21625
809.458	21603
809.6	21534
809.741	21595
809.883	21526
810.025	21831
810.166	21622
810.308	21667
810.45	21507
810.591	21526
810.733	21466
810.875	21279
811.016	21165
811.158	21077
811.299	21310
811.441	21458
811.582	21370
811.724	21294
811.865	21214
812.007	21279
812.148	21268
812.29	21321
812.431	21405
812.573	21542
812.714	21610
812.855	21660
812.997	21743
813.138	21945
813.279	21899
813.421	21800
813.562	21679
813.703	21564
813.845	21389
813.986	21165
814.127	20918
814.268	20819
814.41	20823
814.551	20781
814.692	20819
814.833	20629
814.974	20773
815.115	20686
815.256	20636
815.397	20587
815.539	20689
815.68	20530
815.821	20457
815.962	20625
816.103	20571
816.244	20309
816.385	20256
816.526	20229
816.666	20100
816.807	20031
816.948	20111
817.089	20058
817.23	19833
817.371	19913
817.512	19917
817.653	19936
817.793	19837
817.934	19940
818.075	19856
818.216	19940
818.356	19978
818.497	19700
818.638	19586
818.778	19613
818.919	19651
819.06	19609
819.2	19666
819.341	19921
819.481	19788
819.622	20024
819.762	20111
819.903	20058
820.043	19989
820.184	20008
820.324	19940
820.465	19925
820.605	19928
820.746	19883
820.886	19719
821.026	19875
821.167	19841
821.307	20046
821.447	19928
821.588	19677
821.728	19563
821.868	19400
822.008	19285
822.149	19255
822.289	19293
822.429	18954
822.569	18913
822.709	19000
822.849	18779
822.99	18791
823.13	18825
823.27	18715
823.41	18601
823.55	18566
823.69	18574
823.83	18544
823.97	18407
824.11	18475
824.25	18311
824.389	18429
824.529	18475
824.669	18319
824.809	18532
824.949	18448
825.089	18433
825.228	18395
825.368	18129
825.508	18129
825.648	18174
825.787	18251
825.927	18053
826.067	18072
826.206	18114
826.346	18258
826.485	18220
826.625	18091
826.765	18243
826.904	18114
827.044	17912
827.183	17988
827.323	17764
827.462	17958
827.601	17817
827.741	17752
827.88	17851
828.02	17668
828.159	17790
828.298	17840
828.437	17836
828.577	17821
828.716	17874
828.855	17676
828.994	17661
829.134	17547
829.273	17649
829.412	17535
829.551	17490
829.69	17566
829.829	17532
829.968	17611
830.107	17600
830.246	17581
830.385	17551
830.524	17391
830.663	17440
830.802	17273
830.941	17246
831.08	17185
831.219	17204
831.357	17258
831.496	17288
831.635	17113
831.774	17109
831.913	17090
832.051	17025
832.19	17052
832.329	16953
832.467	17033
832.606	16854
832.744	16835
832.883	16873
833.022	16904
833.16	16915
833.299	16866
833.437	16854
833.576	16987
833.714	16938
833.852	16946
833.991	16991
834.129	17052
834.267	17052
834.406	16972
834.544	17075
834.682	16957
834.821	16885
834.959	17117
835.097	16797
835.235	17022
835.373	16889
835.511	16957
835.65	16793
835.788	16812
835.926	16740
836.064	16626
836.202	16698
836.34	16900
836.478	16919
836.615	16896
836.753	16816
836.891	16968
837.029	16816
837.167	16797
837.305	16839
837.443	16725
837.58	16630
837.718	16710
837.856	16698
837.993	16698
838.131	16634
838.269	16641
838.406	16558
838.544	16580
838.681	16409
838.819	16352
838.956	16268
839.094	16196
839.231	16287
839.369	16382
839.506	16668
839.643	16478
839.781	16367
839.918	16131
840.055	16185
840.193	16234
840.33	16173
840.467	16223
840.604	16226
840.742	16527
840.879	16010
841.016	16116
841.153	16059
841.29	16295
841.427	16276
841.564	16169
841.701	16196
841.838	16196
841.975	16143
842.112	16135
842.249	15937
842.385	16112
842.522	16196
842.659	16078
842.796	16021
842.933	16006
843.069	15873
843.206	15880
843.343	15941
843.479	16090
843.616	16032
843.752	15739
843.889	15857
844.025	15979
844.162	15747
844.298	15789
844.435	15911
844.571	15755
844.708	15660
844.844	15892
844.98	15831
845.117	15892
845.253	15781
845.389	15736
845.525	15842
845.661	15873
845.798	15785
845.934	15846
846.07	15759
846.206	15873
846.342	15892
846.478	15762
846.614	15485
846.75	15393
846.886	15332
847.022	15511
847.158	15420
847.294	15405
847.429	15298
847.565	15370
847.701	15526
847.837	15142
847.972	15039
848.108	15108
848.244	15055
848.379	14986
848.515	14960
848.65	14895
848.786	14895
848.921	15047
849.057	14994
849.192	15047
849.328	14899
849.463	15017
849.598	14891
849.734	14956
849.869	14845
850.004	14686
850.14	14765
850.275	14716
850.41	14648
850.545	14727
850.68	14659
850.815	14773
850.95	14663
851.085	14891
851.22	14838
851.355	14708
851.49	14739
851.625	14689
851.76	14655
851.895	14629
852.03	14594
852.165	14659
852.299	14739
852.434	14735
852.569	14785
852.703	14670
852.838	14804
852.973	14849
853.107	14750
853.242	14670
853.376	14594
853.511	14400
853.645	14636
853.78	14720
853.914	14568
854.048	14404
854.183	14579
854.317	14564
854.451	14689
854.585	14560
854.72	14571
854.854	14678
854.988	14507
855.122	14571
855.256	14457
855.39	14583
855.524	14640
855.658	14537
855.792	14610
855.926	14484
856.06	14670
856.194	14735
856.327	14568
856.461	14594
856.595	14587
856.729	14568
856.862	14739
856.996	14541
857.13	14735
857.263	14648
857.397	14727
857.53	14640
857.664	14689
857.797	14560
857.931	14670
858.064	14629
858.197	14727
858.331	14457
858.464	14552
858.597	14446
858.731	14590
858.864	14587
858.997	14476
859.13	14636
859.263	14598
859.396	14765
859.529	14602
859.662	14556
859.795	14511
859.928	14587
860.061	14716
860.194	14773
860.327	14499
860.46	14507
860.592	14594
860.725	14674
860.858	14743
860.99	14564
861.123	14511
861.256	14503
861.388	14590
861.521	15173
861.653	14465
861.786	14400
861.918	14423
862.05	14526
862.183	14606
862.315	14552
862.447	14613
862.58	14431
862.712	14408
862.844	14267
862.976	14385
863.108	14324
863.24	14788
863.372	14366
863.504	14400
863.636	14351
863.768	14400
863.9	14233
864.032	14210
864.164	14240
864.296	14377
864.428	14495
864.559	14442
864.691	14461
864.823	14465
864.954	14377
865.086	14374
865.217	14385
865.349	14347
865.48	14301
865.612	14328
865.743	14461
865.875	14305
866.006	14214
866.137	14328
866.269	14282
866.4	14278
866.531	14320
866.662	14218
866.793	14370
866.924	14374
867.055	14305
867.186	14313
867.317	14183
867.448	14195
867.579	14210
867.71	14294
867.841	14199
867.972	14275
868.103	14332
868.233	14366
868.364	14355
868.495	14423
868.625	14689
868.756	14705
868.886	14499
869.017	14560
869.147	14746
869.278	14644
869.408	14533
869.539	14545
869.669	14670
869.799	14617
869.929	14720
870.06	14655
870.19	14929
870.32	14792
870.45	14918
870.58	15036
870.71	15135
870.84	15119
870.97	14933
871.1	14914
871.23	15173
871.36	15119
871.489	14986
871.619	15127
871.749	15100
871.879	15249
872.008	15165
872.138	15119
872.267	15146
872.397	15001
872.526	15085
872.656	15043
872.785	15093
872.915	15116
873.044	15260
873.173	15218
873.303	15211
873.432	15203
873.561	15344
873.69	15264
873.819	15214
873.948	15264
874.077	15176
874.206	15165
874.335	15142
874.464	15340
874.593	15492
874.722	15466
874.851	15584
874.979	15523
875.108	15572
875.237	15515
875.365	15408
875.494	15481
875.623	15625
875.751	15443
875.88	15526
876.008	15667
876.136	15770
876.265	15987
876.393	16048
876.521	16074
876.65	16040
876.778	15979
876.906	15831
877.034	16006
877.162	15983
877.29	15857
877.418	15892
877.546	16006
877.674	15884
877.802	15991
877.93	15945
878.058	15941
878.185	15880
878.313	15926
878.441	15975
878.568	15751
878.696	15854
878.824	16040
878.951	16139
879.079	16238
879.206	16325
879.333	16200
879.461	16063
879.588	16223
879.715	16181
879.842	16314
879.97	16078
880.097	15892
880.224	15922
880.351	15770
880.478	15873
880.605	15770
880.732	15720
880.859	15994
880.986	15823
881.112	15850
881.239	15652
881.366	15492
881.493	15553
881.619	15405
881.746	15450
881.872	15511
881.999	15389
882.125	15355
882.252	15576
882.378	15549
882.505	15633
882.631	15374
882.757	15275
882.883	15332
883.01	15329
883.136	15188
883.262	15089
883.388	15127
883.514	15256
883.64	15279
883.766	15291
883.892	15074
884.018	15112
884.143	15279
884.269	15378
884.395	15146
884.52	14990
884.646	15058
884.772	14876
884.897	14895
885.023	15032
885.148	15017
885.274	15074
885.399	15036
885.524	14857
885.65	14899
885.775	15036
885.9	14971
886.025	15062
886.15	15013
886.275	14914
886.4	14876
886.525	14941
886.65	14925
886.775	14910
886.9	15154
887.025	15176
887.149	14883
887.274	14746
887.399	14644
887.523	14712
887.648	14765
887.773	14739
887.897	14777
888.021	14899
888.146	14743
888.27	14823
888.395	14925
888.519	14819
888.643	14823
888.767	14826
888.891	14773
889.015	14651
889.139	14701
889.263	14663
889.387	14689
889.511	14880
889.635	14716
889.759	14735
889.883	14682
890.006	14708
890.13	14765
890.254	14610
890.377	14621
890.501	14511
890.624	14431
890.748	14503
890.871	14381
890.995	14248
891.118	14366
891.241	14294
891.364	14358
891.488	14469
891.611	14374
891.734	14290
891.857	14419
891.98	14355
892.103	14438
892.226	14457
892.349	14358
892.471	14256
892.594	14339
892.717	14305
892.839	14301
892.962	14339
893.085	14454
893.207	14332
893.33	14259
893.452	14263
893.575	14415
893.697	14355
893.819	14514
893.941	14549
894.064	14473
894.186	14271
894.308	14248
894.43	14423
894.552	14564
894.674	14560
894.796	14313
894.918	14336
895.04	14446
895.161	14507
895.283	14454
895.405	14396
895.526	14522
895.648	14514
895.769	14438
895.891	14503
896.012	14651
896.134	14587
896.255	14438
896.376	14438
896.498	14457
896.619	14545
896.74	14514
896.861	14518
896.982	14929
897.103	14944
897.224	14739
897.345	14705
897.466	14731
897.587	14739
897.708	14914
897.828	14746
897.949	14765
898.07	14697
898.19	14785
898.311	14956
898.431	14826
898.552	14819
898.672	14914
898.792	14918
898.913	14933
899.033	14792
899.153	14731
899.273	14590
899.393	14651
899.513	14807
899.633	14830
899.753	14754
899.873	14644
899.993	14739
900.113	14750
900.232	14823
900.352	14640
900.472	14651
900.591	14541
900.711	14674
900.83	14556
900.95	14613
901.069	14716
901.189	14552
901.308	14393
901.427	14157
901.546	14202
901.665	14301
901.784	14358
901.904	14191
902.023	14077
902.141	13871
902.26	13868
902.379	13951
902.498	13883
902.617	13780
902.735	13822
902.854	13761
902.973	13727
903.091	13506
903.21	13460
903.328	13567
903.446	13377
903.565	13354
903.683	13324
903.801	13285
903.919	13331
904.038	13350
904.156	13316
904.274	13285
904.392	13088
904.51	13198
904.627	13244
904.745	13259
904.863	13289
904.981	13050
905.098	12833
905.216	12920
905.334	12928
905.451	12905
905.569	12787
905.686	12852
905.803	12924
905.921	12658
906.038	12814
906.155	12722
906.272	12547
906.389	12677
906.506	12528
906.623	12502
906.74	12448
906.857	12330
906.974	12323
907.091	12483
907.208	12650
907.324	12506
907.441	12391
907.557	12155
907.674	12178
907.79	12190
907.907	12167
908.023	12216
908.139	12163
908.256	12178
908.372	12136
908.488	12049
908.604	12019
908.72	11939
908.836	11942
908.952	11893
909.068	12007
909.184	12034
909.3	11908
909.415	11996
909.531	11954
909.647	11707
909.762	11729
909.878	11638
909.993	11722
910.108	11710
910.224	11630
910.339	11589
910.454	11729
910.57	11535
910.685	11467
910.8	11832
910.915	11699
911.03	11653
911.145	11406
911.259	11311
911.374	11463
911.489	11364
911.604	11292
911.718	11136
911.833	11178
911.947	11064
912.062	10942
912.176	11155
912.291	11189
912.405	11151
912.519	11402
912.633	11406
912.748	11246
912.862	11296
912.976	11109
913.09	10904
913.204	10961
913.318	11067
913.431	11140
913.545	11056
913.659	11121
913.772	11037
913.886	10923
914	10930
914.113	11025
914.226	11037
914.34	10984
914.453	10847
914.566	11029
914.68	10892
914.793	10831
914.906	10679
915.019	10577
915.132	10599
915.245	10679
915.358	10672
915.47	10694
915.583	10679
915.696	10729
915.809	10763
915.921	10786
916.034	10767
916.146	10577
916.259	10538
916.371	10698
916.483	10637
916.595	10531
916.708	10573
916.82	10584
916.932	10653
917.044	10596
917.156	10512
917.268	10512
917.38	10481
917.491	10470
917.603	10455
917.715	10527
917.826	10622
917.938	10489
918.049	10386
918.161	10451
918.272	10634
918.384	10603
918.495	10474
918.606	10337
918.717	10287
918.828	10363
918.939	10424
919.05	10329
919.161	10337
919.272	10204
919.383	10188
919.494	10447
919.604	10611
919.715	10356
919.826	10219
919.936	10333
920.047	10413
920.157	10371
920.267	10565
920.378	10375
920.488	10398
920.598	10641
920.708	10641
920.818	10637
920.928	10542
921.038	10668
921.148	10694
921.258	10398
921.368	10299
921.477	10306
921.587	10227
921.697	10082
921.806	10276
921.916	10097
922.025	10017
922.134	9915
922.244	9903
922.353	10051
922.462	9785
922.571	9720
922.68	9625
922.789	9637
922.898	9648
923.007	9545
923.116	9606
923.224	9660
923.333	9625
923.442	9545
923.55	9428
923.659	9545
923.767	9545
923.876	9401
923.984	9526
924.092	9447
924.201	9526
924.309	9488
924.417	9473
924.525	9469
924.633	9450
924.741	10291
924.849	9203
924.956	9370
925.064	9211
925.172	9199
925.279	9279
925.387	9233
925.494	9298
925.602	9431
925.709	9351
925.816	9245
925.924	9291
926.031	9310
926.138	9291
926.245	9355
926.352	9112
926.459	9386
926.566	9287
926.673	9237
926.779	9195
926.886	9142
926.993	9017
927.099	8998
927.206	8937
927.312	8952
927.419	9013
927.525	8975
927.631	8982
927.737	8967
927.843	8918
927.95	8754
928.056	8826
928.162	8895
928.267	8948
928.373	9507
928.479	8952
928.585	8720
928.69	8868
928.796	8948
928.901	8838
929.007	8617
929.112	8754
929.218	8785
929.323	8727
929.428	8697
929.533	8804
929.638	8651
929.743	8674
929.848	8788
929.953	8659
930.058	8560
930.163	8442
930.267	8381
930.372	8606
930.477	8370
930.581	8720
930.685	8537
930.79	8320
930.894	8434
930.998	8351
931.103	8499
931.207	8233
931.311	8138
931.415	8077
931.519	7940
931.623	7845
