Data from test_V78500241_2137.txt Node
Date: Fri Mar 25 14:48:35 CST 2022
User: usil
Spectrometer: V785-0024
Trigger mode: 0
Integration Time (sec): 4.000000E-1
Scans to average: 1
Nonlinearity correction enabled: false
Boxcar width: 0
Storing dark spectrum: false
XAxis mode: Wavelengths
Number of Pixels in Spectrum: 1024
>>>>>Begin Spectral Data<<<<<
801.071	22128
801.214	22093
801.356	21835
801.499	21831
801.641	21561
801.783	21447
801.926	21599
802.068	21477
802.211	21450
802.353	21302
802.496	21142
802.638	21165
802.78	21028
802.923	21020
803.065	20929
803.208	20845
803.35	21028
803.492	20944
803.635	21070
803.777	20925
803.919	20979
804.061	21176
804.204	20963
804.346	20735
804.488	20845
804.63	20834
804.773	20800
804.915	20864
805.057	21028
805.199	20804
805.341	21013
805.483	20891
805.626	20834
805.768	20705
805.91	20872
806.052	20883
806.194	20705
806.336	20963
806.478	20750
806.62	20857
806.762	20975
806.904	21085
807.046	21192
807.188	21207
807.33	21165
807.472	21218
807.614	21096
807.756	21017
807.898	21043
808.04	20883
808.182	20853
808.324	21001
808.465	21036
808.607	21096
808.749	21275
808.891	21336
809.033	21252
809.174	21332
809.316	21214
809.458	21302
809.6	21104
809.741	21302
809.883	21336
810.025	21370
810.166	21401
810.308	21393
810.45	21367
810.591	21268
810.733	21264
810.875	20963
811.016	20944
811.158	20815
811.299	21070
811.441	21226
811.582	21207
811.724	21116
811.865	20914
812.007	21058
812.148	20845
812.29	21017
812.431	21005
812.573	21313
812.714	21344
812.855	21412
812.997	21568
813.138	21633
813.279	21675
813.421	21504
813.562	21378
813.703	21264
813.845	21203
813.986	20914
814.127	20727
814.268	20583
814.41	20644
814.551	20492
814.692	20640
814.833	20469
814.974	20488
815.115	20579
815.256	20370
815.397	20499
815.539	20454
815.68	20320
815.821	20221
815.962	20332
816.103	20259
816.244	20119
816.385	20107
816.526	20039
816.666	19826
816.807	19715
816.948	19738
817.089	19818
817.23	19738
817.371	19700
817.512	19704
817.653	19700
817.793	19658
817.934	19731
818.075	19712
818.216	19712
818.356	19658
818.497	19510
818.638	19354
818.778	19411
818.919	19358
819.06	19422
819.2	19499
819.341	19525
819.481	19575
819.622	19833
819.762	19875
819.903	19902
820.043	19803
820.184	19685
820.324	19556
820.465	19670
820.605	19609
820.746	19605
820.886	19396
821.026	19635
821.167	19605
821.307	19811
821.447	19609
821.588	19491
821.728	19491
821.868	19339
822.008	19015
822.149	19171
822.289	18966
822.429	18821
822.569	18848
822.709	18753
822.849	18585
822.99	18525
823.13	18540
823.27	18540
823.41	18376
823.55	18315
823.69	18422
823.83	18327
823.97	18311
824.11	18216
824.25	18095
824.389	18167
824.529	18232
824.669	18235
824.809	18304
824.949	18152
825.089	18209
825.228	18159
825.368	17958
825.508	18034
825.648	17958
825.787	18079
825.927	17866
826.067	17992
826.206	17954
826.346	17992
826.485	17969
826.625	17904
826.765	18022
826.904	17931
827.044	17722
827.183	17672
827.323	17695
827.462	17699
827.601	17672
827.741	17657
827.88	17752
828.02	17455
828.159	17577
828.298	17615
828.437	17779
828.577	17532
828.716	17737
828.855	17535
828.994	17448
829.134	17318
829.273	17440
829.412	17265
829.551	17277
829.69	17398
829.829	17410
829.968	17509
830.107	17379
830.246	17398
830.385	17318
830.524	17258
830.663	17140
830.802	17029
830.941	16968
831.08	17003
831.219	17090
831.357	17056
831.496	17269
831.635	17033
831.774	16885
831.913	16873
832.051	16896
832.19	16744
832.329	16812
832.467	16649
832.606	16569
832.744	16626
832.883	16664
833.022	16687
833.16	16603
833.299	16630
833.437	16698
833.576	16729
833.714	16778
833.852	16675
833.991	16694
834.129	16721
834.267	16649
834.406	16733
834.544	16805
834.682	16683
834.821	16664
834.959	16850
835.097	16569
835.235	16793
835.373	16778
835.511	16660
835.65	16683
835.788	16592
835.926	16470
836.064	16443
836.202	16573
836.34	16679
836.478	16649
836.615	16561
836.753	16675
836.891	16771
837.029	16603
837.167	16615
837.305	16538
837.443	16386
837.58	16451
837.718	16550
837.856	16580
837.993	16527
838.131	16455
838.269	16508
838.406	16546
838.544	16348
838.681	16268
838.819	16162
838.956	16040
839.094	16029
839.231	16013
839.369	16173
839.506	16398
839.643	16211
839.781	16036
839.918	16078
840.055	16150
840.193	16025
840.33	16112
840.467	16013
840.604	16173
840.742	16192
840.879	15968
841.016	15953
841.153	15975
841.29	16131
841.427	16090
841.564	16071
841.701	16017
841.838	16032
841.975	15892
842.112	15892
842.249	15838
842.385	15713
842.522	15903
842.659	15747
842.796	15789
842.933	15838
843.069	15755
843.206	15861
843.343	15888
843.479	15789
843.616	15785
843.752	15686
843.889	15576
844.025	15835
844.162	15557
844.298	15739
844.435	15724
844.571	15488
844.708	15568
844.844	15728
844.98	15785
845.117	15671
845.253	15545
845.389	15458
845.525	15557
845.661	15530
845.798	15405
845.934	15515
846.07	15397
846.206	15447
846.342	15568
846.478	15500
846.614	15260
846.75	15230
846.886	15256
847.022	15237
847.158	15112
847.294	15241
847.429	15176
847.565	15211
847.701	15424
847.837	14952
847.972	14914
848.108	14979
848.244	15009
848.379	14807
848.515	14788
848.65	14796
848.786	14853
848.921	14804
849.057	14792
849.192	14857
849.328	14902
849.463	14781
849.598	14834
849.734	14648
849.869	14644
850.004	14552
850.14	14564
850.275	14549
850.41	14461
850.545	14495
850.68	14629
850.815	14613
850.95	14587
851.085	14762
851.22	14621
851.355	14533
851.49	14419
851.625	14514
851.76	14469
851.895	14415
852.03	14404
852.165	14533
852.299	14511
852.434	14655
852.569	14598
852.703	14568
852.838	14655
852.973	14648
853.107	14583
853.242	14492
853.376	14336
853.511	14278
853.645	14324
853.78	14518
853.914	14427
854.048	14343
854.183	14419
854.317	14389
854.451	14617
854.585	14317
854.72	14305
854.854	14545
854.988	14317
855.122	14400
855.256	14237
855.39	14412
855.524	14526
855.658	14442
855.792	14412
855.926	14396
856.06	14530
856.194	14492
856.327	14400
856.461	14210
856.595	14408
856.729	14320
856.862	14518
856.996	14431
857.13	14480
857.263	14457
857.397	14511
857.53	14408
857.664	14522
857.797	14579
857.931	14549
858.064	14446
858.197	14454
858.331	14377
858.464	14286
858.597	14290
858.731	14336
858.864	14343
858.997	14434
859.13	14389
859.263	14465
859.396	14499
859.529	14423
859.662	14374
859.795	14343
859.928	14370
860.061	14522
860.194	14610
860.327	14320
860.46	14408
860.592	14522
860.725	14511
860.858	14518
860.99	14408
861.123	14286
861.256	14377
861.388	14328
861.521	15089
861.653	14252
861.786	14210
861.918	14256
862.05	14309
862.183	14252
862.315	14438
862.447	14355
862.58	14370
862.712	14107
862.844	14096
862.976	14351
863.108	14195
863.24	14537
863.372	14100
863.504	14206
863.636	14126
863.768	14320
863.9	14237
864.032	14142
864.164	14191
864.296	14210
864.428	14305
864.559	14176
864.691	14233
864.823	14256
864.954	14305
865.086	14199
865.217	14263
865.349	14111
865.48	14176
865.612	14210
865.743	14290
865.875	14252
866.006	14138
866.137	14176
866.269	14149
866.4	14206
866.531	14149
866.662	14081
866.793	14073
866.924	14126
867.055	14191
867.186	14157
867.317	14100
867.448	14107
867.579	14119
867.71	14153
867.841	14065
867.972	14138
868.103	14088
868.233	14168
868.364	14149
868.495	14256
868.625	14336
868.756	14598
868.886	14336
869.017	14362
869.147	14465
869.278	14465
869.408	14461
869.539	14450
869.669	14488
869.799	14473
869.929	14571
870.06	14518
870.19	14815
870.32	14663
870.45	14693
870.58	14864
870.71	14921
870.84	14929
870.97	14876
871.1	14819
871.23	15005
871.36	15047
871.489	14948
871.619	14941
871.749	14937
871.879	15032
872.008	15077
872.138	15055
872.267	14941
872.397	14910
872.526	14845
872.656	14804
872.785	14815
872.915	15047
873.044	15176
873.173	14994
873.303	15001
873.432	15116
873.561	15188
873.69	15077
873.819	15066
873.948	15097
874.077	15013
874.206	15043
874.335	15176
874.464	15184
874.593	15431
874.722	15245
874.851	15473
874.979	15420
875.108	15416
875.237	15329
875.365	15233
875.494	15313
875.623	15515
875.751	15401
875.88	15393
876.008	15530
876.136	15561
876.265	15873
876.393	15911
876.521	15907
876.65	15915
876.778	15846
876.906	15743
877.034	15751
877.162	15648
877.29	15690
877.418	15774
877.546	15759
877.674	15736
877.802	15800
877.93	15827
878.058	15732
878.185	15778
878.313	15842
878.441	15857
878.568	15591
878.696	15838
878.824	15785
878.951	15812
879.079	16025
879.206	16082
879.333	16013
879.461	15831
879.588	15819
879.715	16067
879.842	16196
879.97	15934
880.097	15793
880.224	15671
880.351	15622
880.478	15694
880.605	15633
880.732	15633
880.859	15922
880.986	15660
881.112	15720
881.239	15534
881.366	15401
881.493	15310
881.619	15317
881.746	15348
881.872	15313
881.999	15264
882.125	15302
882.252	15378
882.378	15344
882.505	15435
882.631	15207
882.757	15036
882.883	15154
883.01	15138
883.136	15097
883.262	15097
883.388	14990
883.514	15100
883.64	15207
883.766	15093
883.892	14944
884.018	14887
884.143	15138
884.269	15089
884.395	14876
884.52	14777
884.646	14773
884.772	14838
884.897	14678
885.023	14842
885.148	14902
885.274	14944
885.399	14944
885.524	14857
885.65	14864
885.775	14834
885.9	14765
886.025	14849
886.15	14891
886.275	14796
886.4	14773
886.525	14792
886.65	14716
886.775	14777
886.9	15051
887.025	14994
887.149	14796
887.274	14716
887.399	14651
887.523	14667
887.648	14568
887.773	14427
887.897	14708
888.021	14629
888.146	14556
888.27	14682
888.395	14792
888.519	14777
888.643	14682
888.767	14667
888.891	14610
889.015	14503
889.139	14610
889.263	14526
889.387	14541
889.511	14659
889.635	14579
889.759	14530
889.883	14381
890.006	14511
890.13	14606
890.254	14499
890.377	14457
890.501	14248
890.624	14221
890.748	14389
890.871	14252
890.995	14134
891.118	14149
891.241	14210
891.364	14138
891.488	14248
891.611	14172
891.734	14218
891.857	14374
891.98	14142
892.103	14317
892.226	14183
892.349	14252
892.471	14058
892.594	14202
892.717	14187
892.839	14191
892.962	14187
893.085	14240
893.207	14157
893.33	14103
893.452	14149
893.575	14305
893.697	14126
893.819	14351
893.941	14412
894.064	14282
894.186	14180
894.308	14221
894.43	14317
894.552	14518
894.674	14339
894.796	14271
894.918	14290
895.04	14103
895.161	14339
895.283	14278
895.405	14142
895.526	14313
895.648	14298
895.769	14271
895.891	14370
896.012	14347
896.134	14419
896.255	14286
896.376	14347
896.498	14347
896.619	14374
896.74	14309
896.861	14484
896.982	14705
897.103	14895
897.224	14587
897.345	14556
897.466	14537
897.587	14663
897.708	14750
897.828	14602
897.949	14590
898.07	14518
898.19	14556
898.311	14785
898.431	14697
898.552	14838
898.672	14819
898.792	14853
898.913	14754
899.033	14640
899.153	14537
899.273	14518
899.393	14476
899.513	14602
899.633	14511
899.753	14530
899.873	14461
899.993	14518
900.113	14465
900.232	14644
900.352	14590
900.472	14469
900.591	14389
900.711	14419
900.83	14427
900.95	14617
901.069	14549
901.189	14347
901.308	14111
901.427	14005
901.546	14084
901.665	14119
901.784	14077
901.904	14001
902.023	13928
902.141	13776
902.26	13620
902.379	13693
902.498	13723
902.617	13689
902.735	13780
902.854	13647
902.973	13636
903.091	13441
903.21	13434
903.328	13316
903.446	13255
903.565	13320
903.683	13282
903.801	13057
903.919	13187
904.038	13228
904.156	13072
904.274	13019
904.392	13129
904.51	12989
904.627	13129
904.745	13114
904.863	13202
904.981	12806
905.098	12764
905.216	12726
905.334	12741
905.451	12829
905.569	12734
905.686	12814
905.803	12821
905.921	12635
906.038	12620
906.155	12544
906.272	12414
906.389	12498
906.506	12323
906.623	12361
906.74	12330
906.857	12205
906.974	12262
907.091	12429
907.208	12517
907.324	12296
907.441	12213
907.557	12087
907.674	12068
907.79	12064
907.907	12098
908.023	12121
908.139	12083
908.256	12041
908.372	12026
908.488	11939
908.604	11878
908.72	11794
908.836	11935
908.952	11783
909.068	11878
909.184	11954
909.3	11836
909.415	11859
909.531	11904
909.647	11627
909.762	11623
909.878	11543
909.993	11649
910.108	11585
910.224	11543
910.339	11623
910.454	11497
910.57	11337
910.685	11402
910.8	11741
910.915	11741
911.03	11482
911.145	11341
911.259	11341
911.374	11345
911.489	11235
911.604	11159
911.718	11075
911.833	11041
911.947	10980
912.062	10847
912.176	10980
912.291	11014
912.405	10984
912.519	11246
912.633	11345
912.748	11185
912.862	11117
912.976	10961
913.09	10801
913.204	10889
913.318	10934
913.431	11033
913.545	10987
913.659	11041
913.772	10984
913.886	10896
914	10816
914.113	10965
914.226	10869
914.34	10938
914.453	10717
914.566	10812
914.68	10850
914.793	10717
914.906	10542
915.019	10573
915.132	10546
915.245	10531
915.358	10558
915.47	10596
915.583	10634
915.696	10603
915.809	10721
915.921	10721
916.034	10569
916.146	10561
916.259	10474
916.371	10618
916.483	10424
916.595	10432
916.708	10451
916.82	10466
916.932	10443
917.044	10424
917.156	10386
917.268	10344
917.38	10348
917.491	10386
917.603	10337
917.715	10402
917.826	10474
917.938	10451
918.049	10192
918.161	10363
918.272	10531
918.384	10554
918.495	10382
918.606	10238
918.717	10196
918.828	10261
918.939	10303
919.05	10204
919.161	10265
919.272	10074
919.383	10097
919.494	10348
919.604	10531
919.715	10295
919.826	10211
919.936	10265
920.047	10405
920.157	10356
920.267	10493
920.378	10287
920.488	10306
920.598	10417
920.708	10497
920.818	10451
920.928	10417
921.038	10660
921.148	10599
921.258	10322
921.368	10257
921.477	10166
921.587	10158
921.697	9941
921.806	10162
921.916	9987
922.025	9865
922.134	9888
922.244	9774
922.353	9972
922.462	9755
922.571	9705
922.68	9542
922.789	9526
922.898	9538
923.007	9481
923.116	9576
923.224	9466
923.333	9572
923.442	9473
923.55	9370
923.659	9477
923.767	9488
923.876	9367
923.984	9420
924.092	9340
924.201	9477
924.309	9401
924.417	9351
924.525	9329
924.633	9374
924.741	10295
924.849	9245
924.956	9283
925.064	9192
925.172	9154
925.279	9135
925.387	9176
925.494	9211
925.602	9275
925.709	9249
925.816	9066
925.924	9188
926.031	9245
926.138	9226
926.245	9157
926.352	9077
926.459	9313
926.566	9264
926.673	9104
926.779	8975
926.886	8986
926.993	8891
927.099	8921
927.206	8823
927.312	8823
927.419	8910
927.525	8937
927.631	8899
927.737	8754
927.843	8792
927.95	8686
928.056	8750
928.162	8731
928.267	8861
928.373	9298
928.479	8883
928.585	8598
928.69	8823
928.796	8823
928.901	8705
929.007	8564
929.112	8754
929.218	8632
929.323	8598
929.428	8678
929.533	8739
929.638	8560
929.743	8606
929.848	8640
929.953	8579
930.058	8446
930.163	8362
930.267	8415
930.372	8526
930.477	8328
930.581	8583
930.685	8419
930.79	8320
930.894	8328
930.998	8263
931.103	8442
931.207	8084
931.311	8111
931.415	8054
931.519	7822
931.623	7784
