Data from test_V78500241_1597.txt Node
Date: Fri Mar 25 14:44:50 CST 2022
User: usil
Spectrometer: V785-0024
Trigger mode: 0
Integration Time (sec): 4.000000E-1
Scans to average: 1
Nonlinearity correction enabled: false
Boxcar width: 0
Storing dark spectrum: false
XAxis mode: Wavelengths
Number of Pixels in Spectrum: 1024
>>>>>Begin Spectral Data<<<<<
801.071	22413
801.214	22268
801.356	22025
801.499	22010
801.641	21720
801.783	21724
801.926	21778
802.068	21663
802.211	21587
802.353	21568
802.496	21272
802.638	21252
802.78	21214
802.923	21074
803.065	20990
803.208	21013
803.35	21085
803.492	21135
803.635	21214
803.777	21157
803.919	21188
804.061	21447
804.204	21131
804.346	21142
804.488	20929
804.63	21024
804.773	20906
804.915	21108
805.057	21108
805.199	21028
805.341	21017
805.483	21146
805.626	21043
805.768	20971
805.91	21100
806.052	20971
806.194	20826
806.336	21070
806.478	20956
806.62	21013
806.762	21013
806.904	21195
807.046	21386
807.188	21310
807.33	21298
807.472	21420
807.614	21275
807.756	21367
807.898	21233
808.04	21070
808.182	21093
808.324	21237
808.465	21249
808.607	21386
808.749	21526
808.891	21644
809.033	21694
809.174	21629
809.316	21428
809.458	21511
809.6	21397
809.741	21389
809.883	21530
810.025	21504
810.166	21530
810.308	21523
810.45	21538
810.591	21348
810.733	21272
810.875	21150
811.016	21070
811.158	21032
811.299	21146
811.441	21382
811.582	21268
811.724	21233
811.865	21180
812.007	21150
812.148	21264
812.29	21214
812.431	21435
812.573	21633
812.714	21504
812.855	21682
812.997	21816
813.138	21972
813.279	21819
813.421	21648
813.562	21572
813.703	21401
813.845	21336
813.986	21020
814.127	20876
814.268	20769
814.41	20823
814.551	20876
814.692	20777
814.833	20705
814.974	20636
815.115	20625
815.256	20571
815.397	20594
815.539	20446
815.68	20507
815.821	20446
815.962	20495
816.103	20480
816.244	20244
816.385	20130
816.526	20195
816.666	20077
816.807	19879
816.948	20035
817.089	20001
817.23	19883
817.371	19925
817.512	19887
817.653	19658
817.793	19818
817.934	19925
818.075	19864
818.216	19902
818.356	19894
818.497	19708
818.638	19438
818.778	19559
818.919	19685
819.06	19476
819.2	19666
819.341	19776
819.481	19795
819.622	19902
819.762	19963
819.903	19993
820.043	19955
820.184	19776
820.324	19928
820.465	20069
820.605	19875
820.746	19837
820.886	19704
821.026	19871
821.167	19795
821.307	19852
821.447	19677
821.588	19776
821.728	19510
821.868	19559
822.008	19171
822.149	19270
822.289	19293
822.429	18977
822.569	18951
822.709	18943
822.849	18821
822.99	18757
823.13	18764
823.27	18593
823.41	18593
823.55	18528
823.69	18570
823.83	18544
823.97	18547
824.11	18289
824.25	18300
824.389	18365
824.529	18338
824.669	18391
824.809	18315
824.949	18456
825.089	18388
825.228	18342
825.368	18216
825.508	18167
825.648	18182
825.787	18152
825.927	18144
826.067	18106
826.206	18030
826.346	18053
826.485	18136
826.625	18144
826.765	18034
826.904	18053
827.044	17950
827.183	17840
827.323	17798
827.462	17798
827.601	17798
827.741	17832
827.88	17961
828.02	17646
828.159	17714
828.298	17882
828.437	17786
828.577	17745
828.716	17840
828.855	17748
828.994	17490
829.134	17486
829.273	17596
829.412	17429
829.551	17467
829.69	17524
829.829	17532
829.968	17634
830.107	17558
830.246	17490
830.385	17436
830.524	17379
830.663	17212
830.802	17250
830.941	17208
831.08	17075
831.219	17124
831.357	17200
831.496	17444
831.635	17220
831.774	17079
831.913	17159
832.051	16927
832.19	16908
832.329	16835
832.467	16805
832.606	16774
832.744	16835
832.883	16763
833.022	16816
833.16	16816
833.299	16949
833.437	16771
833.576	16869
833.714	16835
833.852	16915
833.991	16877
834.129	16961
834.267	16908
834.406	16892
834.544	16850
834.682	16938
834.821	16854
834.959	16980
835.097	16858
835.235	16900
835.373	16889
835.511	16866
835.65	16797
835.788	16771
835.926	16660
836.064	16599
836.202	16622
836.34	16839
836.478	16858
836.615	16748
836.753	16824
836.891	16793
837.029	16729
837.167	16672
837.305	16622
837.443	16611
837.58	16675
837.718	16683
837.856	16626
837.993	16641
838.131	16569
838.269	16535
838.406	16611
838.544	16455
838.681	16341
838.819	16185
838.956	16158
839.094	16036
839.231	16238
839.369	16280
839.506	16508
839.643	16386
839.781	16188
839.918	16135
840.055	16215
840.193	16147
840.33	16272
840.467	16135
840.604	16147
840.742	16375
840.879	16044
841.016	16093
841.153	16067
841.29	16169
841.427	16253
841.564	16166
841.701	16207
841.838	16177
841.975	16071
842.112	16029
842.249	15918
842.385	15964
842.522	16150
842.659	15915
842.796	15979
842.933	15972
843.069	15937
843.206	15819
843.343	15987
843.479	15972
843.616	16002
843.752	15739
843.889	15728
844.025	15854
844.162	15637
844.298	15838
844.435	15732
844.571	15705
844.708	15869
844.844	15987
844.98	15827
845.117	15793
845.253	15770
845.389	15618
845.525	15713
845.661	15618
845.798	15660
845.934	15709
846.07	15656
846.206	15667
846.342	15732
846.478	15568
846.614	15378
846.75	15249
846.886	15275
847.022	15405
847.158	15313
847.294	15287
847.429	15283
847.565	15180
847.701	15469
847.837	15058
847.972	15013
848.108	15070
848.244	15123
848.379	14918
848.515	14868
848.65	14853
848.786	14933
848.921	14880
849.057	15013
849.192	15017
849.328	14975
849.463	14811
849.598	14925
849.734	14830
849.869	14754
850.004	14587
850.14	14678
850.275	14594
850.41	14560
850.545	14552
850.68	14568
850.815	14701
850.95	14545
851.085	14937
851.22	14754
851.355	14587
851.49	14625
851.625	14648
851.76	14560
851.895	14568
852.03	14552
852.165	14697
852.299	14636
852.434	14724
852.569	14632
852.703	14632
852.838	14720
852.973	14838
853.107	14670
853.242	14503
853.376	14571
853.511	14492
853.645	14404
853.78	14503
853.914	14507
854.048	14484
854.183	14499
854.317	14446
854.451	14575
854.585	14499
854.72	14415
854.854	14594
854.988	14385
855.122	14579
855.256	14320
855.39	14518
855.524	14575
855.658	14579
855.792	14579
855.926	14476
856.06	14522
856.194	14655
856.327	14446
856.461	14438
856.595	14495
856.729	14552
856.862	14617
856.996	14377
857.13	14541
857.263	14659
857.397	14674
857.53	14476
857.664	14583
857.797	14625
857.931	14549
858.064	14564
858.197	14678
858.331	14556
858.464	14438
858.597	14434
858.731	14549
858.864	14530
858.997	14488
859.13	14556
859.263	14480
859.396	14610
859.529	14507
859.662	14457
859.795	14415
859.928	14587
860.061	14651
860.194	14712
860.327	14488
860.46	14366
860.592	14564
860.725	14606
860.858	14579
860.99	14450
861.123	14446
861.256	14423
861.388	14450
861.521	15233
861.653	14434
861.786	14210
861.918	14396
862.05	14492
862.183	14495
862.315	14488
862.447	14541
862.58	14427
862.712	14358
862.844	14256
862.976	14408
863.108	14446
863.24	14712
863.372	14176
863.504	14305
863.636	14290
863.768	14393
863.9	14206
864.032	14320
864.164	14244
864.296	14336
864.428	14305
864.559	14438
864.691	14278
864.823	14294
864.954	14252
865.086	14244
865.217	14229
865.349	14218
865.48	14248
865.612	14278
865.743	14358
865.875	14237
866.006	14275
866.137	14271
866.269	14286
866.4	14305
866.531	14301
866.662	14229
866.793	14244
866.924	14271
867.055	14294
867.186	14301
867.317	14244
867.448	14218
867.579	14263
867.71	14214
867.841	14168
867.972	14301
868.103	14320
868.233	14324
868.364	14320
868.495	14404
868.625	14568
868.756	14636
868.886	14423
869.017	14549
869.147	14629
869.278	14689
869.408	14507
869.539	14533
869.669	14651
869.799	14625
869.929	14735
870.06	14857
870.19	14967
870.32	14864
870.45	14823
870.58	14918
870.71	15081
870.84	14948
870.97	14902
871.1	14918
871.23	15135
871.36	15245
871.489	14986
871.619	15070
871.749	15173
871.879	15112
872.008	15214
872.138	15188
872.267	15154
872.397	14975
872.526	14921
872.656	14895
872.785	14963
872.915	15176
873.044	15233
873.173	15192
873.303	15165
873.432	15279
873.561	15245
873.69	15108
873.819	15127
873.948	15199
874.077	15127
874.206	15211
874.335	15329
874.464	15359
874.593	15412
874.722	15332
874.851	15542
874.979	15538
875.108	15523
875.237	15492
875.365	15405
875.494	15507
875.623	15584
875.751	15412
875.88	15591
876.008	15675
876.136	15709
876.265	15930
876.393	16029
876.521	16074
876.65	15922
876.778	15880
876.906	15899
877.034	15838
877.162	15842
877.29	15857
877.418	15892
877.546	15926
877.674	15926
877.802	15892
877.93	15987
878.058	15907
878.185	15747
878.313	15892
878.441	16078
878.568	15732
878.696	15850
878.824	15922
878.951	15968
879.079	16010
879.206	16257
879.333	15949
879.461	15888
879.588	16120
879.715	16082
879.842	16257
879.97	16124
880.097	15808
880.224	15709
880.351	15816
880.478	15850
880.605	15808
880.732	15732
880.859	15960
880.986	15827
881.112	15808
881.239	15720
881.366	15515
881.493	15515
881.619	15507
881.746	15393
881.872	15397
881.999	15488
882.125	15336
882.252	15523
882.378	15386
882.505	15538
882.631	15329
882.757	15306
882.883	15370
883.01	15237
883.136	15237
883.262	15104
883.388	15070
883.514	15256
883.64	15363
883.766	15176
883.892	14998
884.018	15146
884.143	15222
884.269	15317
884.395	15039
884.52	14998
884.646	14990
884.772	14891
884.897	14796
885.023	14948
885.148	15074
885.274	15100
885.399	15039
885.524	15013
885.65	14849
885.775	15070
885.9	14941
886.025	15119
886.15	14975
886.275	14902
886.4	14887
886.525	14815
886.65	14868
886.775	14834
886.9	15066
887.025	15173
887.149	14853
887.274	14819
887.399	14785
887.523	14743
887.648	14727
887.773	14579
887.897	14902
888.021	14906
888.146	14720
888.27	14777
888.395	14845
888.519	14883
888.643	14872
888.767	14804
888.891	14644
889.015	14587
889.139	14648
889.263	14610
889.387	14739
889.511	14765
889.635	14746
889.759	14598
889.883	14629
890.006	14682
890.13	14731
890.254	14590
890.377	14606
890.501	14381
890.624	14438
890.748	14423
890.871	14396
890.995	14206
891.118	14244
891.241	14240
891.364	14294
891.488	14457
891.611	14278
891.734	14381
891.857	14298
891.98	14339
892.103	14366
892.226	14389
892.349	14343
892.471	14191
892.594	14275
892.717	14400
892.839	14351
892.962	14298
893.085	14393
893.207	14237
893.33	14206
893.452	14256
893.575	14355
893.697	14358
893.819	14514
893.941	14492
894.064	14476
894.186	14305
894.308	14202
894.43	14442
894.552	14465
894.674	14476
894.796	14259
894.918	14317
895.04	14328
895.161	14434
895.283	14351
895.405	14351
895.526	14374
895.648	14374
895.769	14545
895.891	14503
896.012	14514
896.134	14450
896.255	14507
896.376	14499
896.498	14549
896.619	14575
896.74	14518
896.861	14492
896.982	14895
897.103	14956
897.224	14815
897.345	14667
897.466	14701
897.587	14686
897.708	14876
897.828	14746
897.949	14838
898.07	14602
898.19	14735
898.311	14933
898.431	14811
898.552	14849
898.672	14861
898.792	14971
898.913	14925
899.033	14765
899.153	14708
899.273	14583
899.393	14693
899.513	14765
899.633	14739
899.753	14743
899.873	14689
899.993	14716
900.113	14678
900.232	14686
900.352	14613
900.472	14518
900.591	14514
900.711	14552
900.83	14545
900.95	14686
901.069	14682
901.189	14454
901.308	14282
901.427	14256
901.546	14210
901.665	14366
901.784	14328
901.904	14054
902.023	14084
902.141	13719
902.26	13871
902.379	13864
902.498	13700
902.617	13700
902.735	13902
902.854	13712
902.973	13753
903.091	13533
903.21	13567
903.328	13514
903.446	13457
903.565	13396
903.683	13384
903.801	13266
903.919	13392
904.038	13301
904.156	13107
904.274	13225
904.392	13187
904.51	13194
904.627	13069
904.745	13236
904.863	13160
904.981	12935
905.098	12905
905.216	12852
905.334	12894
905.451	12795
905.569	12859
905.686	12875
905.803	12863
905.921	12578
906.038	12760
906.155	12753
906.272	12525
906.389	12551
906.506	12479
906.623	12445
906.74	12452
906.857	12289
906.974	12350
907.091	12429
907.208	12517
907.324	12578
907.441	12334
907.557	12327
907.674	12205
907.79	12129
907.907	12235
908.023	12155
908.139	12232
908.256	12175
908.372	12140
908.488	12098
908.604	11916
908.72	11939
908.836	11954
908.952	11954
909.068	12034
909.184	12083
909.3	11939
909.415	11904
909.531	11923
909.647	11767
909.762	11737
909.878	11623
909.993	11684
910.108	11668
910.224	11726
910.339	11802
910.454	11611
910.57	11592
910.685	11448
910.8	11771
910.915	11718
911.03	11535
911.145	11436
911.259	11417
911.374	11471
911.489	11337
911.604	11303
911.718	11155
911.833	11201
911.947	11121
912.062	10980
912.176	11166
912.291	11181
912.405	11079
912.519	11353
912.633	11356
912.748	11227
912.862	11174
912.976	11113
913.09	10934
913.204	10915
913.318	10961
913.431	11071
913.545	11124
913.659	11151
913.772	11025
913.886	10984
914	10858
914.113	10968
914.226	10999
914.34	11048
914.453	10850
914.566	11018
914.68	10850
914.793	10850
914.906	10736
915.019	10618
915.132	10554
915.245	10645
915.358	10725
915.47	10668
915.583	10664
915.696	10698
915.809	10862
915.921	10801
916.034	10584
916.146	10592
916.259	10538
916.371	10683
916.483	10660
916.595	10569
916.708	10569
916.82	10607
916.932	10580
917.044	10580
917.156	10550
917.268	10409
917.38	10481
917.491	10470
917.603	10535
917.715	10569
917.826	10535
917.938	10478
918.049	10287
918.161	10500
918.272	10569
918.384	10660
918.495	10451
918.606	10322
918.717	10344
918.828	10337
918.939	10394
919.05	10253
919.161	10337
919.272	10147
919.383	10181
919.494	10436
919.604	10584
919.715	10341
919.826	10348
919.936	10348
920.047	10413
920.157	10367
920.267	10478
920.378	10405
920.488	10371
920.598	10599
920.708	10771
920.818	10607
920.928	10546
921.038	10797
921.148	10691
921.258	10455
921.368	10291
921.477	10287
921.587	10169
921.697	10055
921.806	10177
921.916	10101
922.025	9960
922.134	9964
922.244	9892
922.353	9907
922.462	9762
922.571	9766
922.68	9637
922.789	9591
922.898	9705
923.007	9534
923.116	9618
923.224	9595
923.333	9633
923.442	9515
923.55	9500
923.659	9519
923.767	9599
923.876	9481
923.984	9542
924.092	9450
924.201	9500
924.309	9519
924.417	9473
924.525	9389
924.633	9447
924.741	10398
924.849	9256
924.956	9401
925.064	9199
925.172	9142
925.279	9237
925.387	9241
925.494	9233
925.602	9378
925.709	9306
925.816	9329
925.924	9306
926.031	9336
926.138	9237
926.245	9275
926.352	9203
926.459	9325
926.566	9359
926.673	9211
926.779	9097
926.886	9104
926.993	8956
927.099	8956
927.206	8986
927.312	8929
927.419	9055
927.525	8956
927.631	8986
927.737	8918
927.843	8842
927.95	8792
928.056	8853
928.162	8834
928.267	8971
928.373	9439
928.479	8994
928.585	8754
928.69	8868
928.796	8872
928.901	8807
929.007	8651
929.112	8777
929.218	8746
929.323	8659
929.428	8705
929.533	8781
929.638	8663
929.743	8602
929.848	8701
929.953	8686
930.058	8537
930.163	8412
930.267	8507
930.372	8625
930.477	8450
930.581	8640
930.685	8495
930.79	8396
930.894	8419
930.998	8396
931.103	8518
931.207	8157
931.311	8149
931.415	7967
931.519	7909
931.623	7898
