Data from test_V78500241_1071.txt Node
Date: Fri Mar 25 14:41:10 CST 2022
User: usil
Spectrometer: V785-0024
Trigger mode: 0
Integration Time (sec): 4.000000E-1
Scans to average: 1
Nonlinearity correction enabled: false
Boxcar width: 0
Storing dark spectrum: false
XAxis mode: Wavelengths
Number of Pixels in Spectrum: 1024
>>>>>Begin Spectral Data<<<<<
801.071	22805
801.214	22630
801.356	22371
801.499	22371
801.641	22246
801.783	22059
801.926	22135
802.068	22063
802.211	21937
802.353	21800
802.496	21831
802.638	21682
802.78	21667
802.923	21633
803.065	21473
803.208	21325
803.35	21363
803.492	21488
803.635	21603
803.777	21580
803.919	21511
804.061	21827
804.204	21526
804.346	21359
804.488	21348
804.63	21363
804.773	21310
804.915	21519
805.057	21603
805.199	21504
805.341	21435
805.483	21507
805.626	21538
805.768	21408
805.91	21473
806.052	21329
806.194	21298
806.336	21504
806.478	21519
806.62	21386
806.762	21469
806.904	21637
807.046	21823
807.188	21629
807.33	21747
807.472	21838
807.614	21743
807.756	21865
807.898	21819
808.04	21732
808.182	21880
808.324	21686
808.465	21953
808.607	22116
808.749	22379
808.891	22428
809.033	22538
809.174	22447
809.316	22287
809.458	22207
809.6	22131
809.741	22131
809.883	22036
810.025	22219
810.166	22086
810.308	22131
810.45	22112
810.591	21884
810.733	21736
810.875	21618
811.016	21542
811.158	21637
811.299	21732
811.441	21884
811.582	21743
811.724	21751
811.865	21637
812.007	21637
812.148	21618
812.29	21648
812.431	21663
812.573	21937
812.714	22116
812.855	22055
812.997	22204
813.138	22352
813.279	22280
813.421	22051
813.562	22010
813.703	21975
813.845	21797
813.986	21507
814.127	21420
814.268	21287
814.41	21272
814.551	21207
814.692	21287
814.833	21222
814.974	21138
815.115	21112
815.256	20960
815.397	21180
815.539	21039
815.68	20937
815.821	20868
815.962	20872
816.103	20921
816.244	20853
816.385	20838
816.526	20659
816.666	20549
816.807	20313
816.948	20480
817.089	20473
817.23	20393
817.371	20351
817.512	20396
817.653	20225
817.793	20271
817.934	20328
818.075	20332
818.216	20271
818.356	20355
818.497	20168
818.638	19883
818.778	20046
818.919	20069
819.06	20016
819.2	20081
819.341	20126
819.481	20195
819.622	20442
819.762	20545
819.903	20419
820.043	20358
820.184	20393
820.324	20267
820.465	20438
820.605	20461
820.746	20412
820.886	20256
821.026	20263
821.167	20317
821.307	20301
821.447	20218
821.588	20065
821.728	20077
821.868	19917
822.008	19696
822.149	19700
822.289	19632
822.429	19533
822.569	19407
822.709	19365
822.849	19183
822.99	19274
823.13	19164
823.27	19179
823.41	19008
823.55	19023
823.69	19038
823.83	19008
823.97	18947
824.11	18806
824.25	18791
824.389	18795
824.529	18878
824.669	18833
824.809	18913
824.949	18905
825.089	18928
825.228	18882
825.368	18528
825.508	18509
825.648	18650
825.787	18681
825.927	18692
826.067	18395
826.206	18353
826.346	18559
826.485	18715
826.625	18604
826.765	18654
826.904	18540
827.044	18365
827.183	18410
827.323	18110
827.462	18353
827.601	18342
827.741	18353
827.88	18304
828.02	18178
828.159	18232
828.298	18323
828.437	18228
828.577	18216
828.716	18311
828.855	18133
828.994	17912
829.134	18045
829.273	18140
829.412	17901
829.551	17939
829.69	17866
829.829	18049
829.968	18129
830.107	17999
830.246	17904
830.385	17969
830.524	17988
830.663	17809
830.802	17703
830.941	17665
831.08	17653
831.219	17733
831.357	17687
831.496	17729
831.635	17627
831.774	17562
831.913	17478
832.051	17372
832.19	17364
832.329	17376
832.467	17292
832.606	17345
832.744	17330
832.883	17360
833.022	17299
833.16	17307
833.299	17353
833.437	17242
833.576	17345
833.714	17448
833.852	17436
833.991	17414
834.129	17471
834.267	17471
834.406	17376
834.544	17474
834.682	17360
834.821	17360
834.959	17630
835.097	17364
835.235	17379
835.373	17387
835.511	17379
835.65	17193
835.788	17337
835.926	17166
836.064	16919
836.202	17121
836.34	17303
836.478	17284
836.615	17269
836.753	17239
836.891	17372
837.029	17288
837.167	17269
837.305	17197
837.443	17136
837.58	17086
837.718	17132
837.856	17174
837.993	17014
838.131	17170
838.269	17022
838.406	17048
838.544	17056
838.681	16839
838.819	16816
838.956	16611
839.094	16713
839.231	16622
839.369	16713
839.506	17052
839.643	16911
839.781	16679
839.918	16733
840.055	16653
840.193	16584
840.33	16577
840.467	16618
840.604	16710
840.742	16942
840.879	16550
841.016	16611
841.153	16607
841.29	16683
841.427	16679
841.564	16763
841.701	16668
841.838	16554
841.975	16504
842.112	16668
842.249	16424
842.385	16341
842.522	16535
842.659	16409
842.796	16394
842.933	16455
843.069	16386
843.206	16421
843.343	16508
843.479	16489
843.616	16470
843.752	16238
843.889	16249
844.025	16360
844.162	16226
844.298	16276
844.435	16322
844.571	16226
844.708	16310
844.844	16462
844.98	16402
845.117	16367
845.253	16234
845.389	16344
845.525	16341
845.661	16459
845.798	16504
845.934	16622
846.07	16668
846.206	16683
846.342	16710
846.478	16371
846.614	16090
846.75	15979
846.886	15915
847.022	15964
847.158	15797
847.294	15918
847.429	15850
847.565	15770
847.701	16074
847.837	15488
847.972	15557
848.108	15568
848.244	15561
848.379	15454
848.515	15439
848.65	15340
848.786	15363
848.921	15382
849.057	15507
849.192	15458
849.328	15443
849.463	15488
849.598	15428
849.734	15325
849.869	15256
850.004	15207
850.14	15237
850.275	15135
850.41	15150
850.545	15161
850.68	15192
850.815	15203
850.95	15116
851.085	15378
851.22	15279
851.355	15085
851.49	15173
851.625	15233
851.76	15135
851.895	15146
852.03	15135
852.165	15135
852.299	15157
852.434	15325
852.569	15157
852.703	15260
852.838	15226
852.973	15272
853.107	15298
853.242	15108
853.376	15036
853.511	14998
853.645	14895
853.78	15142
853.914	15097
854.048	15055
854.183	15013
854.317	15024
854.451	15207
854.585	15055
854.72	14929
854.854	15142
854.988	14929
855.122	15070
855.256	14758
855.39	14967
855.524	15112
855.658	15062
855.792	15116
855.926	15028
856.06	15058
856.194	15074
856.327	15047
856.461	15142
856.595	14998
856.729	14929
856.862	15161
856.996	15097
857.13	15058
857.263	15214
857.397	15055
857.53	14956
857.664	15055
857.797	15100
857.931	15146
858.064	15074
858.197	15199
858.331	15047
858.464	14990
858.597	14914
858.731	14937
858.864	14967
858.997	15039
859.13	14986
859.263	15070
859.396	15070
859.529	14925
859.662	14948
859.795	14956
859.928	15005
860.061	15192
860.194	15211
860.327	15116
860.46	14990
860.592	15085
860.725	15070
860.858	15154
860.99	15024
861.123	15058
861.256	14937
861.388	15077
861.521	15682
861.653	14834
861.786	14762
861.918	14918
862.05	14948
862.183	14960
862.315	14975
862.447	15081
862.58	14979
862.712	14792
862.844	14746
862.976	14857
863.108	14975
863.24	15173
863.372	14754
863.504	14682
863.636	14830
863.768	14750
863.9	14800
864.032	14739
864.164	14731
864.296	14838
864.428	14880
864.559	14887
864.691	14910
864.823	14853
864.954	14830
865.086	14800
865.217	14804
865.349	14739
865.48	14804
865.612	14765
865.743	14979
865.875	14750
866.006	14792
866.137	14777
866.269	14724
866.4	14765
866.531	14731
866.662	14716
866.793	14773
866.924	14712
867.055	14769
867.186	14712
867.317	14701
867.448	14674
867.579	14640
867.71	14568
867.841	14739
867.972	14849
868.103	14735
868.233	14834
868.364	14807
868.495	14872
868.625	15028
868.756	15093
868.886	14876
869.017	15043
869.147	15001
869.278	15127
869.408	15028
869.539	15028
869.669	15157
869.799	15047
869.929	15138
870.06	15169
870.19	15275
870.32	15291
870.45	15313
870.58	15439
870.71	15389
870.84	15538
870.97	15359
871.1	15332
871.23	15545
871.36	15679
871.489	15485
871.619	15530
871.749	15603
871.879	15686
872.008	15694
872.138	15694
872.267	15599
872.397	15485
872.526	15530
872.656	15363
872.785	15393
872.915	15603
873.044	15797
873.173	15652
873.303	15656
873.432	15625
873.561	15648
873.69	15652
873.819	15580
873.948	15747
874.077	15629
874.206	15511
874.335	15667
874.464	15785
874.593	16017
874.722	15857
874.851	16063
874.979	16078
875.108	15998
875.237	15937
875.365	15895
875.494	15945
875.623	16010
875.751	15873
875.88	15922
876.008	16139
876.136	16211
876.265	16337
876.393	16398
876.521	16405
876.65	16455
876.778	16413
876.906	16337
877.034	16295
877.162	16344
877.29	16341
877.418	16512
877.546	16379
877.674	16356
877.802	16333
877.93	16394
878.058	16325
878.185	16280
878.313	16371
878.441	16478
878.568	16352
878.696	16386
878.824	16402
878.951	16588
879.079	16630
879.206	16923
879.333	16748
879.461	16744
879.588	16710
879.715	16759
879.842	16938
879.97	16729
880.097	16386
880.224	16451
880.351	16424
880.478	16322
880.605	16299
880.732	16360
880.859	16542
880.986	16299
881.112	16261
881.239	16150
881.366	16116
881.493	16006
881.619	15911
881.746	16048
881.872	15998
881.999	15934
882.125	15857
882.252	15991
882.378	15968
882.505	16071
882.631	15846
882.757	15751
882.883	15876
883.01	15736
883.136	15717
883.262	15686
883.388	15500
883.514	15812
883.64	15812
883.766	15671
883.892	15584
884.018	15629
884.143	15789
884.269	15812
884.395	15564
884.52	15435
884.646	15511
884.772	15359
884.897	15348
885.023	15443
885.148	15557
885.274	15781
885.399	15549
885.524	15473
885.65	15500
885.775	15397
885.9	15424
886.025	15488
886.15	15519
886.275	15397
886.4	15260
886.525	15435
886.65	15351
886.775	15370
886.9	15587
887.025	15610
887.149	15523
887.274	15294
887.399	15199
887.523	15272
887.648	15188
887.773	15100
887.897	15279
888.021	15313
888.146	15218
888.27	15325
888.395	15325
888.519	15222
888.643	15127
888.767	15294
888.891	15119
889.015	15150
889.139	15039
889.263	15020
889.387	15173
889.511	15351
889.635	15199
889.759	15043
889.883	15112
890.006	15157
890.13	15169
890.254	15009
890.377	15013
890.501	14967
890.624	14861
890.748	14982
890.871	14807
890.995	14743
891.118	14632
891.241	14819
891.364	14746
891.488	14807
891.611	14648
891.734	14735
891.857	14785
891.98	14777
892.103	14819
892.226	14720
892.349	14708
892.471	14598
892.594	14705
892.717	14750
892.839	14670
892.962	14838
893.085	14777
893.207	14796
893.33	14625
893.452	14667
893.575	14834
893.697	14686
893.819	14899
893.941	14990
894.064	14834
894.186	14594
894.308	14667
894.43	14887
894.552	14895
894.674	14842
894.796	14708
894.918	14773
895.04	14750
895.161	14838
895.283	14857
895.405	14758
895.526	14845
895.648	14796
895.769	14864
895.891	14842
896.012	14910
896.134	14857
896.255	14910
896.376	14933
896.498	14887
896.619	14823
896.74	14861
896.861	14933
896.982	15207
897.103	15313
897.224	15272
897.345	15176
897.466	15036
897.587	15260
897.708	15211
897.828	15237
897.949	15112
898.07	15032
898.19	15195
898.311	15287
898.431	15157
898.552	15154
898.672	15310
898.792	15310
898.913	15302
899.033	15211
899.153	15001
899.273	15036
899.393	15058
899.513	15074
899.633	14967
899.753	15039
899.873	14994
899.993	15036
900.113	15047
900.232	15058
900.352	14956
900.472	14982
900.591	14914
900.711	14937
900.83	14902
900.95	14963
901.069	15085
901.189	14887
901.308	14636
901.427	14613
901.546	14533
901.665	14579
901.784	14537
901.904	14594
902.023	14328
902.141	14233
902.26	14271
902.379	14191
902.498	14202
902.617	14176
902.735	14126
902.854	14149
902.973	14119
903.091	13909
903.21	13921
903.328	13868
903.446	13841
903.565	13738
903.683	13742
903.801	13666
903.919	13601
904.038	13658
904.156	13495
904.274	13620
904.392	13514
904.51	13491
904.627	13514
904.745	13556
904.863	13559
904.981	13327
905.098	13194
905.216	13240
905.334	13289
905.451	13198
905.569	13168
905.686	13236
905.803	13183
905.921	13008
906.038	13080
906.155	13057
906.272	12894
906.389	12951
906.506	12840
906.623	12776
906.74	12719
906.857	12673
906.974	12700
907.091	12844
907.208	12837
907.324	12833
907.441	12700
907.557	12528
907.674	12544
907.79	12429
907.907	12551
908.023	12593
908.139	12521
908.256	12464
908.372	12403
908.488	12369
908.604	12350
908.72	12273
908.836	12304
908.952	12163
909.068	12319
909.184	12361
909.3	12216
909.415	12315
909.531	12273
909.647	12098
909.762	12060
909.878	12106
909.993	12076
910.108	12060
910.224	11920
910.339	11992
910.454	11939
910.57	11897
910.685	11882
910.8	12087
910.915	11973
911.03	11942
911.145	11741
911.259	11710
911.374	11775
911.489	11592
911.604	11551
911.718	11471
911.833	11482
911.947	11349
912.062	11315
912.176	11581
912.291	11425
912.405	11433
912.519	11722
912.633	11668
912.748	11581
912.862	11448
912.976	11425
913.09	11288
913.204	11280
913.318	11311
913.431	11391
913.545	11402
913.659	11459
913.772	11417
913.886	11296
914	11162
914.113	11360
914.226	11356
914.34	11299
914.453	11220
914.566	11292
914.68	11204
914.793	11159
914.906	11067
915.019	11006
915.132	10900
915.245	10923
915.358	11010
915.47	10900
915.583	11014
915.696	10999
915.809	11208
915.921	11117
916.034	10930
916.146	10763
916.259	10900
916.371	11067
916.483	11075
916.595	10889
916.708	10942
916.82	10885
916.932	10904
917.044	10866
917.156	10835
917.268	10805
917.38	10786
917.491	10797
917.603	10752
917.715	10900
917.826	10915
917.938	10748
918.049	10698
918.161	10778
918.272	10915
918.384	10900
918.495	10835
918.606	10717
918.717	10622
918.828	10649
918.939	10626
919.05	10523
919.161	10577
919.272	10402
919.383	10618
919.494	10805
919.604	10786
919.715	10630
919.826	10626
919.936	10698
920.047	10649
920.157	10714
920.267	10873
920.378	10778
920.488	10672
920.598	10839
920.708	11052
920.818	10889
920.928	10877
921.038	11010
921.148	10946
921.258	10710
921.368	10618
921.477	10500
921.587	10565
921.697	10402
921.806	10546
921.916	10421
922.025	10253
922.134	10166
922.244	10166
922.353	10238
922.462	10158
922.571	10021
922.68	9934
922.789	9911
922.898	9903
923.007	9785
923.116	9926
923.224	9934
923.333	9884
923.442	9789
923.55	9728
923.659	9778
923.767	9888
923.876	9838
923.984	9812
924.092	9724
924.201	9793
924.309	9747
924.417	9732
924.525	9705
924.633	9724
924.741	10649
924.849	9534
924.956	9709
925.064	9572
925.172	9431
925.279	9545
925.387	9553
925.494	9557
925.602	9660
925.709	9568
925.816	9473
925.924	9545
926.031	9595
926.138	9462
926.245	9580
926.352	9545
926.459	9561
926.566	9576
926.673	9492
926.779	9382
926.886	9348
926.993	9222
927.099	9207
927.206	9230
927.312	9222
927.419	9207
927.525	9283
927.631	9180
927.737	9142
927.843	9116
927.95	8929
928.056	9097
928.162	9135
928.267	9222
928.373	9743
928.479	9253
928.585	8960
928.69	9127
928.796	9081
928.901	9100
929.007	8864
929.112	9032
929.218	9039
929.323	8994
929.428	9028
929.533	8998
929.638	8925
929.743	8933
929.848	8982
929.953	8929
930.058	8838
930.163	8651
930.267	8686
930.372	8838
930.477	8629
930.581	8902
930.685	8781
930.79	8659
930.894	8632
930.998	8522
931.103	8750
931.207	8442
931.311	8393
931.415	8328
931.519	8191
931.623	8145
