Data from test_V78500241_2354.txt Node
Date: Fri Mar 25 14:50:06 CST 2022
User: usil
Spectrometer: V785-0024
Trigger mode: 0
Integration Time (sec): 4.000000E-1
Scans to average: 1
Nonlinearity correction enabled: false
Boxcar width: 0
Storing dark spectrum: false
XAxis mode: Wavelengths
Number of Pixels in Spectrum: 1024
>>>>>Begin Spectral Data<<<<<
801.071	22242
801.214	21979
801.356	21880
801.499	21618
801.641	21580
801.783	21538
801.926	21458
802.068	21564
802.211	21435
802.353	21294
802.496	21108
802.638	21009
802.78	20910
802.923	20872
803.065	20872
803.208	20830
803.35	20883
803.492	20872
803.635	21055
803.777	20838
803.919	20963
804.061	21142
804.204	20899
804.346	20842
804.488	20712
804.63	20746
804.773	20807
804.915	20788
805.057	21039
805.199	20697
805.341	20762
805.483	20944
805.626	20910
805.768	20724
805.91	20727
806.052	20838
806.194	20727
806.336	20880
806.478	20708
806.62	20701
806.762	20876
806.904	20963
807.046	21104
807.188	21104
807.33	21161
807.472	21249
807.614	21047
807.756	21032
807.898	20785
808.04	20891
808.182	20845
808.324	20994
808.465	20895
808.607	20979
808.749	21077
808.891	21165
809.033	21477
809.174	21218
809.316	21020
809.458	21195
809.6	21176
809.741	21192
809.883	21245
810.025	21397
810.166	21294
810.308	21317
810.45	21332
810.591	21146
810.733	21135
810.875	21077
811.016	20883
811.158	20800
811.299	21043
811.441	21089
811.582	21036
811.724	20948
811.865	20918
812.007	20861
812.148	21009
812.29	20963
812.431	21127
812.573	21192
812.714	21412
812.855	21447
812.997	21488
813.138	21831
813.279	21534
813.421	21435
813.562	21389
813.703	21332
813.845	21085
813.986	20880
814.127	20598
814.268	20522
814.41	20530
814.551	20461
814.692	20537
814.833	20427
814.974	20503
815.115	20537
815.256	20362
815.397	20244
815.539	20286
815.68	20248
815.821	20202
815.962	20305
816.103	20183
816.244	20062
816.385	19917
816.526	19936
816.666	19822
816.807	19582
816.948	19852
817.089	19776
817.23	19757
817.371	19605
817.512	19571
817.653	19571
817.793	19620
817.934	19635
818.075	19693
818.216	19613
818.356	19575
818.497	19453
818.638	19133
818.778	19282
818.919	19274
819.06	19358
819.2	19388
819.341	19537
819.481	19506
819.622	19662
819.762	19871
819.903	19586
820.043	19632
820.184	19609
820.324	19624
820.465	19689
820.605	19712
820.746	19674
820.886	19362
821.026	19681
821.167	19582
821.307	19734
821.447	19480
821.588	19430
821.728	19343
821.868	19183
822.008	18977
822.149	19012
822.289	18954
822.429	18772
822.569	18665
822.709	18642
822.849	18544
822.99	18559
823.13	18376
823.27	18384
823.41	18323
823.55	18125
823.69	18311
823.83	18285
823.97	18190
824.11	18095
824.25	18125
824.389	18053
824.529	18133
824.669	18079
824.809	18117
824.949	18155
825.089	18178
825.228	18064
825.368	17851
825.508	17817
825.648	17794
825.787	17851
825.927	17805
826.067	17859
826.206	17897
826.346	17859
826.485	17813
826.625	17760
826.765	17904
826.904	17874
827.044	17687
827.183	17585
827.323	17509
827.462	17554
827.601	17482
827.741	17535
827.88	17539
828.02	17421
828.159	17532
828.298	17558
828.437	17589
828.577	17478
828.716	17600
828.855	17356
828.994	17326
829.134	17242
829.273	17341
829.412	17318
829.551	17170
829.69	17162
829.829	17356
829.968	17372
830.107	17250
830.246	17334
830.385	17273
830.524	17220
830.663	17094
830.802	16968
830.941	16904
831.08	16824
831.219	16923
831.357	16915
831.496	17166
831.635	16923
831.774	16854
831.913	16793
832.051	16645
832.19	16664
832.329	16763
832.467	16637
832.606	16561
832.744	16538
832.883	16599
833.022	16504
833.16	16615
833.299	16561
833.437	16596
833.576	16580
833.714	16626
833.852	16607
833.991	16588
834.129	16790
834.267	16687
834.406	16611
834.544	16634
834.682	16653
834.821	16584
834.959	16763
835.097	16668
835.235	16698
835.373	16694
835.511	16599
835.65	16580
835.788	16558
835.926	16352
836.064	16344
836.202	16424
836.34	16630
836.478	16580
836.615	16428
836.753	16550
836.891	16561
837.029	16573
837.167	16436
837.305	16390
837.443	16352
837.58	16272
837.718	16402
837.856	16432
837.993	16299
838.131	16451
838.269	16230
838.406	16409
838.544	16219
838.681	16032
838.819	16150
838.956	15899
839.094	15880
839.231	15903
839.369	16093
839.506	16322
839.643	16162
839.781	15975
839.918	15918
840.055	15915
840.193	15930
840.33	15880
840.467	15873
840.604	15926
840.742	16166
840.879	15865
841.016	15838
841.153	15751
841.29	16063
841.427	15987
841.564	15922
841.701	15884
841.838	15861
841.975	15816
842.112	15888
842.249	15698
842.385	15755
842.522	15895
842.659	15789
842.796	15625
842.933	15739
843.069	15648
843.206	15610
843.343	15660
843.479	15682
843.616	15724
843.752	15477
843.889	15496
844.025	15701
844.162	15488
844.298	15599
844.435	15534
844.571	15447
844.708	15500
844.844	15690
844.98	15720
845.117	15515
845.253	15488
845.389	15416
845.525	15397
845.661	15374
845.798	15306
845.934	15412
846.07	15359
846.206	15249
846.342	15351
846.478	15218
846.614	15062
846.75	15013
846.886	14975
847.022	15081
847.158	15081
847.294	15104
847.429	15123
847.565	14963
847.701	15275
847.837	14773
847.972	14731
848.108	14963
848.244	14842
848.379	14670
848.515	14648
848.65	14636
848.786	14644
848.921	14598
849.057	14667
849.192	14819
849.328	14735
849.463	14564
849.598	14632
849.734	14594
849.869	14571
850.004	14419
850.14	14446
850.275	14419
850.41	14389
850.545	14358
850.68	14461
850.815	14518
850.95	14408
851.085	14575
851.22	14484
851.355	14442
851.49	14396
851.625	14408
851.76	14415
851.895	14286
852.03	14309
852.165	14343
852.299	14412
852.434	14457
852.569	14537
852.703	14355
852.838	14488
852.973	14613
853.107	14552
853.242	14343
853.376	14362
853.511	14191
853.645	14210
853.78	14415
853.914	14294
854.048	14248
854.183	14248
854.317	14206
854.451	14564
854.585	14309
854.72	14191
854.854	14370
854.988	14221
855.122	14275
855.256	14077
855.39	14282
855.524	14351
855.658	14385
855.792	14286
855.926	14294
856.06	14263
856.194	14370
856.327	14271
856.461	14339
856.595	14115
856.729	14221
856.862	14317
856.996	14320
857.13	14377
857.263	14423
857.397	14324
857.53	14256
857.664	14351
857.797	14442
857.931	14415
858.064	14328
858.197	14446
858.331	14267
858.464	14191
858.597	14153
858.731	14290
858.864	14263
858.997	14210
859.13	14233
859.263	14256
859.396	14347
859.529	14301
859.662	14206
859.795	14229
859.928	14332
860.061	14370
860.194	14446
860.327	14248
860.46	14301
860.592	14324
860.725	14358
860.858	14374
860.99	14309
861.123	14191
861.256	14153
861.388	14259
861.521	14933
861.653	14161
861.786	14107
861.918	14096
862.05	14305
862.183	14164
862.315	14343
862.447	14290
862.58	14191
862.712	14035
862.844	13993
862.976	14096
863.108	14164
863.24	14423
863.372	13955
863.504	14058
863.636	14050
863.768	14100
863.9	14058
864.032	13997
864.164	13967
864.296	14058
864.428	14195
864.559	14221
864.691	14183
864.823	14202
864.954	14092
865.086	14069
865.217	14050
865.349	13997
865.48	14008
865.612	13959
865.743	14084
865.875	14046
866.006	14012
866.137	13970
866.269	13989
866.4	14043
866.531	14001
866.662	13936
866.793	13978
866.924	14096
867.055	14024
867.186	14084
867.317	13989
867.448	13887
867.579	13997
867.71	13982
867.841	13936
867.972	14088
868.103	14012
868.233	14050
868.364	13955
868.495	14199
868.625	14313
868.756	14286
868.886	14202
869.017	14221
869.147	14351
869.278	14385
869.408	14298
869.539	14358
869.669	14221
869.799	14381
869.929	14385
870.06	14454
870.19	14598
870.32	14606
870.45	14686
870.58	14750
870.71	14750
870.84	14796
870.97	14731
871.1	14785
871.23	14902
871.36	14872
871.489	14769
871.619	14902
871.749	14883
871.879	14830
872.008	15005
872.138	14899
872.267	14948
872.397	14731
872.526	14701
872.656	14648
872.785	14644
872.915	14899
873.044	14967
873.173	15024
873.303	14952
873.432	14941
873.561	15070
873.69	14960
873.819	14876
873.948	15047
874.077	14971
874.206	14845
874.335	14883
874.464	15058
874.593	15310
874.722	15203
874.851	15298
874.979	15264
875.108	15386
875.237	15233
875.365	15108
875.494	15207
875.623	15283
875.751	15214
875.88	15275
876.008	15397
876.136	15450
876.265	15610
876.393	15823
876.521	15823
876.65	15709
876.778	15732
876.906	15728
877.034	15606
877.162	15637
877.29	15701
877.418	15633
877.546	15705
877.674	15603
877.802	15648
877.93	15751
878.058	15698
878.185	15584
878.313	15671
878.441	15728
878.568	15492
878.696	15564
878.824	15644
878.951	15682
879.079	15842
879.206	15987
879.333	15819
879.461	15724
879.588	15739
879.715	15857
879.842	15903
879.97	15766
880.097	15500
880.224	15473
880.351	15534
880.478	15595
880.605	15405
880.732	15408
880.859	15694
880.986	15488
881.112	15629
881.239	15408
881.366	15310
881.493	15264
881.619	15077
881.746	15184
881.872	15173
881.999	15157
882.125	15173
882.252	15268
882.378	15256
882.505	15226
882.631	15081
882.757	14971
882.883	15028
883.01	14918
883.136	14849
883.262	14830
883.388	14807
883.514	15024
883.64	15020
883.766	15009
883.892	14731
884.018	14845
884.143	14948
884.269	15142
884.395	14743
884.52	14640
884.646	14735
884.772	14533
884.897	14670
885.023	14731
885.148	14758
885.274	14777
885.399	14823
885.524	14682
885.65	14689
885.775	14663
885.9	14625
886.025	14659
886.15	14796
886.275	14674
886.4	14621
886.525	14625
886.65	14556
886.775	14632
886.9	14807
887.025	14868
887.149	14769
887.274	14423
887.399	14549
887.523	14522
887.648	14442
887.773	14473
887.897	14511
888.021	14640
888.146	14412
888.27	14610
888.395	14613
888.519	14590
888.643	14655
888.767	14598
888.891	14381
889.015	14408
889.139	14320
889.263	14358
889.387	14503
889.511	14568
889.635	14598
889.759	14431
889.883	14400
890.006	14522
890.13	14594
890.254	14385
890.377	14336
890.501	14157
890.624	14263
890.748	14191
890.871	14069
890.995	14077
891.118	14084
891.241	14065
891.364	14119
891.488	14142
891.611	14107
891.734	14020
891.857	14202
891.98	14191
892.103	14195
892.226	14164
892.349	14035
892.471	13986
892.594	14031
892.717	14024
892.839	14126
892.962	14130
893.085	14088
893.207	14088
893.33	14035
893.452	14027
893.575	14119
893.697	14016
893.819	14313
893.941	14317
894.064	14263
894.186	14077
894.308	14008
894.43	14256
894.552	14305
894.674	14176
894.796	13978
894.918	14172
895.04	14046
895.161	14256
895.283	14195
895.405	14084
895.526	14153
895.648	14164
895.769	14195
895.891	14259
896.012	14309
896.134	14294
896.255	14282
896.376	14252
896.498	14233
896.619	14324
896.74	14218
896.861	14320
896.982	14648
897.103	14842
897.224	14602
897.345	14590
897.466	14404
897.587	14552
897.708	14686
897.828	14560
897.949	14518
898.07	14366
898.19	14507
898.311	14651
898.431	14545
898.552	14731
898.672	14663
898.792	14792
898.913	14636
899.033	14610
899.153	14492
899.273	14415
899.393	14488
899.513	14461
899.633	14450
899.753	14533
899.873	14484
899.993	14461
900.113	14526
900.232	14571
900.352	14434
900.472	14400
900.591	14366
900.711	14301
900.83	14298
900.95	14408
901.069	14461
901.189	14385
901.308	14130
901.427	13982
901.546	14016
901.665	14012
901.784	14111
901.904	13894
902.023	13811
902.141	13647
902.26	13636
902.379	13670
902.498	13647
902.617	13480
902.735	13700
902.854	13582
902.973	13476
903.091	13312
903.21	13331
903.328	13312
903.446	13221
903.565	13118
903.683	13145
903.801	13156
903.919	13221
904.038	13114
904.156	13042
904.274	13061
904.392	12958
904.51	12882
904.627	13053
904.745	13065
904.863	13080
904.981	12814
905.098	12669
905.216	12707
905.334	12612
905.451	12677
905.569	12570
905.686	12757
905.803	12662
905.921	12502
906.038	12506
906.155	12517
906.272	12407
906.389	12372
906.506	12228
906.623	12277
906.74	12190
906.857	12209
906.974	12087
907.091	12414
907.208	12410
907.324	12140
907.441	12190
907.557	12041
907.674	12007
907.79	11897
907.907	11977
908.023	12007
908.139	12015
908.256	11897
908.372	11912
908.488	11893
908.604	11836
908.72	11794
908.836	11786
908.952	11691
909.068	11760
909.184	11794
909.3	11752
909.415	11764
909.531	11722
909.647	11554
909.762	11474
909.878	11482
909.993	11551
910.108	11474
910.224	11528
910.339	11516
910.454	11440
910.57	11284
910.685	11273
910.8	11592
910.915	11615
911.03	11467
911.145	11220
911.259	11299
911.374	11261
911.489	11178
911.604	11098
911.718	10991
911.833	11010
911.947	10869
912.062	10824
912.176	11003
912.291	11014
912.405	10942
912.519	11235
912.633	11258
912.748	11094
912.862	10946
912.976	10801
913.09	10740
913.204	10744
913.318	10854
913.431	10965
913.545	10923
913.659	10919
913.772	10866
913.886	10717
914	10744
914.113	10793
914.226	10816
914.34	10774
914.453	10672
914.566	10866
914.68	10714
914.793	10634
914.906	10580
915.019	10394
915.132	10428
915.245	10447
915.358	10523
915.47	10470
915.583	10516
915.696	10527
915.809	10584
915.921	10618
916.034	10390
916.146	10436
916.259	10352
916.371	10535
916.483	10470
916.595	10352
916.708	10428
916.82	10497
916.932	10402
917.044	10443
917.156	10318
917.268	10325
917.38	10299
917.491	10242
917.603	10287
917.715	10322
917.826	10375
917.938	10253
918.049	10166
918.161	10360
918.272	10519
918.384	10386
918.495	10386
918.606	10219
918.717	10124
918.828	10246
918.939	10147
919.05	10109
919.161	10169
919.272	9945
919.383	10093
919.494	10280
919.604	10459
919.715	10227
919.826	10124
919.936	10188
920.047	10310
920.157	10234
920.267	10409
920.378	10299
920.488	10219
920.598	10409
920.708	10569
920.818	10470
920.928	10310
921.038	10603
921.148	10474
921.258	10257
921.368	10177
921.477	10032
921.587	10086
921.697	9930
921.806	10082
921.916	10013
922.025	9793
922.134	9827
922.244	9701
922.353	9838
922.462	9660
922.571	9622
922.68	9473
922.789	9370
922.898	9523
923.007	9412
923.116	9473
923.224	9408
923.333	9477
923.442	9351
923.55	9389
923.659	9313
923.767	9526
923.876	9329
923.984	9397
924.092	9245
924.201	9367
924.309	9310
924.417	9378
924.525	9211
924.633	9283
924.741	10147
924.849	9070
924.956	9325
925.064	9146
925.172	9055
925.279	9089
925.387	9138
925.494	9074
925.602	9222
925.709	9222
925.816	8994
925.924	9165
926.031	9214
926.138	9066
926.245	9085
926.352	9066
926.459	9154
926.566	9184
926.673	9093
926.779	9039
926.886	8998
926.993	8857
927.099	8929
927.206	8769
927.312	8781
927.419	8906
927.525	8899
927.631	8883
927.737	8712
927.843	8697
927.95	8625
928.056	8766
928.162	8750
928.267	8845
928.373	9378
928.479	8785
928.585	8648
928.69	8777
928.796	8674
928.901	8636
929.007	8484
929.112	8693
929.218	8625
929.323	8560
929.428	8549
929.533	8705
929.638	8530
929.743	8457
929.848	8549
929.953	8571
930.058	8423
930.163	8347
930.267	8374
930.372	8526
930.477	8286
930.581	8541
930.685	8374
930.79	8202
930.894	8214
930.998	8191
931.103	8396
931.207	8081
931.311	7982
931.415	7989
931.519	7753
931.623	7761
