Data from test_V78500241_1796.txt Node
Date: Fri Mar 25 14:46:13 CST 2022
User: usil
Spectrometer: V785-0024
Trigger mode: 0
Integration Time (sec): 4.000000E-1
Scans to average: 1
Nonlinearity correction enabled: false
Boxcar width: 0
Storing dark spectrum: false
XAxis mode: Wavelengths
Number of Pixels in Spectrum: 1024
>>>>>Begin Spectral Data<<<<<
801.071	22204
801.214	22090
801.356	21838
801.499	21823
801.641	21549
801.783	21492
801.926	21629
802.068	21652
802.211	21469
802.353	21317
802.496	21119
802.638	21093
802.78	21081
802.923	20994
803.065	20750
803.208	20804
803.35	20952
803.492	20906
803.635	21173
803.777	20773
803.919	21001
804.061	21207
804.204	20929
804.346	20781
804.488	20804
804.63	20918
804.773	20731
804.915	20804
805.057	20845
805.199	20762
805.341	20872
805.483	20880
805.626	20956
805.768	20792
805.91	20758
806.052	20754
806.194	20800
806.336	20971
806.478	20804
806.62	20842
806.762	20838
806.904	20902
807.046	21317
807.188	21199
807.33	21135
807.472	21146
807.614	21039
807.756	21104
807.898	21005
808.04	20830
808.182	20910
808.324	20830
808.465	21024
808.607	21146
808.749	21294
808.891	21249
809.033	21374
809.174	21256
809.316	21241
809.458	21119
809.6	21135
809.741	21184
809.883	21245
810.025	21431
810.166	21477
810.308	21332
810.45	21294
810.591	21184
810.733	21123
810.875	21036
811.016	20864
811.158	20811
811.299	21005
811.441	21089
811.582	21135
811.724	20910
811.865	20899
812.007	20864
812.148	20796
812.29	20876
812.431	21173
812.573	21222
812.714	21447
812.855	21325
812.997	21496
813.138	21679
813.279	21542
813.421	21454
813.562	21344
813.703	21306
813.845	21203
813.986	20849
814.127	20651
814.268	20602
814.41	20522
814.551	20552
814.692	20484
814.833	20381
814.974	20499
815.115	20511
815.256	20309
815.397	20389
815.539	20343
815.68	20240
815.821	20176
815.962	20305
816.103	20214
816.244	20103
816.385	20008
816.526	19940
816.666	19830
816.807	19814
816.948	19696
817.089	19784
817.23	19639
817.371	19704
817.512	19586
817.653	19647
817.793	19605
817.934	19590
818.075	19742
818.216	19628
818.356	19601
818.497	19525
818.638	19430
818.778	19335
818.919	19381
819.06	19377
819.2	19354
819.341	19491
819.481	19491
819.622	19624
819.762	19731
819.903	19803
820.043	19670
820.184	19674
820.324	19662
820.465	19723
820.605	19738
820.746	19575
820.886	19590
821.026	19586
821.167	19548
821.307	19575
821.447	19510
821.588	19529
821.728	19339
821.868	19232
822.008	19118
822.149	19061
822.289	19000
822.429	18703
822.569	18703
822.709	18719
822.849	18445
822.99	18593
823.13	18399
823.27	18479
823.41	18327
823.55	18338
823.69	18300
823.83	18384
823.97	18292
824.11	18087
824.25	18019
824.389	18038
824.529	18102
824.669	18026
824.809	18270
824.949	18106
825.089	18205
825.228	18038
825.368	17901
825.508	17840
825.648	17851
825.787	18026
825.927	17885
826.067	17718
826.206	17809
826.346	17809
826.485	17901
826.625	17843
826.765	18011
826.904	17939
827.044	17646
827.183	17676
827.323	17562
827.462	17532
827.601	17642
827.741	17630
827.88	17661
828.02	17436
828.159	17558
828.298	17608
828.437	17600
828.577	17562
828.716	17649
828.855	17551
828.994	17349
829.134	17265
829.273	17425
829.412	17322
829.551	17292
829.69	17379
829.829	17303
829.968	17387
830.107	17372
830.246	17436
830.385	17311
830.524	17227
830.663	17094
830.802	17075
830.941	16919
831.08	16835
831.219	17083
831.357	17056
831.496	17208
831.635	16904
831.774	16755
831.913	16889
832.051	16862
832.19	16710
832.329	16858
832.467	16706
832.606	16561
832.744	16607
832.883	16672
833.022	16584
833.16	16584
833.299	16649
833.437	16668
833.576	16713
833.714	16675
833.852	16694
833.991	16824
834.129	16881
834.267	16592
834.406	16771
834.544	16797
834.682	16702
834.821	16744
834.959	16698
835.097	16634
835.235	16816
835.373	16622
835.511	16717
835.65	16592
835.788	16451
835.926	16424
836.064	16314
836.202	16421
836.34	16656
836.478	16626
836.615	16500
836.753	16702
836.891	16706
837.029	16531
837.167	16508
837.305	16569
837.443	16504
837.58	16493
837.718	16546
837.856	16504
837.993	16455
838.131	16398
838.269	16394
838.406	16451
838.544	16333
838.681	16223
838.819	16158
838.956	16017
839.094	16078
839.231	16044
839.369	16226
839.506	16394
839.643	16226
839.781	15960
839.918	16032
840.055	16101
840.193	15964
840.33	16067
840.467	16055
840.604	15915
840.742	16268
840.879	15873
841.016	15941
841.153	15937
841.29	16101
841.427	16101
841.564	15979
841.701	16025
841.838	15994
841.975	16006
842.112	15915
842.249	15778
842.385	15728
842.522	15983
842.659	15827
842.796	15812
842.933	15804
843.069	15755
843.206	15728
843.343	15857
843.479	15770
843.616	15819
843.752	15625
843.889	15542
844.025	15755
844.162	15538
844.298	15690
844.435	15553
844.571	15675
844.708	15682
844.844	15720
844.98	15766
845.117	15751
845.253	15454
845.389	15454
845.525	15477
845.661	15507
845.798	15351
845.934	15466
846.07	15389
846.206	15431
846.342	15500
846.478	15386
846.614	15226
846.75	15161
846.886	15074
847.022	15332
847.158	15237
847.294	15097
847.429	15192
847.565	15066
847.701	15355
847.837	14979
847.972	14876
848.108	14891
848.244	14921
848.379	14811
848.515	14735
848.65	14693
848.786	14724
848.921	14758
849.057	14781
849.192	14971
849.328	14929
849.463	14750
849.598	14735
849.734	14682
849.869	14640
850.004	14594
850.14	14575
850.275	14431
850.41	14438
850.545	14450
850.68	14492
850.815	14587
850.95	14465
851.085	14724
851.22	14594
851.355	14556
851.49	14438
851.625	14450
851.76	14450
851.895	14408
852.03	14355
852.165	14484
852.299	14518
852.434	14503
852.569	14492
852.703	14610
852.838	14610
852.973	14743
853.107	14590
853.242	14484
853.376	14438
853.511	14252
853.645	14427
853.78	14469
853.914	14343
854.048	14396
854.183	14309
854.317	14454
854.451	14583
854.585	14415
854.72	14370
854.854	14484
854.988	14263
855.122	14370
855.256	14202
855.39	14374
855.524	14438
855.658	14355
855.792	14469
855.926	14427
856.06	14415
856.194	14400
856.327	14358
856.461	14298
856.595	14301
856.729	14336
856.862	14465
856.996	14358
857.13	14442
857.263	14446
857.397	14465
857.53	14309
857.664	14454
857.797	14454
857.931	14446
858.064	14419
858.197	14484
858.331	14370
858.464	14393
858.597	14309
858.731	14320
858.864	14400
858.997	14370
859.13	14336
859.263	14408
859.396	14347
859.529	14385
859.662	14362
859.795	14434
859.928	14317
860.061	14530
860.194	14499
860.327	14511
860.46	14393
860.592	14488
860.725	14507
860.858	14385
860.99	14404
861.123	14298
861.256	14332
861.388	14336
861.521	15017
861.653	14358
861.786	14210
861.918	14298
862.05	14355
862.183	14347
862.315	14267
862.447	14393
862.58	14339
862.712	14275
862.844	14168
862.976	14202
863.108	14142
863.24	14469
863.372	14073
863.504	14100
863.636	14164
863.768	14225
863.9	14050
864.032	14081
864.164	14138
864.296	14263
864.428	14282
864.559	14191
864.691	14191
864.823	14149
864.954	14103
865.086	14168
865.217	14100
865.349	14039
865.48	14142
865.612	14142
865.743	14309
865.875	14183
866.006	14088
866.137	14145
866.269	14191
866.4	14145
866.531	14119
866.662	14088
866.793	14058
866.924	14111
867.055	14221
867.186	14100
867.317	14130
867.448	14020
867.579	14077
867.71	13982
867.841	14054
867.972	14126
868.103	14126
868.233	14069
868.364	14138
868.495	14210
868.625	14355
868.756	14514
868.886	14362
869.017	14434
869.147	14507
869.278	14564
869.408	14454
869.539	14427
869.669	14511
869.799	14457
869.929	14488
870.06	14507
870.19	14758
870.32	14727
870.45	14727
870.58	14754
870.71	14925
870.84	14845
870.97	14716
871.1	14811
871.23	14963
871.36	15024
871.489	14853
871.619	14880
871.749	14883
871.879	14941
872.008	15161
872.138	14986
872.267	14925
872.397	14849
872.526	14868
872.656	14804
872.785	14899
872.915	15032
873.044	15161
873.173	15081
873.303	15100
873.432	15077
873.561	15146
873.69	15039
873.819	15013
873.948	15207
874.077	15062
874.206	14952
874.335	15024
874.464	15165
874.593	15283
874.722	15283
874.851	15348
874.979	15447
875.108	15374
875.237	15249
875.365	15256
875.494	15359
875.623	15428
875.751	15325
875.88	15504
876.008	15485
876.136	15564
876.265	15766
876.393	15960
876.521	15766
876.65	15857
876.778	15743
876.906	15903
877.034	15637
877.162	15720
877.29	15698
877.418	15641
877.546	15751
877.674	15781
877.802	15751
877.93	15701
878.058	15736
878.185	15610
878.313	15724
878.441	15743
878.568	15660
878.696	15717
878.824	15770
878.951	15835
879.079	15941
879.206	16055
879.333	16006
879.461	15922
879.588	15895
879.715	16051
879.842	15998
879.97	15857
880.097	15584
880.224	15557
880.351	15584
880.478	15561
880.605	15572
880.732	15755
880.859	15835
880.986	15648
881.112	15667
881.239	15599
881.366	15412
881.493	15256
881.619	15252
881.746	15401
881.872	15302
881.999	15233
882.125	15192
882.252	15291
882.378	15287
882.505	15405
882.631	15291
882.757	15154
882.883	15146
883.01	15055
883.136	15176
883.262	14933
883.388	14960
883.514	15081
883.64	15131
883.766	15112
883.892	14834
884.018	14899
884.143	15108
884.269	15203
884.395	14864
884.52	14861
884.646	14724
884.772	14697
884.897	14697
885.023	14773
885.148	14921
885.274	14975
885.399	14853
885.524	14746
885.65	14842
885.775	14838
885.9	14743
886.025	14872
886.15	14944
886.275	14883
886.4	14670
886.525	14769
886.65	14724
886.775	14716
886.9	14876
887.025	15100
887.149	14769
887.274	14678
887.399	14651
887.523	14636
887.648	14610
887.773	14518
887.897	14731
888.021	14610
888.146	14579
888.27	14739
888.395	14716
888.519	14621
888.643	14705
888.767	14758
888.891	14598
889.015	14537
889.139	14492
889.263	14419
889.387	14648
889.511	14716
889.635	14621
889.759	14461
889.883	14461
890.006	14583
890.13	14575
890.254	14434
890.377	14381
890.501	14366
890.624	14210
890.748	14309
890.871	14153
890.995	14244
891.118	14077
891.241	14237
891.364	14180
891.488	14210
891.611	14119
891.734	14240
891.857	14233
891.98	14210
892.103	14195
892.226	14218
892.349	14256
892.471	14054
892.594	14123
892.717	14134
892.839	14130
892.962	14202
893.085	14328
893.207	14142
893.33	14100
893.452	14088
893.575	14355
893.697	14153
893.819	14431
893.941	14351
894.064	14317
894.186	14096
894.308	14130
894.43	14305
894.552	14343
894.674	14404
894.796	13986
894.918	14202
895.04	14237
895.161	14336
895.283	14233
895.405	14240
895.526	14313
895.648	14286
895.769	14282
895.891	14278
896.012	14374
896.134	14370
896.255	14320
896.376	14240
896.498	14286
896.619	14454
896.74	14336
896.861	14400
896.982	14697
897.103	14800
897.224	14663
897.345	14644
897.466	14590
897.587	14617
897.708	14743
897.828	14651
897.949	14602
898.07	14499
898.19	14545
898.311	14861
898.431	14686
898.552	14746
898.672	14727
898.792	14785
898.913	14762
899.033	14560
899.153	14427
899.273	14423
899.393	14579
899.513	14469
899.633	14549
899.753	14533
899.873	14552
899.993	14511
900.113	14583
900.232	14503
900.352	14526
900.472	14427
900.591	14362
900.711	14396
900.83	14507
900.95	14454
901.069	14461
901.189	14381
901.308	14111
901.427	14138
901.546	14020
901.665	14149
901.784	14119
901.904	14008
902.023	13807
902.141	13746
902.26	13628
902.379	13719
902.498	13643
902.617	13567
902.735	13677
902.854	13662
902.973	13616
903.091	13270
903.21	13304
903.328	13297
903.446	13312
903.565	13236
903.683	13251
903.801	13209
903.919	13221
904.038	13228
904.156	12985
904.274	13171
904.392	13023
904.51	13069
904.627	13076
904.745	13069
904.863	13114
904.981	12829
905.098	12768
905.216	12795
905.334	12757
905.451	12760
905.569	12658
905.686	12764
905.803	12768
905.921	12540
906.038	12646
906.155	12608
906.272	12467
906.389	12544
906.506	12319
906.623	12334
906.74	12304
906.857	12159
906.974	12133
907.091	12414
907.208	12399
907.324	12365
907.441	12205
907.557	12110
907.674	12030
907.79	12140
907.907	11996
908.023	12068
908.139	12114
908.256	11992
908.372	12038
908.488	11969
908.604	11794
908.72	11824
908.836	11771
908.952	11840
909.068	11817
909.184	11901
909.3	11859
909.415	11889
909.531	11847
909.647	11668
909.762	11646
909.878	11619
909.993	11608
910.108	11619
910.224	11554
910.339	11554
910.454	11391
910.57	11440
910.685	11341
910.8	11665
910.915	11634
911.03	11505
911.145	11398
911.259	11322
911.374	11334
911.489	11208
911.604	11086
911.718	11090
911.833	11025
911.947	10900
912.062	10984
912.176	10968
912.291	11128
912.405	11094
912.519	11193
912.633	11242
912.748	11155
912.862	11056
912.976	10965
913.09	10790
913.204	10850
913.318	10885
913.431	11083
913.545	10946
913.659	11022
913.772	10885
913.886	10809
914	10816
914.113	10881
914.226	10942
914.34	10889
914.453	10755
914.566	10854
914.68	10740
914.793	10714
914.906	10596
915.019	10550
915.132	10489
915.245	10497
915.358	10542
915.47	10588
915.583	10615
915.696	10580
915.809	10702
915.921	10679
916.034	10519
916.146	10497
916.259	10485
916.371	10565
916.483	10558
916.595	10466
916.708	10504
916.82	10516
916.932	10447
917.044	10398
917.156	10451
917.268	10318
917.38	10398
917.491	10360
917.603	10451
917.715	10432
917.826	10531
917.938	10390
918.049	10337
918.161	10379
918.272	10531
918.384	10497
918.495	10421
918.606	10280
918.717	10147
918.828	10276
918.939	10314
919.05	10169
919.161	10196
919.272	10025
919.383	10097
919.494	10310
919.604	10500
919.715	10276
919.826	10192
919.936	10272
920.047	10367
920.157	10265
920.267	10500
920.378	10306
920.488	10272
920.598	10561
920.708	10637
920.818	10413
920.928	10455
921.038	10698
921.148	10622
921.258	10272
921.368	10204
921.477	10150
921.587	10177
921.697	10029
921.806	10093
921.916	9983
922.025	9880
922.134	9850
922.244	9785
922.353	9964
922.462	9751
922.571	9637
922.68	9492
922.789	9435
922.898	9557
923.007	9428
923.116	9564
923.224	9507
923.333	9523
923.442	9348
923.55	9439
923.659	9370
923.767	9519
923.876	9340
923.984	9473
924.092	9321
924.201	9408
924.309	9416
924.417	9367
924.525	9272
924.633	9363
924.741	10306
924.849	9176
924.956	9420
925.064	9142
925.172	9108
925.279	9123
925.387	9211
925.494	9211
925.602	9336
925.709	9256
925.816	9104
925.924	9169
926.031	9264
926.138	9150
926.245	9218
926.352	9119
926.459	9253
926.566	9226
926.673	9127
926.779	9097
926.886	9013
926.993	8868
927.099	8906
927.206	8826
927.312	8838
927.419	8944
927.525	8914
927.631	8963
927.737	8762
927.843	8811
927.95	8731
928.056	8785
928.162	8731
928.267	8834
928.373	9462
928.479	8887
928.585	8708
928.69	8750
928.796	8845
928.901	8663
929.007	8530
929.112	8750
929.218	8701
929.323	8636
929.428	8632
929.533	8731
929.638	8526
929.743	8606
929.848	8632
929.953	8587
930.058	8541
930.163	8404
930.267	8374
930.372	8495
930.477	8305
930.581	8617
930.685	8427
930.79	8332
930.894	8317
930.998	8275
931.103	8438
931.207	8157
931.311	8058
931.415	7993
931.519	7833
931.623	7830
