Data from test_V78500241_2015.txt Node
Date: Fri Mar 25 14:47:44 CST 2022
User: usil
Spectrometer: V785-0024
Trigger mode: 0
Integration Time (sec): 4.000000E-1
Scans to average: 1
Nonlinearity correction enabled: false
Boxcar width: 0
Storing dark spectrum: false
XAxis mode: Wavelengths
Number of Pixels in Spectrum: 1024
>>>>>Begin Spectral Data<<<<<
801.071	22177
801.214	21998
801.356	21671
801.499	21720
801.641	21462
801.783	21370
801.926	21408
802.068	21355
802.211	21431
802.353	21226
802.496	21089
802.638	21009
802.78	20952
802.923	20788
803.065	20887
803.208	20807
803.35	20765
803.492	20933
803.635	21020
803.777	20750
803.919	20929
804.061	21096
804.204	20876
804.346	20845
804.488	20788
804.63	20754
804.773	20621
804.915	20807
805.057	20769
805.199	20526
805.341	20834
805.483	20937
805.626	20811
805.768	20815
805.91	20716
806.052	20674
806.194	20629
806.336	20861
806.478	20613
806.62	20731
806.762	20781
806.904	21028
807.046	21222
807.188	21123
807.33	21013
807.472	20975
807.614	20914
807.756	20990
807.898	20792
808.04	20701
808.182	20807
808.324	20906
808.465	20899
808.607	20975
808.749	21222
808.891	21150
809.033	21393
809.174	21150
809.316	21074
809.458	21119
809.6	21058
809.741	21218
809.883	21211
810.025	21256
810.166	21310
810.308	21279
810.45	21336
810.591	21108
810.733	20975
810.875	20857
811.016	20750
811.158	20781
811.299	20929
811.441	21036
811.582	21024
811.724	20944
811.865	20708
812.007	20944
812.148	20773
812.29	20982
812.431	21009
812.573	21108
812.714	21393
812.855	21344
812.997	21332
813.138	21477
813.279	21469
813.421	21450
813.562	21241
813.703	21135
813.845	21108
813.986	20807
814.127	20587
814.268	20511
814.41	20465
814.551	20404
814.692	20511
814.833	20343
814.974	20450
815.115	20377
815.256	20259
815.397	20240
815.539	20294
815.68	20103
815.821	20164
815.962	20195
816.103	20149
816.244	19967
816.385	19868
816.526	19864
816.666	19765
816.807	19578
816.948	19476
817.089	19700
817.23	19563
817.371	19487
817.512	19514
817.653	19548
817.793	19464
817.934	19567
818.075	19582
818.216	19590
818.356	19533
818.497	19430
818.638	19297
818.778	19263
818.919	19247
819.06	19301
819.2	19324
819.341	19400
819.481	19419
819.622	19624
819.762	19734
819.903	19670
820.043	19575
820.184	19613
820.324	19590
820.465	19674
820.605	19552
820.746	19712
820.886	19285
821.026	19537
821.167	19415
821.307	19616
821.447	19457
821.588	19377
821.728	19377
821.868	19031
822.008	18924
822.149	18856
822.289	18890
822.429	18692
822.569	18559
822.709	18544
822.849	18479
822.99	18540
823.13	18403
823.27	18479
823.41	18334
823.55	18209
823.69	18205
823.83	18315
823.97	18213
824.11	17965
824.25	17980
824.389	17996
824.529	18049
824.669	17946
824.809	18174
824.949	18167
825.089	18068
825.228	18015
825.368	17741
825.508	17764
825.648	17786
825.787	17748
825.927	17874
826.067	17703
826.206	17745
826.346	17805
826.485	17775
826.625	17771
826.765	17912
826.904	17794
827.044	17543
827.183	17501
827.323	17532
827.462	17608
827.601	17570
827.741	17528
827.88	17547
828.02	17410
828.159	17341
828.298	17516
828.437	17554
828.577	17512
828.716	17638
828.855	17417
828.994	17315
829.134	17140
829.273	17265
829.412	17212
829.551	17258
829.69	17239
829.829	17193
829.968	17368
830.107	17379
830.246	17216
830.385	17098
830.524	17170
830.663	17102
830.802	16965
830.941	16953
831.08	16748
831.219	16873
831.357	16881
831.496	17064
831.635	16946
831.774	16683
831.913	16710
832.051	16691
832.19	16599
832.329	16664
832.467	16561
832.606	16489
832.744	16497
832.883	16558
833.022	16634
833.16	16565
833.299	16584
833.437	16588
833.576	16546
833.714	16569
833.852	16535
833.991	16713
834.129	16630
834.267	16733
834.406	16577
834.544	16687
834.682	16683
834.821	16660
834.959	16725
835.097	16580
835.235	16713
835.373	16786
835.511	16634
835.65	16493
835.788	16573
835.926	16333
836.064	16356
836.202	16409
836.34	16546
836.478	16611
836.615	16519
836.753	16478
836.891	16588
837.029	16630
837.167	16462
837.305	16409
837.443	16394
837.58	16268
837.718	16497
837.856	16470
837.993	16367
838.131	16318
838.269	16280
838.406	16242
838.544	16242
838.681	16135
838.819	16082
838.956	15964
839.094	15823
839.231	16002
839.369	16097
839.506	16394
839.643	16295
839.781	16013
839.918	15930
840.055	16029
840.193	15975
840.33	15918
840.467	15937
840.604	15994
840.742	16162
840.879	15743
841.016	15861
841.153	15854
841.29	16029
841.427	15953
841.564	16044
841.701	15979
841.838	15812
841.975	15861
842.112	15857
842.249	15800
842.385	15701
842.522	15907
842.659	15793
842.796	15629
842.933	15709
843.069	15762
843.206	15720
843.343	15800
843.479	15690
843.616	15789
843.752	15504
843.889	15542
844.025	15709
844.162	15507
844.298	15686
844.435	15572
844.571	15568
844.708	15587
844.844	15610
844.98	15652
845.117	15660
845.253	15412
845.389	15424
845.525	15428
845.661	15401
845.798	15329
845.934	15344
846.07	15275
846.206	15291
846.342	15462
846.478	15310
846.614	15211
846.75	15058
846.886	15066
847.022	15203
847.158	14994
847.294	15119
847.429	15119
847.565	15070
847.701	15233
847.837	14849
847.972	14906
848.108	14948
848.244	14963
848.379	14750
848.515	14644
848.65	14731
848.786	14731
848.921	14712
849.057	14781
849.192	14727
849.328	14819
849.463	14785
849.598	14667
849.734	14541
849.869	14564
850.004	14488
850.14	14518
850.275	14511
850.41	14408
850.545	14438
850.68	14419
850.815	14404
850.95	14484
851.085	14670
851.22	14526
851.355	14541
851.49	14351
851.625	14415
851.76	14419
851.895	14355
852.03	14305
852.165	14507
852.299	14537
852.434	14499
852.569	14556
852.703	14374
852.838	14632
852.973	14617
853.107	14583
853.242	14366
853.376	14301
853.511	14206
853.645	14336
853.78	14415
853.914	14358
854.048	14362
854.183	14244
854.317	14324
854.451	14514
854.585	14275
854.72	14286
854.854	14385
854.988	14218
855.122	14336
855.256	14111
855.39	14309
855.524	14400
855.658	14457
855.792	14396
855.926	14301
856.06	14385
856.194	14366
856.327	14343
856.461	14278
856.595	14240
856.729	14317
856.862	14457
856.996	14355
857.13	14358
857.263	14404
857.397	14423
857.53	14278
857.664	14377
857.797	14404
857.931	14465
858.064	14275
858.197	14480
858.331	14385
858.464	14263
858.597	14328
858.731	14370
858.864	14259
858.997	14218
859.13	14355
859.263	14275
859.396	14419
859.529	14275
859.662	14339
859.795	14259
859.928	14290
860.061	14617
860.194	14579
860.327	14400
860.46	14377
860.592	14488
860.725	14408
860.858	14480
860.99	14263
861.123	14199
861.256	14256
861.388	14358
861.521	14975
861.653	14267
861.786	14149
861.918	14199
862.05	14195
862.183	14320
862.315	14290
862.447	14328
862.58	14191
862.712	14043
862.844	14100
862.976	14271
863.108	14149
863.24	14495
863.372	14012
863.504	14161
863.636	14027
863.768	14138
863.9	14103
864.032	14020
864.164	14119
864.296	14115
864.428	14244
864.559	14214
864.691	14187
864.823	14081
864.954	14187
865.086	14191
865.217	14088
865.349	13974
865.48	14054
865.612	14130
865.743	14172
865.875	14183
866.006	13955
866.137	14142
866.269	14081
866.4	14081
866.531	14153
866.662	14046
866.793	13940
866.924	13989
867.055	14012
867.186	14039
867.317	14134
867.448	13989
867.579	14065
867.71	13959
867.841	13890
867.972	14134
868.103	14043
868.233	14142
868.364	14058
868.495	14134
868.625	14313
868.756	14492
868.886	14282
869.017	14278
869.147	14320
869.278	14526
869.408	14404
869.539	14412
869.669	14415
869.799	14381
869.929	14454
870.06	14457
870.19	14670
870.32	14739
870.45	14674
870.58	14785
870.71	14838
870.84	14872
870.97	14594
871.1	14743
871.23	14929
871.36	14823
871.489	14857
871.619	14914
871.749	14788
871.879	14948
872.008	15055
872.138	15009
872.267	14910
872.397	14838
872.526	14796
872.656	14765
872.785	14876
872.915	15017
873.044	15028
873.173	14998
873.303	15097
873.432	14952
873.561	15070
873.69	15051
873.819	14998
873.948	15089
874.077	15055
874.206	14941
874.335	15020
874.464	15108
874.593	15207
874.722	15279
874.851	15382
874.979	15348
875.108	15401
875.237	15275
875.365	15222
875.494	15260
875.623	15359
875.751	15325
875.88	15363
876.008	15450
876.136	15504
876.265	15724
876.393	15861
876.521	15869
876.65	15789
876.778	15743
876.906	15682
877.034	15766
877.162	15675
877.29	15641
877.418	15724
877.546	15701
877.674	15633
877.802	15751
877.93	15732
878.058	15720
878.185	15644
878.313	15705
878.441	15705
878.568	15545
878.696	15720
878.824	15739
878.951	15747
879.079	15915
879.206	16093
879.333	15873
879.461	15762
879.588	15808
879.715	15873
879.842	15998
879.97	15869
880.097	15591
880.224	15614
880.351	15625
880.478	15644
880.605	15603
880.732	15504
880.859	15812
880.986	15534
881.112	15732
881.239	15416
881.366	15393
881.493	15329
881.619	15268
881.746	15222
881.872	15241
881.999	15272
882.125	15245
882.252	15245
882.378	15302
882.505	15450
882.631	15272
882.757	14994
882.883	15066
883.01	15051
883.136	15020
883.262	14891
883.388	14800
883.514	15154
883.64	15108
883.766	15043
883.892	14933
884.018	14785
884.143	15017
884.269	15157
884.395	14819
884.52	14769
884.646	14796
884.772	14701
884.897	14602
885.023	14724
885.148	14906
885.274	14910
885.399	14811
885.524	14632
885.65	14697
885.775	14636
885.9	14765
886.025	14921
886.15	14823
886.275	14697
886.4	14693
886.525	14743
886.65	14724
886.775	14705
886.9	14864
887.025	15005
887.149	14826
887.274	14678
887.399	14469
887.523	14571
887.648	14564
887.773	14503
887.897	14659
888.021	14530
888.146	14590
888.27	14705
888.395	14678
888.519	14587
888.643	14568
888.767	14602
888.891	14530
889.015	14423
889.139	14556
889.263	14446
889.387	14545
889.511	14689
889.635	14526
889.759	14465
889.883	14370
890.006	14400
890.13	14522
890.254	14427
890.377	14366
890.501	14256
890.624	14187
890.748	14191
890.871	14244
890.995	14126
891.118	14115
891.241	14161
891.364	14077
891.488	14199
891.611	14119
891.734	14164
891.857	14259
891.98	14214
892.103	14252
892.226	14168
892.349	14195
892.471	13982
892.594	14046
892.717	14191
892.839	14073
892.962	14195
893.085	14119
893.207	14103
893.33	14092
893.452	14081
893.575	14111
893.697	14180
893.819	14278
893.941	14294
894.064	14199
894.186	14073
894.308	14119
894.43	14332
894.552	14374
894.674	14286
894.796	14065
894.918	14176
895.04	14103
895.161	14313
895.283	14180
895.405	14119
895.526	14271
895.648	14278
895.769	14256
895.891	14256
896.012	14324
896.134	14309
896.255	14256
896.376	14339
896.498	14275
896.619	14320
896.74	14313
896.861	14339
896.982	14598
897.103	14796
897.224	14598
897.345	14636
897.466	14419
897.587	14450
897.708	14617
897.828	14648
897.949	14492
898.07	14488
898.19	14495
898.311	14765
898.431	14568
898.552	14724
898.672	14781
898.792	14792
898.913	14682
899.033	14522
899.153	14511
899.273	14404
899.393	14522
899.513	14495
899.633	14587
899.753	14499
899.873	14438
899.993	14606
900.113	14526
900.232	14552
900.352	14495
900.472	14355
900.591	14332
900.711	14374
900.83	14377
900.95	14461
901.069	14442
901.189	14339
901.308	14103
901.427	14024
901.546	13978
901.665	14081
901.784	14081
901.904	14031
902.023	13883
902.141	13765
902.26	13639
902.379	13784
902.498	13677
902.617	13620
902.735	13708
902.854	13586
902.973	13472
903.091	13400
903.21	13289
903.328	13324
903.446	13350
903.565	13145
903.683	13152
903.801	13190
903.919	13133
904.038	13171
904.156	12989
904.274	13126
904.392	12977
904.51	12985
904.627	12973
904.745	12985
904.863	13004
904.981	12764
905.098	12734
905.216	12662
905.334	12696
905.451	12662
905.569	12642
905.686	12719
905.803	12741
905.921	12517
906.038	12673
906.155	12559
906.272	12486
906.389	12448
906.506	12243
906.623	12251
906.74	12239
906.857	12163
906.974	12213
907.091	12452
907.208	12357
907.324	12315
907.441	12201
907.557	11950
907.674	12041
907.79	12045
907.907	11980
908.023	12129
908.139	12076
908.256	12003
908.372	12007
908.488	11961
908.604	11794
908.72	11802
908.836	11836
908.952	11805
909.068	11882
909.184	11824
909.3	11794
909.415	11855
909.531	11843
909.647	11619
909.762	11558
909.878	11486
909.993	11535
910.108	11627
910.224	11524
910.339	11535
910.454	11516
910.57	11414
910.685	11391
910.8	11562
910.915	11558
911.03	11501
911.145	11223
911.259	11288
911.374	11280
911.489	11204
911.604	11174
911.718	11014
911.833	11025
911.947	10938
912.062	10869
912.176	11029
912.291	11037
912.405	10976
912.519	11208
912.633	11189
912.748	11071
912.862	11086
912.976	10938
913.09	10748
913.204	10908
913.318	10877
913.431	10987
913.545	11033
913.659	10980
913.772	10904
913.886	10736
914	10767
914.113	10896
914.226	10930
914.34	10869
914.453	10725
914.566	10873
914.68	10694
914.793	10698
914.906	10474
915.019	10535
915.132	10489
915.245	10451
915.358	10584
915.47	10489
915.583	10561
915.696	10592
915.809	10618
915.921	10694
916.034	10417
916.146	10497
916.259	10474
916.371	10527
916.483	10542
916.595	10428
916.708	10493
916.82	10481
916.932	10394
917.044	10493
917.156	10417
917.268	10303
917.38	10310
917.491	10417
917.603	10360
917.715	10451
917.826	10436
917.938	10348
918.049	10242
918.161	10352
918.272	10504
918.384	10474
918.495	10398
918.606	10215
918.717	10173
918.828	10253
918.939	10261
919.05	10150
919.161	10207
919.272	10078
919.383	10086
919.494	10249
919.604	10436
919.715	10234
919.826	10150
919.936	10181
920.047	10310
920.157	10234
920.267	10489
920.378	10329
920.488	10265
920.598	10421
920.708	10550
920.818	10470
920.928	10455
921.038	10607
921.148	10596
921.258	10314
921.368	10204
921.477	10131
921.587	10112
921.697	9991
921.806	10150
921.916	9983
922.025	9781
922.134	9835
922.244	9778
922.353	9842
922.462	9644
922.571	9637
922.68	9549
922.789	9507
922.898	9492
923.007	9374
923.116	9477
923.224	9523
923.333	9519
923.442	9435
923.55	9393
923.659	9416
923.767	9435
923.876	9344
923.984	9378
924.092	9237
924.201	9317
924.309	9329
924.417	9310
924.525	9321
924.633	9332
924.741	10257
924.849	9157
924.956	9222
925.064	9188
925.172	8998
925.279	9097
925.387	9192
925.494	9119
925.602	9241
925.709	9291
925.816	9043
925.924	9058
926.031	9233
926.138	9233
926.245	9195
926.352	9116
926.459	9165
926.566	9298
926.673	9138
926.779	8990
926.886	8963
926.993	8887
927.099	8925
927.206	8838
927.312	8796
927.419	8872
927.525	8849
927.631	8941
927.737	8838
927.843	8792
927.95	8655
928.056	8777
928.162	8769
928.267	8857
928.373	9424
928.479	8929
928.585	8629
928.69	8743
928.796	8872
928.901	8564
929.007	8564
929.112	8689
929.218	8598
929.323	8560
929.428	8533
929.533	8682
929.638	8461
929.743	8571
929.848	8629
929.953	8636
930.058	8450
930.163	8366
930.267	8358
930.372	8476
930.477	8320
930.581	8537
930.685	8374
930.79	8256
930.894	8377
930.998	8263
931.103	8446
931.207	8073
931.311	8001
931.415	7932
931.519	7830
931.623	7830
