Data from test_V78500241_1769.txt Node
Date: Fri Mar 25 14:46:01 CST 2022
User: usil
Spectrometer: V785-0024
Trigger mode: 0
Integration Time (sec): 4.000000E-1
Scans to average: 1
Nonlinearity correction enabled: false
Boxcar width: 0
Storing dark spectrum: false
XAxis mode: Wavelengths
Number of Pixels in Spectrum: 1024
>>>>>Begin Spectral Data<<<<<
801.071	22181
801.214	22131
801.356	21789
801.499	21823
801.641	21625
801.783	21667
801.926	21614
802.068	21504
802.211	21583
802.353	21401
802.496	21165
802.638	21150
802.78	21058
802.923	21005
803.065	20861
803.208	20788
803.35	20967
803.492	21013
803.635	21112
803.777	20933
803.919	20902
804.061	21256
804.204	21055
804.346	20944
804.488	20887
804.63	20975
804.773	20705
804.915	20800
805.057	20960
805.199	20788
805.341	20910
805.483	21077
805.626	20823
805.768	20758
805.91	20887
806.052	20785
806.194	20724
806.336	20880
806.478	20845
806.62	20804
806.762	20963
806.904	21070
807.046	21249
807.188	21070
807.33	21173
807.472	21188
807.614	21077
807.756	21116
807.898	21017
808.04	20842
808.182	20975
808.324	20941
808.465	20906
808.607	21066
808.749	21211
808.891	21298
809.033	21378
809.174	21283
809.316	21173
809.458	21180
809.6	21211
809.741	21245
809.883	21325
810.025	21401
810.166	21351
810.308	21359
810.45	21348
810.591	21313
810.733	21150
810.875	21123
811.016	20990
811.158	20857
811.299	21074
811.441	21180
811.582	21154
811.724	20952
811.865	20910
812.007	21009
812.148	20963
812.29	20982
812.431	21043
812.573	21336
812.714	21313
812.855	21412
812.997	21652
813.138	21717
813.279	21641
813.421	21515
813.562	21549
813.703	21241
813.845	21123
813.986	20838
814.127	20674
814.268	20552
814.41	20575
814.551	20537
814.692	20579
814.833	20465
814.974	20549
815.115	20571
815.256	20374
815.397	20415
815.539	20286
815.68	20218
815.821	20377
815.962	20294
816.103	20214
816.244	20157
816.385	20027
816.526	20062
816.666	19830
816.807	19780
816.948	19753
817.089	19784
817.23	19788
817.371	19609
817.512	19670
817.653	19559
817.793	19597
817.934	19632
818.075	19704
818.216	19518
818.356	19620
818.497	19556
818.638	19487
818.778	19354
818.919	19411
819.06	19350
819.2	19529
819.341	19521
819.481	19472
819.622	19681
819.762	19761
819.903	19822
820.043	19753
820.184	19635
820.324	19685
820.465	19757
820.605	19651
820.746	19700
820.886	19556
821.026	19483
821.167	19613
821.307	19670
821.447	19677
821.588	19620
821.728	19419
821.868	19221
822.008	19122
822.149	19133
822.289	19046
822.429	18783
822.569	18745
822.709	18787
822.849	18703
822.99	18509
823.13	18536
823.27	18471
823.41	18285
823.55	18300
823.69	18346
823.83	18357
823.97	18319
824.11	18182
824.25	18121
824.389	18216
824.529	18273
824.669	18224
824.809	18194
824.949	18239
825.089	18213
825.228	18186
825.368	17958
825.508	17935
825.648	17851
825.787	17942
825.927	18098
826.067	17859
826.206	17931
826.346	17954
826.485	17878
826.625	17988
826.765	18022
826.904	18034
827.044	17752
827.183	17684
827.323	17615
827.462	17699
827.601	17646
827.741	17611
827.88	17676
828.02	17611
828.159	17577
828.298	17710
828.437	17589
828.577	17676
828.716	17745
828.855	17638
828.994	17429
829.134	17433
829.273	17345
829.412	17372
829.551	17334
829.69	17398
829.829	17372
829.968	17482
830.107	17410
830.246	17421
830.385	17292
830.524	17273
830.663	17162
830.802	17086
830.941	16953
831.08	16972
831.219	16987
831.357	16984
831.496	17220
831.635	16991
831.774	17006
831.913	16957
832.051	16828
832.19	16847
832.329	16797
832.467	16641
832.606	16618
832.744	16683
832.883	16755
833.022	16668
833.16	16721
833.299	16698
833.437	16740
833.576	16645
833.714	16691
833.852	16725
833.991	16694
834.129	16824
834.267	16831
834.406	16710
834.544	16771
834.682	16790
834.821	16672
834.959	16946
835.097	16679
835.235	16744
835.373	16740
835.511	16793
835.65	16561
835.788	16630
835.926	16554
836.064	16508
836.202	16436
836.34	16698
836.478	16740
836.615	16584
836.753	16702
836.891	16618
837.029	16630
837.167	16588
837.305	16538
837.443	16478
837.58	16462
837.718	16577
837.856	16580
837.993	16497
838.131	16485
838.269	16367
838.406	16428
838.544	16413
838.681	16257
838.819	16120
838.956	16139
839.094	16059
839.231	16082
839.369	16166
839.506	16447
839.643	16363
839.781	16006
839.918	16055
840.055	16150
840.193	16078
840.33	15907
840.467	16044
840.604	16017
840.742	16287
840.879	15953
841.016	15911
841.153	16051
841.29	16059
841.427	15941
841.564	16010
841.701	16109
841.838	15911
841.975	15949
842.112	16097
842.249	15827
842.385	15728
842.522	16090
842.659	15918
842.796	15778
842.933	15823
843.069	15778
843.206	15781
843.343	15888
843.479	15911
843.616	15774
843.752	15656
843.889	15675
844.025	15728
844.162	15618
844.298	15637
844.435	15625
844.571	15564
844.708	15644
844.844	15793
844.98	15793
845.117	15762
845.253	15576
845.389	15500
845.525	15682
845.661	15625
845.798	15469
845.934	15511
846.07	15329
846.206	15477
846.342	15545
846.478	15462
846.614	15313
846.75	15203
846.886	15173
847.022	15230
847.158	15154
847.294	15131
847.429	15199
847.565	15165
847.701	15431
847.837	14963
847.972	14887
848.108	15013
848.244	15001
848.379	14864
848.515	14804
848.65	14762
848.786	14701
848.921	14731
849.057	14971
849.192	14826
849.328	14838
849.463	14792
849.598	14758
849.734	14743
849.869	14663
850.004	14689
850.14	14594
850.275	14549
850.41	14476
850.545	14423
850.68	14670
850.815	14644
850.95	14610
851.085	14788
851.22	14674
851.355	14575
851.49	14503
851.625	14450
851.76	14484
851.895	14438
852.03	14442
852.165	14629
852.299	14560
852.434	14583
852.569	14575
852.703	14560
852.838	14613
852.973	14659
853.107	14594
853.242	14507
853.376	14488
853.511	14237
853.645	14358
853.78	14518
853.914	14476
854.048	14511
854.183	14400
854.317	14457
854.451	14708
854.585	14370
854.72	14484
854.854	14499
854.988	14427
855.122	14484
855.256	14317
855.39	14313
855.524	14518
855.658	14465
855.792	14454
855.926	14480
856.06	14442
856.194	14575
856.327	14347
856.461	14434
856.595	14396
856.729	14457
856.862	14484
856.996	14438
857.13	14476
857.263	14518
857.397	14610
857.53	14533
857.664	14450
857.797	14469
857.931	14450
858.064	14549
858.197	14579
858.331	14473
858.464	14408
858.597	14320
858.731	14522
858.864	14301
858.997	14366
859.13	14587
859.263	14450
859.396	14473
859.529	14396
859.662	14374
859.795	14400
859.928	14400
860.061	14579
860.194	14667
860.327	14461
860.46	14389
860.592	14560
860.725	14511
860.858	14454
860.99	14362
861.123	14355
861.256	14374
861.388	14484
861.521	15138
861.653	14301
861.786	14282
861.918	14271
862.05	14282
862.183	14351
862.315	14381
862.447	14419
862.58	14286
862.712	14225
862.844	14119
862.976	14313
863.108	14256
863.24	14667
863.372	14149
863.504	14305
863.636	14168
863.768	14263
863.9	14206
864.032	14183
864.164	14195
864.296	14278
864.428	14298
864.559	14240
864.691	14221
864.823	14309
864.954	14229
865.086	14336
865.217	14157
865.349	14043
865.48	14164
865.612	14172
865.743	14358
865.875	14202
866.006	14145
866.137	14298
866.269	14244
866.4	14065
866.531	14180
866.662	14119
866.793	14172
866.924	14107
867.055	14221
867.186	14180
867.317	14039
867.448	14027
867.579	14126
867.71	14157
867.841	14180
867.972	14111
868.103	14157
868.233	14149
868.364	14168
868.495	14298
868.625	14305
868.756	14484
868.886	14358
869.017	14377
869.147	14461
869.278	14606
869.408	14499
869.539	14450
869.669	14571
869.799	14469
869.929	14575
870.06	14598
870.19	14735
870.32	14781
870.45	14754
870.58	14769
870.71	14883
870.84	14963
870.97	14762
871.1	14804
871.23	15051
871.36	15074
871.489	14941
871.619	14887
871.749	15039
871.879	15028
872.008	15116
872.138	14963
872.267	14861
872.397	14921
872.526	14864
872.656	14872
872.785	14960
872.915	15005
873.044	15104
873.173	15077
873.303	15036
873.432	15085
873.561	15123
873.69	15066
873.819	15097
873.948	15211
874.077	15112
874.206	14937
874.335	15089
874.464	15214
874.593	15306
874.722	15275
874.851	15504
874.979	15321
875.108	15367
875.237	15336
875.365	15283
875.494	15287
875.623	15378
875.751	15416
875.88	15397
876.008	15641
876.136	15564
876.265	15827
876.393	15869
876.521	15873
876.65	15911
876.778	15713
876.906	15701
877.034	15732
877.162	15797
877.29	15747
877.418	15720
877.546	15854
877.674	15819
877.802	15823
877.93	15739
878.058	15732
878.185	15732
878.313	15778
878.441	15819
878.568	15572
878.696	15759
878.824	15869
878.951	15842
879.079	15949
879.206	16112
879.333	16010
879.461	15800
879.588	15846
879.715	15941
879.842	16071
879.97	15907
880.097	15698
880.224	15584
880.351	15618
880.478	15637
880.605	15599
880.732	15564
880.859	15884
880.986	15747
881.112	15622
881.239	15587
881.366	15405
881.493	15344
881.619	15367
881.746	15325
881.872	15340
881.999	15252
882.125	15222
882.252	15363
882.378	15336
882.505	15317
882.631	15249
882.757	15192
882.883	15169
883.01	15123
883.136	15013
883.262	15009
883.388	14998
883.514	15150
883.64	15097
883.766	15043
883.892	14929
884.018	14921
884.143	15089
884.269	15127
884.395	14823
884.52	14861
884.646	14819
884.772	14861
884.897	14705
885.023	14921
885.148	14830
885.274	14971
885.399	14910
885.524	14834
885.65	14800
885.775	14876
885.9	14819
886.025	14902
886.15	14975
886.275	14735
886.4	14731
886.525	14891
886.65	14750
886.775	14667
886.9	14788
887.025	15001
887.149	14834
887.274	14674
887.399	14689
887.523	14579
887.648	14564
887.773	14575
887.897	14731
888.021	14655
888.146	14568
888.27	14663
888.395	14754
888.519	14750
888.643	14735
888.767	14769
888.891	14545
889.015	14579
889.139	14564
889.263	14438
889.387	14598
889.511	14640
889.635	14579
889.759	14480
889.883	14522
890.006	14514
890.13	14667
890.254	14389
890.377	14442
890.501	14267
890.624	14309
890.748	14385
890.871	14237
890.995	14240
891.118	14050
891.241	14301
891.364	14210
891.488	14404
891.611	14195
891.734	14237
891.857	14309
891.98	14199
892.103	14286
892.226	14149
892.349	14233
892.471	14062
892.594	14153
892.717	14229
892.839	14161
892.962	14187
893.085	14195
893.207	14210
893.33	14168
893.452	14172
893.575	14157
893.697	14202
893.819	14400
893.941	14374
894.064	14351
894.186	14221
894.308	14126
894.43	14351
894.552	14393
894.674	14339
894.796	14115
894.918	14263
895.04	14221
895.161	14275
895.283	14317
895.405	14252
895.526	14286
895.648	14218
895.769	14317
895.891	14309
896.012	14419
896.134	14313
896.255	14347
896.376	14275
896.498	14366
896.619	14457
896.74	14377
896.861	14454
896.982	14590
897.103	14868
897.224	14743
897.345	14689
897.466	14503
897.587	14617
897.708	14777
897.828	14686
897.949	14648
898.07	14423
898.19	14636
898.311	14712
898.431	14644
898.552	14598
898.672	14769
898.792	14796
898.913	14834
899.033	14651
899.153	14697
899.273	14404
899.393	14610
899.513	14587
899.633	14590
899.753	14636
899.873	14530
899.993	14590
900.113	14575
900.232	14575
900.352	14408
900.472	14514
900.591	14423
900.711	14431
900.83	14396
900.95	14469
901.069	14492
901.189	14298
901.308	14237
901.427	14012
901.546	14088
901.665	14153
901.784	14096
901.904	13967
902.023	13978
902.141	13655
902.26	13658
902.379	13715
902.498	13655
902.617	13658
902.735	13731
902.854	13689
902.973	13601
903.091	13396
903.21	13453
903.328	13445
903.446	13251
903.565	13316
903.683	13175
903.801	13221
903.919	13103
904.038	13274
904.156	13133
904.274	13129
904.392	13084
904.51	13076
904.627	13099
904.745	13190
904.863	13129
904.981	12909
905.098	12707
905.216	12776
905.334	12783
905.451	12753
905.569	12757
905.686	12783
905.803	12703
905.921	12403
906.038	12833
906.155	12604
906.272	12452
906.389	12528
906.506	12403
906.623	12441
906.74	12376
906.857	12277
906.974	12159
907.091	12448
907.208	12479
907.324	12369
907.441	12243
907.557	12114
907.674	12148
907.79	12034
907.907	12060
908.023	12110
908.139	12129
908.256	11984
908.372	12045
908.488	11977
908.604	11920
908.72	11836
908.836	11866
908.952	11809
909.068	11874
909.184	11923
909.3	11847
909.415	11950
909.531	11840
909.647	11646
909.762	11585
909.878	11581
909.993	11589
910.108	11566
910.224	11611
910.339	11638
910.454	11444
910.57	11433
910.685	11315
910.8	11649
910.915	11676
911.03	11433
911.145	11265
911.259	11269
911.374	11315
911.489	11239
911.604	11174
911.718	11041
911.833	11098
911.947	10987
912.062	10843
912.176	11079
912.291	11052
912.405	11083
912.519	11280
912.633	11315
912.748	11086
912.862	11090
912.976	10938
913.09	10877
913.204	10889
913.318	10930
913.431	11052
913.545	10980
913.659	11124
913.772	10968
913.886	10812
914	10843
914.113	10942
914.226	10968
914.34	10923
914.453	10744
914.566	10957
914.68	10843
914.793	10698
914.906	10592
915.019	10474
915.132	10531
915.245	10508
915.358	10592
915.47	10462
915.583	10603
915.696	10634
915.809	10706
915.921	10733
916.034	10577
916.146	10519
916.259	10413
916.371	10630
916.483	10516
916.595	10455
916.708	10481
916.82	10497
916.932	10443
917.044	10413
917.156	10447
917.268	10402
917.38	10421
917.491	10333
917.603	10394
917.715	10413
917.826	10500
917.938	10344
918.049	10215
918.161	10356
918.272	10497
918.384	10504
918.495	10500
918.606	10280
918.717	10166
918.828	10261
918.939	10348
919.05	10135
919.161	10280
919.272	10074
919.383	10131
919.494	10287
919.604	10478
919.715	10318
919.826	10173
919.936	10215
920.047	10341
920.157	10314
920.267	10489
920.378	10249
920.488	10223
920.598	10489
920.708	10687
920.818	10516
920.928	10519
921.038	10493
921.148	10538
921.258	10295
921.368	10215
921.477	10116
921.587	10116
921.697	10051
921.806	10158
921.916	10032
922.025	9934
922.134	9873
922.244	9743
922.353	9812
922.462	9682
922.571	9629
922.68	9523
922.789	9496
922.898	9545
923.007	9485
923.116	9584
923.224	9625
923.333	9458
923.442	9412
923.55	9443
923.659	9439
923.767	9488
923.876	9382
923.984	9458
924.092	9317
924.201	9386
924.309	9370
924.417	9389
924.525	9408
924.633	9332
924.741	10291
924.849	9214
924.956	9249
925.064	9169
925.172	9100
925.279	9123
925.387	9188
925.494	9241
925.602	9321
925.709	9241
925.816	9154
925.924	9195
926.031	9256
926.138	9176
926.245	9214
926.352	9062
926.459	9230
926.566	9241
926.673	9180
926.779	9055
926.886	9058
926.993	8979
927.099	8880
927.206	8906
927.312	8883
927.419	8921
927.525	8815
927.631	8967
927.737	8796
927.843	8746
927.95	8663
928.056	8766
928.162	8830
928.267	8876
928.373	9496
928.479	8891
928.585	8655
928.69	8800
928.796	8842
928.901	8678
929.007	8606
929.112	8720
929.218	8701
929.323	8644
929.428	8617
929.533	8750
929.638	8625
929.743	8583
929.848	8651
929.953	8518
930.058	8454
930.163	8332
930.267	8347
930.372	8541
930.477	8377
930.581	8594
930.685	8419
930.79	8332
930.894	8396
930.998	8305
931.103	8476
931.207	8134
931.311	8130
931.415	7944
931.519	7795
931.623	7826
