Data from test_V78500241_3375.txt Node
Date: Fri Mar 25 14:57:12 CST 2022
User: usil
Spectrometer: V785-0024
Trigger mode: 0
Integration Time (sec): 4.000000E-1
Scans to average: 1
Nonlinearity correction enabled: false
Boxcar width: 0
Storing dark spectrum: false
XAxis mode: Wavelengths
Number of Pixels in Spectrum: 1024
>>>>>Begin Spectral Data<<<<<
801.071	22059
801.214	21800
801.356	21614
801.499	21523
801.641	21359
801.783	21367
801.926	21519
802.068	21195
802.211	21222
802.353	21351
802.496	20941
802.638	20853
802.78	20830
802.923	20773
803.065	20632
803.208	20454
803.35	20727
803.492	20754
803.635	20826
803.777	20602
803.919	20762
804.061	20963
804.204	20746
804.346	20568
804.488	20469
804.63	20609
804.773	20488
804.915	20686
805.057	20708
805.199	20587
805.341	20640
805.483	20689
805.626	20594
805.768	20590
805.91	20640
806.052	20579
806.194	20457
806.336	20708
806.478	20465
806.62	20465
806.762	20560
806.904	20807
807.046	20998
807.188	20746
807.33	20845
807.472	20830
807.614	20765
807.756	20773
807.898	20648
808.04	20659
808.182	20499
808.324	20492
808.465	20678
808.607	20819
808.749	20902
808.891	21032
809.033	21142
809.174	20944
809.316	20899
809.458	20929
809.6	20895
809.741	20971
809.883	20872
810.025	21138
810.166	21127
810.308	21055
810.45	20952
810.591	20864
810.733	20705
810.875	20651
811.016	20587
811.158	20602
811.299	20651
811.441	20735
811.582	20746
811.724	20659
811.865	20697
812.007	20556
812.148	20727
812.29	20788
812.431	20830
812.573	21028
812.714	21077
812.855	21275
812.997	21268
813.138	21443
813.279	21256
813.421	21169
813.562	21077
813.703	20975
813.845	20891
813.986	20492
814.127	20294
814.268	20187
814.41	20199
814.551	20130
814.692	20145
814.833	20149
814.974	20286
815.115	20202
815.256	20062
815.397	19959
815.539	20054
815.68	19932
815.821	19845
815.962	19841
816.103	19925
816.244	19746
816.385	19655
816.526	19753
816.666	19537
816.807	19369
816.948	19384
817.089	19533
817.23	19445
817.371	19301
817.512	19362
817.653	19312
817.793	19244
817.934	19324
818.075	19320
818.216	19282
818.356	19194
818.497	19194
818.638	19004
818.778	19091
818.919	19065
819.06	19133
819.2	19114
819.341	19274
819.481	19160
819.622	19240
819.762	19510
819.903	19506
820.043	19457
820.184	19251
820.324	19244
820.465	19343
820.605	19327
820.746	19316
820.886	19259
821.026	19282
821.167	19285
821.307	19312
821.447	19343
821.588	19217
821.728	18981
821.868	18852
822.008	18779
822.149	18715
822.289	18646
822.429	18502
822.569	18475
822.709	18540
822.849	18243
822.99	18163
823.13	18106
823.27	18167
823.41	18125
823.55	17954
823.69	18019
823.83	18106
823.97	18026
824.11	17783
824.25	17684
824.389	17828
824.529	17904
824.669	17935
824.809	17843
824.949	17965
825.089	17901
825.228	17733
825.368	17623
825.508	17589
825.648	17653
825.787	17672
825.927	17756
826.067	17638
826.206	17528
826.346	17642
826.485	17528
826.625	17501
826.765	17703
826.904	17596
827.044	17356
827.183	17296
827.323	17246
827.462	17368
827.601	17178
827.741	17311
827.88	17239
828.02	17124
828.159	17261
828.298	17231
828.437	17391
828.577	17296
828.716	17349
828.855	17273
828.994	17071
829.134	17083
829.273	17067
829.412	17045
829.551	16889
829.69	16953
829.829	16984
829.968	17083
830.107	17079
830.246	17083
830.385	17018
830.524	16915
830.663	16919
830.802	16820
830.941	16630
831.08	16630
831.219	16763
831.357	16698
831.496	16839
831.635	16577
831.774	16592
831.913	16542
832.051	16405
832.19	16386
832.329	16611
832.467	16344
832.606	16375
832.744	16322
832.883	16318
833.022	16242
833.16	16318
833.299	16459
833.437	16352
833.576	16409
833.714	16409
833.852	16413
833.991	16489
834.129	16462
834.267	16561
834.406	16443
834.544	16386
834.682	16371
834.821	16405
834.959	16516
835.097	16386
835.235	16554
835.373	16481
835.511	16451
835.65	16344
835.788	16341
835.926	16257
836.064	16135
836.202	16223
836.34	16390
836.478	16421
836.615	16280
836.753	16390
836.891	16432
837.029	16329
837.167	16257
837.305	16329
837.443	16185
837.58	16090
837.718	16299
837.856	16268
837.993	16131
838.131	16314
838.269	16109
838.406	16204
838.544	15987
838.681	15899
838.819	15846
838.956	15861
839.094	15785
839.231	15785
839.369	15854
839.506	16162
839.643	15975
839.781	15827
839.918	15671
840.055	15819
840.193	15770
840.33	15789
840.467	15724
840.604	15762
840.742	15922
840.879	15648
841.016	15614
841.153	15663
841.29	15819
841.427	15816
841.564	15827
841.701	15816
841.838	15671
841.975	15629
842.112	15732
842.249	15576
842.385	15614
842.522	15679
842.659	15553
842.796	15557
842.933	15538
843.069	15496
843.206	15454
843.343	15644
843.479	15599
843.616	15603
843.752	15359
843.889	15363
844.025	15443
844.162	15321
844.298	15496
844.435	15370
844.571	15355
844.708	15348
844.844	15473
844.98	15523
845.117	15492
845.253	15287
845.389	15279
845.525	15325
845.661	15241
845.798	15245
845.934	15283
846.07	15131
846.206	15241
846.342	15264
846.478	15195
846.614	15013
846.75	14830
846.886	14842
847.022	14937
847.158	14891
847.294	14906
847.429	14982
847.565	14800
847.701	15093
847.837	14663
847.972	14625
848.108	14731
848.244	14697
848.379	14530
848.515	14484
848.65	14454
848.786	14533
848.921	14518
849.057	14613
849.192	14545
849.328	14533
849.463	14518
849.598	14396
849.734	14381
849.869	14434
850.004	14267
850.14	14347
850.275	14286
850.41	14126
850.545	14286
850.68	14298
850.815	14298
850.95	14328
851.085	14404
851.22	14313
851.355	14286
851.49	14248
851.625	14263
851.76	14286
851.895	14187
852.03	14180
852.165	14229
852.299	14301
852.434	14263
852.569	14301
852.703	14248
852.838	14286
852.973	14442
853.107	14332
853.242	14309
853.376	14233
853.511	13993
853.645	14134
853.78	14248
853.914	14172
854.048	14027
854.183	14043
854.317	14202
854.451	14381
854.585	14176
854.72	14088
854.854	14206
854.988	14027
855.122	14084
855.256	14081
855.39	14035
855.524	14252
855.658	14126
855.792	14202
855.926	14073
856.06	14267
856.194	14339
856.327	14043
856.461	14126
856.595	14138
856.729	14096
856.862	14282
856.996	14180
857.13	14218
857.263	14172
857.397	14301
857.53	14138
857.664	14256
857.797	14214
857.931	14259
858.064	14210
858.197	14225
858.331	14195
858.464	14100
858.597	14081
858.731	14138
858.864	14183
858.997	14073
859.13	14115
859.263	14172
859.396	14187
859.529	14084
859.662	14157
859.795	14107
859.928	14187
860.061	14233
860.194	14263
860.327	14206
860.46	14195
860.592	14301
860.725	14206
860.858	14229
860.99	14115
861.123	14054
861.256	14126
861.388	14168
861.521	14941
861.653	14100
861.786	14077
861.918	14016
862.05	13997
862.183	14096
862.315	14100
862.447	14180
862.58	13974
862.712	13947
862.844	13871
862.976	14020
863.108	13906
863.24	14415
863.372	13826
863.504	13917
863.636	13837
863.768	13928
863.9	14001
864.032	14016
864.164	13856
864.296	13982
864.428	13993
864.559	14031
864.691	13974
864.823	13944
864.954	13986
865.086	13978
865.217	13967
865.349	13830
865.48	13997
865.612	13902
865.743	14062
865.875	13970
866.006	13845
866.137	14024
866.269	13883
866.4	13951
866.531	13906
866.662	13932
866.793	13890
866.924	13826
867.055	13921
867.186	13898
867.317	13864
867.448	13818
867.579	13830
867.71	13906
867.841	13860
867.972	13856
868.103	14001
868.233	14012
868.364	13894
868.495	13978
868.625	14164
868.756	14168
868.886	14008
869.017	14164
869.147	14271
869.278	14267
869.408	14180
869.539	14218
869.669	14252
869.799	14157
869.929	14278
870.06	14256
870.19	14431
870.32	14511
870.45	14423
870.58	14560
870.71	14564
870.84	14648
870.97	14522
871.1	14545
871.23	14701
871.36	14701
871.489	14621
871.619	14754
871.749	14765
871.879	14815
872.008	14910
872.138	14765
872.267	14724
872.397	14651
872.526	14610
872.656	14648
872.785	14617
872.915	14864
873.044	14899
873.173	14815
873.303	14845
873.432	14895
873.561	14811
873.69	14868
873.819	14792
873.948	14918
874.077	14826
874.206	14746
874.335	14819
874.464	14933
874.593	15051
874.722	14994
874.851	15176
874.979	15104
875.108	15097
875.237	15097
875.365	15119
875.494	15093
875.623	15165
875.751	15062
875.88	15142
876.008	15283
876.136	15348
876.265	15435
876.393	15690
876.521	15629
876.65	15667
876.778	15580
876.906	15580
877.034	15519
877.162	15549
877.29	15424
877.418	15545
877.546	15526
877.674	15686
877.802	15618
877.93	15625
878.058	15523
878.185	15469
878.313	15507
878.441	15595
878.568	15363
878.696	15542
878.824	15599
878.951	15660
879.079	15739
879.206	15869
879.333	15682
879.461	15682
879.588	15622
879.715	15800
879.842	15857
879.97	15728
880.097	15370
880.224	15363
880.351	15564
880.478	15336
880.605	15359
880.732	15416
880.859	15671
880.986	15370
881.112	15564
881.239	15317
881.366	15249
881.493	15214
881.619	15013
881.746	15043
881.872	15070
881.999	15036
882.125	14998
882.252	15036
882.378	15127
882.505	15108
882.631	14971
882.757	14952
882.883	14910
883.01	14910
883.136	14887
883.262	14724
883.388	14804
883.514	14933
883.64	14948
883.766	14842
883.892	14765
884.018	14739
884.143	14872
884.269	15032
884.395	14579
884.52	14549
884.646	14667
884.772	14499
884.897	14469
885.023	14613
885.148	14610
885.274	14758
885.399	14689
885.524	14503
885.65	14617
885.775	14651
885.9	14686
886.025	14826
886.15	14682
886.275	14552
886.4	14545
886.525	14526
886.65	14602
886.775	14526
886.9	14758
887.025	14815
887.149	14636
887.274	14404
887.399	14438
887.523	14362
887.648	14259
887.773	14275
887.897	14431
888.021	14438
888.146	14343
888.27	14457
888.395	14575
888.519	14434
888.643	14419
888.767	14469
888.891	14404
889.015	14214
889.139	14377
889.263	14229
889.387	14343
889.511	14415
889.635	14366
889.759	14328
889.883	14313
890.006	14415
890.13	14381
890.254	14278
890.377	14195
890.501	14016
890.624	14081
890.748	14221
890.871	14103
890.995	13967
891.118	13936
891.241	13906
891.364	13970
891.488	14069
891.611	13978
891.734	13955
891.857	14012
891.98	13963
892.103	14069
892.226	14115
892.349	13947
892.471	13890
892.594	13963
892.717	13928
892.839	13951
892.962	14058
893.085	14073
893.207	13898
893.33	13814
893.452	13822
893.575	14058
893.697	13940
893.819	14103
893.941	14271
894.064	14103
894.186	13932
894.308	13974
894.43	14119
894.552	14134
894.674	14202
894.796	13879
894.918	14096
895.04	14046
895.161	14138
895.283	14142
895.405	13959
895.526	14149
895.648	14218
895.769	14130
895.891	14183
896.012	14267
896.134	14191
896.255	14206
896.376	14081
896.498	14096
896.619	14218
896.74	14100
896.861	14183
896.982	14507
897.103	14613
897.224	14404
897.345	14423
897.466	14320
897.587	14446
897.708	14575
897.828	14560
897.949	14454
898.07	14294
898.19	14408
898.311	14446
898.431	14446
898.552	14556
898.672	14621
898.792	14644
898.913	14492
899.033	14358
899.153	14389
899.273	14370
899.393	14400
899.513	14358
899.633	14412
899.753	14404
899.873	14286
899.993	14438
900.113	14377
900.232	14412
900.352	14385
900.472	14301
900.591	14206
900.711	14267
900.83	14168
900.95	14389
901.069	14408
901.189	14123
901.308	13986
901.427	13845
901.546	13982
901.665	13970
901.784	14020
901.904	13837
902.023	13662
902.141	13499
902.26	13441
902.379	13483
902.498	13487
902.617	13468
902.735	13521
902.854	13480
902.973	13426
903.091	13118
903.21	13202
903.328	13160
903.446	13133
903.565	13110
903.683	13072
903.801	13038
903.919	13034
904.038	12989
904.156	12844
904.274	12924
904.392	12901
904.51	12894
904.627	12825
904.745	12962
904.863	12920
904.981	12688
905.098	12559
905.216	12601
905.334	12654
905.451	12517
905.569	12620
905.686	12578
905.803	12566
905.921	12338
906.038	12494
906.155	12395
906.272	12277
906.389	12281
906.506	12159
906.623	12114
906.74	12140
906.857	12087
906.974	11958
907.091	12197
907.208	12342
907.324	12247
907.441	12060
907.557	12015
907.674	11870
907.79	11855
907.907	11912
908.023	11988
908.139	11935
908.256	11832
908.372	11847
908.488	11729
908.604	11741
908.72	11638
908.836	11604
908.952	11672
909.068	11703
909.184	11729
909.3	11684
909.415	11737
909.531	11688
909.647	11349
909.762	11478
909.878	11379
909.993	11501
910.108	11395
910.224	11417
910.339	11398
910.454	11315
910.57	11292
910.685	11254
910.8	11535
910.915	11402
911.03	11326
911.145	11143
911.259	11113
911.374	11136
911.489	11071
911.604	11086
911.718	10847
911.833	10862
911.947	10759
912.062	10721
912.176	10908
912.291	10946
912.405	10961
912.519	11094
912.633	11124
912.748	10991
912.862	10854
912.976	10782
913.09	10603
913.204	10725
913.318	10790
913.431	10877
913.545	10858
913.659	10885
913.772	10744
913.886	10679
914	10577
914.113	10744
914.226	10702
914.34	10771
914.453	10538
914.566	10694
914.68	10584
914.793	10580
914.906	10405
915.019	10428
915.132	10337
915.245	10481
915.358	10417
915.47	10428
915.583	10424
915.696	10390
915.809	10554
915.921	10554
916.034	10417
916.146	10421
916.259	10325
916.371	10489
916.483	10405
916.595	10291
916.708	10314
916.82	10306
916.932	10306
917.044	10333
917.156	10344
917.268	10230
917.38	10314
917.491	10166
917.603	10246
917.715	10333
917.826	10348
917.938	10253
918.049	10120
918.161	10261
918.272	10413
918.384	10333
918.495	10284
918.606	10086
918.717	10090
918.828	10177
918.939	10207
919.05	10029
919.161	10097
919.272	9953
919.383	10017
919.494	10143
919.604	10272
919.715	10139
919.826	10131
919.936	10128
920.047	10200
920.157	10188
920.267	10333
920.378	10192
920.488	10101
920.598	10390
920.708	10493
920.818	10295
920.928	10382
921.038	10428
921.148	10440
921.258	10234
921.368	10059
921.477	10036
921.587	9956
921.697	9842
921.806	9960
921.916	9880
922.025	9724
922.134	9682
922.244	9656
922.353	9740
922.462	9564
922.571	9545
922.68	9450
922.789	9435
922.898	9386
923.007	9386
923.116	9348
923.224	9389
923.333	9298
923.442	9321
923.55	9275
923.659	9264
923.767	9424
923.876	9279
923.984	9302
924.092	9233
924.201	9264
924.309	9294
924.417	9329
924.525	9207
924.633	9268
924.741	10135
924.849	9066
924.956	9195
925.064	9074
925.172	8891
925.279	9058
925.387	9116
925.494	9116
925.602	9157
925.709	9093
925.816	8994
925.924	9039
926.031	9142
926.138	9024
926.245	9074
926.352	9017
926.459	9119
926.566	9176
926.673	9051
926.779	8918
926.886	8876
926.993	8804
927.099	8777
927.206	8731
927.312	8773
927.419	8834
927.525	8781
927.631	8838
927.737	8659
927.843	8610
927.95	8583
928.056	8663
928.162	8724
928.267	8670
928.373	9329
928.479	8785
928.585	8655
928.69	8689
928.796	8689
928.901	8484
929.007	8446
929.112	8636
929.218	8552
929.323	8503
929.428	8442
929.533	8655
929.638	8503
929.743	8484
929.848	8545
929.953	8488
930.058	8415
930.163	8225
930.267	8214
930.372	8427
930.477	8252
930.581	8488
930.685	8332
930.79	8157
930.894	8275
930.998	8221
931.103	8317
931.207	7925
931.311	7997
931.415	7849
931.519	7708
931.623	7681
