Data from test_V78500241_2357.txt Node
Date: Fri Mar 25 14:50:07 CST 2022
User: usil
Spectrometer: V785-0024
Trigger mode: 0
Integration Time (sec): 4.000000E-1
Scans to average: 1
Nonlinearity correction enabled: false
Boxcar width: 0
Storing dark spectrum: false
XAxis mode: Wavelengths
Number of Pixels in Spectrum: 1024
>>>>>Begin Spectral Data<<<<<
801.071	22166
801.214	22055
801.356	21724
801.499	21785
801.641	21606
801.783	21530
801.926	21526
802.068	21610
802.211	21587
802.353	21321
802.496	21131
802.638	21043
802.78	20948
802.923	20880
803.065	20781
803.208	20861
803.35	20800
803.492	21138
803.635	20986
803.777	20811
803.919	21058
804.061	21233
804.204	20952
804.346	20750
804.488	20788
804.63	20686
804.773	20769
804.915	20743
805.057	20990
805.199	20792
805.341	20807
805.483	20952
805.626	20944
805.768	20788
805.91	20807
806.052	20785
806.194	20785
806.336	20979
806.478	20716
806.62	20864
806.762	20891
806.904	20998
807.046	21161
807.188	21062
807.33	21154
807.472	21142
807.614	20990
807.756	21135
807.898	20906
808.04	20819
808.182	20876
808.324	20868
808.465	20937
808.607	21024
808.749	21325
808.891	21302
809.033	21310
809.174	21306
809.316	21203
809.458	21119
809.6	21138
809.741	21233
809.883	21237
810.025	21268
810.166	21283
810.308	21329
810.45	21351
810.591	21260
810.733	21093
810.875	20956
811.016	20883
811.158	20785
811.299	20986
811.441	21020
811.582	21180
811.724	20994
811.865	20948
812.007	20979
812.148	20929
812.29	20956
812.431	21184
812.573	21306
812.714	21393
812.855	21389
812.997	21473
813.138	21751
813.279	21572
813.421	21447
813.562	21382
813.703	21336
813.845	21077
813.986	20693
814.127	20693
814.268	20484
814.41	20488
814.551	20549
814.692	20621
814.833	20492
814.974	20488
815.115	20495
815.256	20301
815.397	20492
815.539	20358
815.68	20381
815.821	20229
815.962	20294
816.103	20145
816.244	20031
816.385	20016
816.526	19913
816.666	19830
816.807	19814
816.948	19788
817.089	19715
817.23	19788
817.371	19597
817.512	19632
817.653	19700
817.793	19582
817.934	19601
818.075	19662
818.216	19662
818.356	19628
818.497	19434
818.638	19297
818.778	19263
818.919	19297
819.06	19407
819.2	19346
819.341	19506
819.481	19525
819.622	19670
819.762	19818
819.903	19887
820.043	19704
820.184	19620
820.324	19571
820.465	19635
820.605	19597
820.746	19590
820.886	19472
821.026	19616
821.167	19540
821.307	19495
821.447	19616
821.588	19373
821.728	19221
821.868	19175
822.008	18905
822.149	18939
822.289	18962
822.429	18768
822.569	18810
822.709	18726
822.849	18570
822.99	18509
823.13	18471
823.27	18471
823.41	18327
823.55	18289
823.69	18273
823.83	18311
823.97	18235
824.11	18057
824.25	18098
824.389	18133
824.529	18220
824.669	18045
824.809	18064
824.949	18247
825.089	18102
825.228	18121
825.368	17958
825.508	17866
825.648	17923
825.787	17889
825.927	17984
826.067	17783
826.206	17805
826.346	17923
826.485	17904
826.625	17882
826.765	17893
826.904	17870
827.044	17642
827.183	17608
827.323	17573
827.462	17585
827.601	17535
827.741	17539
827.88	17467
828.02	17436
828.159	17509
828.298	17551
828.437	17463
828.577	17440
828.716	17687
828.855	17482
828.994	17265
829.134	17284
829.273	17239
829.412	17299
829.551	17136
829.69	17181
829.829	17280
829.968	17440
830.107	17265
830.246	17353
830.385	17231
830.524	17227
830.663	17174
830.802	16949
830.941	16854
831.08	16744
831.219	16896
831.357	16816
831.496	17220
831.635	16911
831.774	16793
831.913	16824
832.051	16588
832.19	16656
832.329	16736
832.467	16584
832.606	16569
832.744	16607
832.883	16603
833.022	16542
833.16	16618
833.299	16626
833.437	16656
833.576	16664
833.714	16691
833.852	16675
833.991	16641
834.129	16725
834.267	16698
834.406	16660
834.544	16687
834.682	16752
834.821	16634
834.959	16763
835.097	16535
835.235	16645
835.373	16649
835.511	16626
835.65	16554
835.788	16527
835.926	16440
836.064	16360
836.202	16421
836.34	16653
836.478	16489
836.615	16607
836.753	16489
836.891	16474
837.029	16512
837.167	16519
837.305	16333
837.443	16405
837.58	16337
837.718	16417
837.856	16421
837.993	16246
838.131	16489
838.269	16276
838.406	16314
838.544	16333
838.681	16109
838.819	16029
838.956	15892
839.094	15964
839.231	15991
839.369	16154
839.506	16375
839.643	16055
839.781	15926
839.918	15876
840.055	15953
840.193	15956
840.33	15816
840.467	15956
840.604	16017
840.742	16109
840.879	15759
841.016	15819
841.153	15816
841.29	15991
841.427	15972
841.564	16025
841.701	15945
841.838	15888
841.975	15835
842.112	15823
842.249	15778
842.385	15694
842.522	15842
842.659	15690
842.796	15694
842.933	15675
843.069	15614
843.206	15622
843.343	15732
843.479	15747
843.616	15705
843.752	15530
843.889	15553
844.025	15641
844.162	15393
844.298	15652
844.435	15564
844.571	15473
844.708	15534
844.844	15694
844.98	15648
845.117	15618
845.253	15477
845.389	15386
845.525	15496
845.661	15412
845.798	15252
845.934	15382
846.07	15252
846.206	15351
846.342	15466
846.478	15313
846.614	15051
846.75	14971
846.886	15005
847.022	15241
847.158	15131
847.294	15043
847.429	15184
847.565	15066
847.701	15188
847.837	14796
847.972	14765
848.108	14918
848.244	14788
848.379	14769
848.515	14602
848.65	14716
848.786	14785
848.921	14697
849.057	14743
849.192	14785
849.328	14583
849.463	14724
849.598	14568
849.734	14606
849.869	14503
850.004	14492
850.14	14457
850.275	14450
850.41	14332
850.545	14351
850.68	14450
850.815	14446
850.95	14366
851.085	14571
851.22	14526
851.355	14431
851.49	14393
851.625	14389
851.76	14328
851.895	14252
852.03	14282
852.165	14336
852.299	14473
852.434	14484
852.569	14400
852.703	14438
852.838	14522
852.973	14590
853.107	14571
853.242	14434
853.376	14313
853.511	14123
853.645	14271
853.78	14442
853.914	14370
854.048	14313
854.183	14244
854.317	14290
854.451	14492
854.585	14317
854.72	14206
854.854	14256
854.988	14206
855.122	14240
855.256	14081
855.39	14218
855.524	14473
855.658	14396
855.792	14328
855.926	14252
856.06	14324
856.194	14465
856.327	14324
856.461	14233
856.595	14244
856.729	14298
856.862	14419
856.996	14320
857.13	14381
857.263	14454
857.397	14442
857.53	14298
857.664	14324
857.797	14381
857.931	14381
858.064	14332
858.197	14415
858.331	14259
858.464	14206
858.597	14172
858.731	14256
858.864	14328
858.997	14176
859.13	14259
859.263	14362
859.396	14301
859.529	14263
859.662	14229
859.795	14218
859.928	14317
860.061	14404
860.194	14427
860.327	14336
860.46	14233
860.592	14358
860.725	14446
860.858	14408
860.99	14214
861.123	14317
861.256	14237
861.388	14347
861.521	14823
861.653	14206
861.786	14107
861.918	14161
862.05	14183
862.183	14278
862.315	14263
862.447	14351
862.58	14290
862.712	13963
862.844	13986
862.976	14176
863.108	14107
863.24	14423
863.372	14077
863.504	13997
863.636	14077
863.768	14024
863.9	14111
864.032	14001
864.164	13967
864.296	14084
864.428	14237
864.559	14096
864.691	14077
864.823	14149
864.954	14115
865.086	14123
865.217	14088
865.349	13940
865.48	14008
865.612	14081
865.743	14240
865.875	14164
866.006	14065
866.137	13974
866.269	14031
866.4	13936
866.531	14050
866.662	13970
866.793	13989
866.924	14020
867.055	14008
867.186	14005
867.317	13955
867.448	13864
867.579	14043
867.71	13986
867.841	14024
867.972	14046
868.103	14016
868.233	13963
868.364	14069
868.495	14084
868.625	14355
868.756	14336
868.886	14183
869.017	14267
869.147	14377
869.278	14408
869.408	14324
869.539	14305
869.669	14377
869.799	14381
869.929	14347
870.06	14446
870.19	14655
870.32	14560
870.45	14499
870.58	14754
870.71	14697
870.84	14804
870.97	14667
871.1	14739
871.23	14929
871.36	14872
871.489	14743
871.619	14796
871.749	14902
871.879	14979
872.008	15013
872.138	14849
872.267	14868
872.397	14739
872.526	14712
872.656	14792
872.785	14720
872.915	14963
873.044	14986
873.173	14777
873.303	14998
873.432	14918
873.561	15036
873.69	14933
873.819	15020
873.948	14902
874.077	14937
874.206	14937
874.335	14967
874.464	15051
874.593	15230
874.722	15138
874.851	15294
874.979	15199
875.108	15344
875.237	15241
875.365	15203
875.494	15245
875.623	15374
875.751	15207
875.88	15298
876.008	15416
876.136	15500
876.265	15641
876.393	15751
876.521	15770
876.65	15747
876.778	15606
876.906	15644
877.034	15576
877.162	15504
877.29	15553
877.418	15774
877.546	15526
877.674	15694
877.802	15629
877.93	15622
878.058	15587
878.185	15519
878.313	15595
878.441	15633
878.568	15405
878.696	15679
878.824	15656
878.951	15724
879.079	15854
879.206	15850
879.333	15816
879.461	15698
879.588	15705
879.715	15842
879.842	15930
879.97	15743
880.097	15389
880.224	15412
880.351	15549
880.478	15477
880.605	15545
880.732	15469
880.859	15709
880.986	15637
881.112	15538
881.239	15359
881.366	15233
881.493	15214
881.619	15214
881.746	15138
881.872	15138
881.999	15192
882.125	15161
882.252	15157
882.378	15211
882.505	15283
882.631	15055
882.757	14971
882.883	15066
883.01	14937
883.136	15017
883.262	14857
883.388	14872
883.514	14998
883.64	15051
883.766	15020
883.892	14758
884.018	14781
884.143	14975
884.269	15051
884.395	14826
884.52	14701
884.646	14594
884.772	14594
884.897	14625
885.023	14678
885.148	14746
885.274	14876
885.399	14769
885.524	14731
885.65	14651
885.775	14701
885.9	14651
886.025	14758
886.15	14754
886.275	14667
886.4	14617
886.525	14705
886.65	14530
886.775	14621
886.9	14804
887.025	14986
887.149	14689
887.274	14583
887.399	14549
887.523	14495
887.648	14446
887.773	14465
887.897	14571
888.021	14610
888.146	14522
888.27	14636
888.395	14625
888.519	14575
888.643	14560
888.767	14575
888.891	14442
889.015	14385
889.139	14336
889.263	14389
889.387	14511
889.511	14610
889.635	14488
889.759	14366
889.883	14320
890.006	14404
890.13	14598
890.254	14328
890.377	14408
890.501	14233
890.624	14172
890.748	14286
890.871	14161
890.995	14012
891.118	14020
891.241	14107
891.364	14115
891.488	14221
891.611	14107
891.734	14058
891.857	14123
891.98	14050
892.103	14130
892.226	14202
892.349	14088
892.471	13955
892.594	14073
892.717	14062
892.839	14020
892.962	13982
893.085	14096
893.207	14062
893.33	14020
893.452	14016
893.575	14142
893.697	14081
893.819	14161
893.941	14324
894.064	14252
894.186	14153
894.308	14069
894.43	14221
894.552	14286
894.674	14271
894.796	14084
894.918	14142
895.04	14111
895.161	14278
895.283	14271
895.405	14142
895.526	14183
895.648	14259
895.769	14263
895.891	14305
896.012	14381
896.134	14328
896.255	14248
896.376	14275
896.498	14286
896.619	14339
896.74	14324
896.861	14210
896.982	14613
897.103	14754
897.224	14636
897.345	14393
897.466	14503
897.587	14522
897.708	14606
897.828	14533
897.949	14427
898.07	14381
898.19	14507
898.311	14670
898.431	14526
898.552	14613
898.672	14686
898.792	14716
898.913	14575
899.033	14545
899.153	14476
899.273	14328
899.393	14454
899.513	14347
899.633	14492
899.753	14438
899.873	14484
899.993	14465
900.113	14492
900.232	14488
900.352	14301
900.472	14339
900.591	14347
900.711	14400
900.83	14374
900.95	14374
901.069	14507
901.189	14347
901.308	14065
901.427	13925
901.546	14039
901.665	14008
901.784	13959
901.904	13940
902.023	13811
902.141	13624
902.26	13605
902.379	13685
902.498	13628
902.617	13529
902.735	13601
902.854	13529
902.973	13483
903.091	13396
903.21	13373
903.328	13308
903.446	13263
903.565	13190
903.683	13156
903.801	13057
903.919	13175
904.038	13171
904.156	13057
904.274	13080
904.392	12962
904.51	12977
904.627	12916
904.745	13050
904.863	12996
904.981	12738
905.098	12627
905.216	12719
905.334	12665
905.451	12730
905.569	12654
905.686	12730
905.803	12612
905.921	12547
906.038	12601
906.155	12502
906.272	12365
906.389	12334
906.506	12205
906.623	12262
906.74	12232
906.857	12091
906.974	12148
907.091	12277
907.208	12323
907.324	12277
907.441	12155
907.557	12003
907.674	11950
907.79	11935
907.907	11901
908.023	12038
908.139	12041
908.256	11977
908.372	11874
908.488	11859
908.604	11745
908.72	11756
908.836	11722
908.952	11676
909.068	11783
909.184	11927
909.3	11726
909.415	11794
909.531	11809
909.647	11554
909.762	11486
909.878	11501
909.993	11512
910.108	11501
910.224	11452
910.339	11490
910.454	11448
910.57	11364
910.685	11227
910.8	11535
910.915	11554
911.03	11372
911.145	11334
911.259	11212
911.374	11170
911.489	11113
911.604	11045
911.718	10987
911.833	10965
911.947	10782
912.062	10793
912.176	10999
912.291	10961
912.405	10892
912.519	11094
912.633	11189
912.748	11064
912.862	11048
912.976	10915
913.09	10698
913.204	10771
913.318	10835
913.431	10999
913.545	10927
913.659	10934
913.772	10816
913.886	10797
914	10660
914.113	10904
914.226	10812
914.34	10828
914.453	10694
914.566	10809
914.68	10721
914.793	10683
914.906	10474
915.019	10523
915.132	10398
915.245	10462
915.358	10538
915.47	10550
915.583	10523
915.696	10516
915.809	10588
915.921	10691
916.034	10440
916.146	10356
916.259	10386
916.371	10489
916.483	10474
916.595	10379
916.708	10413
916.82	10344
916.932	10325
917.044	10402
917.156	10394
917.268	10284
917.38	10318
917.491	10284
917.603	10375
917.715	10363
917.826	10382
917.938	10329
918.049	10188
918.161	10306
918.272	10402
918.384	10508
918.495	10337
918.606	10242
918.717	10116
918.828	10169
918.939	10211
919.05	10074
919.161	10124
919.272	9926
919.383	10074
919.494	10238
919.604	10440
919.715	10230
919.826	10158
919.936	10177
920.047	10257
920.157	10249
920.267	10493
920.378	10280
920.488	10188
920.598	10394
920.708	10535
920.818	10398
920.928	10417
921.038	10596
921.148	10504
921.258	10223
921.368	10112
921.477	10105
921.587	10059
921.697	9922
921.806	10074
921.916	9953
922.025	9804
922.134	9724
922.244	9705
922.353	9804
922.462	9690
922.571	9595
922.68	9458
922.789	9481
922.898	9488
923.007	9351
923.116	9515
923.224	9401
923.333	9439
923.442	9363
923.55	9351
923.659	9317
923.767	9428
923.876	9306
923.984	9359
924.092	9256
924.201	9367
924.309	9321
924.417	9310
924.525	9332
924.633	9363
924.741	9987
924.849	9024
924.956	9214
925.064	9108
925.172	9028
925.279	9036
925.387	9180
925.494	9097
925.602	9214
925.709	9131
925.816	9085
925.924	9108
926.031	9138
926.138	9165
926.245	9138
926.352	9001
926.459	9146
926.566	9161
926.673	9028
926.779	8986
926.886	9017
926.993	8880
927.099	8842
927.206	8716
927.312	8773
927.419	8872
927.525	8785
927.631	8826
927.737	8735
927.843	8659
927.95	8549
928.056	8731
928.162	8663
928.267	8773
928.373	9439
928.479	8830
928.585	8602
928.69	8739
928.796	8705
928.901	8655
929.007	8507
929.112	8659
929.218	8678
929.323	8545
929.428	8575
929.533	8621
929.638	8469
929.743	8514
929.848	8571
929.953	8579
930.058	8427
930.163	8320
930.267	8336
930.372	8495
930.477	8328
930.581	8530
930.685	8457
930.79	8229
930.894	8298
930.998	8191
931.103	8400
931.207	8054
931.311	7967
931.415	7944
931.519	7792
931.623	7757
