Data from test_V78500241_3291.txt Node
Date: Fri Mar 25 14:56:37 CST 2022
User: usil
Spectrometer: V785-0024
Trigger mode: 0
Integration Time (sec): 4.000000E-1
Scans to average: 1
Nonlinearity correction enabled: false
Boxcar width: 0
Storing dark spectrum: false
XAxis mode: Wavelengths
Number of Pixels in Spectrum: 1024
>>>>>Begin Spectral Data<<<<<
801.071	21983
801.214	21869
801.356	21603
801.499	21538
801.641	21401
801.783	21393
801.926	21302
802.068	21169
802.211	21211
802.353	21131
802.496	20868
802.638	20876
802.78	20697
802.923	20754
803.065	20617
803.208	20473
803.35	20804
803.492	20853
803.635	20899
803.777	20716
803.919	20758
804.061	21001
804.204	20754
804.346	20587
804.488	20587
804.63	20617
804.773	20670
804.915	20545
805.057	20606
805.199	20594
805.341	20594
805.483	20659
805.626	20655
805.768	20495
805.91	20480
806.052	20560
806.194	20465
806.336	20663
806.478	20541
806.62	20590
806.762	20602
806.904	20731
807.046	21043
807.188	20880
807.33	20811
807.472	20937
807.614	20826
807.756	20807
807.898	20689
808.04	20720
808.182	20514
808.324	20602
808.465	20625
808.607	20800
808.749	20906
808.891	20975
809.033	21100
809.174	20986
809.316	20819
809.458	20914
809.6	20864
809.741	20910
809.883	21116
810.025	21032
810.166	20982
810.308	21096
810.45	21013
810.591	20971
810.733	20697
810.875	20830
811.016	20575
811.158	20541
811.299	20670
811.441	20727
811.582	20857
811.724	20670
811.865	20674
812.007	20689
812.148	20712
812.29	20621
812.431	20811
812.573	21028
812.714	21085
812.855	21154
812.997	21313
813.138	21336
813.279	21313
813.421	21188
813.562	21142
813.703	20990
813.845	20868
813.986	20492
814.127	20457
814.268	20237
814.41	20370
814.551	20225
814.692	20355
814.833	20172
814.974	20244
815.115	20233
815.256	20164
815.397	20005
815.539	20092
815.68	19951
815.821	19841
815.962	19928
816.103	19974
816.244	19799
816.385	19746
816.526	19651
816.666	19449
816.807	19407
816.948	19335
817.089	19422
817.23	19304
817.371	19362
817.512	19339
817.653	19430
817.793	19289
817.934	19438
818.075	19483
818.216	19331
818.356	19282
818.497	19095
818.638	19050
818.778	19145
818.919	19038
819.06	18973
819.2	19236
819.341	19240
819.481	19251
819.622	19457
819.762	19514
819.903	19468
820.043	19400
820.184	19327
820.324	19377
820.465	19346
820.605	19358
820.746	19232
820.886	19099
821.026	19304
821.167	19324
821.307	19320
821.447	19301
821.588	19221
821.728	19012
821.868	18768
822.008	18791
822.149	18779
822.289	18677
822.429	18494
822.569	18467
822.709	18410
822.849	18232
822.99	18224
823.13	18163
823.27	18216
823.41	18064
823.55	17980
823.69	18076
823.83	18068
823.97	18064
824.11	17870
824.25	17741
824.389	17824
824.529	17889
824.669	17824
824.809	17977
824.949	17843
825.089	17870
825.228	17771
825.368	17604
825.508	17596
825.648	17680
825.787	17543
825.927	17608
826.067	17611
826.206	17592
826.346	17562
826.485	17558
826.625	17589
826.765	17726
826.904	17691
827.044	17444
827.183	17395
827.323	17220
827.462	17330
827.601	17326
827.741	17288
827.88	17284
828.02	17181
828.159	17353
828.298	17269
828.437	17379
828.577	17288
828.716	17379
828.855	17204
828.994	17098
829.134	17098
829.273	17143
829.412	16995
829.551	16896
829.69	16976
829.829	17166
829.968	17212
830.107	17006
830.246	17060
830.385	17105
830.524	16919
830.663	16801
830.802	16885
830.941	16710
831.08	16607
831.219	16748
831.357	16763
831.496	16949
831.635	16607
831.774	16569
831.913	16656
832.051	16558
832.19	16523
832.329	16489
832.467	16363
832.606	16409
832.744	16417
832.883	16318
833.022	16295
833.16	16329
833.299	16443
833.437	16447
833.576	16485
833.714	16481
833.852	16542
833.991	16466
834.129	16478
834.267	16459
834.406	16363
834.544	16466
834.682	16440
834.821	16459
834.959	16634
835.097	16466
835.235	16485
835.373	16462
835.511	16371
835.65	16337
835.788	16367
835.926	16169
836.064	16135
836.202	16093
836.34	16352
836.478	16405
836.615	16352
836.753	16424
836.891	16424
837.029	16466
837.167	16348
837.305	16314
837.443	16196
837.58	16192
837.718	16287
837.856	16325
837.993	16249
838.131	16150
838.269	16200
838.406	16105
838.544	16017
838.681	16063
838.819	15903
838.956	15865
839.094	15808
839.231	15743
839.369	15964
839.506	16219
839.643	16124
839.781	15857
839.918	15831
840.055	15892
840.193	15774
840.33	15743
840.467	15728
840.604	15755
840.742	16116
840.879	15682
841.016	15717
841.153	15709
841.29	15892
841.427	15907
841.564	15846
841.701	15857
841.838	15755
841.975	15610
842.112	15663
842.249	15629
842.385	15584
842.522	15804
842.659	15682
842.796	15606
842.933	15557
843.069	15538
843.206	15530
843.343	15603
843.479	15564
843.616	15603
843.752	15329
843.889	15306
844.025	15462
844.162	15389
844.298	15439
844.435	15302
844.571	15249
844.708	15477
844.844	15466
844.98	15485
845.117	15553
845.253	15336
845.389	15218
845.525	15332
845.661	15272
845.798	15150
845.934	15184
846.07	15028
846.206	15195
846.342	15260
846.478	15146
846.614	14986
846.75	14887
846.886	14899
847.022	15009
847.158	14967
847.294	15005
847.429	14986
847.565	14918
847.701	15249
847.837	14629
847.972	14632
848.108	14705
848.244	14731
848.379	14693
848.515	14549
848.65	14503
848.786	14537
848.921	14488
849.057	14682
849.192	14705
849.328	14583
849.463	14514
849.598	14434
849.734	14522
849.869	14412
850.004	14351
850.14	14332
850.275	14309
850.41	14286
850.545	14317
850.68	14339
850.815	14313
850.95	14168
851.085	14518
851.22	14374
851.355	14298
851.49	14259
851.625	14278
851.76	14351
851.895	14149
852.03	14111
852.165	14351
852.299	14233
852.434	14339
852.569	14358
852.703	14237
852.838	14408
852.973	14431
853.107	14366
853.242	14248
853.376	14202
853.511	14096
853.645	14145
853.78	14271
853.914	14267
854.048	14119
854.183	14153
854.317	14157
854.451	14275
854.585	14153
854.72	14164
854.854	14206
854.988	14123
855.122	14081
855.256	14164
855.39	14145
855.524	14271
855.658	14168
855.792	14176
855.926	14130
856.06	14210
856.194	14336
856.327	14191
856.461	14138
856.595	14248
856.729	14134
856.862	14305
856.996	14164
857.13	14301
857.263	14419
857.397	14381
857.53	14130
857.664	14237
857.797	14229
857.931	14294
858.064	14214
858.197	14400
858.331	14259
858.464	14107
858.597	14058
858.731	14214
858.864	14161
858.997	14149
859.13	14202
859.263	14248
859.396	14298
859.529	14267
859.662	14123
859.795	14130
859.928	14172
860.061	14324
860.194	14385
860.327	14210
860.46	14130
860.592	14301
860.725	14256
860.858	14309
860.99	14096
861.123	14157
861.256	14180
861.388	14225
861.521	14895
861.653	14115
861.786	14058
861.918	14012
862.05	14172
862.183	14084
862.315	14088
862.447	14248
862.58	14115
862.712	13959
862.844	13906
862.976	14065
863.108	13967
863.24	14347
863.372	13830
863.504	14005
863.636	13993
863.768	14005
863.9	13955
864.032	13898
864.164	13898
864.296	13978
864.428	13944
864.559	14050
864.691	14012
864.823	14043
864.954	14046
865.086	14012
865.217	13993
865.349	13860
865.48	13947
865.612	13906
865.743	14138
865.875	13974
866.006	13921
866.137	13940
866.269	14027
866.4	13944
866.531	13822
866.662	13921
866.793	13902
866.924	13883
867.055	14016
867.186	13890
867.317	13860
867.448	13791
867.579	13940
867.71	13769
867.841	13791
867.972	13959
868.103	14008
868.233	14012
868.364	13944
868.495	14035
868.625	14126
868.756	14339
868.886	14069
869.017	14267
869.147	14248
869.278	14252
869.408	14263
869.539	14221
869.669	14286
869.799	14267
869.929	14385
870.06	14259
870.19	14518
870.32	14503
870.45	14549
870.58	14507
870.71	14674
870.84	14777
870.97	14571
871.1	14602
871.23	14788
871.36	14792
871.489	14670
871.619	14777
871.749	14670
871.879	14857
872.008	14925
872.138	14777
872.267	14811
872.397	14667
872.526	14552
872.656	14636
872.785	14632
872.915	14868
873.044	14906
873.173	14883
873.303	14887
873.432	14769
873.561	14979
873.69	14857
873.819	14887
873.948	14883
874.077	14853
874.206	14849
874.335	14861
874.464	14956
874.593	15104
874.722	15173
874.851	15275
874.979	15207
875.108	15207
875.237	15119
875.365	15077
875.494	15112
875.623	15173
875.751	15097
875.88	15142
876.008	15313
876.136	15348
876.265	15599
876.393	15690
876.521	15667
876.65	15724
876.778	15610
876.906	15549
877.034	15454
877.162	15603
877.29	15507
877.418	15557
877.546	15568
877.674	15629
877.802	15549
877.93	15603
878.058	15530
878.185	15454
878.313	15568
878.441	15648
878.568	15477
878.696	15462
878.824	15526
878.951	15682
879.079	15770
879.206	15831
879.333	15751
879.461	15739
879.588	15656
879.715	15854
879.842	15770
879.97	15675
880.097	15428
880.224	15443
880.351	15378
880.478	15462
880.605	15469
880.732	15431
880.859	15606
880.986	15473
881.112	15473
881.239	15291
881.366	15135
881.493	15093
881.619	15184
881.746	15100
881.872	14944
881.999	15112
882.125	15192
882.252	15077
882.378	15051
882.505	15306
882.631	15062
882.757	14849
882.883	14963
883.01	14880
883.136	14956
883.262	14807
883.388	14724
883.514	14853
883.64	14960
883.766	14921
883.892	14712
884.018	14727
884.143	14857
884.269	15024
884.395	14674
884.52	14583
884.646	14518
884.772	14522
884.897	14499
885.023	14606
885.148	14693
885.274	14708
885.399	14708
885.524	14560
885.65	14621
885.775	14636
885.9	14549
886.025	14746
886.15	14689
886.275	14575
886.4	14564
886.525	14629
886.65	14594
886.775	14583
886.9	14758
887.025	14967
887.149	14613
887.274	14492
887.399	14305
887.523	14377
887.648	14434
887.773	14358
887.897	14488
888.021	14488
888.146	14499
888.27	14526
888.395	14480
888.519	14442
888.643	14507
888.767	14484
888.891	14370
889.015	14324
889.139	14385
889.263	14294
889.387	14366
889.511	14480
889.635	14476
889.759	14271
889.883	14355
890.006	14355
890.13	14423
890.254	14244
890.377	14195
890.501	14084
890.624	14024
890.748	14168
890.871	14039
890.995	13936
891.118	13982
891.241	13986
891.364	14020
891.488	14153
891.611	13989
891.734	14107
891.857	14050
891.98	14001
892.103	14024
892.226	14077
892.349	13967
892.471	13795
892.594	14024
892.717	13989
892.839	13967
892.962	14012
893.085	14054
893.207	13997
893.33	13936
893.452	13906
893.575	13974
893.697	14039
893.819	14134
893.941	14244
894.064	14138
894.186	13986
894.308	14031
894.43	14046
894.552	14225
894.674	14145
894.796	14012
894.918	14031
895.04	14054
895.161	14100
895.283	14145
895.405	14039
895.526	14153
895.648	14115
895.769	14008
895.891	14256
896.012	14138
896.134	14202
896.255	14123
896.376	14024
896.498	14168
896.619	14259
896.74	14111
896.861	14248
896.982	14495
897.103	14697
897.224	14434
897.345	14461
897.466	14259
897.587	14457
897.708	14526
897.828	14541
897.949	14495
898.07	14309
898.19	14427
898.311	14667
898.431	14442
898.552	14541
898.672	14602
898.792	14705
898.913	14518
899.033	14469
899.153	14423
899.273	14237
899.393	14278
899.513	14419
899.633	14358
899.753	14343
899.873	14450
899.993	14415
900.113	14324
900.232	14370
900.352	14385
900.472	14248
900.591	14233
900.711	14328
900.83	14096
900.95	14339
901.069	14377
901.189	14180
901.308	14008
901.427	13887
901.546	13864
901.665	13951
901.784	14005
901.904	13776
902.023	13700
902.141	13556
902.26	13487
902.379	13586
902.498	13510
902.617	13540
902.735	13491
902.854	13552
902.973	13324
903.091	13187
903.21	13263
903.328	13244
903.446	13110
903.565	13046
903.683	13164
903.801	12943
903.919	13088
904.038	13057
904.156	12875
904.274	12977
904.392	12825
904.51	12810
904.627	12886
904.745	12947
904.863	12932
904.981	12684
905.098	12513
905.216	12547
905.334	12593
905.451	12589
905.569	12563
905.686	12635
905.803	12582
905.921	12338
906.038	12467
906.155	12467
906.272	12357
906.389	12346
906.506	12197
906.623	12235
906.74	12194
906.857	12095
906.974	12015
907.091	12205
907.208	12300
907.324	12136
907.441	12064
907.557	11950
907.674	11901
907.79	11916
907.907	11920
908.023	11954
908.139	11961
908.256	11874
908.372	11821
908.488	11767
908.604	11661
908.72	11653
908.836	11710
908.952	11661
909.068	11676
909.184	11767
909.3	11726
909.415	11634
909.531	11707
909.647	11512
909.762	11478
909.878	11417
909.993	11482
910.108	11425
910.224	11379
910.339	11467
910.454	11414
910.57	11368
910.685	11258
910.8	11589
910.915	11501
911.03	11414
911.145	11132
911.259	11181
911.374	11174
911.489	11151
911.604	11029
911.718	10949
911.833	10987
911.947	10835
912.062	10774
912.176	10953
912.291	10934
912.405	10965
912.519	11083
912.633	11178
912.748	11022
912.862	10881
912.976	10778
913.09	10786
913.204	10816
913.318	10774
913.431	10927
913.545	10820
913.659	11029
913.772	10820
913.886	10656
914	10691
914.113	10805
914.226	10904
914.34	10736
914.453	10611
914.566	10847
914.68	10565
914.793	10687
914.906	10424
915.019	10421
915.132	10344
915.245	10436
915.358	10481
915.47	10493
915.583	10512
915.696	10470
915.809	10607
915.921	10672
916.034	10417
916.146	10436
916.259	10360
916.371	10527
916.483	10424
916.595	10352
916.708	10375
916.82	10367
916.932	10379
917.044	10356
917.156	10371
917.268	10310
917.38	10295
917.491	10291
917.603	10287
917.715	10440
917.826	10394
917.938	10219
918.049	10173
918.161	10238
918.272	10398
918.384	10440
918.495	10318
918.606	10223
918.717	10090
918.828	10185
918.939	10207
919.05	10105
919.161	10150
919.272	9915
919.383	10021
919.494	10158
919.604	10352
919.715	10173
919.826	10105
919.936	10200
920.047	10253
920.157	10150
920.267	10405
920.378	10169
920.488	10219
920.598	10390
920.708	10508
920.818	10386
920.928	10303
921.038	10504
921.148	10493
921.258	10188
921.368	10173
921.477	9998
921.587	10116
921.697	9888
921.806	9983
921.916	10006
922.025	9705
922.134	9751
922.244	9663
922.353	9770
922.462	9648
922.571	9511
922.68	9473
922.789	9420
922.898	9466
923.007	9382
923.116	9466
923.224	9507
923.333	9458
923.442	9313
923.55	9325
923.659	9351
923.767	9458
923.876	9275
923.984	9336
924.092	9195
924.201	9233
924.309	9363
924.417	9363
924.525	9218
924.633	9241
924.741	10158
924.849	9104
924.956	9222
925.064	9108
925.172	9039
925.279	9066
925.387	9146
925.494	9062
925.602	9310
925.709	9161
925.816	9074
925.924	9047
926.031	9260
926.138	9081
926.245	9100
926.352	8982
926.459	9138
926.566	9195
926.673	9051
926.779	8952
926.886	8956
926.993	8815
927.099	8766
927.206	8769
927.312	8693
927.419	8826
927.525	8845
927.631	8830
927.737	8758
927.843	8705
927.95	8613
928.056	8629
928.162	8716
928.267	8762
928.373	9329
928.479	8758
928.585	8503
928.69	8727
928.796	8724
928.901	8632
929.007	8522
929.112	8537
929.218	8625
929.323	8560
929.428	8587
929.533	8689
929.638	8568
929.743	8545
929.848	8575
929.953	8530
930.058	8476
930.163	8256
930.267	8339
930.372	8454
930.477	8275
930.581	8503
930.685	8381
930.79	8301
930.894	8256
930.998	8206
931.103	8385
931.207	8062
931.311	7989
931.415	7982
931.519	7750
931.623	7742
