Data from test_V78500241_2762.txt Node
Date: Fri Mar 25 14:52:56 CST 2022
User: usil
Spectrometer: V785-0024
Trigger mode: 0
Integration Time (sec): 4.000000E-1
Scans to average: 1
Nonlinearity correction enabled: false
Boxcar width: 0
Storing dark spectrum: false
XAxis mode: Wavelengths
Number of Pixels in Spectrum: 1024
>>>>>Begin Spectral Data<<<<<
801.071	22067
801.214	21956
801.356	21629
801.499	21625
801.641	21393
801.783	21485
801.926	21268
802.068	21378
802.211	21321
802.353	21062
802.496	21062
802.638	20842
802.78	20788
802.923	20819
803.065	20689
803.208	20773
803.35	20796
803.492	20876
803.635	20826
803.777	20716
803.919	20861
804.061	21100
804.204	20625
804.346	20594
804.488	20613
804.63	20689
804.773	20651
804.915	20670
805.057	20663
805.199	20629
805.341	20750
805.483	20701
805.626	20682
805.768	20594
805.91	20686
806.052	20568
806.194	20590
806.336	20883
806.478	20606
806.62	20587
806.762	20549
806.904	20902
807.046	21024
807.188	21127
807.33	20963
807.472	21058
807.614	20956
807.756	20830
807.898	20769
808.04	20739
808.182	20632
808.324	20754
808.465	20777
808.607	20826
808.749	21009
808.891	21066
809.033	21089
809.174	21180
809.316	21055
809.458	21032
809.6	21020
809.741	21066
809.883	20975
810.025	21195
810.166	21154
810.308	21233
810.45	21009
810.591	20986
810.733	20937
810.875	20819
811.016	20594
811.158	20663
811.299	20861
811.441	20868
811.582	20792
811.724	20769
811.865	20708
812.007	20739
812.148	20674
812.29	20663
812.431	20956
812.573	21146
812.714	21226
812.855	21241
812.997	21230
813.138	21530
813.279	21344
813.421	21104
813.562	21226
813.703	20982
813.845	20921
813.986	20697
814.127	20514
814.268	20381
814.41	20301
814.551	20415
814.692	20381
814.833	20214
814.974	20176
815.115	20244
815.256	20229
815.397	20233
815.539	20039
815.68	20024
815.821	19917
815.962	20107
816.103	20046
816.244	19871
816.385	19803
816.526	19715
816.666	19514
816.807	19472
816.948	19506
817.089	19578
817.23	19586
817.371	19483
817.512	19415
817.653	19480
817.793	19392
817.934	19343
818.075	19388
818.216	19441
818.356	19373
818.497	19183
818.638	19251
818.778	19145
818.919	19171
819.06	19145
819.2	19274
819.341	19285
819.481	19346
819.622	19525
819.762	19552
819.903	19495
820.043	19388
820.184	19460
820.324	19518
820.465	19495
820.605	19396
820.746	19369
820.886	19183
821.026	19278
821.167	19339
821.307	19506
821.447	19168
821.588	19320
821.728	19065
821.868	18951
822.008	18844
822.149	18768
822.289	18837
822.429	18540
822.569	18517
822.709	18407
822.849	18369
822.99	18266
823.13	18346
823.27	18186
823.41	18152
823.55	18072
823.69	18152
823.83	18178
823.97	18076
824.11	17866
824.25	17843
824.389	17904
824.529	17882
824.669	17836
824.809	17988
824.949	18003
825.089	17885
825.228	17931
825.368	17691
825.508	17619
825.648	17642
825.787	17771
825.927	17699
826.067	17661
826.206	17615
826.346	17745
826.485	17767
826.625	17562
826.765	17828
826.904	17661
827.044	17478
827.183	17433
827.323	17315
827.462	17414
827.601	17421
827.741	17372
827.88	17512
828.02	17280
828.159	17410
828.298	17360
828.437	17467
828.577	17326
828.716	17512
828.855	17250
828.994	17277
829.134	17185
829.273	17288
829.412	17018
829.551	16987
829.69	17109
829.829	17193
829.968	17204
830.107	17200
830.246	17117
830.385	17178
830.524	16915
830.663	16858
830.802	16843
830.941	16786
831.08	16687
831.219	16843
831.357	16824
831.496	17014
831.635	16706
831.774	16683
831.913	16668
832.051	16550
832.19	16599
832.329	16531
832.467	16493
832.606	16405
832.744	16478
832.883	16325
833.022	16325
833.16	16394
833.299	16470
833.437	16489
833.576	16451
833.714	16504
833.852	16550
833.991	16470
834.129	16512
834.267	16550
834.406	16443
834.544	16451
834.682	16523
834.821	16417
834.959	16645
835.097	16470
835.235	16664
835.373	16470
835.511	16558
835.65	16360
835.788	16462
835.926	16268
836.064	16226
836.202	16257
836.34	16295
836.478	16508
836.615	16367
836.753	16318
836.891	16405
837.029	16318
837.167	16390
837.305	16276
837.443	16242
837.58	16204
837.718	16337
837.856	16246
837.993	16188
838.131	16329
838.269	16204
838.406	16177
838.544	16044
838.681	15949
838.819	15926
838.956	15884
839.094	15785
839.231	15846
839.369	15926
839.506	16333
839.643	16048
839.781	15869
839.918	15778
840.055	15739
840.193	15842
840.33	15739
840.467	15865
840.604	15804
840.742	16051
840.879	15736
841.016	15762
841.153	15671
841.29	16017
841.427	15850
841.564	15812
841.701	15918
841.838	15770
841.975	15739
842.112	15789
842.249	15682
842.385	15595
842.522	15759
842.659	15599
842.796	15686
842.933	15641
843.069	15595
843.206	15507
843.343	15686
843.479	15637
843.616	15694
843.752	15367
843.889	15374
844.025	15622
844.162	15378
844.298	15462
844.435	15439
844.571	15393
844.708	15500
844.844	15549
844.98	15553
845.117	15477
845.253	15397
845.389	15302
845.525	15348
845.661	15226
845.798	15089
845.934	15264
846.07	15150
846.206	15325
846.342	15260
846.478	15211
846.614	14986
846.75	14868
846.886	14941
847.022	15020
847.158	14899
847.294	14982
847.429	15013
847.565	14921
847.701	15230
847.837	14785
847.972	14678
848.108	14849
848.244	14750
848.379	14564
848.515	14583
848.65	14488
848.786	14560
848.921	14598
849.057	14602
849.192	14590
849.328	14549
849.463	14522
849.598	14564
849.734	14469
849.869	14431
850.004	14374
850.14	14351
850.275	14336
850.41	14248
850.545	14336
850.68	14347
850.815	14298
850.95	14294
851.085	14541
851.22	14522
851.355	14396
851.49	14305
851.625	14423
851.76	14244
851.895	14172
852.03	14221
852.165	14298
852.299	14351
852.434	14412
852.569	14400
852.703	14415
852.838	14366
852.973	14503
853.107	14442
853.242	14343
853.376	14237
853.511	14073
853.645	14259
853.78	14355
853.914	14195
854.048	14225
854.183	14214
854.317	14187
854.451	14347
854.585	14271
854.72	14161
854.854	14263
854.988	14142
855.122	14161
855.256	14126
855.39	14195
855.524	14309
855.658	14309
855.792	14278
855.926	14187
856.06	14282
856.194	14434
856.327	14210
856.461	14191
856.595	14168
856.729	14206
856.862	14339
856.996	14313
857.13	14298
857.263	14419
857.397	14336
857.53	14286
857.664	14377
857.797	14290
857.931	14267
858.064	14252
858.197	14301
858.331	14263
858.464	14115
858.597	14145
858.731	14218
858.864	14221
858.997	14240
859.13	14278
859.263	14389
859.396	14347
859.529	14225
859.662	14240
859.795	14294
859.928	14248
860.061	14408
860.194	14412
860.327	14286
860.46	14164
860.592	14324
860.725	14366
860.858	14381
860.99	14248
861.123	14126
861.256	14225
861.388	14157
861.521	14944
861.653	14199
861.786	14073
861.918	14149
862.05	14123
862.183	14180
862.315	14252
862.447	14210
862.58	14096
862.712	14024
862.844	13947
862.976	14077
863.108	14024
863.24	14484
863.372	13951
863.504	14024
863.636	13986
863.768	14142
863.9	14020
864.032	13917
864.164	13978
864.296	13993
864.428	14084
864.559	14149
864.691	14153
864.823	14107
864.954	14065
865.086	14065
865.217	13932
865.349	14027
865.48	14058
865.612	13982
865.743	14161
865.875	14020
866.006	13997
866.137	14020
866.269	14024
866.4	14111
866.531	13928
866.662	13967
866.793	13947
866.924	14050
867.055	14062
867.186	14073
867.317	13967
867.448	13940
867.579	13986
867.71	13909
867.841	13940
867.972	13955
868.103	13993
868.233	13959
868.364	14016
868.495	14111
868.625	14278
868.756	14252
868.886	14161
869.017	14229
869.147	14404
869.278	14457
869.408	14324
869.539	14324
869.669	14298
869.799	14244
869.929	14457
870.06	14332
870.19	14610
870.32	14564
870.45	14602
870.58	14552
870.71	14743
870.84	14819
870.97	14564
871.1	14613
871.23	14705
871.36	14883
871.489	14735
871.619	14804
871.749	14823
871.879	14849
872.008	14998
872.138	14864
872.267	14861
872.397	14674
872.526	14659
872.656	14621
872.785	14571
872.915	14971
873.044	14933
873.173	14899
873.303	14960
873.432	15032
873.561	14986
873.69	14815
873.819	14887
873.948	15005
874.077	14845
874.206	14864
874.335	14937
874.464	14994
874.593	15123
874.722	15077
874.851	15359
874.979	15237
875.108	15351
875.237	15108
875.365	15123
875.494	15237
875.623	15291
875.751	15230
875.88	15226
876.008	15401
876.136	15443
876.265	15641
876.393	15873
876.521	15717
876.65	15759
876.778	15736
876.906	15667
877.034	15603
877.162	15660
877.29	15523
877.418	15591
877.546	15625
877.674	15618
877.802	15629
877.93	15519
878.058	15549
878.185	15564
878.313	15572
878.441	15629
878.568	15469
878.696	15549
878.824	15656
878.951	15679
879.079	15747
879.206	15953
879.333	15873
879.461	15682
879.588	15728
879.715	15899
879.842	15869
879.97	15713
880.097	15462
880.224	15386
880.351	15504
880.478	15458
880.605	15473
880.732	15435
880.859	15671
880.986	15584
881.112	15538
881.239	15393
881.366	15146
881.493	15252
881.619	15028
881.746	15116
881.872	15131
881.999	15058
882.125	15028
882.252	15237
882.378	15123
882.505	15256
882.631	15089
882.757	14933
882.883	15142
883.01	15020
883.136	14967
883.262	14773
883.388	14804
883.514	14982
883.64	14986
883.766	14880
883.892	14632
884.018	14876
884.143	14914
884.269	15013
884.395	14727
884.52	14670
884.646	14712
884.772	14590
884.897	14610
885.023	14724
885.148	14739
885.274	14769
885.399	14678
885.524	14667
885.65	14625
885.775	14507
885.9	14667
886.025	14807
886.15	14659
886.275	14655
886.4	14602
886.525	14598
886.65	14552
886.775	14533
886.9	14708
887.025	14834
887.149	14708
887.274	14507
887.399	14438
887.523	14507
887.648	14328
887.773	14347
887.897	14575
888.021	14617
888.146	14488
888.27	14514
888.395	14598
888.519	14511
888.643	14579
888.767	14651
888.891	14374
889.015	14332
889.139	14408
889.263	14393
889.387	14438
889.511	14518
889.635	14461
889.759	14336
889.883	14347
890.006	14385
890.13	14518
890.254	14355
890.377	14374
890.501	14164
890.624	14130
890.748	14195
890.871	14096
890.995	14016
891.118	13951
891.241	14069
891.364	14046
891.488	14172
891.611	13978
891.734	14077
891.857	14096
891.98	14039
892.103	14233
892.226	13986
892.349	14039
892.471	13967
892.594	14058
892.717	13955
892.839	13978
892.962	14073
893.085	14134
893.207	14103
893.33	13921
893.452	13841
893.575	14126
893.697	14046
893.819	14183
893.941	14263
894.064	14244
894.186	14016
894.308	14119
894.43	14218
894.552	14259
894.674	14115
894.796	13982
894.918	14123
895.04	14073
895.161	14142
895.283	14183
895.405	14126
895.526	14161
895.648	14153
895.769	14180
895.891	14157
896.012	14240
896.134	14259
896.255	14298
896.376	14142
896.498	14210
896.619	14332
896.74	14237
896.861	14187
896.982	14575
897.103	14701
897.224	14613
897.345	14492
897.466	14473
897.587	14408
897.708	14610
897.828	14594
897.949	14541
898.07	14454
898.19	14446
898.311	14530
898.431	14560
898.552	14629
898.672	14670
898.792	14621
898.913	14651
899.033	14476
899.153	14511
899.273	14339
899.393	14526
899.513	14480
899.633	14518
899.753	14465
899.873	14412
899.993	14423
900.113	14431
900.232	14457
900.352	14396
900.472	14320
900.591	14180
900.711	14400
900.83	14286
900.95	14408
901.069	14476
901.189	14237
901.308	14039
901.427	13917
901.546	13936
901.665	13917
901.784	13982
901.904	13837
902.023	13772
902.141	13582
902.26	13537
902.379	13556
902.498	13483
902.617	13499
902.735	13662
902.854	13491
902.973	13419
903.091	13316
903.21	13274
903.328	13244
903.446	13263
903.565	13149
903.683	13190
903.801	13038
903.919	13061
904.038	13076
904.156	12897
904.274	13057
904.392	12951
904.51	12897
904.627	12878
904.745	12928
904.863	13042
904.981	12646
905.098	12555
905.216	12608
905.334	12646
905.451	12551
905.569	12604
905.686	12654
905.803	12616
905.921	12448
906.038	12486
906.155	12490
906.272	12285
906.389	12399
906.506	12205
906.623	12209
906.74	12224
906.857	12072
906.974	12182
907.091	12209
907.208	12258
907.324	12350
907.441	12140
907.557	12026
907.674	11958
907.79	11904
907.907	11912
908.023	11961
908.139	11836
908.256	11824
908.372	11973
908.488	11832
908.604	11794
908.72	11649
908.836	11710
908.952	11611
909.068	11649
909.184	11771
909.3	11718
909.415	11832
909.531	11745
909.647	11532
909.762	11433
909.878	11532
909.993	11558
910.108	11482
910.224	11516
910.339	11554
910.454	11398
910.57	11220
910.685	11250
910.8	11570
910.915	11448
911.03	11368
911.145	11128
911.259	11189
911.374	11258
911.489	11143
911.604	11029
911.718	10968
911.833	10934
911.947	10824
912.062	10748
912.176	10919
912.291	10980
912.405	10885
912.519	11197
912.633	11151
912.748	11064
912.862	10942
912.976	10862
913.09	10801
913.204	10736
913.318	10740
913.431	10904
913.545	10862
913.659	10999
913.772	10915
913.886	10721
914	10748
914.113	10767
914.226	10854
914.34	10782
914.453	10679
914.566	10782
914.68	10577
914.793	10607
914.906	10489
915.019	10413
915.132	10436
915.245	10474
915.358	10550
915.47	10554
915.583	10538
915.696	10440
915.809	10554
915.921	10561
916.034	10386
916.146	10394
916.259	10363
916.371	10497
916.483	10459
916.595	10367
916.708	10371
916.82	10382
916.932	10382
917.044	10386
917.156	10306
917.268	10284
917.38	10249
917.491	10192
917.603	10276
917.715	10329
917.826	10356
917.938	10272
918.049	10124
918.161	10287
918.272	10417
918.384	10417
918.495	10341
918.606	10242
918.717	10086
918.828	10177
918.939	10268
919.05	10188
919.161	10162
919.272	9922
919.383	10029
919.494	10215
919.604	10436
919.715	10154
919.826	10013
919.936	10181
920.047	10230
920.157	10181
920.267	10371
920.378	10246
920.488	10150
920.598	10375
920.708	10481
920.818	10375
920.928	10402
921.038	10561
921.148	10455
921.258	10257
921.368	10131
921.477	10120
921.587	10074
921.697	9949
921.806	10086
921.916	9945
922.025	9770
922.134	9743
922.244	9675
922.353	9857
922.462	9637
922.571	9625
922.68	9439
922.789	9363
922.898	9443
923.007	9431
923.116	9462
923.224	9469
923.333	9450
923.442	9283
923.55	9329
923.659	9287
923.767	9408
923.876	9351
923.984	9397
924.092	9214
924.201	9279
924.309	9317
924.417	9268
924.525	9272
924.633	9294
924.741	9991
924.849	9097
924.956	9237
925.064	9043
925.172	9017
925.279	9028
925.387	9104
925.494	9070
925.602	9211
925.709	9138
925.816	9047
925.924	9085
926.031	9097
926.138	9024
926.245	9157
926.352	8998
926.459	9188
926.566	9226
926.673	9093
926.779	8963
926.886	8998
926.993	8811
927.099	8800
927.206	8712
927.312	8739
927.419	8864
927.525	8807
927.631	8815
927.737	8674
927.843	8731
927.95	8613
928.056	8712
928.162	8724
928.267	8720
928.373	9408
928.479	8849
928.585	8629
928.69	8640
928.796	8720
928.901	8651
929.007	8541
929.112	8670
929.218	8636
929.323	8549
929.428	8526
929.533	8629
929.638	8488
929.743	8469
929.848	8514
929.953	8488
930.058	8427
930.163	8286
930.267	8267
930.372	8434
930.477	8248
930.581	8488
930.685	8385
930.79	8138
930.894	8195
930.998	8298
931.103	8358
931.207	8069
931.311	7986
931.415	7982
931.519	7765
931.623	7750
