Data from test_V78500241_665.txt Node
Date: Fri Mar 25 14:38:20 CST 2022
User: usil
Spectrometer: V785-0024
Trigger mode: 0
Integration Time (sec): 4.000000E-1
Scans to average: 1
Nonlinearity correction enabled: false
Boxcar width: 0
Storing dark spectrum: false
XAxis mode: Wavelengths
Number of Pixels in Spectrum: 1024
>>>>>Begin Spectral Data<<<<<
801.071	28135
801.214	28116
801.356	27827
801.499	27622
801.641	27667
801.783	27477
801.926	27595
802.068	27492
802.211	27359
802.353	27298
802.496	27199
802.638	27005
802.78	27036
802.923	26933
803.065	26746
803.208	26815
803.35	27017
803.492	27096
803.635	27169
803.777	27173
803.919	27222
804.061	27542
804.204	27283
804.346	27211
804.488	27211
804.63	27294
804.773	27142
804.915	27306
805.057	27511
805.199	27542
805.341	27583
805.483	27637
805.626	27781
805.768	27686
805.91	27785
806.052	27983
806.194	28051
806.336	28432
806.478	28382
806.62	28561
806.762	28877
806.904	29471
807.046	29840
807.188	30091
807.33	30285
807.472	31190
807.614	31597
807.756	32579
807.898	33572
808.04	35018
808.182	36947
808.324	39488
808.465	42460
808.607	45500
808.749	48186
808.891	50081
809.033	50316
809.174	48502
809.316	45679
809.458	42517
809.6	39142
809.741	36464
809.883	34478
810.025	33138
810.166	32107
810.308	31362
810.45	30707
810.591	30129
810.733	29748
810.875	29311
811.016	29018
811.158	28733
811.299	28618
811.441	28615
811.582	28462
811.724	28166
811.865	28112
812.007	28116
812.148	27979
812.29	27945
812.431	28048
812.573	28048
812.714	27930
812.855	28226
812.997	28154
813.138	28265
813.279	28059
813.421	28063
813.562	27755
813.703	27739
813.845	27618
813.986	27169
814.127	27009
814.268	26899
814.41	26918
814.551	26830
814.692	26910
814.833	26838
814.974	26716
815.115	26815
815.256	26571
815.397	26442
815.539	26613
815.68	26282
815.821	26290
815.962	26210
816.103	26199
816.244	26191
816.385	26081
816.526	25940
816.666	25734
816.807	25571
816.948	25616
817.089	25658
817.23	25620
817.371	25616
817.512	25715
817.653	25533
817.793	25419
817.934	25525
818.075	25491
818.216	25502
818.356	25476
818.497	25419
818.638	25232
818.778	25221
818.919	25225
819.06	25266
819.2	25350
819.341	25510
819.481	25430
819.622	25529
819.762	25696
819.903	25624
820.043	25521
820.184	25396
820.324	25445
820.465	25468
820.605	25449
820.746	25392
820.886	25148
821.026	25350
821.167	25225
821.307	25369
821.447	25126
821.588	25012
821.728	24878
821.868	24806
822.008	24521
822.149	24719
822.289	24505
822.429	24270
822.569	24300
822.709	24353
822.849	24155
822.99	24133
823.13	23977
823.27	24163
823.41	23973
823.55	23585
823.69	23786
823.83	23897
823.97	23722
824.11	23570
824.25	23539
824.389	23623
824.529	23695
824.669	23589
824.809	23775
824.949	23718
825.089	23642
825.228	23680
825.368	23482
825.508	23459
825.648	23349
825.787	23436
825.927	23474
826.067	23254
826.206	23360
826.346	23406
826.485	23322
826.625	23440
826.765	23493
826.904	23433
827.044	23189
827.183	23208
827.323	23033
827.462	23124
827.601	23044
827.741	23044
827.88	23189
828.02	22911
828.159	22987
828.298	22972
828.437	23052
828.577	23006
828.716	23143
828.855	22915
828.994	22744
829.134	22839
829.273	22744
829.412	22748
829.551	22672
829.69	22717
829.829	22615
829.968	22698
830.107	22752
830.246	22596
830.385	22668
830.524	22485
830.663	22615
830.802	22398
830.941	22299
831.08	22303
831.219	22451
831.357	22215
831.496	22466
831.635	22424
831.774	22272
831.913	22238
832.051	22265
832.19	22070
832.329	22200
832.467	22139
832.606	22067
832.744	22166
832.883	22200
833.022	22314
833.16	22382
833.299	22504
833.437	22664
833.576	22805
833.714	22797
833.852	23121
833.991	23231
834.129	23189
834.267	23284
834.406	23246
834.544	23105
834.682	23018
834.821	22824
834.959	22965
835.097	22573
835.235	22641
835.373	22390
835.511	22306
835.65	22135
835.788	22135
835.926	21869
836.064	21804
836.202	21755
836.34	21812
836.478	22040
836.615	21918
836.753	21949
836.891	21949
837.029	21800
837.167	21724
837.305	21576
837.443	21694
837.58	21648
837.718	21713
837.856	21538
837.993	21610
838.131	21603
838.269	21507
838.406	21568
838.544	21473
838.681	21275
838.819	21207
838.956	21135
839.094	21058
839.231	21218
839.369	21230
839.506	21389
839.643	21298
839.781	20921
839.918	20880
840.055	20963
840.193	20986
840.33	20910
840.467	20990
840.604	20861
840.742	21329
840.879	20948
841.016	20971
841.153	20777
841.29	21093
841.427	20998
841.564	21055
841.701	20910
841.838	20975
841.975	20902
842.112	20883
842.249	20815
842.385	20735
842.522	21013
842.659	20845
842.796	20792
842.933	20819
843.069	20796
843.206	20902
843.343	20811
843.479	20982
843.616	20979
843.752	20743
843.889	20746
844.025	21009
844.162	20887
844.298	21123
844.435	21211
844.571	21233
844.708	21542
844.844	22173
844.98	22360
845.117	23216
845.253	23965
845.389	25944
845.525	29288
845.661	34740
845.798	41387
845.934	46428
846.07	48330
846.206	46778
846.342	42201
846.478	35809
846.614	30076
846.75	26138
846.886	24129
847.022	22904
847.158	22006
847.294	21306
847.429	21150
847.565	20864
847.701	20937
847.837	20275
847.972	20130
848.108	20206
848.244	20096
848.379	19951
848.515	19849
848.65	19734
848.786	19803
848.921	19833
849.057	19807
849.192	19761
849.328	19742
849.463	19693
849.598	19723
849.734	19613
849.869	19609
850.004	19472
850.14	19476
850.275	19316
850.41	19263
850.545	19377
850.68	19308
850.815	19499
850.95	19464
851.085	19548
851.22	19487
851.355	19457
851.49	19369
851.625	19354
851.76	19373
851.895	19354
852.03	19297
852.165	19266
852.299	19400
852.434	19438
852.569	19362
852.703	19415
852.838	19487
852.973	19533
853.107	19472
853.242	19441
853.376	19331
853.511	19392
853.645	19460
853.78	19601
853.914	19544
854.048	19510
854.183	19445
854.317	19685
854.451	19734
854.585	19594
854.72	19499
854.854	19586
854.988	19499
855.122	19464
855.256	19259
855.39	19407
855.524	19460
855.658	19373
855.792	19194
855.926	19388
856.06	19297
856.194	19449
856.327	19244
856.461	19213
856.595	19065
856.729	19107
856.862	19198
856.996	19244
857.13	19316
857.263	19244
857.397	19301
857.53	19046
857.664	19175
857.797	19202
857.931	19282
858.064	19137
858.197	19240
858.331	19190
858.464	19053
858.597	18996
858.731	19042
858.864	18981
858.997	19110
859.13	18954
859.263	19034
859.396	19095
859.529	19023
859.662	18913
859.795	18951
859.928	19114
860.061	19194
860.194	19069
860.327	19080
860.46	19076
860.592	19061
860.725	19126
860.858	19023
860.99	18954
861.123	18875
861.256	18909
861.388	19050
861.521	19704
861.653	18848
861.786	18730
861.918	18962
862.05	18913
862.183	18954
862.315	18928
862.447	19031
862.58	18939
862.712	18703
862.844	18642
862.976	18825
863.108	18726
863.24	18993
863.372	18654
863.504	18532
863.636	18639
863.768	18707
863.9	18734
864.032	18566
864.164	18665
864.296	18623
864.428	18677
864.559	18642
864.691	18791
864.823	18639
864.954	18719
865.086	18661
865.217	18578
865.349	18475
865.48	18566
865.612	18593
865.743	18726
865.875	18532
866.006	18456
866.137	18627
866.269	18551
866.4	18498
866.531	18589
866.662	18570
866.793	18532
866.924	18521
867.055	18486
867.186	18441
867.317	18616
867.448	18456
867.579	18540
867.71	18441
867.841	18483
867.972	18563
868.103	18566
868.233	18525
868.364	18547
868.495	18623
868.625	18776
868.756	18833
868.886	18749
869.017	18806
869.147	18947
869.278	18909
869.408	18916
869.539	18913
869.669	18867
869.799	18787
869.929	18760
870.06	18970
870.19	19179
870.32	19148
870.45	19038
870.58	19232
870.71	19297
870.84	19266
870.97	19343
871.1	19274
871.23	19434
871.36	19487
871.489	19430
871.619	19419
871.749	19411
871.879	19499
872.008	19590
872.138	19495
872.267	19563
872.397	19468
872.526	19430
872.656	19464
872.785	19377
872.915	19715
873.044	19750
873.173	19685
873.303	19780
873.432	19822
873.561	19811
873.69	19791
873.819	19803
873.948	19928
874.077	19757
874.206	19849
874.335	19982
874.464	20024
874.593	20191
874.722	20115
874.851	20161
874.979	20355
875.108	20385
875.237	20347
875.365	20309
875.494	20461
875.623	20305
875.751	20457
875.88	20488
876.008	20693
876.136	20815
876.265	21062
876.393	21176
876.521	21176
876.65	21313
876.778	21222
876.906	21268
877.034	21260
877.162	21462
877.29	21374
877.418	21568
877.546	21595
877.674	21732
877.802	21857
877.93	21956
878.058	22147
878.185	22306
878.313	22493
878.441	23014
878.568	23132
878.696	23828
878.824	24532
878.951	25670
879.079	27230
879.206	29311
879.333	31263
879.461	32811
879.588	33819
879.715	33972
879.842	33066
879.97	31244
880.097	29216
880.224	27564
880.351	26484
880.478	25609
880.605	24989
880.732	24661
880.859	24692
880.986	24319
881.112	24171
881.239	23908
881.366	23775
881.493	23828
881.619	23676
881.746	23665
881.872	23760
881.999	23756
882.125	23699
882.252	23980
882.378	23904
882.505	24018
882.631	23729
882.757	23729
882.883	23756
883.01	23821
883.136	23611
883.262	23699
883.388	23604
883.514	23767
883.64	23790
883.766	23524
883.892	23406
884.018	23410
884.143	23703
884.269	23748
884.395	23562
884.52	23425
884.646	23570
884.772	23417
884.897	23326
885.023	23478
885.148	23558
885.274	23284
885.399	23273
885.524	23223
885.65	23143
885.775	22946
885.9	22881
886.025	22710
886.15	22653
886.275	22413
886.4	22040
886.525	22177
886.65	21994
886.775	21739
886.9	21717
887.025	21903
887.149	21629
887.274	21355
887.399	21131
887.523	21131
887.648	21043
887.773	20929
887.897	20975
888.021	20883
888.146	20765
888.27	20781
888.395	20887
888.519	20667
888.643	20667
888.767	20739
888.891	20503
889.015	20298
889.139	20282
889.263	20237
889.387	20202
889.511	20355
889.635	20355
889.759	20111
889.883	20088
890.006	20046
890.13	20081
890.254	19780
890.377	19906
890.501	19746
890.624	19670
890.748	19674
890.871	19674
890.995	19460
891.118	19164
891.241	19403
891.364	19327
891.488	19499
891.611	19362
891.734	19232
891.857	19285
891.98	19217
892.103	19278
892.226	19084
892.349	19107
892.471	18973
892.594	19019
892.717	18954
892.839	18935
892.962	19004
893.085	19110
893.207	18973
893.33	18696
893.452	18795
893.575	18882
893.697	18681
893.819	18882
893.941	18905
894.064	18935
894.186	18669
894.308	18623
894.43	18848
894.552	18738
894.674	18734
894.796	18563
894.918	18654
895.04	18608
895.161	18791
895.283	18612
895.405	18528
895.526	18532
895.648	18479
895.769	18467
895.891	18517
896.012	18536
896.134	18563
896.255	18513
896.376	18433
896.498	18544
896.619	18471
896.74	18407
896.861	18536
896.982	18753
897.103	18776
897.224	18741
897.345	18623
897.466	18601
897.587	18650
897.708	18810
897.828	18665
897.949	18540
898.07	18490
898.19	18570
898.311	18700
898.431	18593
898.552	18700
898.672	18658
898.792	18673
898.913	18642
899.033	18563
899.153	18330
899.273	18357
899.393	18304
899.513	18391
899.633	18369
899.753	18426
899.873	18334
899.993	18464
900.113	18300
900.232	18357
900.352	18376
900.472	18254
900.591	18106
900.711	18205
900.83	18178
900.95	18369
901.069	18292
901.189	18026
901.308	17923
901.427	17710
901.546	17794
901.665	17745
901.784	17809
901.904	17646
902.023	17532
902.141	17345
902.26	17322
902.379	17239
902.498	17334
902.617	17140
902.735	17239
902.854	17166
902.973	16995
903.091	16946
903.21	16820
903.328	16767
903.446	16664
903.565	16698
903.683	16649
903.801	16523
903.919	16561
904.038	16599
904.156	16405
904.274	16360
904.392	16375
904.51	16329
904.627	16382
904.745	16424
904.863	16344
904.981	16147
905.098	16010
905.216	15998
905.334	16025
905.451	16063
905.569	15960
905.686	16040
905.803	16006
905.921	15808
906.038	15945
906.155	15739
906.272	15545
906.389	15675
906.506	15393
906.623	15580
906.74	15473
906.857	15313
906.974	15348
907.091	15458
907.208	15667
907.324	15477
907.441	15420
907.557	15173
907.674	15211
907.79	15093
907.907	15123
908.023	15214
908.139	15154
908.256	15066
908.372	14952
908.488	15085
908.604	14960
908.72	14895
908.836	15017
908.952	14838
909.068	14963
909.184	14975
909.3	14826
909.415	14986
909.531	14941
909.647	14613
909.762	14564
909.878	14511
909.993	14693
910.108	14648
910.224	14549
910.339	14663
910.454	14396
910.57	14552
910.685	14370
910.8	14636
910.915	14571
911.03	14492
911.145	14271
911.259	14324
911.374	14195
911.489	14142
911.604	14210
911.718	14031
911.833	13978
911.947	13894
912.062	13970
912.176	14039
912.291	13936
912.405	14039
912.519	14138
912.633	14267
912.748	14058
912.862	13917
912.976	13913
913.09	13772
913.204	13769
913.318	13849
913.431	13932
913.545	13997
913.659	13898
913.772	13746
913.886	13662
914	13632
914.113	13795
914.226	13811
914.34	13803
914.453	13609
914.566	13738
914.68	13643
914.793	13533
914.906	13434
915.019	13301
915.132	13301
915.245	13316
915.358	13369
915.47	13384
915.583	13434
915.696	13441
915.809	13563
915.921	13544
916.034	13312
916.146	13362
916.259	13266
916.371	13377
916.483	13358
916.595	13327
916.708	13304
916.82	13289
916.932	13282
917.044	13297
917.156	13187
917.268	13080
917.38	13168
917.491	13141
917.603	13149
917.715	13137
917.826	13225
917.938	13031
918.049	13008
918.161	12989
918.272	13122
918.384	13202
918.495	12951
918.606	12829
918.717	12833
918.828	12848
918.939	12837
919.05	12749
919.161	12856
919.272	12719
919.383	12722
919.494	12833
919.604	13042
919.715	12817
919.826	12665
919.936	12757
920.047	12791
920.157	12779
920.267	13027
920.378	12859
920.488	12806
920.598	12989
920.708	13126
920.818	12916
920.928	12958
921.038	13126
921.148	13050
921.258	12753
921.368	12593
921.477	12574
921.587	12536
921.697	12426
921.806	12578
921.916	12445
922.025	12319
922.134	12251
922.244	12186
922.353	12220
922.462	12175
922.571	12079
922.68	11927
922.789	11908
922.898	11843
923.007	11817
923.116	11897
923.224	11935
923.333	11824
923.442	11737
923.55	11745
923.659	11764
923.767	11798
923.876	11710
923.984	11752
924.092	11657
924.201	11699
924.309	11707
924.417	11718
924.525	11710
924.633	11615
924.741	12589
924.849	11528
924.956	11577
925.064	11433
925.172	11376
925.279	11448
925.387	11482
925.494	11383
925.602	11672
925.709	11520
925.816	11376
925.924	11478
926.031	11535
926.138	11459
926.245	11433
926.352	11330
926.459	11414
926.566	11459
926.673	11307
926.779	11258
926.886	11208
926.993	11060
927.099	11029
927.206	11098
927.312	11105
927.419	11132
927.525	11037
927.631	11090
927.737	10972
927.843	10911
927.95	10900
928.056	10934
928.162	10980
928.267	10987
928.373	11452
928.479	10995
928.585	10771
928.69	10930
928.796	10942
928.901	10809
929.007	10698
929.112	10847
929.218	10786
929.323	10748
929.428	10622
929.533	10755
929.638	10603
929.743	10694
929.848	10675
929.953	10615
930.058	10577
930.163	10402
930.267	10409
930.372	10489
930.477	10405
930.581	10603
930.685	10405
930.79	10299
930.894	10382
930.998	10265
931.103	10405
931.207	10086
931.311	9994
931.415	9884
931.519	9736
931.623	9831
