Data from test_V78500241_1351.txt Node
Date: Fri Mar 25 14:43:07 CST 2022
User: usil
Spectrometer: V785-0024
Trigger mode: 0
Integration Time (sec): 4.000000E-1
Scans to average: 1
Nonlinearity correction enabled: false
Boxcar width: 0
Storing dark spectrum: false
XAxis mode: Wavelengths
Number of Pixels in Spectrum: 1024
>>>>>Begin Spectral Data<<<<<
801.071	22443
801.214	22363
801.356	22101
801.499	21918
801.641	21797
801.783	21743
801.926	21827
802.068	21660
802.211	21610
802.353	21500
802.496	21359
802.638	21264
802.78	21161
802.923	21119
803.065	21070
803.208	21036
803.35	21081
803.492	21173
803.635	21226
803.777	21116
803.919	21207
804.061	21454
804.204	21260
804.346	21081
804.488	20986
804.63	21024
804.773	21013
804.915	20986
805.057	21131
805.199	21093
805.341	21055
805.483	21154
805.626	21089
805.768	20998
805.91	21085
806.052	21051
806.194	20880
806.336	21260
806.478	20986
806.62	20941
806.762	21089
806.904	21241
807.046	21408
807.188	21378
807.33	21481
807.472	21370
807.614	21389
807.756	21374
807.898	21336
808.04	21157
808.182	21237
808.324	21249
808.465	21302
808.607	21485
808.749	21644
808.891	21739
809.033	21808
809.174	21709
809.316	21378
809.458	21576
809.6	21416
809.741	21629
809.883	21564
810.025	21724
810.166	21701
810.308	21526
810.45	21538
810.591	21523
810.733	21332
810.875	21283
811.016	21218
811.158	21214
811.299	21405
811.441	21389
811.582	21241
811.724	21195
811.865	21241
812.007	21192
812.148	21256
812.29	21272
812.431	21431
812.573	21660
812.714	21587
812.855	21694
812.997	21846
813.138	21968
813.279	21781
813.421	21770
813.562	21660
813.703	21450
813.845	21424
813.986	21119
814.127	20982
814.268	20811
814.41	20758
814.551	20762
814.692	20830
814.833	20750
814.974	20682
815.115	20762
815.256	20648
815.397	20651
815.539	20716
815.68	20518
815.821	20583
815.962	20408
816.103	20579
816.244	20317
816.385	20393
816.526	20259
816.666	19967
816.807	19932
816.948	20138
817.089	20153
817.23	20024
817.371	19997
817.512	19989
817.653	20020
817.793	19967
817.934	20020
818.075	19974
818.216	19997
818.356	19772
818.497	19666
818.638	19616
818.778	19578
818.919	19727
819.06	19750
819.2	19826
819.341	19826
819.481	19856
819.622	19928
819.762	20161
819.903	20020
820.043	20005
820.184	19894
820.324	19978
820.465	19940
820.605	19902
820.746	19932
820.886	19791
821.026	19833
821.167	19807
821.307	19921
821.447	19849
821.588	19738
821.728	19715
821.868	19381
822.008	19308
822.149	19308
822.289	19225
822.429	19015
822.569	19034
822.709	18981
822.849	18894
822.99	18806
823.13	18768
823.27	18863
823.41	18555
823.55	18597
823.69	18753
823.83	18730
823.97	18464
824.11	18441
824.25	18285
824.389	18376
824.529	18376
824.669	18422
824.809	18479
824.949	18528
825.089	18448
825.228	18391
825.368	18239
825.508	18121
825.648	18194
825.787	18167
825.927	18159
826.067	18133
826.206	18125
826.346	18106
826.485	18125
826.625	18171
826.765	18220
826.904	18110
827.044	17935
827.183	17984
827.323	17961
827.462	17931
827.601	17798
827.741	17882
827.88	17855
828.02	17687
828.159	17923
828.298	17882
828.437	18022
828.577	17923
828.716	17901
828.855	17737
828.994	17680
829.134	17589
829.273	17528
829.412	17630
829.551	17532
829.69	17634
829.829	17604
829.968	17764
830.107	17623
830.246	17691
830.385	17577
830.524	17516
830.663	17410
830.802	17273
830.941	17185
831.08	17136
831.219	17444
831.357	17250
831.496	17425
831.635	17277
831.774	17102
831.913	17090
832.051	17041
832.19	17083
832.329	17136
832.467	16892
832.606	16915
832.744	16972
832.883	16915
833.022	16854
833.16	16987
833.299	16911
833.437	16984
833.576	17037
833.714	16968
833.852	17056
833.991	17014
834.129	17048
834.267	17033
834.406	17022
834.544	16957
834.682	17079
834.821	16896
834.959	17204
835.097	16881
835.235	16999
835.373	16968
835.511	16942
835.65	16885
835.788	16949
835.926	16809
836.064	16713
836.202	16748
836.34	16877
836.478	16889
836.615	16767
836.753	16839
836.891	16930
837.029	16968
837.167	16850
837.305	16797
837.443	16812
837.58	16710
837.718	16847
837.856	16752
837.993	16679
838.131	16698
838.269	16733
838.406	16691
838.544	16649
838.681	16398
838.819	16428
838.956	16310
839.094	16360
839.231	16337
839.369	16535
839.506	16725
839.643	16402
839.781	16379
839.918	16253
840.055	16234
840.193	16238
840.33	16272
840.467	16344
840.604	16230
840.742	16561
840.879	16166
841.016	16177
841.153	16249
841.29	16409
841.427	16287
841.564	16306
841.701	16371
841.838	16143
841.975	16230
842.112	16166
842.249	16139
842.385	16032
842.522	16261
842.659	16162
842.796	16051
842.933	16124
843.069	16029
843.206	16010
843.343	16166
843.479	16032
843.616	16135
843.752	15842
843.889	15865
844.025	16048
844.162	15884
844.298	15926
844.435	15827
844.571	15819
844.708	15922
844.844	16112
844.98	15987
845.117	16063
845.253	15854
845.389	15755
845.525	15869
845.661	15884
845.798	15991
845.934	15998
846.07	15960
846.206	16002
846.342	15918
846.478	15804
846.614	15610
846.75	15488
846.886	15321
847.022	15500
847.158	15428
847.294	15454
847.429	15412
847.565	15469
847.701	15595
847.837	15165
847.972	15188
848.108	15241
848.244	15260
848.379	15039
848.515	15070
848.65	15108
848.786	15093
848.921	14975
849.057	15097
849.192	15119
849.328	15104
849.463	15077
849.598	15047
849.734	15047
849.869	14906
850.004	14891
850.14	14819
850.275	14834
850.41	14670
850.545	14739
850.68	14701
850.815	14845
850.95	14849
851.085	14876
851.22	14819
851.355	14826
851.49	14781
851.625	14823
851.76	14724
851.895	14670
852.03	14750
852.165	14727
852.299	14811
852.434	14906
852.569	14933
852.703	14819
852.838	14842
852.973	15070
853.107	14971
853.242	14807
853.376	14712
853.511	14499
853.645	14651
853.78	14731
853.914	14655
854.048	14674
854.183	14640
854.317	14674
854.451	14838
854.585	14568
854.72	14651
854.854	14701
854.988	14670
855.122	14640
855.256	14522
855.39	14533
855.524	14773
855.658	14674
855.792	14720
855.926	14762
856.06	14689
856.194	14819
856.327	14667
856.461	14575
856.595	14667
856.729	14617
856.862	14727
856.996	14735
857.13	14663
857.263	14811
857.397	14735
857.53	14731
857.664	14792
857.797	14777
857.931	14872
858.064	14788
858.197	14720
858.331	14678
858.464	14678
858.597	14503
858.731	14674
858.864	14621
858.997	14632
859.13	14632
859.263	14689
859.396	14758
859.529	14629
859.662	14659
859.795	14533
859.928	14693
860.061	14705
860.194	14887
860.327	14777
860.46	14644
860.592	14689
860.725	14773
860.858	14781
860.99	14674
861.123	14560
861.256	14632
861.388	14651
861.521	15382
861.653	14533
861.786	14507
861.918	14476
862.05	14560
862.183	14575
862.315	14629
862.447	14659
862.58	14674
862.712	14351
862.844	14377
862.976	14450
863.108	14511
863.24	14861
863.372	14419
863.504	14377
863.636	14366
863.768	14526
863.9	14473
864.032	14377
864.164	14396
864.296	14438
864.428	14518
864.559	14507
864.691	14488
864.823	14442
864.954	14400
865.086	14415
865.217	14415
865.349	14374
865.48	14408
865.612	14366
865.743	14583
865.875	14381
866.006	14465
866.137	14507
866.269	14374
866.4	14469
866.531	14339
866.662	14324
866.793	14298
866.924	14298
867.055	14454
867.186	14324
867.317	14351
867.448	14328
867.579	14339
867.71	14324
867.841	14366
867.972	14522
868.103	14438
868.233	14396
868.364	14427
868.495	14454
868.625	14556
868.756	14640
868.886	14511
869.017	14552
869.147	14750
869.278	14754
869.408	14758
869.539	14629
869.669	14712
869.799	14678
869.929	14834
870.06	14777
870.19	14971
870.32	14925
870.45	14948
870.58	15138
870.71	15214
870.84	15116
870.97	14971
871.1	14952
871.23	15230
871.36	15192
871.489	15089
871.619	15135
871.749	15252
871.879	15241
872.008	15306
872.138	15256
872.267	15203
872.397	15062
872.526	15207
872.656	15138
872.785	15138
872.915	15268
873.044	15344
873.173	15169
873.303	15363
873.432	15351
873.561	15294
873.69	15321
873.819	15348
873.948	15412
874.077	15313
874.206	15252
874.335	15256
874.464	15519
874.593	15606
874.722	15564
874.851	15660
874.979	15568
875.108	15599
875.237	15584
875.365	15534
875.494	15591
875.623	15682
875.751	15701
875.88	15759
876.008	15751
876.136	15797
876.265	15937
876.393	16215
876.521	16162
876.65	16097
876.778	16051
876.906	16021
877.034	15975
877.162	16010
877.29	15964
877.418	16036
877.546	16025
877.674	16002
877.802	16124
877.93	16116
878.058	16002
878.185	15964
878.313	15994
878.441	15945
878.568	16006
878.696	16021
878.824	16185
878.951	16101
879.079	16230
879.206	16424
879.333	16268
879.461	16207
879.588	16325
879.715	16287
879.842	16443
879.97	16150
880.097	15937
880.224	16040
880.351	15949
880.478	15842
880.605	15835
880.732	15998
880.859	16040
880.986	15899
881.112	15941
881.239	15755
881.366	15698
881.493	15538
881.619	15614
881.746	15576
881.872	15557
881.999	15576
882.125	15504
882.252	15564
882.378	15466
882.505	15644
882.631	15515
882.757	15317
882.883	15462
883.01	15378
883.136	15279
883.262	15195
883.388	15378
883.514	15325
883.64	15389
883.766	15272
883.892	15260
884.018	15214
884.143	15317
884.269	15408
884.395	15207
884.52	14994
884.646	15081
884.772	15039
884.897	14914
885.023	15055
885.148	15116
885.274	15241
885.399	15093
885.524	14986
885.65	15119
885.775	14986
885.9	14994
886.025	15123
886.15	15161
886.275	15081
886.4	14937
886.525	14998
886.65	14967
886.775	14990
886.9	15199
887.025	15233
887.149	15089
887.274	14952
887.399	14868
887.523	14864
887.648	14838
887.773	14857
887.897	14960
888.021	14994
888.146	14826
888.27	14921
888.395	15009
888.519	14826
888.643	14861
888.767	14872
888.891	14811
889.015	14693
889.139	14686
889.263	14773
889.387	14918
889.511	14895
889.635	14914
889.759	14773
889.883	14708
890.006	14765
890.13	14765
890.254	14651
890.377	14590
890.501	14484
890.624	14507
890.748	14598
890.871	14408
890.995	14389
891.118	14332
891.241	14446
891.364	14415
891.488	14583
891.611	14385
891.734	14385
891.857	14484
891.98	14450
892.103	14503
892.226	14355
892.349	14552
892.471	14263
892.594	14415
892.717	14336
892.839	14431
892.962	14457
893.085	14473
893.207	14415
893.33	14286
893.452	14339
893.575	14495
893.697	14404
893.819	14488
893.941	14625
894.064	14514
894.186	14377
894.308	14419
894.43	14461
894.552	14655
894.674	14503
894.796	14381
894.918	14404
895.04	14381
895.161	14522
895.283	14526
895.405	14492
895.526	14484
895.648	14499
895.769	14613
895.891	14610
896.012	14598
896.134	14556
896.255	14537
896.376	14590
896.498	14571
896.619	14697
896.74	14568
896.861	14579
896.982	14979
897.103	15055
897.224	14914
897.345	14781
897.466	14868
897.587	14845
897.708	14925
897.828	14906
897.949	14762
898.07	14686
898.19	14785
898.311	14994
898.431	14868
898.552	14876
898.672	14967
898.792	14982
898.913	14929
899.033	14819
899.153	14800
899.273	14686
899.393	14701
899.513	14758
899.633	14632
899.753	14815
899.873	14735
899.993	14864
900.113	14739
900.232	14762
900.352	14807
900.472	14636
900.591	14640
900.711	14644
900.83	14514
900.95	14765
901.069	14739
901.189	14552
901.308	14332
901.427	14248
901.546	14305
901.665	14317
901.784	14244
901.904	14210
902.023	14012
902.141	13913
902.26	13928
902.379	13887
902.498	13837
902.617	13811
902.735	13871
902.854	13852
902.973	13803
903.091	13628
903.21	13597
903.328	13624
903.446	13533
903.565	13422
903.683	13411
903.801	13358
903.919	13422
904.038	13369
904.156	13274
904.274	13327
904.392	13206
904.51	13228
904.627	13228
904.745	13209
904.863	13263
904.981	12985
905.098	12973
905.216	12962
905.334	12932
905.451	12947
905.569	12886
905.686	12821
905.803	12844
905.921	12745
906.038	12867
906.155	12795
906.272	12688
906.389	12532
906.506	12509
906.623	12544
906.74	12475
906.857	12422
906.974	12426
907.091	12555
907.208	12635
907.324	12570
907.441	12475
907.557	12300
907.674	12175
907.79	12159
907.907	12232
908.023	12171
908.139	12251
908.256	12201
908.372	12186
908.488	12155
908.604	12114
908.72	11961
908.836	11977
908.952	11958
909.068	11992
909.184	12095
909.3	11946
909.415	11984
909.531	12034
909.647	11767
909.762	11722
909.878	11710
909.993	11771
910.108	11741
910.224	11748
910.339	11836
910.454	11752
910.57	11630
910.685	11551
910.8	11859
910.915	11893
911.03	11573
911.145	11505
911.259	11417
911.374	11512
911.489	11303
911.604	11341
911.718	11269
911.833	11231
911.947	11124
912.062	11075
912.176	11136
912.291	11223
912.405	11178
912.519	11364
912.633	11402
912.748	11204
912.862	11159
912.976	11132
913.09	10976
913.204	11029
913.318	11102
913.431	11239
913.545	11136
913.659	11250
913.772	11090
913.886	10957
914	10946
914.113	11060
914.226	11086
914.34	11003
914.453	10915
914.566	10957
914.68	10889
914.793	10889
914.906	10744
915.019	10797
915.132	10691
915.245	10740
915.358	10702
915.47	10740
915.583	10809
915.696	10828
915.809	10904
915.921	10820
916.034	10622
916.146	10618
916.259	10664
916.371	10824
916.483	10744
916.595	10664
916.708	10607
916.82	10717
916.932	10634
917.044	10679
917.156	10660
917.268	10504
917.38	10550
917.491	10459
917.603	10512
917.715	10675
917.826	10653
917.938	10535
918.049	10428
918.161	10493
918.272	10596
918.384	10683
918.495	10618
918.606	10402
918.717	10299
918.828	10432
918.939	10455
919.05	10280
919.161	10322
919.272	10257
919.383	10200
919.494	10405
919.604	10607
919.715	10428
919.826	10333
919.936	10424
920.047	10497
920.157	10531
920.267	10550
920.378	10538
920.488	10432
920.598	10596
920.708	10752
920.818	10649
920.928	10649
921.038	10759
921.148	10702
921.258	10470
921.368	10344
921.477	10287
921.587	10299
921.697	10200
921.806	10276
921.916	10181
922.025	9953
922.134	9968
922.244	9991
922.353	10021
922.462	9895
922.571	9755
922.68	9675
922.789	9656
922.898	9701
923.007	9591
923.116	9736
923.224	9709
923.333	9629
923.442	9580
923.55	9534
923.659	9492
923.767	9568
923.876	9454
923.984	9561
924.092	9473
924.201	9431
924.309	9580
924.417	9511
924.525	9447
924.633	9488
924.741	10432
924.849	9283
924.956	9492
925.064	9245
925.172	9253
925.279	9279
925.387	9310
925.494	9317
925.602	9462
925.709	9397
925.816	9279
925.924	9310
926.031	9405
926.138	9294
926.245	9283
926.352	9199
926.459	9447
926.566	9412
926.673	9260
926.779	9203
926.886	9199
926.993	9039
927.099	8998
927.206	8994
927.312	8952
927.419	9108
927.525	9009
927.631	9085
927.737	8899
927.843	8929
927.95	8735
928.056	8883
928.162	8887
928.267	8933
928.373	9553
928.479	9043
928.585	8815
928.69	8891
928.796	8937
928.901	8800
929.007	8682
929.112	8800
929.218	8845
929.323	8746
929.428	8648
929.533	8834
929.638	8682
929.743	8682
929.848	8727
929.953	8750
930.058	8632
930.163	8454
930.267	8507
930.372	8701
930.477	8488
930.581	8750
930.685	8583
930.79	8438
930.894	8412
930.998	8499
931.103	8575
931.207	8225
931.311	8149
931.415	8103
931.519	7917
931.623	7913
