Data from test_V78500241_3625.txt Node
Date: Fri Mar 25 14:58:57 CST 2022
User: usil
Spectrometer: V785-0024
Trigger mode: 0
Integration Time (sec): 4.000000E-1
Scans to average: 1
Nonlinearity correction enabled: false
Boxcar width: 0
Storing dark spectrum: false
XAxis mode: Wavelengths
Number of Pixels in Spectrum: 1024
>>>>>Begin Spectral Data<<<<<
801.071	21964
801.214	21903
801.356	21488
801.499	21450
801.641	21291
801.783	21260
801.926	21211
802.068	21195
802.211	21131
802.353	21157
802.496	20925
802.638	20640
802.78	20792
802.923	20724
803.065	20575
803.208	20564
803.35	20545
803.492	20743
803.635	20724
803.777	20530
803.919	20667
804.061	20880
804.204	20697
804.346	20457
804.488	20495
804.63	20583
804.773	20442
804.915	20507
805.057	20651
805.199	20454
805.341	20503
805.483	20533
805.626	20514
805.768	20518
805.91	20545
806.052	20473
806.194	20374
806.336	20571
806.478	20381
806.62	20366
806.762	20484
806.904	20594
807.046	20872
807.188	20682
807.33	20781
807.472	20899
807.614	20743
807.756	20739
807.898	20640
808.04	20469
808.182	20442
808.324	20511
808.465	20617
808.607	20815
808.749	20842
808.891	20944
809.033	21039
809.174	20944
809.316	20853
809.458	20648
809.6	20686
809.741	20929
809.883	20979
810.025	21032
810.166	20963
810.308	21001
810.45	20883
810.591	20842
810.733	20670
810.875	20560
811.016	20609
811.158	20522
811.299	20636
811.441	20773
811.582	20735
811.724	20648
811.865	20549
812.007	20518
812.148	20549
812.29	20636
812.431	20754
812.573	20906
812.714	20952
812.855	21142
812.997	21146
813.138	21279
813.279	21176
813.421	21112
813.562	21039
813.703	20918
813.845	20724
813.986	20625
814.127	20347
814.268	20134
814.41	20176
814.551	20005
814.692	20206
814.833	20073
814.974	20069
815.115	20191
815.256	19982
815.397	19986
815.539	20077
815.68	19982
815.821	19864
815.962	19894
816.103	19871
816.244	19727
816.385	19666
816.526	19628
816.666	19365
816.807	19225
816.948	19266
817.089	19422
817.23	19304
817.371	19225
817.512	19202
817.653	19339
817.793	19232
817.934	19202
818.075	19266
818.216	19240
818.356	19209
818.497	19084
818.638	18901
818.778	18890
818.919	19012
819.06	18958
819.2	19110
819.341	19175
819.481	19175
819.622	19297
819.762	19381
819.903	19415
820.043	19263
820.184	19209
820.324	19206
820.465	19369
820.605	19282
820.746	19213
820.886	19034
821.026	19168
821.167	19236
821.307	19274
821.447	19240
821.588	19099
821.728	19000
821.868	18768
822.008	18623
822.149	18597
822.289	18635
822.429	18506
822.569	18338
822.709	18422
822.849	18224
822.99	18201
823.13	18258
823.27	18121
823.41	18095
823.55	17965
823.69	17927
823.83	17866
823.97	17893
824.11	17832
824.25	17771
824.389	17707
824.529	17737
824.669	17817
824.809	17813
824.949	17737
825.089	17779
825.228	17771
825.368	17585
825.508	17501
825.648	17532
825.787	17615
825.927	17554
826.067	17516
826.206	17474
826.346	17539
826.485	17566
826.625	17528
826.765	17672
826.904	17452
827.044	17223
827.183	17326
827.323	17181
827.462	17280
827.601	17345
827.741	17181
827.88	17410
828.02	17060
828.159	17216
828.298	17265
828.437	17246
828.577	17311
828.716	17414
828.855	17242
828.994	16949
829.134	17018
829.273	17064
829.412	16938
829.551	16889
829.69	17018
829.829	16999
829.968	17064
830.107	17075
830.246	17094
830.385	17022
830.524	16930
830.663	16858
830.802	16710
830.941	16497
831.08	16599
831.219	16725
831.357	16653
831.496	16934
831.635	16550
831.774	16580
831.913	16573
832.051	16440
832.19	16398
832.329	16402
832.467	16379
832.606	16360
832.744	16242
832.883	16287
833.022	16246
833.16	16318
833.299	16428
833.437	16367
833.576	16379
833.714	16230
833.852	16432
833.991	16462
834.129	16561
834.267	16478
834.406	16386
834.544	16417
834.682	16531
834.821	16348
834.959	16618
835.097	16322
835.235	16424
835.373	16409
835.511	16481
835.65	16386
835.788	16356
835.926	16211
836.064	16055
836.202	16249
836.34	16257
836.478	16329
836.615	16356
836.753	16379
836.891	16398
837.029	16272
837.167	16249
837.305	16402
837.443	16188
837.58	16177
837.718	16295
837.856	16196
837.993	16090
838.131	16207
838.269	16128
838.406	16188
838.544	16029
838.681	15926
838.819	15857
838.956	15709
839.094	15690
839.231	15751
839.369	15854
839.506	16135
839.643	16013
839.781	15701
839.918	15739
840.055	15701
840.193	15762
840.33	15690
840.467	15766
840.604	15732
840.742	15972
840.879	15625
841.016	15671
841.153	15603
841.29	15922
841.427	15816
841.564	15743
841.701	15720
841.838	15797
841.975	15701
842.112	15690
842.249	15507
842.385	15526
842.522	15652
842.659	15545
842.796	15488
842.933	15435
843.069	15458
843.206	15462
843.343	15564
843.479	15545
843.616	15530
843.752	15378
843.889	15264
844.025	15462
844.162	15313
844.298	15401
844.435	15401
844.571	15169
844.708	15332
844.844	15561
844.98	15477
845.117	15401
845.253	15336
845.389	15119
845.525	15275
845.661	15161
845.798	15093
845.934	15252
846.07	15058
846.206	15154
846.342	15260
846.478	15150
846.614	14902
846.75	14910
846.886	14880
847.022	14986
847.158	14838
847.294	14845
847.429	14944
847.565	14929
847.701	15142
847.837	14693
847.972	14617
848.108	14632
848.244	14632
848.379	14469
848.515	14503
848.65	14415
848.786	14495
848.921	14503
849.057	14644
849.192	14575
849.328	14503
849.463	14423
849.598	14514
849.734	14484
849.869	14377
850.004	14278
850.14	14324
850.275	14263
850.41	14195
850.545	14180
850.68	14221
850.815	14202
850.95	14263
851.085	14427
851.22	14374
851.355	14339
851.49	14290
851.625	14187
851.76	14153
851.895	14142
852.03	14164
852.165	14229
852.299	14233
852.434	14305
852.569	14294
852.703	14256
852.838	14282
852.973	14317
853.107	14427
853.242	14278
853.376	14176
853.511	13967
853.645	14016
853.78	14202
853.914	14229
854.048	14092
854.183	14149
854.317	14103
854.451	14267
854.585	14134
854.72	14039
854.854	14202
854.988	14027
855.122	14073
855.256	14005
855.39	14138
855.524	14278
855.658	14214
855.792	14062
855.926	14130
856.06	14142
856.194	14225
856.327	14145
856.461	14020
856.595	14069
856.729	14084
856.862	14210
856.996	14062
857.13	14145
857.263	14180
857.397	14267
857.53	14081
857.664	14134
857.797	14237
857.931	14237
858.064	14225
858.197	14275
858.331	14176
858.464	14096
858.597	13947
858.731	14180
858.864	14161
858.997	14069
859.13	14168
859.263	14199
859.396	14237
859.529	14092
859.662	14134
859.795	14111
859.928	14130
860.061	14229
860.194	14256
860.327	14172
860.46	14183
860.592	14218
860.725	14161
860.858	14202
860.99	14005
861.123	14073
861.256	14020
861.388	14115
861.521	14948
861.653	14005
861.786	13959
861.918	14005
862.05	14065
862.183	14065
862.315	14119
862.447	14126
862.58	14058
862.712	13951
862.844	13837
862.976	14039
863.108	13925
863.24	14278
863.372	13837
863.504	13898
863.636	13944
863.768	13944
863.9	13925
864.032	13913
864.164	13875
864.296	13963
864.428	13982
864.559	14054
864.691	14050
864.823	14012
864.954	13955
865.086	13955
865.217	13925
865.349	13811
865.48	13833
865.612	13883
865.743	14039
865.875	13871
866.006	13856
866.137	13887
866.269	13879
866.4	13887
866.531	13822
866.662	13757
866.793	13894
866.924	13894
867.055	13932
867.186	13837
867.317	13799
867.448	13769
867.579	13837
867.71	13765
867.841	13784
867.972	13868
868.103	13898
868.233	13963
868.364	13974
868.495	13852
868.625	14069
868.756	14275
868.886	14073
869.017	14138
869.147	14218
869.278	14313
869.408	14126
869.539	14126
869.669	14256
869.799	14218
869.929	14233
870.06	14164
870.19	14454
870.32	14328
870.45	14484
870.58	14530
870.71	14644
870.84	14674
870.97	14541
871.1	14476
871.23	14826
871.36	14712
871.489	14701
871.619	14655
871.749	14785
871.879	14689
872.008	14762
872.138	14644
872.267	14758
872.397	14625
872.526	14712
872.656	14610
872.785	14571
872.915	14800
873.044	14826
873.173	14807
873.303	14830
873.432	14842
873.561	14811
873.69	14823
873.819	14819
873.948	14906
874.077	14788
874.206	14762
874.335	14739
874.464	14975
874.593	15089
874.722	15055
874.851	15131
874.979	15138
875.108	15192
875.237	15058
875.365	14982
875.494	15066
875.623	15127
875.751	15089
875.88	15207
876.008	15287
876.136	15370
876.265	15545
876.393	15705
876.521	15633
876.65	15633
876.778	15603
876.906	15488
877.034	15485
877.162	15488
877.29	15431
877.418	15603
877.546	15534
877.674	15454
877.802	15564
877.93	15515
878.058	15507
878.185	15405
878.313	15477
878.441	15428
878.568	15405
878.696	15443
878.824	15568
878.951	15530
879.079	15690
879.206	15888
879.333	15679
879.461	15545
879.588	15705
879.715	15781
879.842	15781
879.97	15694
880.097	15367
880.224	15344
880.351	15405
880.478	15363
880.605	15317
880.732	15348
880.859	15667
880.986	15389
881.112	15306
881.239	15154
881.366	15161
881.493	15173
881.619	15119
881.746	15116
881.872	14948
881.999	14998
882.125	15017
882.252	15127
882.378	15062
882.505	15169
882.631	14960
882.757	14857
882.883	14929
883.01	14918
883.136	14777
883.262	14701
883.388	14655
883.514	14838
883.64	14876
883.766	14743
883.892	14727
884.018	14705
884.143	14921
884.269	14872
884.395	14667
884.52	14541
884.646	14663
884.772	14434
884.897	14400
885.023	14556
885.148	14640
885.274	14872
885.399	14682
885.524	14564
885.65	14617
885.775	14667
885.9	14549
886.025	14659
886.15	14610
886.275	14476
886.4	14454
886.525	14473
886.65	14457
886.775	14469
886.9	14670
887.025	14735
887.149	14571
887.274	14450
887.399	14385
887.523	14396
887.648	14240
887.773	14404
887.897	14454
888.021	14393
888.146	14324
888.27	14552
888.395	14560
888.519	14423
888.643	14533
888.767	14431
888.891	14347
889.015	14313
889.139	14324
889.263	14240
889.387	14389
889.511	14419
889.635	14473
889.759	14237
889.883	14176
890.006	14355
890.13	14370
890.254	14218
890.377	14233
890.501	14134
890.624	14005
890.748	14145
890.871	13986
890.995	13917
891.118	13883
891.241	14024
891.364	13967
891.488	14092
891.611	13921
891.734	14024
891.857	14016
891.98	14024
892.103	13997
892.226	13967
892.349	13909
892.471	13845
892.594	13894
892.717	13993
892.839	13940
892.962	13940
893.085	13982
893.207	13879
893.33	13932
893.452	13909
893.575	14084
893.697	13932
893.819	14195
893.941	14149
894.064	14123
894.186	13868
894.308	13864
894.43	14069
894.552	14153
894.674	14134
894.796	13868
894.918	14016
895.04	14031
895.161	14157
895.283	14005
895.405	14035
895.526	14081
895.648	14145
895.769	14043
895.891	14172
896.012	14206
896.134	14183
896.255	14096
896.376	14050
896.498	14081
896.619	14202
896.74	14149
896.861	14240
896.982	14484
897.103	14552
897.224	14431
897.345	14400
897.466	14400
897.587	14332
897.708	14507
897.828	14412
897.949	14339
898.07	14240
898.19	14454
898.311	14526
898.431	14450
898.552	14473
898.672	14552
898.792	14476
898.913	14522
899.033	14434
899.153	14275
899.273	14259
899.393	14221
899.513	14317
899.633	14423
899.753	14301
899.873	14336
899.993	14450
900.113	14366
900.232	14267
900.352	14339
900.472	14256
900.591	14191
900.711	14290
900.83	14149
900.95	14347
901.069	14278
901.189	14111
901.308	13894
901.427	13864
901.546	13932
901.665	13845
901.784	13864
901.904	13761
902.023	13723
902.141	13533
902.26	13559
902.379	13453
902.498	13426
902.617	13426
902.735	13476
902.854	13388
902.973	13422
903.091	13198
903.21	13080
903.328	13198
903.446	13069
903.565	13110
903.683	13099
903.801	12920
903.919	12962
904.038	12947
904.156	12795
904.274	12886
904.392	12734
904.51	12814
904.627	12852
904.745	12913
904.863	12852
904.981	12722
905.098	12604
905.216	12479
905.334	12513
905.451	12528
905.569	12547
905.686	12589
905.803	12578
905.921	12319
906.038	12464
906.155	12380
906.272	12277
906.389	12235
906.506	12072
906.623	12182
906.74	12121
906.857	12106
906.974	12114
907.091	12117
907.208	12311
907.324	12216
907.441	12030
907.557	11999
907.674	11923
907.79	11783
907.907	11882
908.023	11916
908.139	11847
908.256	11821
908.372	11729
908.488	11775
908.604	11619
908.72	11577
908.836	11642
908.952	11608
909.068	11680
909.184	11771
909.3	11638
909.415	11688
909.531	11661
909.647	11440
909.762	11387
909.878	11315
909.993	11463
910.108	11395
910.224	11284
910.339	11376
910.454	11315
910.57	11258
910.685	11185
910.8	11471
910.915	11364
911.03	11326
911.145	11140
911.259	11086
911.374	11181
911.489	11037
911.604	11033
911.718	10881
911.833	10843
911.947	10824
912.062	10771
912.176	10759
912.291	10866
912.405	10889
912.519	11102
912.633	11128
912.748	10934
912.862	10801
912.976	10831
913.09	10664
913.204	10740
913.318	10797
913.431	10839
913.545	10850
913.659	10812
913.772	10740
913.886	10668
914	10637
914.113	10774
914.226	10698
914.34	10710
914.453	10577
914.566	10755
914.68	10615
914.793	10573
914.906	10314
915.019	10348
915.132	10246
915.245	10352
915.358	10371
915.47	10413
915.583	10443
915.696	10508
915.809	10538
915.921	10554
916.034	10371
916.146	10325
916.259	10325
916.371	10443
916.483	10421
916.595	10379
916.708	10325
916.82	10367
916.932	10249
917.044	10299
917.156	10257
917.268	10200
917.38	10188
917.491	10139
917.603	10196
917.715	10230
917.826	10314
917.938	10185
918.049	10078
918.161	10177
918.272	10398
918.384	10363
918.495	10242
918.606	10124
918.717	9968
918.828	10116
918.939	10063
919.05	10036
919.161	10101
919.272	9937
919.383	9987
919.494	10063
919.604	10337
919.715	10173
919.826	9991
919.936	10063
920.047	10135
920.157	10196
920.267	10394
920.378	10234
920.488	10131
920.598	10318
920.708	10405
920.818	10272
920.928	10314
921.038	10409
921.148	10428
921.258	10177
921.368	10181
921.477	10002
921.587	9915
921.697	9873
921.806	10029
921.916	9808
922.025	9720
922.134	9743
922.244	9618
922.353	9698
922.462	9584
922.571	9462
922.68	9428
922.789	9374
922.898	9389
923.007	9268
923.116	9386
923.224	9325
923.333	9321
923.442	9241
923.55	9264
923.659	9249
923.767	9355
923.876	9161
923.984	9279
924.092	9123
924.201	9211
924.309	9253
924.417	9272
924.525	9256
924.633	9268
924.741	9979
924.849	8910
924.956	9203
925.064	9055
925.172	8990
925.279	8998
925.387	9051
925.494	9070
925.602	9108
925.709	9123
925.816	9009
925.924	9066
926.031	9074
926.138	8971
926.245	9058
926.352	8906
926.459	9058
926.566	9093
926.673	9009
926.779	8883
926.886	8914
926.993	8788
927.099	8701
927.206	8663
927.312	8743
927.419	8811
927.525	8800
927.631	8792
927.737	8724
927.843	8689
927.95	8560
928.056	8636
928.162	8655
928.267	8712
928.373	9176
928.479	8712
928.585	8541
928.69	8686
928.796	8724
928.901	8492
929.007	8434
929.112	8590
929.218	8556
929.323	8480
929.428	8499
929.533	8571
929.638	8412
929.743	8400
929.848	8537
929.953	8484
930.058	8347
930.163	8221
930.267	8271
930.372	8358
930.477	8176
930.581	8408
930.685	8339
930.79	8195
930.894	8221
930.998	8168
931.103	8309
931.207	7936
931.311	7917
931.415	7879
931.519	7670
931.623	7689
