Data from test_V78500241_832.txt Node
Date: Fri Mar 25 14:39:30 CST 2022
User: usil
Spectrometer: V785-0024
Trigger mode: 0
Integration Time (sec): 4.000000E-1
Scans to average: 1
Nonlinearity correction enabled: false
Boxcar width: 0
Storing dark spectrum: false
XAxis mode: Wavelengths
Number of Pixels in Spectrum: 1024
>>>>>Begin Spectral Data<<<<<
801.071	26111
801.214	26031
801.356	25715
801.499	25582
801.641	25544
801.783	25453
801.926	25476
802.068	25426
802.211	25202
802.353	25190
802.496	25122
802.638	25034
802.78	24977
802.923	24867
803.065	24916
803.208	24856
803.35	24928
803.492	24928
803.635	25126
803.777	25019
803.919	25053
804.061	25270
804.204	25038
804.346	24943
804.488	25019
804.63	24996
804.773	24924
804.915	25023
805.057	25240
805.199	25232
805.341	25221
805.483	25400
805.626	25529
805.768	25430
805.91	25377
806.052	25578
806.194	25514
806.336	25868
806.478	25814
806.62	25959
806.762	26187
806.904	26469
807.046	27058
807.188	27005
807.33	27294
807.472	27637
807.614	28029
807.756	28675
807.898	29353
808.04	30494
808.182	31708
808.324	33264
808.465	35166
808.607	37247
808.749	39241
808.891	40356
809.033	40375
809.174	39154
809.316	37396
809.458	35280
809.6	33085
809.741	31225
809.883	30091
810.025	29166
810.166	28401
810.308	28013
810.45	27435
810.591	27249
810.733	26727
810.875	26533
811.016	26381
811.158	26073
811.299	26134
811.441	26100
811.582	25925
811.724	25590
811.865	25616
812.007	25639
812.148	25696
812.29	25544
812.431	25715
812.573	25731
812.714	25807
812.855	25868
812.997	25898
813.138	26077
813.279	25959
813.421	25746
813.562	25632
813.703	25685
813.845	25331
813.986	25118
814.127	24924
814.268	24814
814.41	24692
814.551	24886
814.692	24738
814.833	24585
814.974	24589
815.115	24498
815.256	24498
815.397	24460
815.539	24426
815.68	24361
815.821	24186
815.962	24186
816.103	24319
816.244	24197
816.385	24083
816.526	23977
816.666	23760
816.807	23649
816.948	23741
817.089	23809
817.23	23745
817.371	23726
817.512	23668
817.653	23436
817.793	23543
817.934	23547
818.075	23718
818.216	23570
818.356	23562
818.497	23410
818.638	23136
818.778	23227
818.919	23296
819.06	23311
819.2	23299
819.341	23501
819.481	23539
819.622	23440
819.762	23767
819.903	23653
820.043	23726
820.184	23406
820.324	23349
820.465	23520
820.605	23467
820.746	23341
820.886	23239
821.026	23299
821.167	23315
821.307	23398
821.447	23341
821.588	23265
821.728	23098
821.868	22984
822.008	22831
822.149	22698
822.289	22740
822.429	22470
822.569	22497
822.709	22360
822.849	22257
822.99	22147
823.13	22143
823.27	22116
823.41	21968
823.55	21857
823.69	22017
823.83	22048
823.97	21956
824.11	21736
824.25	21705
824.389	21774
824.529	21679
824.669	21732
824.809	21819
824.949	21755
825.089	21857
825.228	21835
825.368	21526
825.508	21530
825.648	21591
825.787	21561
825.927	21614
826.067	21428
826.206	21606
826.346	21595
826.485	21580
826.625	21542
826.765	21519
826.904	21526
827.044	21313
827.183	21260
827.323	21226
827.462	21275
827.601	21138
827.741	21203
827.88	21249
828.02	21119
828.159	21085
828.298	21138
828.437	21264
828.577	20986
828.716	21249
828.855	21039
828.994	20902
829.134	20906
829.273	20921
829.412	20891
829.551	20826
829.69	21036
829.829	20929
829.968	20872
830.107	20925
830.246	20746
830.385	20746
830.524	20697
830.663	20640
830.802	20621
830.941	20598
831.08	20381
831.219	20537
831.357	20514
831.496	20659
831.635	20465
831.774	20423
831.913	20343
832.051	20366
832.19	20309
832.329	20347
832.467	20290
832.606	20191
832.744	20256
832.883	20271
833.022	20275
833.16	20431
833.299	20537
833.437	20644
833.576	20693
833.714	20781
833.852	21051
833.991	20906
834.129	21093
834.267	21108
834.406	20807
834.544	20906
834.682	20861
834.821	20785
834.959	20902
835.097	20621
835.235	20533
835.373	20457
835.511	20278
835.65	20202
835.788	20168
835.926	20081
836.064	19928
836.202	19856
836.34	20096
836.478	20103
836.615	20012
836.753	20046
836.891	20126
837.029	20134
837.167	19925
837.305	19936
837.443	19826
837.58	19864
837.718	19871
837.856	19894
837.993	19814
838.131	19894
838.269	19742
838.406	19693
838.544	19632
838.681	19491
838.819	19457
838.956	19388
839.094	19411
839.231	19324
839.369	19411
839.506	19571
839.643	19597
839.781	19244
839.918	19110
840.055	19247
840.193	19171
840.33	19042
840.467	19179
840.604	19156
840.742	19460
840.879	19099
841.016	19118
841.153	19076
841.29	19392
841.427	19255
841.564	19316
841.701	19308
841.838	19202
841.975	19141
842.112	19187
842.249	19038
842.385	18993
842.522	19221
842.659	19069
842.796	18920
842.933	18970
843.069	19061
843.206	18924
843.343	19129
843.479	19137
843.616	19118
843.752	18947
843.889	18954
844.025	19183
844.162	19057
844.298	19190
844.435	19274
844.571	19266
844.708	19601
844.844	19871
844.98	20100
845.117	20423
845.253	21066
845.389	22067
845.525	24285
845.661	27724
845.798	32111
845.934	35649
846.07	36916
846.206	36391
846.342	33504
846.478	29124
846.614	25240
846.75	22538
846.886	21100
847.022	20172
847.158	19651
847.294	19228
847.429	19053
847.565	18856
847.701	19046
847.837	18452
847.972	18262
848.108	18445
848.244	18452
848.379	18133
848.515	18053
848.65	17942
848.786	18129
848.921	17927
849.057	18102
849.192	18117
849.328	17980
849.463	17984
849.598	18034
849.734	17843
849.869	17832
850.004	17619
850.14	17741
850.275	17729
850.41	17665
850.545	17661
850.68	17554
850.815	17790
850.95	17665
851.085	17786
851.22	17718
851.355	17703
851.49	17745
851.625	17592
851.76	17520
851.895	17532
852.03	17482
852.165	17554
852.299	17649
852.434	17722
852.569	17619
852.703	17726
852.838	17870
852.973	17790
853.107	17783
853.242	17646
853.376	17585
853.511	17558
853.645	17623
853.78	17794
853.914	17767
854.048	17745
854.183	17756
854.317	17726
854.451	17961
854.585	17710
854.72	17840
854.854	17794
854.988	17687
855.122	17638
855.256	17474
855.39	17623
855.524	17748
855.658	17691
855.792	17668
855.926	17665
856.06	17547
856.194	17596
856.327	17589
856.461	17547
856.595	17509
856.729	17482
856.862	17634
856.996	17596
857.13	17497
857.263	17520
857.397	17562
857.53	17440
857.664	17551
857.797	17452
857.931	17493
858.064	17600
858.197	17592
858.331	17421
858.464	17410
858.597	17334
858.731	17474
858.864	17395
858.997	17402
859.13	17391
859.263	17410
859.396	17452
859.529	17402
859.662	17296
859.795	17448
859.928	17402
860.061	17539
860.194	17490
860.327	17410
860.46	17360
860.592	17478
860.725	17452
860.858	17444
860.99	17364
861.123	17254
861.256	17318
861.388	17349
861.521	17779
861.653	17288
861.786	17086
861.918	17273
862.05	17231
862.183	17200
862.315	17349
862.447	17299
862.58	17265
862.712	17098
862.844	17079
862.976	17124
863.108	17132
863.24	17417
863.372	17071
863.504	17113
863.636	17109
863.768	17147
863.9	17022
864.032	16999
864.164	17018
864.296	17033
864.428	17136
864.559	17208
864.691	17083
864.823	17056
864.954	17041
865.086	17105
865.217	17048
865.349	16915
865.48	16976
865.612	16908
865.743	17151
865.875	17037
866.006	17067
866.137	17060
866.269	16999
866.4	16953
866.531	16961
866.662	16900
866.793	16980
866.924	17025
867.055	17052
867.186	16892
867.317	16972
867.448	16858
867.579	16869
867.71	16858
867.841	16866
867.972	16934
868.103	17029
868.233	17022
868.364	17048
868.495	17189
868.625	17174
868.756	17322
868.886	17086
869.017	17216
869.147	17334
869.278	17299
869.408	17223
869.539	17261
869.669	17322
869.799	17303
869.929	17368
870.06	17501
870.19	17566
870.32	17520
870.45	17577
870.58	17707
870.71	17779
870.84	17840
870.97	17684
871.1	17687
871.23	17866
871.36	17870
871.489	17775
871.619	17950
871.749	17874
871.879	17931
872.008	18026
872.138	17863
872.267	17897
872.397	17866
872.526	17882
872.656	17832
872.785	17866
872.915	17999
873.044	18003
873.173	17923
873.303	18068
873.432	18102
873.561	18251
873.69	18148
873.819	18209
873.948	18213
874.077	18068
874.206	18072
874.335	18060
874.464	18384
874.593	18509
874.722	18509
874.851	18494
874.979	18525
875.108	18593
875.237	18578
875.365	18433
875.494	18528
875.623	18802
875.751	18806
875.88	18791
876.008	18707
876.136	18909
876.265	19190
876.393	19369
876.521	19354
876.65	19358
876.778	19346
876.906	19221
877.034	19335
877.162	19407
877.29	19381
877.418	19544
877.546	19575
877.674	19624
877.802	19769
877.93	19689
878.058	19906
878.185	19879
878.313	20233
878.441	20518
878.568	20583
878.696	20971
878.824	21496
878.951	22261
879.079	23360
879.206	24623
879.333	25966
879.461	27055
879.588	27705
879.715	27789
879.842	27363
879.97	25966
880.097	24494
880.224	23353
880.351	22672
880.478	22112
880.605	21625
880.732	21625
880.859	21500
880.986	21245
881.112	21142
881.239	21028
881.366	20800
881.493	20697
881.619	20769
881.746	20792
881.872	20781
881.999	20785
882.125	20804
882.252	20887
882.378	20895
882.505	21036
882.631	20796
882.757	20754
882.883	20800
883.01	20716
883.136	20609
883.262	20488
883.388	20594
883.514	20682
883.64	20663
883.766	20587
883.892	20514
884.018	20488
884.143	20667
884.269	20754
884.395	20511
884.52	20396
884.646	20278
884.772	20423
884.897	20374
885.023	20332
885.148	20366
885.274	20564
885.399	20320
885.524	20126
885.65	20195
885.775	20077
885.9	19982
886.025	19936
886.15	19849
886.275	19753
886.4	19590
886.525	19510
886.65	19403
886.775	19362
886.9	19438
887.025	19514
887.149	19282
887.274	19110
887.399	18897
887.523	18814
887.648	18783
887.773	18757
887.897	18719
888.021	18852
888.146	18570
888.27	18612
888.395	18646
888.519	18502
888.643	18566
888.767	18502
888.891	18479
889.015	18270
889.139	18353
889.263	18209
889.387	18266
889.511	18300
889.635	18327
889.759	18155
889.883	18148
890.006	18034
890.13	18197
890.254	17965
890.377	17935
890.501	17794
890.624	17809
890.748	17786
890.871	17642
890.995	17581
891.118	17512
891.241	17471
891.364	17478
891.488	17570
891.611	17566
891.734	17471
891.857	17570
891.98	17467
892.103	17505
892.226	17551
892.349	17337
892.471	17296
892.594	17231
892.717	17334
892.839	17315
892.962	17398
893.085	17368
893.207	17254
893.33	17216
893.452	17033
893.575	17162
893.697	17185
893.819	17277
893.941	17258
894.064	17376
894.186	17060
894.308	16984
894.43	17105
894.552	17227
894.674	17098
894.796	17014
894.918	16991
895.04	17041
895.161	17022
895.283	17083
895.405	16949
895.526	16991
895.648	17060
895.769	17079
895.891	17033
896.012	17052
896.134	17064
896.255	16980
896.376	16934
896.498	17064
896.619	17147
896.74	17006
896.861	17048
896.982	17402
897.103	17448
897.224	17250
897.345	17159
897.466	17033
897.587	17220
897.708	17379
897.828	17258
897.949	17235
898.07	17037
898.19	17193
898.311	17307
898.431	17064
898.552	17200
898.672	17197
898.792	17303
898.913	17311
899.033	17193
899.153	17056
899.273	16904
899.393	17102
899.513	17010
899.633	17052
899.753	17075
899.873	17033
899.993	17018
900.113	17060
900.232	17086
900.352	17060
900.472	16991
900.591	16911
900.711	16919
900.83	16843
900.95	16976
901.069	16908
901.189	16717
901.308	16607
901.427	16478
901.546	16432
901.665	16398
901.784	16542
901.904	16348
902.023	16268
902.141	16105
902.26	16021
902.379	16013
902.498	15960
902.617	15918
902.735	15983
902.854	15949
902.973	15861
903.091	15690
903.21	15629
903.328	15599
903.446	15644
903.565	15412
903.683	15473
903.801	15344
903.919	15393
904.038	15408
904.156	15218
904.274	15291
904.392	15207
904.51	15146
904.627	15138
904.745	15272
904.863	15218
904.981	15108
905.098	14857
905.216	14899
905.334	14880
905.451	14819
905.569	14807
905.686	14887
905.803	14807
905.921	14701
906.038	14853
906.155	14644
906.272	14465
906.389	14613
906.506	14393
906.623	14442
906.74	14423
906.857	14275
906.974	14210
907.091	14408
907.208	14530
907.324	14396
907.441	14275
907.557	14065
907.674	14092
907.79	13959
907.907	14096
908.023	14073
908.139	14134
908.256	14084
908.372	14043
908.488	14024
908.604	13909
908.72	13693
908.836	13833
908.952	13883
909.068	13856
909.184	13845
909.3	13879
909.415	13833
909.531	13753
909.647	13616
909.762	13582
909.878	13514
909.993	13571
910.108	13601
910.224	13597
910.339	13594
910.454	13476
910.57	13381
910.685	13244
910.8	13548
910.915	13491
911.03	13365
911.145	13175
911.259	13270
911.374	13225
911.489	13137
911.604	13080
911.718	12962
911.833	12951
911.947	12806
912.062	12703
912.176	12928
912.291	12977
912.405	12943
912.519	13183
912.633	13171
912.748	12951
912.862	12848
912.976	12776
913.09	12741
913.204	12783
913.318	12779
913.431	12970
913.545	12913
913.659	12779
913.772	12947
913.886	12616
914	12597
914.113	12802
914.226	12848
914.34	12779
914.453	12506
914.566	12711
914.68	12623
914.793	12555
914.906	12506
915.019	12338
915.132	12285
915.245	12277
915.358	12407
915.47	12433
915.583	12330
915.696	12346
915.809	12570
915.921	12574
916.034	12407
916.146	12372
916.259	12315
916.371	12490
916.483	12388
916.595	12300
916.708	12308
916.82	12327
916.932	12311
917.044	12277
917.156	12228
917.268	12159
917.38	12194
917.491	12098
917.603	12205
917.715	12262
917.826	12190
917.938	12110
918.049	12072
918.161	12136
918.272	12194
918.384	12251
918.495	12007
918.606	11889
918.717	11916
918.828	11958
918.939	11965
919.05	11870
919.161	11908
919.272	11718
919.383	11764
919.494	12019
919.604	12106
919.715	11885
919.826	11874
919.936	11897
920.047	12049
920.157	11973
920.267	12095
920.378	11996
920.488	11863
920.598	12098
920.708	12270
920.818	12133
920.928	12030
921.038	12228
921.148	12213
921.258	11901
921.368	11805
921.477	11745
921.587	11741
921.697	11551
921.806	11649
921.916	11554
922.025	11467
922.134	11459
922.244	11360
922.353	11448
922.462	11235
922.571	11254
922.68	11064
922.789	11003
922.898	11109
923.007	11006
923.116	11094
923.224	11109
923.333	11071
923.442	10915
923.55	10915
923.659	10881
923.767	11037
923.876	10866
923.984	10999
924.092	10744
924.201	10862
924.309	10824
924.417	10900
924.525	10744
924.633	10782
924.741	11722
924.849	10584
924.956	10763
925.064	10664
925.172	10554
925.279	10630
925.387	10630
925.494	10603
925.602	10839
925.709	10694
925.816	10531
925.924	10656
926.031	10683
926.138	10596
926.245	10653
926.352	10542
926.459	10630
926.566	10649
926.673	10565
926.779	10443
926.886	10356
926.993	10295
927.099	10227
927.206	10242
927.312	10154
927.419	10287
927.525	10291
927.631	10318
927.737	10105
927.843	10147
927.95	10032
928.056	10044
928.162	10215
928.267	10188
928.373	10805
928.479	10230
928.585	9964
928.69	10116
928.796	10048
928.901	9994
929.007	9983
929.112	9998
929.218	10059
929.323	9930
929.428	9907
929.533	10082
929.638	9869
929.743	9823
929.848	10013
929.953	9808
930.058	9789
930.163	9637
930.267	9622
930.372	9736
930.477	9633
930.581	9892
930.685	9728
930.79	9641
930.894	9599
930.998	9507
931.103	9644
931.207	9351
931.311	9268
931.415	9287
931.519	8975
931.623	9001
