Data from test_V78500241_138.txt Node
Date: Fri Mar 25 14:34:41 CST 2022
User: usil
Spectrometer: V785-0024
Trigger mode: 0
Integration Time (sec): 4.000000E-1
Scans to average: 1
Nonlinearity correction enabled: false
Boxcar width: 0
Storing dark spectrum: false
XAxis mode: Wavelengths
Number of Pixels in Spectrum: 1024
>>>>>Begin Spectral Data<<<<<
801.071	30167
801.214	30102
801.356	29912
801.499	29843
801.641	29596
801.783	29551
801.926	29668
802.068	29444
802.211	29455
802.353	29402
802.496	29261
802.638	29200
802.78	29216
802.923	29117
803.065	29140
803.208	28999
803.35	29151
803.492	29174
803.635	29246
803.777	29265
803.919	29356
804.061	29478
804.204	29417
804.346	29307
804.488	29277
804.63	29299
804.773	29368
804.915	29448
805.057	29566
805.199	29501
805.341	29668
805.483	29794
805.626	29748
805.768	29653
805.91	29733
806.052	29832
806.194	29817
806.336	30304
806.478	30117
806.62	30201
806.762	30445
806.904	30760
807.046	31236
807.188	31388
807.33	31734
807.472	32126
807.614	32457
807.756	32868
807.898	33488
808.04	34588
808.182	35756
808.324	37323
808.465	39176
808.607	41223
808.749	42802
808.891	43841
809.033	43875
809.174	42738
809.316	41075
809.458	38872
809.6	37008
809.741	35589
809.883	34223
810.025	33435
810.166	32686
810.308	32305
810.45	31978
810.591	31476
810.733	31076
810.875	30928
811.016	30654
811.158	30555
811.299	30635
811.441	30365
811.582	30502
811.724	30323
811.865	30300
812.007	30133
812.148	30098
812.29	30053
812.431	30197
812.573	30262
812.714	30232
812.855	30311
812.997	30536
813.138	30593
813.279	30380
813.421	30251
813.562	30197
813.703	30167
813.845	30038
813.986	29589
814.127	29398
814.268	29387
814.41	29170
814.551	29303
814.692	29322
814.833	29220
814.974	29208
815.115	29105
815.256	28961
815.397	29003
815.539	28892
815.68	28858
815.821	28824
815.962	28774
816.103	28866
816.244	28698
816.385	28592
816.526	28565
816.666	28424
816.807	28185
816.948	28299
817.089	28268
817.23	28143
817.371	28029
817.512	28074
817.653	28040
817.793	28143
817.934	28139
818.075	28131
818.216	28173
818.356	28109
818.497	28006
818.638	27762
818.778	27720
818.919	27709
819.06	27827
819.2	27861
819.341	27838
819.481	27884
819.622	28048
819.762	28306
819.903	28265
820.043	28090
820.184	28090
820.324	27972
820.465	28013
820.605	27873
820.746	27964
820.886	27766
821.026	27945
821.167	27884
821.307	27873
821.447	27797
821.588	27637
821.728	27504
821.868	27272
822.008	27306
822.149	27127
822.289	27142
822.429	26952
822.569	26971
822.709	26800
822.849	26560
822.99	26602
823.13	26629
823.27	26492
823.41	26457
823.55	26366
823.69	26480
823.83	26400
823.97	26446
824.11	26202
824.25	26122
824.389	26233
824.529	26206
824.669	26142
824.809	26305
824.949	26248
825.089	26267
825.228	26126
825.368	26062
825.508	25932
825.648	25928
825.787	25997
825.927	26103
826.067	25959
826.206	25944
826.346	25978
826.485	25978
826.625	25963
826.765	26058
826.904	26050
827.044	25727
827.183	25738
827.323	25601
827.462	25635
827.601	25453
827.741	25666
827.88	25548
828.02	25468
828.159	25639
828.298	25422
828.437	25495
828.577	25529
828.716	25742
828.855	25472
828.994	25388
829.134	25266
829.273	25270
829.412	25236
829.551	25221
829.69	25293
829.829	25225
829.968	25289
830.107	25285
830.246	25156
830.385	25240
830.524	25114
830.663	25076
830.802	24928
830.941	24909
831.08	24719
831.219	24856
831.357	24943
831.496	24996
831.635	24817
831.774	24840
831.913	24688
832.051	24665
832.19	24791
832.329	24692
832.467	24642
832.606	24464
832.744	24623
832.883	24544
833.022	24658
833.16	24677
833.299	24844
833.437	24806
833.576	24958
833.714	25031
833.852	25099
833.991	25217
834.129	25339
834.267	25293
834.406	25225
834.544	25175
834.682	25015
834.821	24951
834.959	25152
835.097	24768
835.235	24669
835.373	24703
835.511	24582
835.65	24505
835.788	24422
835.926	24372
836.064	24258
836.202	24262
836.34	24216
836.478	24460
836.615	24296
836.753	24289
836.891	24296
837.029	24258
837.167	24251
837.305	24125
837.443	24098
837.58	24133
837.718	24091
837.856	24068
837.993	24038
838.131	23977
838.269	24045
838.406	23973
838.544	23882
838.681	23737
838.819	23672
838.956	23410
839.094	23490
839.231	23410
839.369	23619
839.506	23775
839.643	23581
839.781	23406
839.918	23337
840.055	23307
840.193	23406
840.33	23330
840.467	23429
840.604	23254
840.742	23562
840.879	23166
841.016	23261
841.153	23296
841.29	23269
841.427	23284
841.564	23372
841.701	23277
841.838	23326
841.975	23250
842.112	23227
842.249	23109
842.385	22984
842.522	23288
842.659	23140
842.796	23132
842.933	23113
843.069	23162
843.206	22991
843.343	23189
843.479	23170
843.616	23113
843.752	22957
843.889	23117
844.025	23280
844.162	22968
844.298	23159
844.435	23197
844.571	23216
844.708	23577
844.844	23935
844.98	24011
845.117	24452
845.253	24897
845.389	25761
845.525	27846
845.661	31266
845.798	35288
845.934	38693
846.07	39876
846.206	39279
846.342	36563
846.478	32385
846.614	28820
846.75	26320
846.886	24970
847.022	24034
847.158	23463
847.294	23231
847.429	22915
847.565	22630
847.701	22797
847.837	22287
847.972	22192
848.108	22207
848.244	22310
848.379	22109
848.515	22051
848.65	21827
848.786	21949
848.921	21975
849.057	21934
849.192	21945
849.328	21941
849.463	21816
849.598	21641
849.734	21717
849.869	21686
850.004	21405
850.14	21610
850.275	21507
850.41	21515
850.545	21481
850.68	21618
850.815	21507
850.95	21530
851.085	21717
851.22	21622
851.355	21542
851.49	21496
851.625	21469
851.76	21542
851.895	21336
852.03	21367
852.165	21511
852.299	21557
852.434	21587
852.569	21599
852.703	21644
852.838	21644
852.973	21629
853.107	21583
853.242	21572
853.376	21488
853.511	21310
853.645	21530
853.78	21572
853.914	21587
854.048	21519
854.183	21500
854.317	21500
854.451	21789
854.585	21595
854.72	21557
854.854	21652
854.988	21534
855.122	21500
855.256	21317
855.39	21401
855.524	21549
855.658	21389
855.792	21367
855.926	21378
856.06	21298
856.194	21488
856.327	21272
856.461	21237
856.595	21302
856.729	21252
856.862	21405
856.996	21298
857.13	21424
857.263	21416
857.397	21378
857.53	21294
857.664	21428
857.797	21302
857.931	21283
858.064	21150
858.197	21363
858.331	21138
858.464	21169
858.597	21100
858.731	21161
858.864	21173
858.997	21188
859.13	21218
859.263	21272
859.396	21256
859.529	21077
859.662	21096
859.795	21135
859.928	21135
860.061	21218
860.194	21382
860.327	21180
860.46	21043
860.592	21321
860.725	21268
860.858	21233
860.99	21096
861.123	21070
861.256	21024
861.388	21100
861.521	21854
861.653	21013
861.786	21096
861.918	21009
862.05	21127
862.183	21074
862.315	21252
862.447	21272
862.58	21093
862.712	20906
862.844	20842
862.976	20952
863.108	20921
863.24	21195
863.372	20769
863.504	20804
863.636	20807
863.768	20887
863.9	20750
864.032	20708
864.164	20773
864.296	20750
864.428	20937
864.559	20788
864.691	20781
864.823	20815
864.954	20705
865.086	20807
865.217	20735
865.349	20659
865.48	20663
865.612	20720
865.743	20880
865.875	20804
866.006	20739
866.137	20659
866.269	20659
866.4	20689
866.531	20564
866.662	20758
866.793	20693
866.924	20609
867.055	20621
867.186	20701
867.317	20632
867.448	20492
867.579	20556
867.71	20522
867.841	20533
867.972	20651
868.103	20564
868.233	20697
868.364	20648
868.495	20743
868.625	20838
868.756	20929
868.886	20750
869.017	20815
869.147	20971
869.278	21096
869.408	20895
869.539	20971
869.669	20998
869.799	20906
869.929	21093
870.06	20975
870.19	21165
870.32	21188
870.45	21165
870.58	21184
870.71	21287
870.84	21462
870.97	21302
871.1	21211
871.23	21500
871.36	21492
871.489	21401
871.619	21473
871.749	21458
871.879	21511
872.008	21595
872.138	21576
872.267	21538
872.397	21549
872.526	21408
872.656	21424
872.785	21450
872.915	21591
873.044	21622
873.173	21694
873.303	21717
873.432	21698
873.561	21755
873.69	21694
873.819	21682
873.948	21812
874.077	21679
874.206	21671
874.335	21739
874.464	21972
874.593	22032
874.722	21930
874.851	22067
874.979	22097
875.108	22215
875.237	22048
875.365	22109
875.494	22219
875.623	22261
875.751	22150
875.88	22238
876.008	22299
876.136	22493
876.265	22782
876.393	22839
876.521	22733
876.65	22866
876.778	22774
876.906	22889
877.034	22873
877.162	22896
877.29	22949
877.418	23010
877.546	23014
877.674	23235
877.802	23197
877.93	23337
878.058	23356
878.185	23376
878.313	23771
878.441	23786
878.568	23863
878.696	24369
878.824	24848
878.951	25590
879.079	26609
879.206	27816
879.333	29212
879.461	30076
879.588	30798
879.715	30821
879.842	30395
879.97	29060
880.097	27686
880.224	26602
880.351	26031
880.478	25479
880.605	25019
880.732	24947
880.859	25000
880.986	24631
881.112	24597
881.239	24395
881.366	24270
881.493	24194
881.619	24194
881.746	24011
881.872	24186
881.999	24083
882.125	24201
882.252	24251
882.378	24209
882.505	24456
882.631	24155
882.757	24053
882.883	23969
883.01	23984
883.136	24030
883.262	23908
883.388	23802
883.514	23923
883.64	23973
883.766	23916
883.892	23855
884.018	23737
884.143	23961
884.269	23946
884.395	23809
884.52	23649
884.646	23600
884.772	23608
884.897	23558
885.023	23748
885.148	23695
885.274	23779
885.399	23623
885.524	23448
885.65	23433
885.775	23227
885.9	23269
886.025	23258
886.15	23208
886.275	22885
886.4	22801
886.525	22771
886.65	22744
886.775	22489
886.9	22744
887.025	22869
887.149	22474
887.274	22211
887.399	22295
887.523	22162
887.648	22082
887.773	21972
887.897	22086
888.021	21941
888.146	21918
888.27	22109
888.395	21991
888.519	21831
888.643	21949
888.767	21789
888.891	21644
889.015	21599
889.139	21576
889.263	21386
889.387	21538
889.511	21660
889.635	21412
889.759	21443
889.883	21241
890.006	21416
890.13	21389
890.254	21245
890.377	21165
890.501	20998
890.624	21005
890.748	21077
890.871	20727
890.995	20800
891.118	20705
891.241	20853
891.364	20731
891.488	20788
891.611	20724
891.734	20636
891.857	20678
891.98	20663
892.103	20705
892.226	20686
892.349	20701
892.471	20461
892.594	20526
892.717	20564
892.839	20507
892.962	20545
893.085	20552
893.207	20305
893.33	20271
893.452	20286
893.575	20454
893.697	20271
893.819	20377
893.941	20587
894.064	20328
894.186	20221
894.308	20210
894.43	20431
894.552	20400
894.674	20328
894.796	20081
894.918	20218
895.04	20259
895.161	20294
895.283	20172
895.405	20084
895.526	20050
895.648	20134
895.769	20199
895.891	20328
896.012	20313
896.134	20214
896.255	20092
896.376	20050
896.498	20225
896.619	20259
896.74	20206
896.861	20134
896.982	20488
897.103	20541
897.224	20404
897.345	20362
897.466	20206
897.587	20305
897.708	20400
897.828	20313
897.949	20309
898.07	20256
898.19	20157
898.311	20324
898.431	20210
898.552	20290
898.672	20259
898.792	20252
898.913	20275
899.033	20149
899.153	20168
899.273	19997
899.393	20191
899.513	20077
899.633	20054
899.753	20016
899.873	19989
899.993	20027
900.113	20001
900.232	19951
900.352	20031
900.472	19887
900.591	19757
900.711	19917
900.83	19826
900.95	19997
901.069	19936
901.189	19765
901.308	19491
901.427	19350
901.546	19358
901.665	19346
901.784	19320
901.904	19240
902.023	19133
902.141	18886
902.26	18852
902.379	18954
902.498	18779
902.617	18711
902.735	18852
902.854	18776
902.973	18798
903.091	18563
903.21	18467
903.328	18525
903.446	18388
903.565	18155
903.683	18270
903.801	18163
903.919	18228
904.038	18102
904.156	18019
904.274	18064
904.392	17923
904.51	17885
904.627	17931
904.745	18049
904.863	18022
904.981	17775
905.098	17592
905.216	17657
905.334	17661
905.451	17619
905.569	17547
905.686	17551
905.803	17551
905.921	17353
906.038	17372
906.155	17383
906.272	17250
906.389	17315
906.506	17140
906.623	17022
906.74	17025
906.857	16892
906.974	16927
907.091	17045
907.208	17220
907.324	17075
907.441	17045
907.557	16790
907.674	16790
907.79	16660
907.907	16622
908.023	16755
908.139	16812
908.256	16645
908.372	16519
908.488	16550
908.604	16402
908.72	16375
908.836	16386
908.952	16478
909.068	16508
909.184	16504
909.3	16451
909.415	16478
909.531	16382
909.647	16192
909.762	16048
909.878	16074
909.993	16135
910.108	16078
910.224	16055
910.339	16147
910.454	16090
910.57	16048
910.685	15903
910.8	16105
910.915	16101
911.03	15888
911.145	15812
911.259	15671
911.374	15747
911.489	15675
911.604	15641
911.718	15374
911.833	15473
911.947	15359
912.062	15287
912.176	15408
912.291	15370
912.405	15336
912.519	15614
912.633	15549
912.748	15458
912.862	15420
912.976	15329
913.09	15097
913.204	15272
913.318	15207
913.431	15431
913.545	15283
913.659	15313
913.772	15184
913.886	14998
914	15104
914.113	15104
914.226	15222
914.34	15081
914.453	15043
914.566	15047
914.68	14982
914.793	14880
914.906	14788
915.019	14686
915.132	14636
915.245	14708
915.358	14773
915.47	14724
915.583	14765
915.696	14625
915.809	14773
915.921	14826
916.034	14670
916.146	14655
916.259	14495
916.371	14739
916.483	14693
916.595	14533
916.708	14579
916.82	14530
916.932	14488
917.044	14488
917.156	14461
917.268	14309
917.38	14461
917.491	14419
917.603	14278
917.715	14404
917.826	14393
917.938	14328
918.049	14149
918.161	14389
918.272	14381
918.384	14404
918.495	14415
918.606	14168
918.717	14062
918.828	14149
918.939	14103
919.05	14100
919.161	14058
919.272	13841
919.383	13868
919.494	14123
919.604	14286
919.715	13986
919.826	13860
919.936	13883
920.047	14092
920.157	14062
920.267	14221
920.378	14020
920.488	14058
920.598	14142
920.708	14290
920.818	14161
920.928	14183
921.038	14271
921.148	14248
921.258	13993
921.368	13879
921.477	13712
921.587	13746
921.697	13670
921.806	13715
921.916	13647
922.025	13525
922.134	13419
922.244	13384
922.353	13384
922.462	13304
922.571	13198
922.68	13015
922.789	13065
922.898	13057
923.007	12951
923.116	13095
923.224	13057
923.333	13053
923.442	12901
923.55	12932
923.659	12943
923.767	12966
923.876	12829
923.984	12920
924.092	12817
924.201	12863
924.309	12848
924.417	12829
924.525	12642
924.633	12749
924.741	13704
924.849	12578
924.956	12601
925.064	12559
925.172	12464
925.279	12429
925.387	12525
925.494	12555
925.602	12654
925.709	12563
925.816	12437
925.924	12490
926.031	12486
926.138	12483
926.245	12494
926.352	12410
926.459	12563
926.566	12566
926.673	12490
926.779	12285
926.886	12247
926.993	12133
927.099	12152
927.206	12098
927.312	12106
927.419	12102
927.525	12057
927.631	12129
927.737	11977
927.843	11923
927.95	11935
928.056	11904
928.162	11977
928.267	12007
928.373	12460
928.479	12015
928.585	11699
928.69	11824
928.796	11958
928.901	11779
929.007	11657
929.112	11840
929.218	11866
929.323	11710
929.428	11638
929.533	11786
929.638	11596
929.743	11623
929.848	11642
929.953	11604
930.058	11505
930.163	11299
930.267	11414
930.372	11448
930.477	11330
930.581	11535
930.685	11334
930.79	11193
930.894	11265
930.998	11208
931.103	11349
931.207	10911
931.311	10831
931.415	10847
931.519	10603
931.623	10550
