Data from test_V78500241_722.txt Node
Date: Fri Mar 25 14:38:44 CST 2022
User: usil
Spectrometer: V785-0024
Trigger mode: 0
Integration Time (sec): 4.000000E-1
Scans to average: 1
Nonlinearity correction enabled: false
Boxcar width: 0
Storing dark spectrum: false
XAxis mode: Wavelengths
Number of Pixels in Spectrum: 1024
>>>>>Begin Spectral Data<<<<<
801.071	27515
801.214	27313
801.356	27310
801.499	27085
801.641	26963
801.783	27001
801.926	26883
802.068	26644
802.211	26678
802.353	26781
802.496	26655
802.638	26423
802.78	26457
802.923	26324
803.065	26385
803.208	26419
803.35	26347
803.492	26393
803.635	26640
803.777	26518
803.919	26545
804.061	26883
804.204	26655
804.346	26640
804.488	26674
804.63	26674
804.773	26613
804.915	26705
805.057	26861
805.199	27020
805.341	27039
805.483	27150
805.626	27192
805.768	27157
805.91	27245
806.052	27355
806.194	27351
806.336	27941
806.478	27975
806.62	28021
806.762	28523
806.904	28911
807.046	29246
807.188	29619
807.33	30133
807.472	30814
807.614	31460
807.756	32286
807.898	33526
808.04	34991
808.182	37152
808.324	39781
808.465	42894
808.607	46253
808.749	49225
808.891	51100
809.033	51112
809.174	49327
809.316	46462
809.458	42901
809.6	39427
809.741	36696
809.883	34523
810.025	32971
810.166	31712
810.308	31057
810.45	30228
810.591	29748
810.733	29318
810.875	28835
811.016	28428
811.158	28246
811.299	28310
811.441	28173
811.582	28067
811.724	27713
811.865	27462
812.007	27435
812.148	27310
812.29	27386
812.431	27287
812.573	27545
812.714	27492
812.855	27481
812.997	27542
813.138	27618
813.279	27576
813.421	27363
813.562	27241
813.703	26967
813.845	26887
813.986	26678
814.127	26328
814.268	26271
814.41	26294
814.551	26278
814.692	26298
814.833	25959
814.974	26050
815.115	26043
815.256	25909
815.397	25974
815.539	25947
815.68	25814
815.821	25559
815.962	25647
816.103	25601
816.244	25460
816.385	25426
816.526	25270
816.666	25042
816.807	25065
816.948	24996
817.089	25194
817.23	25050
817.371	24985
817.512	25008
817.653	24859
817.793	24829
817.934	24928
818.075	24882
818.216	24966
818.356	24753
818.497	24738
818.638	24604
818.778	24475
818.919	24616
819.06	24654
819.2	24730
819.341	24802
819.481	24947
819.622	24875
819.762	24970
819.903	24894
820.043	24890
820.184	24894
820.324	24715
820.465	24700
820.605	24642
820.746	24661
820.886	24585
821.026	24597
821.167	24707
821.307	24684
821.447	24745
821.588	24410
821.728	24346
821.868	24098
822.008	23946
822.149	24064
822.289	23965
822.429	23687
822.569	23520
822.709	23627
822.849	23425
822.99	23383
823.13	23383
823.27	23425
823.41	23162
823.55	23094
823.69	23235
823.83	23204
823.97	23124
824.11	22930
824.25	22812
824.389	22889
824.529	23094
824.669	22976
824.809	23140
824.949	23067
825.089	22889
825.228	22881
825.368	22759
825.508	22744
825.648	22656
825.787	22797
825.927	22881
826.067	22752
826.206	22668
826.346	22877
826.485	22801
826.625	22698
826.765	22854
826.904	22649
827.044	22481
827.183	22519
827.323	22443
827.462	22519
827.601	22421
827.741	22417
827.88	22424
828.02	22314
828.159	22478
828.298	22344
828.437	22390
828.577	22405
828.716	22413
828.855	22306
828.994	22116
829.134	22101
829.273	22131
829.412	22105
829.551	21987
829.69	21987
829.829	22090
829.968	22002
830.107	22135
830.246	22036
830.385	22044
830.524	21934
830.663	21930
830.802	21861
830.941	21599
831.08	21614
831.219	21686
831.357	21812
831.496	21793
831.635	21709
831.774	21557
831.913	21545
832.051	21591
832.19	21568
832.329	21614
832.467	21576
832.606	21424
832.744	21473
832.883	21515
833.022	21720
833.16	21827
833.299	21854
833.437	21895
833.576	22223
833.714	22280
833.852	22466
833.991	22565
834.129	22713
834.267	22850
834.406	22618
834.544	22584
834.682	22413
834.821	22143
834.959	22306
835.097	21930
835.235	22029
835.373	21835
835.511	21774
835.65	21523
835.788	21481
835.926	21291
836.064	21112
836.202	21135
836.34	21367
836.478	21329
836.615	21100
836.753	21165
836.891	21249
837.029	21108
837.167	21131
837.305	21051
837.443	20944
837.58	20921
837.718	21062
837.856	20990
837.993	20914
838.131	20929
838.269	20796
838.406	20853
838.544	20727
838.681	20495
838.819	20617
838.956	20454
839.094	20370
839.231	20492
839.369	20556
839.506	20823
839.643	20655
839.781	20473
839.918	20476
840.055	20400
840.193	20533
840.33	20454
840.467	20282
840.604	20362
840.742	20667
840.879	20164
841.016	20351
841.153	20313
841.29	20396
841.427	20400
841.564	20385
841.701	20400
841.838	20366
841.975	20366
842.112	20294
842.249	20145
842.385	20039
842.522	20415
842.659	20275
842.796	20172
842.933	20294
843.069	20153
843.206	20259
843.343	20370
843.479	20332
843.616	20290
843.752	20214
843.889	20225
844.025	20476
844.162	20370
844.298	20564
844.435	20701
844.571	20918
844.708	21123
844.844	21637
844.98	21968
845.117	22672
845.253	23722
845.389	25552
845.525	29375
845.661	35433
845.798	42517
845.934	47741
846.07	49510
846.206	48083
846.342	43327
846.478	36083
846.614	30136
846.75	26088
846.886	23870
847.022	22546
847.158	21511
847.294	20872
847.429	20537
847.565	20301
847.701	20320
847.837	19765
847.972	19685
848.108	19632
848.244	19655
848.379	19339
848.515	19255
848.65	19263
848.786	19244
848.921	19148
849.057	19198
849.192	19232
849.328	19091
849.463	19080
849.598	19122
849.734	19015
849.869	19057
850.004	18863
850.14	18920
850.275	18882
850.41	18787
850.545	18760
850.68	18798
850.815	18875
850.95	18798
851.085	19019
851.22	18848
851.355	18810
851.49	18856
851.625	18700
851.76	18760
851.895	18692
852.03	18700
852.165	18806
852.299	18787
852.434	18856
852.569	18882
852.703	18882
852.838	18920
852.973	19050
853.107	18989
853.242	18943
853.376	18795
853.511	18684
853.645	18829
853.78	18989
853.914	18913
854.048	18958
854.183	19076
854.317	19061
854.451	19198
854.585	19145
854.72	19023
854.854	19171
854.988	18939
855.122	19042
855.256	18821
855.39	18897
855.524	18901
855.658	18753
855.792	18760
855.926	18776
856.06	18681
856.194	18650
856.327	18719
856.461	18639
856.595	18688
856.729	18555
856.862	18753
856.996	18661
857.13	18734
857.263	18848
857.397	18719
857.53	18566
857.664	18661
857.797	18566
857.931	18711
858.064	18620
858.197	18623
858.331	18635
858.464	18525
858.597	18506
858.731	18563
858.864	18544
858.997	18525
859.13	18528
859.263	18521
859.396	18555
859.529	18506
859.662	18315
859.795	18483
859.928	18441
860.061	18604
860.194	18673
860.327	18521
860.46	18475
860.592	18521
860.725	18506
860.858	18589
860.99	18471
861.123	18376
861.256	18353
861.388	18429
861.521	19225
861.653	18464
861.786	18315
861.918	18304
862.05	18357
862.183	18376
862.315	18479
862.447	18574
862.58	18452
862.712	18155
862.844	18057
862.976	18152
863.108	18315
863.24	18574
863.372	18034
863.504	18148
863.636	18220
863.768	18159
863.9	18079
864.032	18125
864.164	18129
864.296	18060
864.428	18220
864.559	18194
864.691	18216
864.823	18186
864.954	18194
865.086	18114
865.217	18140
865.349	17980
865.48	18038
865.612	18026
865.743	18247
865.875	17927
866.006	18068
866.137	17977
866.269	18110
866.4	18030
866.531	17931
866.662	17969
866.793	18038
866.924	17942
867.055	17923
867.186	18045
867.317	17832
867.448	17897
867.579	17912
867.71	17901
867.841	17961
867.972	17954
868.103	17969
868.233	18087
868.364	18019
868.495	18049
868.625	18258
868.756	18304
868.886	18159
869.017	18232
869.147	18315
869.278	18319
869.408	18380
869.539	18258
869.669	18380
869.799	18327
869.929	18460
870.06	18445
870.19	18604
870.32	18639
870.45	18635
870.58	18631
870.71	18837
870.84	18821
870.97	18730
871.1	18688
871.23	18966
871.36	18951
871.489	18719
871.619	18985
871.749	19065
871.879	19008
872.008	19107
872.138	18954
872.267	19023
872.397	18825
872.526	18806
872.656	19000
872.785	18947
872.915	19118
873.044	19335
873.173	19126
873.303	19278
873.432	19343
873.561	19346
873.69	19350
873.819	19247
873.948	19369
874.077	19312
874.206	19324
874.335	19460
874.464	19597
874.593	19662
874.722	19632
874.851	19925
874.979	19940
875.108	19883
875.237	19765
875.365	19913
875.494	19974
875.623	20115
875.751	19856
875.88	19993
876.008	20168
876.136	20343
876.265	20625
876.393	20762
876.521	20804
876.65	20929
876.778	20830
876.906	20689
877.034	20891
877.162	20891
877.29	21081
877.418	21207
877.546	21207
877.674	21348
877.802	21488
877.93	21492
878.058	21842
878.185	21857
878.313	22261
878.441	22721
878.568	22862
878.696	23630
878.824	24391
878.951	25575
879.079	27154
879.206	29197
879.333	31392
879.461	33233
879.588	34417
879.715	34417
879.842	33424
879.97	31373
880.097	29387
880.224	27568
880.351	26282
880.478	25491
880.605	24757
880.732	24456
880.859	24391
880.986	23942
881.112	23954
881.239	23824
881.366	23573
881.493	23459
881.619	23463
881.746	23493
881.872	23623
881.999	23531
882.125	23535
882.252	23691
882.378	23805
882.505	23718
882.631	23676
882.757	23600
882.883	23558
883.01	23581
883.136	23566
883.262	23417
883.388	23395
883.514	23547
883.64	23452
883.766	23372
883.892	23170
884.018	23239
884.143	23326
884.269	23665
884.395	23383
884.52	23288
884.646	23334
884.772	23250
884.897	23071
885.023	23337
885.148	23307
885.274	23258
885.399	23220
885.524	22942
885.65	22854
885.775	22683
885.9	22554
886.025	22592
886.15	22344
886.275	22143
886.4	21941
886.525	21857
886.65	21622
886.775	21603
886.9	21694
887.025	21656
887.149	21230
887.274	20982
887.399	20990
887.523	20826
887.648	20667
887.773	20568
887.897	20606
888.021	20659
888.146	20358
888.27	20488
888.395	20419
888.519	20328
888.643	20248
888.767	20301
888.891	20001
889.015	19997
889.139	19989
889.263	19849
889.387	19864
889.511	19955
889.635	19967
889.759	19681
889.883	19693
890.006	19788
890.13	19750
890.254	19487
890.377	19506
890.501	19312
890.624	19266
890.748	19308
890.871	19107
890.995	19012
891.118	18951
891.241	18973
891.364	18863
891.488	19046
891.611	18840
891.734	18817
891.857	18825
891.98	18848
892.103	18875
892.226	18772
892.349	18795
892.471	18555
892.594	18494
892.717	18574
892.839	18566
892.962	18574
893.085	18585
893.207	18437
893.33	18304
893.452	18350
893.575	18509
893.697	18388
893.819	18559
893.941	18513
894.064	18410
894.186	18357
894.308	18281
894.43	18323
894.552	18330
894.674	18391
894.796	18049
894.918	18174
895.04	18144
895.161	18114
895.283	18125
895.405	18068
895.526	18068
895.648	18159
895.769	18095
895.891	18038
896.012	18087
896.134	18049
896.255	17988
896.376	18049
896.498	18038
896.619	17999
896.74	18072
896.861	18049
896.982	18311
897.103	18456
897.224	18327
897.345	18190
897.466	18060
897.587	18251
897.708	18258
897.828	18163
897.949	18155
898.07	17992
898.19	18110
898.311	18178
898.431	18129
898.552	18163
898.672	18220
898.792	18140
898.913	18205
899.033	18072
899.153	18060
899.273	17931
899.393	17882
899.513	17939
899.633	17916
899.753	17866
899.873	17851
899.993	18007
900.113	17961
900.232	17885
900.352	17897
900.472	17775
900.591	17745
900.711	17821
900.83	17638
900.95	17809
901.069	17984
901.189	17543
901.308	17482
901.427	17254
901.546	17090
901.665	17368
901.784	17322
901.904	17155
902.023	17181
902.141	16866
902.26	16759
902.379	16725
902.498	16801
902.617	16713
902.735	16755
902.854	16713
902.973	16603
903.091	16394
903.21	16527
903.328	16443
903.446	16295
903.565	16207
903.683	16306
903.801	16131
903.919	16223
904.038	16143
904.156	15892
904.274	16135
904.392	15907
904.51	15876
904.627	15941
904.745	15895
904.863	15975
904.981	15720
905.098	15633
905.216	15545
905.334	15587
905.451	15633
905.569	15481
905.686	15629
905.803	15500
905.921	15348
906.038	15488
906.155	15348
906.272	15176
906.389	15214
906.506	15127
906.623	15131
906.74	15104
906.857	15051
906.974	14956
907.091	15173
907.208	15161
907.324	15100
907.441	14956
907.557	14838
907.674	14823
907.79	14701
907.907	14758
908.023	14815
908.139	14739
908.256	14663
908.372	14777
908.488	14575
908.604	14423
908.72	14541
908.836	14514
908.952	14545
909.068	14484
909.184	14518
909.3	14499
909.415	14495
909.531	14442
909.647	14267
909.762	14183
909.878	14202
909.993	14256
910.108	14134
910.224	14202
910.339	14157
910.454	14035
910.57	14149
910.685	14145
910.8	14343
910.915	14206
911.03	14024
911.145	13913
911.259	13841
911.374	13894
911.489	13822
911.604	13742
911.718	13666
911.833	13578
911.947	13632
912.062	13354
912.176	13643
912.291	13624
912.405	13605
912.519	13803
912.633	13719
912.748	13639
912.862	13677
912.976	13529
913.09	13377
913.204	13480
913.318	13502
913.431	13578
913.545	13544
913.659	13548
913.772	13419
913.886	13327
914	13270
914.113	13411
914.226	13483
914.34	13441
914.453	13320
914.566	13445
914.68	13274
914.793	13213
914.906	13065
915.019	12989
915.132	12916
915.245	13031
915.358	13019
915.47	13080
915.583	13019
915.696	13061
915.809	13107
915.921	13198
916.034	13053
916.146	13019
916.259	12852
916.371	13061
916.483	13008
916.595	12973
916.708	12958
916.82	12871
916.932	12928
917.044	12962
917.156	12958
917.268	12829
917.38	12867
917.491	12859
917.603	12814
917.715	12844
917.826	12844
917.938	12757
918.049	12662
918.161	12688
918.272	12825
918.384	12882
918.495	12779
918.606	12494
918.717	12483
918.828	12555
918.939	12559
919.05	12464
919.161	12464
919.272	12311
919.383	12334
919.494	12525
919.604	12711
919.715	12521
919.826	12422
919.936	12441
920.047	12547
920.157	12532
920.267	12627
920.378	12532
920.488	12517
920.598	12631
920.708	12798
920.818	12597
920.928	12597
921.038	12837
921.148	12802
921.258	12414
921.368	12399
921.477	12266
921.587	12311
921.697	12102
921.806	12270
921.916	12163
922.025	12022
922.134	11863
922.244	11912
922.353	11939
922.462	11866
922.571	11718
922.68	11577
922.789	11585
922.898	11596
923.007	11539
923.116	11623
923.224	11551
923.333	11543
923.442	11459
923.55	11402
923.659	11463
923.767	11463
923.876	11349
923.984	11501
924.092	11322
924.201	11429
924.309	11444
924.417	11444
924.525	11269
924.633	11280
924.741	12247
924.849	11159
924.956	11269
925.064	11109
925.172	11079
925.279	11090
925.387	11136
925.494	11132
925.602	11280
925.709	11113
925.816	11045
925.924	11056
926.031	11223
926.138	11079
926.245	11140
926.352	10980
926.459	11094
926.566	11071
926.673	11014
926.779	10934
926.886	10942
926.993	10759
927.099	10805
927.206	10672
927.312	10622
927.419	10759
927.525	10748
927.631	10759
927.737	10588
927.843	10596
927.95	10538
928.056	10672
928.162	10546
928.267	10622
928.373	11223
928.479	10664
928.585	10481
928.69	10538
928.796	10561
928.901	10481
929.007	10455
929.112	10497
929.218	10436
929.323	10424
929.428	10310
929.533	10512
929.638	10318
929.743	10333
929.848	10451
929.953	10291
930.058	10287
930.163	10143
930.267	10048
930.372	10200
930.477	10013
930.581	10337
930.685	10139
930.79	10059
930.894	9968
930.998	9956
931.103	10166
931.207	9705
931.311	9766
931.415	9644
931.519	9454
931.623	9393
