Data from test_V78500241_2695.txt Node
Date: Fri Mar 25 14:52:28 CST 2022
User: usil
Spectrometer: V785-0024
Trigger mode: 0
Integration Time (sec): 4.000000E-1
Scans to average: 1
Nonlinearity correction enabled: false
Boxcar width: 0
Storing dark spectrum: false
XAxis mode: Wavelengths
Number of Pixels in Spectrum: 1024
>>>>>Begin Spectral Data<<<<<
801.071	21987
801.214	21953
801.356	21781
801.499	21606
801.641	21370
801.783	21222
801.926	21348
802.068	21351
802.211	21291
802.353	21138
802.496	20982
802.638	20750
802.78	20857
802.923	20762
803.065	20667
803.208	20682
803.35	20655
803.492	20777
803.635	20883
803.777	20735
803.919	20796
804.061	21028
804.204	20773
804.346	20579
804.488	20594
804.63	20689
804.773	20689
804.915	20625
805.057	20735
805.199	20621
805.341	20655
805.483	20686
805.626	20659
805.768	20526
805.91	20579
806.052	20678
806.194	20457
806.336	20720
806.478	20545
806.62	20556
806.762	20629
806.904	20834
807.046	21055
807.188	20910
807.33	21009
807.472	20925
807.614	20849
807.756	20811
807.898	20724
808.04	20621
808.182	20659
808.324	20716
808.465	20746
808.607	20804
808.749	20960
808.891	21058
809.033	21036
809.174	21085
809.316	20975
809.458	20895
809.6	20941
809.741	21017
809.883	21009
810.025	21039
810.166	21135
810.308	21104
810.45	21013
810.591	21070
810.733	20914
810.875	20804
811.016	20564
811.158	20541
811.299	20800
811.441	20857
811.582	20800
811.724	20785
811.865	20648
812.007	20754
812.148	20765
812.29	20823
812.431	20967
812.573	20994
812.714	21161
812.855	21226
812.997	21344
813.138	21401
813.279	21279
813.421	21188
813.562	21085
813.703	20982
813.845	20876
813.986	20663
814.127	20431
814.268	20313
814.41	20225
814.551	20271
814.692	20298
814.833	20290
814.974	20195
815.115	20225
815.256	20183
815.397	20081
815.539	20119
815.68	20046
815.821	19909
815.962	19898
816.103	19852
816.244	19921
816.385	19670
816.526	19624
816.666	19597
816.807	19449
816.948	19544
817.089	19464
817.23	19373
817.371	19487
817.512	19381
817.653	19373
817.793	19362
817.934	19365
818.075	19457
818.216	19377
818.356	19464
818.497	19217
818.638	19004
818.778	19099
818.919	19084
819.06	19175
819.2	19285
819.341	19331
819.481	19346
819.622	19426
819.762	19639
819.903	19506
820.043	19346
820.184	19438
820.324	19400
820.465	19365
820.605	19346
820.746	19362
820.886	19312
821.026	19373
821.167	19217
821.307	19499
821.447	19388
821.588	19179
821.728	19069
821.868	19012
822.008	18711
822.149	18779
822.289	18817
822.429	18623
822.569	18460
822.709	18460
822.849	18361
822.99	18300
823.13	18304
823.27	18247
823.41	18133
823.55	18155
823.69	18144
823.83	18110
823.97	18076
824.11	17882
824.25	17832
824.389	17817
824.529	17927
824.669	17927
824.809	18026
824.949	17874
825.089	17912
825.228	17859
825.368	17703
825.508	17642
825.648	17695
825.787	17668
825.927	17729
826.067	17596
826.206	17562
826.346	17691
826.485	17707
826.625	17676
826.765	17764
826.904	17729
827.044	17364
827.183	17417
827.323	17334
827.462	17349
827.601	17292
827.741	17395
827.88	17284
828.02	17337
828.159	17261
828.298	17448
828.437	17395
828.577	17216
828.716	17417
828.855	17273
828.994	17098
829.134	17113
829.273	17140
829.412	17124
829.551	16972
829.69	17136
829.829	17166
829.968	17204
830.107	17189
830.246	17094
830.385	17067
830.524	17075
830.663	16892
830.802	16858
830.941	16759
831.08	16691
831.219	16778
831.357	16786
831.496	16896
831.635	16771
831.774	16630
831.913	16679
832.051	16428
832.19	16535
832.329	16554
832.467	16432
832.606	16405
832.744	16363
832.883	16455
833.022	16447
833.16	16432
833.299	16390
833.437	16516
833.576	16523
833.714	16558
833.852	16447
833.991	16474
834.129	16599
834.267	16489
834.406	16481
834.544	16523
834.682	16478
834.821	16447
834.959	16790
835.097	16424
835.235	16565
835.373	16516
835.511	16535
835.65	16443
835.788	16390
835.926	16268
836.064	16261
836.202	16154
836.34	16421
836.478	16493
836.615	16325
836.753	16398
836.891	16428
837.029	16398
837.167	16390
837.305	16325
837.443	16238
837.58	16234
837.718	16367
837.856	16322
837.993	16188
838.131	16253
838.269	16150
838.406	16204
838.544	16204
838.681	16025
838.819	15937
838.956	15823
839.094	15808
839.231	15827
839.369	15922
839.506	16242
839.643	15983
839.781	15804
839.918	15770
840.055	15842
840.193	15819
840.33	15865
840.467	15865
840.604	15869
840.742	16017
840.879	15644
841.016	15762
841.153	15774
841.29	15949
841.427	15907
841.564	15766
841.701	15835
841.838	15899
841.975	15660
842.112	15717
842.249	15705
842.385	15660
842.522	15728
842.659	15553
842.796	15530
842.933	15538
843.069	15564
843.206	15553
843.343	15648
843.479	15625
843.616	15545
843.752	15351
843.889	15435
844.025	15466
844.162	15340
844.298	15336
844.435	15264
844.571	15359
844.708	15420
844.844	15603
844.98	15488
845.117	15435
845.253	15401
845.389	15287
845.525	15302
845.661	15256
845.798	15226
845.934	15237
846.07	15161
846.206	15184
846.342	15142
846.478	15241
846.614	15077
846.75	14956
846.886	15001
847.022	15043
847.158	15032
847.294	14948
847.429	14971
847.565	14918
847.701	15226
847.837	14727
847.972	14682
848.108	14762
848.244	14788
848.379	14594
848.515	14549
848.65	14442
848.786	14552
848.921	14598
849.057	14632
849.192	14651
849.328	14556
849.463	14621
849.598	14518
849.734	14556
849.869	14358
850.004	14298
850.14	14381
850.275	14271
850.41	14385
850.545	14282
850.68	14313
850.815	14233
850.95	14339
851.085	14488
851.22	14514
851.355	14336
851.49	14214
851.625	14355
851.76	14309
851.895	14286
852.03	14161
852.165	14259
852.299	14336
852.434	14450
852.569	14347
852.703	14374
852.838	14381
852.973	14476
853.107	14522
853.242	14282
853.376	14298
853.511	14126
853.645	14172
853.78	14214
853.914	14218
854.048	14221
854.183	14229
854.317	14206
854.451	14374
854.585	14164
854.72	14153
854.854	14244
854.988	14134
855.122	14157
855.256	14039
855.39	14210
855.524	14267
855.658	14275
855.792	14157
855.926	14248
856.06	14275
856.194	14377
856.327	14168
856.461	14168
856.595	14107
856.729	14123
856.862	14225
856.996	14309
857.13	14347
857.263	14294
857.397	14370
857.53	14195
857.664	14282
857.797	14370
857.931	14301
858.064	14244
858.197	14320
858.331	14206
858.464	14168
858.597	14031
858.731	14206
858.864	14256
858.997	14221
859.13	14229
859.263	14123
859.396	14282
859.529	14187
859.662	14130
859.795	14248
859.928	14237
860.061	14305
860.194	14492
860.327	14233
860.46	14168
860.592	14259
860.725	14377
860.858	14271
860.99	14210
861.123	14027
861.256	14180
861.388	14259
861.521	14781
861.653	14058
861.786	14100
861.918	14130
862.05	14100
862.183	14176
862.315	14107
862.447	14244
862.58	14100
862.712	13936
862.844	13940
862.976	13963
863.108	14103
863.24	14442
863.372	13944
863.504	13982
863.636	14031
863.768	14081
863.9	13967
864.032	14027
864.164	13986
864.296	13963
864.428	14130
864.559	13989
864.691	14008
864.823	14054
864.954	13936
865.086	13993
865.217	13993
865.349	13978
865.48	13982
865.612	14016
865.743	14187
865.875	13993
866.006	13947
866.137	14008
866.269	13993
866.4	13997
866.531	13951
866.662	13940
866.793	13849
866.924	13967
867.055	14027
867.186	13974
867.317	13944
867.448	13917
867.579	13902
867.71	13841
867.841	13894
867.972	13928
868.103	13951
868.233	14016
868.364	14020
868.495	14050
868.625	14278
868.756	14301
868.886	14111
869.017	14206
869.147	14317
869.278	14355
869.408	14168
869.539	14286
869.669	14259
869.799	14252
869.929	14362
870.06	14271
870.19	14530
870.32	14526
870.45	14514
870.58	14667
870.71	14739
870.84	14746
870.97	14629
871.1	14587
871.23	14800
871.36	14823
871.489	14792
871.619	14842
871.749	14891
871.879	14853
872.008	14883
872.138	14815
872.267	14743
872.397	14701
872.526	14621
872.656	14667
872.785	14636
872.915	14914
873.044	14975
873.173	14845
873.303	14925
873.432	14948
873.561	14967
873.69	14937
873.819	14807
873.948	14971
874.077	14781
874.206	14845
874.335	14876
874.464	14910
874.593	15188
874.722	15108
874.851	15252
874.979	15169
875.108	15268
875.237	15142
875.365	15108
875.494	15123
875.623	15226
875.751	15131
875.88	15287
876.008	15344
876.136	15496
876.265	15545
876.393	15823
876.521	15614
876.65	15648
876.778	15701
876.906	15538
877.034	15561
877.162	15576
877.29	15473
877.418	15580
877.546	15603
877.674	15584
877.802	15564
877.93	15667
878.058	15625
878.185	15416
878.313	15492
878.441	15542
878.568	15477
878.696	15523
878.824	15606
878.951	15728
879.079	15827
879.206	15903
879.333	15789
879.461	15652
879.588	15686
879.715	15842
879.842	15751
879.97	15766
880.097	15378
880.224	15393
880.351	15408
880.478	15511
880.605	15344
880.732	15481
880.859	15724
880.986	15549
881.112	15488
881.239	15230
881.366	15127
881.493	15256
881.619	15097
881.746	15127
881.872	15070
881.999	15077
882.125	15017
882.252	15195
882.378	15085
882.505	15195
882.631	15005
882.757	14956
882.883	14979
883.01	14914
883.136	14849
883.262	14918
883.388	14800
883.514	14914
883.64	15009
883.766	14925
883.892	14701
884.018	14765
884.143	15001
884.269	15100
884.395	14617
884.52	14549
884.646	14629
884.772	14556
884.897	14556
885.023	14602
885.148	14769
885.274	14788
885.399	14712
885.524	14640
885.65	14678
885.775	14689
885.9	14724
886.025	14849
886.15	14667
886.275	14632
886.4	14518
886.525	14511
886.65	14522
886.775	14480
886.9	14853
887.025	14971
887.149	14587
887.274	14514
887.399	14507
887.523	14377
887.648	14488
887.773	14480
887.897	14606
888.021	14549
888.146	14400
888.27	14560
888.395	14598
888.519	14507
888.643	14518
888.767	14594
888.891	14465
889.015	14324
889.139	14396
889.263	14385
889.387	14427
889.511	14530
889.635	14492
889.759	14324
889.883	14313
890.006	14237
890.13	14454
890.254	14199
890.377	14229
890.501	14119
890.624	14126
890.748	14218
890.871	14153
890.995	13986
891.118	13913
891.241	14039
891.364	14084
891.488	14233
891.611	13944
891.734	14126
891.857	14050
891.98	14103
892.103	14145
892.226	14065
892.349	14035
892.471	13959
892.594	13967
892.717	14027
892.839	14035
892.962	14020
893.085	14073
893.207	14001
893.33	13947
893.452	14016
893.575	14088
893.697	14005
893.819	14214
893.941	14271
894.064	14172
894.186	14031
894.308	14096
894.43	14183
894.552	14221
894.674	14142
894.796	13989
894.918	14039
895.04	14062
895.161	14191
895.283	14145
895.405	14058
895.526	14119
895.648	14031
895.769	14214
895.891	14153
896.012	14259
896.134	14195
896.255	14199
896.376	14176
896.498	14183
896.619	14309
896.74	14107
896.861	14225
896.982	14537
897.103	14648
897.224	14533
897.345	14507
897.466	14278
897.587	14488
897.708	14648
897.828	14488
897.949	14431
898.07	14355
898.19	14507
898.311	14610
898.431	14507
898.552	14636
898.672	14674
898.792	14625
898.913	14663
899.033	14461
899.153	14396
899.273	14237
899.393	14351
899.513	14404
899.633	14442
899.753	14488
899.873	14347
899.993	14366
900.113	14434
900.232	14473
900.352	14469
900.472	14347
900.591	14218
900.711	14267
900.83	14199
900.95	14404
901.069	14423
901.189	14286
901.308	14077
901.427	13989
901.546	13906
901.665	14020
901.784	13936
901.904	13776
902.023	13780
902.141	13537
902.26	13480
902.379	13514
902.498	13472
902.617	13441
902.735	13518
902.854	13491
902.973	13483
903.091	13263
903.21	13259
903.328	13236
903.446	13114
903.565	13103
903.683	13057
903.801	13076
903.919	13050
904.038	13095
904.156	12909
904.274	12909
904.392	12909
904.51	12913
904.627	12951
904.745	12920
904.863	12973
904.981	12741
905.098	12608
905.216	12684
905.334	12608
905.451	12639
905.569	12551
905.686	12597
905.803	12635
905.921	12483
906.038	12547
906.155	12426
906.272	12273
906.389	12429
906.506	12205
906.623	12178
906.74	12159
906.857	11999
906.974	12159
907.091	12300
907.208	12350
907.324	12289
907.441	12171
907.557	11912
907.674	11980
907.79	11901
907.907	11939
908.023	11988
908.139	11908
908.256	11920
908.372	11897
908.488	11847
908.604	11748
908.72	11733
908.836	11703
908.952	11684
909.068	11775
909.184	11741
909.3	11760
909.415	11832
909.531	11771
909.647	11547
909.762	11493
909.878	11398
909.993	11558
910.108	11516
910.224	11467
910.339	11471
910.454	11349
910.57	11326
910.685	11235
910.8	11596
910.915	11414
911.03	11395
911.145	11231
911.259	11102
911.374	11254
911.489	11014
911.604	11056
911.718	11010
911.833	10953
911.947	10774
912.062	10729
912.176	10862
912.291	10953
912.405	10911
912.519	11121
912.633	11109
912.748	10965
912.862	10889
912.976	10759
913.09	10717
913.204	10805
913.318	10835
913.431	10885
913.545	10858
913.659	11041
913.772	10835
913.886	10687
914	10683
914.113	10752
914.226	10877
914.34	10793
914.453	10603
914.566	10786
914.68	10615
914.793	10611
914.906	10512
915.019	10470
915.132	10363
915.245	10417
915.358	10462
915.47	10489
915.583	10459
915.696	10535
915.809	10603
915.921	10554
916.034	10409
916.146	10394
916.259	10337
916.371	10462
916.483	10428
916.595	10379
916.708	10360
916.82	10344
916.932	10352
917.044	10390
917.156	10322
917.268	10249
917.38	10329
917.491	10234
917.603	10325
917.715	10291
917.826	10409
917.938	10371
918.049	10166
918.161	10329
918.272	10462
918.384	10367
918.495	10348
918.606	10177
918.717	10063
918.828	10162
918.939	10128
919.05	10101
919.161	10162
919.272	9987
919.383	10059
919.494	10196
919.604	10402
919.715	10188
919.826	10105
919.936	10166
920.047	10162
920.157	10177
920.267	10382
920.378	10150
920.488	10200
920.598	10333
920.708	10523
920.818	10394
920.928	10348
921.038	10508
921.148	10436
921.258	10143
921.368	10166
921.477	10040
921.587	10006
921.697	9918
921.806	10025
921.916	9972
922.025	9789
922.134	9705
922.244	9686
922.353	9724
922.462	9606
922.571	9660
922.68	9443
922.789	9443
922.898	9545
923.007	9386
923.116	9462
923.224	9351
923.333	9435
923.442	9317
923.55	9351
923.659	9329
923.767	9340
923.876	9241
923.984	9450
924.092	9256
924.201	9336
924.309	9245
924.417	9344
924.525	9287
924.633	9279
924.741	10040
924.849	9081
924.956	9203
925.064	9039
925.172	9009
925.279	9058
925.387	9070
925.494	9043
925.602	9218
925.709	9127
925.816	9066
925.924	9112
926.031	9165
926.138	9097
926.245	9135
926.352	9005
926.459	9081
926.566	9268
926.673	9085
926.779	9009
926.886	8952
926.993	8849
927.099	8758
927.206	8788
927.312	8788
927.419	8857
927.525	8796
927.631	8853
927.737	8708
927.843	8754
927.95	8606
928.056	8610
928.162	8720
928.267	8708
928.373	9317
928.479	8769
928.585	8530
928.69	8670
928.796	8735
928.901	8541
929.007	8465
929.112	8636
929.218	8571
929.323	8552
929.428	8526
929.533	8678
929.638	8431
929.743	8537
929.848	8526
929.953	8522
930.058	8419
930.163	8180
930.267	8290
930.372	8412
930.477	8267
930.581	8469
930.685	8366
930.79	8187
930.894	8252
930.998	8199
931.103	8431
931.207	7993
931.311	7963
931.415	7849
931.519	7757
931.623	7727
