Data from test_V78500241_2368.txt Node
Date: Fri Mar 25 14:50:12 CST 2022
User: usil
Spectrometer: V785-0024
Trigger mode: 0
Integration Time (sec): 4.000000E-1
Scans to average: 1
Nonlinearity correction enabled: false
Boxcar width: 0
Storing dark spectrum: false
XAxis mode: Wavelengths
Number of Pixels in Spectrum: 1024
>>>>>Begin Spectral Data<<<<<
801.071	22177
801.214	22051
801.356	21739
801.499	21652
801.641	21542
801.783	21515
801.926	21557
802.068	21477
802.211	21344
802.353	21310
802.496	21165
802.638	21013
802.78	20967
802.923	20834
803.065	20705
803.208	20720
803.35	20773
803.492	20914
803.635	20975
803.777	20910
803.919	20982
804.061	21279
804.204	20857
804.346	20857
804.488	20743
804.63	20823
804.773	20712
804.915	20724
805.057	20918
805.199	20815
805.341	20807
805.483	20979
805.626	20826
805.768	20754
805.91	20739
806.052	20792
806.194	20636
806.336	20880
806.478	20785
806.62	20739
806.762	20720
806.904	21020
807.046	21211
807.188	21207
807.33	21093
807.472	21237
807.614	21005
807.756	20998
807.898	20838
808.04	20872
808.182	20773
808.324	20826
808.465	20845
808.607	21096
808.749	21112
808.891	21241
809.033	21302
809.174	21214
809.316	21100
809.458	21218
809.6	21081
809.741	21214
809.883	21321
810.025	21275
810.166	21367
810.308	21252
810.45	21230
810.591	21199
810.733	21058
810.875	20960
811.016	20819
811.158	20868
811.299	20914
811.441	21077
811.582	20967
811.724	20929
811.865	20887
812.007	20960
812.148	20845
812.29	20876
812.431	21051
812.573	21207
812.714	21447
812.855	21443
812.997	21618
813.138	21576
813.279	21420
813.421	21359
813.562	21256
813.703	21298
813.845	21116
813.986	20758
814.127	20438
814.268	20602
814.41	20526
814.551	20427
814.692	20495
814.833	20389
814.974	20389
815.115	20484
815.256	20237
815.397	20442
815.539	20271
815.68	20282
815.821	20210
815.962	20256
816.103	20081
816.244	19989
816.385	19852
816.526	19936
816.666	19704
816.807	19628
816.948	19780
817.089	19822
817.23	19639
817.371	19544
817.512	19597
817.653	19567
817.793	19510
817.934	19483
818.075	19563
818.216	19670
818.356	19643
818.497	19346
818.638	19297
818.778	19354
818.919	19297
819.06	19259
819.2	19400
819.341	19540
819.481	19464
819.622	19738
819.762	19765
819.903	19674
820.043	19662
820.184	19556
820.324	19468
820.465	19700
820.605	19540
820.746	19567
820.886	19411
821.026	19548
821.167	19502
821.307	19674
821.447	19537
821.588	19449
821.728	19259
821.868	19023
822.008	19027
822.149	19152
822.289	18985
822.429	18700
822.569	18684
822.709	18730
822.849	18513
822.99	18540
823.13	18528
823.27	18414
823.41	18270
823.55	18235
823.69	18414
823.83	18270
823.97	18273
824.11	18083
824.25	17980
824.389	18060
824.529	18159
824.669	18060
824.809	18167
824.949	18110
825.089	18019
825.228	18038
825.368	17939
825.508	17798
825.648	17965
825.787	17882
825.927	17916
826.067	17840
826.206	17733
826.346	17863
826.485	17813
826.625	17779
826.765	17885
826.904	17798
827.044	17581
827.183	17699
827.323	17444
827.462	17672
827.601	17600
827.741	17512
827.88	17551
828.02	17516
828.159	17490
828.298	17528
828.437	17509
828.577	17520
828.716	17684
828.855	17535
828.994	17364
829.134	17239
829.273	17326
829.412	17212
829.551	17181
829.69	17311
829.829	17383
829.968	17303
830.107	17341
830.246	17254
830.385	17220
830.524	17151
830.663	17132
830.802	16900
830.941	16953
831.08	16934
831.219	16999
831.357	16965
831.496	17132
831.635	16816
831.774	16854
831.913	16752
832.051	16683
832.19	16687
832.329	16763
832.467	16577
832.606	16550
832.744	16455
832.883	16523
833.022	16580
833.16	16588
833.299	16687
833.437	16694
833.576	16698
833.714	16531
833.852	16641
833.991	16637
834.129	16748
834.267	16660
834.406	16649
834.544	16599
834.682	16641
834.821	16626
834.959	16774
835.097	16641
835.235	16668
835.373	16626
835.511	16622
835.65	16489
835.788	16512
835.926	16466
836.064	16344
836.202	16455
836.34	16554
836.478	16508
836.615	16584
836.753	16535
836.891	16573
837.029	16577
837.167	16367
837.305	16489
837.443	16337
837.58	16246
837.718	16508
837.856	16341
837.993	16360
838.131	16371
838.269	16291
838.406	16306
838.544	16177
838.681	16063
838.819	16078
838.956	15937
839.094	15907
839.231	16010
839.369	16074
839.506	16398
839.643	16211
839.781	15918
839.918	15876
840.055	16082
840.193	15861
840.33	16017
840.467	15960
840.604	15979
840.742	16112
840.879	15812
841.016	15918
841.153	15823
841.29	16147
841.427	15922
841.564	16010
841.701	15911
841.838	15884
841.975	15842
842.112	15869
842.249	15641
842.385	15755
842.522	15941
842.659	15797
842.796	15709
842.933	15671
843.069	15667
843.206	15637
843.343	15778
843.479	15800
843.616	15751
843.752	15496
843.889	15515
844.025	15648
844.162	15439
844.298	15641
844.435	15545
844.571	15450
844.708	15564
844.844	15679
844.98	15663
845.117	15625
845.253	15450
845.389	15424
845.525	15496
845.661	15367
845.798	15283
845.934	15355
846.07	15256
846.206	15382
846.342	15450
846.478	15287
846.614	15173
846.75	15039
846.886	15047
847.022	15184
847.158	15081
847.294	15039
847.429	15135
847.565	15032
847.701	15298
847.837	14823
847.972	14792
848.108	14902
848.244	14971
848.379	14769
848.515	14610
848.65	14632
848.786	14724
848.921	14659
849.057	14746
849.192	14830
849.328	14667
849.463	14716
849.598	14590
849.734	14590
849.869	14594
850.004	14442
850.14	14488
850.275	14480
850.41	14400
850.545	14431
850.68	14381
850.815	14469
850.95	14514
851.085	14602
851.22	14590
851.355	14549
851.49	14434
851.625	14347
851.76	14396
851.895	14389
852.03	14370
852.165	14415
852.299	14499
852.434	14492
852.569	14415
852.703	14389
852.838	14454
852.973	14575
853.107	14511
853.242	14355
853.376	14313
853.511	14183
853.645	14256
853.78	14355
853.914	14282
854.048	14313
854.183	14252
854.317	14275
854.451	14457
854.585	14240
854.72	14286
854.854	14446
854.988	14294
855.122	14237
855.256	14172
855.39	14298
855.524	14393
855.658	14374
855.792	14370
855.926	14256
856.06	14377
856.194	14381
856.327	14202
856.461	14305
856.595	14305
856.729	14298
856.862	14446
856.996	14332
857.13	14374
857.263	14339
857.397	14423
857.53	14256
857.664	14446
857.797	14412
857.931	14374
858.064	14294
858.197	14393
858.331	14415
858.464	14252
858.597	14252
858.731	14332
858.864	14301
858.997	14313
859.13	14259
859.263	14381
859.396	14408
859.529	14183
859.662	14282
859.795	14225
859.928	14248
860.061	14438
860.194	14412
860.327	14377
860.46	14229
860.592	14412
860.725	14480
860.858	14332
860.99	14298
861.123	14195
861.256	14294
861.388	14263
861.521	14807
861.653	14195
861.786	14084
861.918	14153
862.05	14240
862.183	14214
862.315	14244
862.447	14305
862.58	14263
862.712	14016
862.844	13978
862.976	14183
863.108	14058
863.24	14537
863.372	14020
863.504	14123
863.636	14027
863.768	14206
863.9	14065
864.032	14035
864.164	14050
864.296	14100
864.428	14157
864.559	14092
864.691	14115
864.823	14183
864.954	14164
865.086	14138
865.217	14046
865.349	13967
865.48	14024
865.612	14020
865.743	14123
865.875	14130
866.006	13982
866.137	14046
866.269	14016
866.4	14157
866.531	14027
866.662	13963
866.793	13989
866.924	14035
867.055	14043
867.186	14005
867.317	13982
867.448	13890
867.579	13890
867.71	14031
867.841	13993
867.972	14054
868.103	14145
868.233	14077
868.364	14039
868.495	14107
868.625	14237
868.756	14385
868.886	14218
869.017	14286
869.147	14442
869.278	14457
869.408	14275
869.539	14347
869.669	14362
869.799	14355
869.929	14415
870.06	14450
870.19	14636
870.32	14549
870.45	14659
870.58	14746
870.71	14796
870.84	14849
870.97	14678
871.1	14655
871.23	14998
871.36	14857
871.489	14864
871.619	14758
871.749	14857
871.879	14944
872.008	14948
872.138	14872
872.267	14876
872.397	14731
872.526	14693
872.656	14640
872.785	14724
872.915	15066
873.044	14975
873.173	14929
873.303	14937
873.432	14941
873.561	14944
873.69	15028
873.819	14963
873.948	15013
874.077	14956
874.206	14956
874.335	15009
874.464	15176
874.593	15199
874.722	15222
874.851	15313
874.979	15252
875.108	15222
875.237	15188
875.365	15169
875.494	15241
875.623	15306
875.751	15268
875.88	15306
876.008	15363
876.136	15481
876.265	15641
876.393	15835
876.521	15690
876.65	15755
876.778	15743
876.906	15618
877.034	15667
877.162	15587
877.29	15644
877.418	15644
877.546	15679
877.674	15610
877.802	15682
877.93	15701
878.058	15591
878.185	15564
878.313	15698
878.441	15564
878.568	15488
878.696	15705
878.824	15739
878.951	15656
879.079	15907
879.206	15998
879.333	15895
879.461	15762
879.588	15778
879.715	15945
879.842	16017
879.97	15793
880.097	15477
880.224	15515
880.351	15663
880.478	15606
880.605	15545
880.732	15557
880.859	15686
880.986	15595
881.112	15538
881.239	15378
881.366	15306
881.493	15165
881.619	15123
881.746	15192
881.872	15104
881.999	15173
882.125	15161
882.252	15112
882.378	15211
882.505	15424
882.631	15135
882.757	15001
882.883	15062
883.01	15093
883.136	14925
883.262	14838
883.388	14842
883.514	14941
883.64	14948
883.766	14914
883.892	14762
884.018	14785
884.143	14891
884.269	15116
884.395	14754
884.52	14686
884.646	14769
884.772	14693
884.897	14590
885.023	14712
885.148	14792
885.274	14864
885.399	14819
885.524	14689
885.65	14686
885.775	14693
885.9	14644
886.025	14849
886.15	14739
886.275	14594
886.4	14564
886.525	14617
886.65	14575
886.775	14541
886.9	14845
887.025	14906
887.149	14682
887.274	14514
887.399	14564
887.523	14488
887.648	14492
887.773	14396
887.897	14625
888.021	14560
888.146	14461
888.27	14686
888.395	14575
888.519	14545
888.643	14602
888.767	14590
888.891	14526
889.015	14454
889.139	14374
889.263	14298
889.387	14404
889.511	14613
889.635	14533
889.759	14328
889.883	14301
890.006	14488
890.13	14575
890.254	14256
890.377	14415
890.501	14244
890.624	14313
890.748	14278
890.871	14119
890.995	14012
891.118	14058
891.241	14115
891.364	14111
891.488	14176
891.611	14145
891.734	14043
891.857	14092
891.98	14081
892.103	14157
892.226	14168
892.349	14008
892.471	14012
892.594	14126
892.717	14107
892.839	14069
892.962	14081
893.085	14031
893.207	14153
893.33	14008
893.452	13993
893.575	14214
893.697	14081
893.819	14199
893.941	14336
894.064	14294
894.186	14081
894.308	14126
894.43	14210
894.552	14309
894.674	14271
894.796	14031
894.918	14240
895.04	14142
895.161	14301
895.283	14244
895.405	14092
895.526	14290
895.648	14210
895.769	14267
895.891	14282
896.012	14187
896.134	14305
896.255	14263
896.376	14256
896.498	14339
896.619	14259
896.74	14275
896.861	14271
896.982	14610
897.103	14781
897.224	14636
897.345	14606
897.466	14431
897.587	14526
897.708	14636
897.828	14621
897.949	14552
898.07	14328
898.19	14476
898.311	14682
898.431	14625
898.552	14621
898.672	14781
898.792	14735
898.913	14655
899.033	14613
899.153	14454
899.273	14404
899.393	14351
899.513	14552
899.633	14419
899.753	14431
899.873	14454
899.993	14507
900.113	14450
900.232	14556
900.352	14514
900.472	14431
900.591	14408
900.711	14381
900.83	14298
900.95	14396
901.069	14450
901.189	14271
901.308	14043
901.427	14001
901.546	14145
901.665	14012
901.784	13947
901.904	13822
902.023	13833
902.141	13658
902.26	13609
902.379	13616
902.498	13605
902.617	13590
902.735	13567
902.854	13647
902.973	13590
903.091	13335
903.21	13301
903.328	13297
903.446	13145
903.565	13217
903.683	13251
903.801	13076
903.919	13209
904.038	13103
904.156	13057
904.274	13038
904.392	12916
904.51	12913
904.627	12939
904.745	12996
904.863	13069
904.981	12825
905.098	12582
905.216	12631
905.334	12639
905.451	12544
905.569	12738
905.686	12646
905.803	12642
905.921	12502
906.038	12536
906.155	12418
906.272	12292
906.389	12361
906.506	12285
906.623	12224
906.74	12201
906.857	12171
906.974	12247
907.091	12258
907.208	12338
907.324	12289
907.441	12232
907.557	12072
907.674	11965
907.79	11927
907.907	11885
908.023	12049
908.139	11977
908.256	11901
908.372	11954
908.488	11843
908.604	11760
908.72	11729
908.836	11786
908.952	11707
909.068	11786
909.184	11805
909.3	11710
909.415	11813
909.531	11809
909.647	11554
909.762	11482
909.878	11577
909.993	11535
910.108	11467
910.224	11448
910.339	11474
910.454	11463
910.57	11436
910.685	11303
910.8	11573
910.915	11505
911.03	11398
911.145	11197
911.259	11235
911.374	11273
911.489	11147
911.604	11147
911.718	10984
911.833	11003
911.947	10873
912.062	10793
912.176	10984
912.291	10930
912.405	11025
912.519	11147
912.633	11113
912.748	11025
912.862	10949
912.976	10854
913.09	10679
913.204	10839
913.318	10790
913.431	10968
913.545	10881
913.659	10987
913.772	10854
913.886	10778
914	10702
914.113	10873
914.226	10881
914.34	10953
914.453	10626
914.566	10892
914.68	10725
914.793	10679
914.906	10546
915.019	10508
915.132	10402
915.245	10497
915.358	10508
915.47	10504
915.583	10489
915.696	10519
915.809	10694
915.921	10618
916.034	10455
916.146	10459
916.259	10489
916.371	10565
916.483	10478
916.595	10371
916.708	10348
916.82	10470
916.932	10413
917.044	10375
917.156	10386
917.268	10329
917.38	10363
917.491	10402
917.603	10325
917.715	10443
917.826	10508
917.938	10299
918.049	10215
918.161	10386
918.272	10421
918.384	10451
918.495	10329
918.606	10207
918.717	10105
918.828	10215
918.939	10215
919.05	10112
919.161	10173
919.272	10010
919.383	10036
919.494	10284
919.604	10421
919.715	10299
919.826	10200
919.936	10234
920.047	10337
920.157	10181
920.267	10325
920.378	10280
920.488	10261
920.598	10363
920.708	10569
920.818	10375
920.928	10375
921.038	10542
921.148	10565
921.258	10272
921.368	10158
921.477	10006
921.587	10017
921.697	10002
921.806	10112
921.916	9991
922.025	9774
922.134	9751
922.244	9743
922.353	9819
922.462	9713
922.571	9625
922.68	9458
922.789	9416
922.898	9473
923.007	9416
923.116	9538
923.224	9500
923.333	9443
923.442	9393
923.55	9340
923.659	9329
923.767	9367
923.876	9302
923.984	9382
924.092	9233
924.201	9363
924.309	9310
924.417	9264
924.525	9310
924.633	9348
924.741	10051
924.849	9024
924.956	9203
925.064	9150
925.172	9043
925.279	9085
925.387	9131
925.494	9074
925.602	9287
925.709	9184
925.816	9043
925.924	9104
926.031	9214
926.138	9070
926.245	9154
926.352	9039
926.459	9150
926.566	9176
926.673	9081
926.779	9005
926.886	8982
926.993	8823
927.099	8853
927.206	8804
927.312	8834
927.419	8861
927.525	8785
927.631	8864
927.737	8731
927.843	8758
927.95	8590
928.056	8766
928.162	8785
928.267	8743
928.373	9416
928.479	8819
928.585	8598
928.69	8720
928.796	8731
928.901	8640
929.007	8560
929.112	8648
929.218	8636
929.323	8522
929.428	8579
929.533	8682
929.638	8507
929.743	8590
929.848	8571
929.953	8533
930.058	8438
930.163	8301
930.267	8263
930.372	8412
930.477	8343
930.581	8488
930.685	8381
930.79	8305
930.894	8256
930.998	8237
931.103	8404
931.207	8046
931.311	7997
931.415	7951
931.519	7822
931.623	7723
