Data from test_V78500241_2512.txt Node
Date: Fri Mar 25 14:51:12 CST 2022
User: usil
Spectrometer: V785-0024
Trigger mode: 0
Integration Time (sec): 4.000000E-1
Scans to average: 1
Nonlinearity correction enabled: false
Boxcar width: 0
Storing dark spectrum: false
XAxis mode: Wavelengths
Number of Pixels in Spectrum: 1024
>>>>>Begin Spectral Data<<<<<
801.071	22147
801.214	21964
801.356	21648
801.499	21515
801.641	21545
801.783	21435
801.926	21389
802.068	21336
802.211	21325
802.353	21302
802.496	21024
802.638	20899
802.78	20921
802.923	20891
803.065	20754
803.208	20617
803.35	20689
803.492	20921
803.635	21001
803.777	20804
803.919	20834
804.061	21062
804.204	20929
804.346	20689
804.488	20663
804.63	20773
804.773	20739
804.915	20724
805.057	20830
805.199	20560
805.341	20689
805.483	20796
805.626	20743
805.768	20712
805.91	20693
806.052	20785
806.194	20511
806.336	20765
806.478	20651
806.62	20549
806.762	20667
806.904	20815
807.046	21157
807.188	21009
807.33	21039
807.472	21017
807.614	20895
807.756	20933
807.898	20769
808.04	20819
808.182	20731
808.324	20705
808.465	20727
808.607	20956
808.749	21108
808.891	21039
809.033	21203
809.174	21070
809.316	20887
809.458	21005
809.6	21036
809.741	21131
809.883	21146
810.025	21222
810.166	21237
810.308	21138
810.45	21154
810.591	21055
810.733	21051
810.875	20925
811.016	20792
811.158	20712
811.299	20910
811.441	20895
811.582	20769
811.724	20842
811.865	20788
812.007	20716
812.148	20785
812.29	20754
812.431	20899
812.573	21058
812.714	21203
812.855	21279
812.997	21412
813.138	21587
813.279	21363
813.421	21386
813.562	21093
813.703	21043
813.845	21017
813.986	20716
814.127	20541
814.268	20366
814.41	20533
814.551	20336
814.692	20522
814.833	20320
814.974	20336
815.115	20332
815.256	20248
815.397	20191
815.539	20301
815.68	20069
815.821	19967
815.962	20031
816.103	19997
816.244	19871
816.385	19772
816.526	19753
816.666	19571
816.807	19559
816.948	19597
817.089	19643
817.23	19590
817.371	19552
817.512	19438
817.653	19407
817.793	19438
817.934	19438
818.075	19563
818.216	19559
818.356	19403
818.497	19327
818.638	19034
818.778	19141
818.919	19198
819.06	19244
819.2	19247
819.341	19354
819.481	19324
819.622	19514
819.762	19757
819.903	19704
820.043	19533
820.184	19514
820.324	19464
820.465	19472
820.605	19495
820.746	19540
820.886	19316
821.026	19426
821.167	19384
821.307	19556
821.447	19529
821.588	19308
821.728	19122
821.868	19091
822.008	18833
822.149	18844
822.289	18753
822.429	18665
822.569	18460
822.709	18650
822.849	18498
822.99	18285
823.13	18372
823.27	18292
823.41	18254
823.55	18129
823.69	18186
823.83	18224
823.97	18041
824.11	17984
824.25	17935
824.389	17897
824.529	18030
824.669	17939
824.809	18171
824.949	17977
825.089	17961
825.228	17954
825.368	17767
825.508	17718
825.648	17745
825.787	17817
825.927	17748
826.067	17676
826.206	17649
826.346	17726
826.485	17828
826.625	17634
826.765	17828
826.904	17794
827.044	17505
827.183	17436
827.323	17349
827.462	17493
827.601	17436
827.741	17376
827.88	17463
828.02	17383
828.159	17383
828.298	17474
828.437	17501
828.577	17334
828.716	17638
828.855	17341
828.994	17109
829.134	17151
829.273	17178
829.412	17166
829.551	17113
829.69	17121
829.829	17170
829.968	17284
830.107	17170
830.246	17277
830.385	17132
830.524	17178
830.663	17014
830.802	16919
830.941	16752
831.08	16755
831.219	16911
831.357	16847
831.496	16911
831.635	16782
831.774	16771
831.913	16641
832.051	16577
832.19	16546
832.329	16618
832.467	16462
832.606	16405
832.744	16421
832.883	16405
833.022	16523
833.16	16432
833.299	16538
833.437	16535
833.576	16455
833.714	16523
833.852	16561
833.991	16607
834.129	16550
834.267	16596
834.406	16470
834.544	16497
834.682	16493
834.821	16512
834.959	16691
835.097	16489
835.235	16618
835.373	16440
835.511	16546
835.65	16489
835.788	16462
835.926	16310
836.064	16177
836.202	16375
836.34	16466
836.478	16535
836.615	16432
836.753	16504
836.891	16527
837.029	16375
837.167	16402
837.305	16272
837.443	16276
837.58	16337
837.718	16379
837.856	16303
837.993	16158
838.131	16265
838.269	16204
838.406	16318
838.544	16150
838.681	16048
838.819	16025
838.956	15873
839.094	15804
839.231	15865
839.369	16029
839.506	16287
839.643	15994
839.781	15816
839.918	15732
840.055	15888
840.193	15778
840.33	15781
840.467	15766
840.604	15838
840.742	16139
840.879	15720
841.016	15778
841.153	15842
841.29	15979
841.427	15827
841.564	15857
841.701	15880
841.838	15762
841.975	15804
842.112	15895
842.249	15610
842.385	15530
842.522	15804
842.659	15622
842.796	15622
842.933	15717
843.069	15652
843.206	15530
843.343	15743
843.479	15515
843.616	15629
843.752	15416
843.889	15481
844.025	15652
844.162	15393
844.298	15454
844.435	15408
844.571	15389
844.708	15496
844.844	15572
844.98	15728
845.117	15542
845.253	15443
845.389	15329
845.525	15355
845.661	15355
845.798	15294
845.934	15294
846.07	15176
846.206	15245
846.342	15260
846.478	15272
846.614	15036
846.75	14941
846.886	15047
847.022	15058
847.158	14998
847.294	15009
847.429	15066
847.565	15032
847.701	15180
847.837	14632
847.972	14659
848.108	14823
848.244	14777
848.379	14708
848.515	14556
848.65	14541
848.786	14610
848.921	14659
849.057	14678
849.192	14667
849.328	14648
849.463	14594
849.598	14568
849.734	14640
849.869	14488
850.004	14396
850.14	14343
850.275	14423
850.41	14305
850.545	14309
850.68	14313
850.815	14438
850.95	14305
851.085	14530
851.22	14503
851.355	14362
851.49	14282
851.625	14290
851.76	14309
851.895	14286
852.03	14218
852.165	14195
852.299	14377
852.434	14419
852.569	14465
852.703	14294
852.838	14450
852.973	14533
853.107	14583
853.242	14336
853.376	14256
853.511	14134
853.645	14153
853.78	14377
853.914	14328
854.048	14248
854.183	14180
854.317	14244
854.451	14454
854.585	14271
854.72	14267
854.854	14370
854.988	14138
855.122	14305
855.256	14065
855.39	14229
855.524	14374
855.658	14320
855.792	14305
855.926	14229
856.06	14320
856.194	14389
856.327	14180
856.461	14164
856.595	14176
856.729	14244
856.862	14339
856.996	14263
857.13	14408
857.263	14324
857.397	14408
857.53	14252
857.664	14351
857.797	14404
857.931	14427
858.064	14275
858.197	14339
858.331	14259
858.464	14202
858.597	14229
858.731	14176
858.864	14237
858.997	14183
859.13	14263
859.263	14336
859.396	14343
859.529	14172
859.662	14237
859.795	14233
859.928	14267
860.061	14507
860.194	14450
860.327	14389
860.46	14225
860.592	14480
860.725	14423
860.858	14476
860.99	14244
861.123	14309
861.256	14259
861.388	14271
861.521	14876
861.653	14191
861.786	14206
861.918	14119
862.05	14202
862.183	14199
862.315	14351
862.447	14324
862.58	14191
862.712	14043
862.844	14088
862.976	14084
863.108	14054
863.24	14415
863.372	14031
863.504	13951
863.636	14115
863.768	14142
863.9	14187
864.032	14020
864.164	14031
864.296	14039
864.428	14221
864.559	14111
864.691	14153
864.823	14130
864.954	14103
865.086	14035
865.217	14012
865.349	13993
865.48	14043
865.612	13997
865.743	14142
865.875	14027
866.006	13928
866.137	14046
866.269	14027
866.4	14062
866.531	14050
866.662	14001
866.793	14005
866.924	13989
867.055	14054
867.186	13997
867.317	13963
867.448	13947
867.579	14084
867.71	13925
867.841	13997
867.972	14088
868.103	14031
868.233	14012
868.364	14005
868.495	14065
868.625	14271
868.756	14427
868.886	14206
869.017	14244
869.147	14454
869.278	14434
869.408	14358
869.539	14221
869.669	14389
869.799	14286
869.929	14427
870.06	14419
870.19	14613
870.32	14484
870.45	14731
870.58	14670
870.71	14758
870.84	14754
870.97	14655
871.1	14640
871.23	14849
871.36	14815
871.489	14788
871.619	14811
871.749	14819
871.879	14933
872.008	15051
872.138	14902
872.267	14872
872.397	14777
872.526	14606
872.656	14670
872.785	14720
872.915	14925
873.044	15001
873.173	14887
873.303	14956
873.432	14986
873.561	14944
873.69	15017
873.819	14941
873.948	14994
874.077	14960
874.206	14895
874.335	14941
874.464	15036
874.593	15241
874.722	15283
874.851	15222
874.979	15302
875.108	15332
875.237	15169
875.365	15169
875.494	15108
875.623	15279
875.751	15176
875.88	15245
876.008	15462
876.136	15424
876.265	15724
876.393	15846
876.521	15774
876.65	15686
876.778	15736
876.906	15545
877.034	15698
877.162	15584
877.29	15526
877.418	15660
877.546	15610
877.674	15679
877.802	15690
877.93	15713
878.058	15515
878.185	15591
878.313	15561
878.441	15629
878.568	15580
878.696	15633
878.824	15660
878.951	15713
879.079	15751
879.206	15968
879.333	15804
879.461	15724
879.588	15743
879.715	15857
879.842	15918
879.97	15850
880.097	15595
880.224	15447
880.351	15507
880.478	15561
880.605	15515
880.732	15393
880.859	15679
880.986	15576
881.112	15564
881.239	15549
881.366	15226
881.493	15116
881.619	15154
881.746	15180
881.872	15157
881.999	15138
882.125	15146
882.252	15188
882.378	15169
882.505	15275
882.631	15070
882.757	14986
882.883	15119
883.01	15043
883.136	14906
883.262	14838
883.388	14754
883.514	15009
883.64	14990
883.766	14941
883.892	14830
884.018	14750
884.143	14956
884.269	14990
884.395	14689
884.52	14667
884.646	14655
884.772	14587
884.897	14651
885.023	14705
885.148	14746
885.274	14815
885.399	14804
885.524	14629
885.65	14712
885.775	14800
885.9	14853
886.025	14807
886.15	14807
886.275	14724
886.4	14556
886.525	14674
886.65	14587
886.775	14651
886.9	14899
887.025	14807
887.149	14754
887.274	14552
887.399	14522
887.523	14518
887.648	14480
887.773	14396
887.897	14575
888.021	14556
888.146	14434
888.27	14583
888.395	14644
888.519	14648
888.643	14473
888.767	14610
888.891	14476
889.015	14393
889.139	14275
889.263	14259
889.387	14454
889.511	14549
889.635	14499
889.759	14389
889.883	14438
890.006	14427
890.13	14549
890.254	14355
890.377	14275
890.501	14210
890.624	14187
890.748	14233
890.871	14199
890.995	14115
891.118	13993
891.241	14046
891.364	14130
891.488	14168
891.611	14065
891.734	14172
891.857	14073
891.98	14077
892.103	14183
892.226	14005
892.349	14164
892.471	13963
892.594	14069
892.717	14008
892.839	14069
892.962	14096
893.085	14153
893.207	13963
893.33	14001
893.452	13974
893.575	14073
893.697	13963
893.819	14328
893.941	14317
894.064	14324
894.186	14058
894.308	13986
894.43	14248
894.552	14305
894.674	14275
894.796	14111
894.918	14180
895.04	14138
895.161	14164
895.283	14309
895.405	14100
895.526	14256
895.648	14164
895.769	14237
895.891	14278
896.012	14339
896.134	14225
896.255	14336
896.376	14161
896.498	14237
896.619	14267
896.74	14309
896.861	14320
896.982	14659
897.103	14902
897.224	14613
897.345	14514
897.466	14450
897.587	14518
897.708	14629
897.828	14571
897.949	14457
898.07	14427
898.19	14431
898.311	14598
898.431	14507
898.552	14651
898.672	14682
898.792	14663
898.913	14678
899.033	14564
899.153	14412
899.273	14423
899.393	14286
899.513	14339
899.633	14442
899.753	14514
899.873	14427
899.993	14469
900.113	14457
900.232	14507
900.352	14484
900.472	14377
900.591	14317
900.711	14442
900.83	14298
900.95	14461
901.069	14530
901.189	14278
901.308	14054
901.427	14081
901.546	13986
901.665	13944
901.784	14012
901.904	13898
902.023	13791
902.141	13582
902.26	13578
902.379	13594
902.498	13540
902.617	13464
902.735	13639
902.854	13643
902.973	13521
903.091	13232
903.21	13240
903.328	13285
903.446	13236
903.565	13194
903.683	13152
903.801	13008
903.919	13133
904.038	13198
904.156	12985
904.274	13004
904.392	12928
904.51	12886
904.627	13019
904.745	12962
904.863	13038
904.981	12776
905.098	12642
905.216	12662
905.334	12658
905.451	12722
905.569	12585
905.686	12711
905.803	12677
905.921	12418
906.038	12532
906.155	12410
906.272	12357
906.389	12429
906.506	12270
906.623	12213
906.74	12289
906.857	12095
906.974	12178
907.091	12228
907.208	12342
907.324	12239
907.441	12197
907.557	12057
907.674	11969
907.79	11904
907.907	11984
908.023	12057
908.139	11920
908.256	11969
908.372	11927
908.488	11866
908.604	11707
908.72	11714
908.836	11767
908.952	11691
909.068	11764
909.184	11813
909.3	11779
909.415	11824
909.531	11836
909.647	11505
909.762	11486
909.878	11402
909.993	11596
910.108	11471
910.224	11493
910.339	11474
910.454	11395
910.57	11330
910.685	11204
910.8	11562
910.915	11573
911.03	11410
911.145	11265
911.259	11212
911.374	11193
911.489	11029
911.604	11201
911.718	10946
911.833	10999
911.947	10889
912.062	10755
912.176	10923
912.291	10957
912.405	10915
912.519	11166
912.633	11170
912.748	11029
912.862	10976
912.976	10835
913.09	10748
913.204	10717
913.318	10824
913.431	10850
913.545	10915
913.659	11014
913.772	10839
913.886	10797
914	10694
914.113	10847
914.226	10908
914.34	10850
914.453	10706
914.566	10797
914.68	10778
914.793	10679
914.906	10462
915.019	10497
915.132	10417
915.245	10493
915.358	10474
915.47	10489
915.583	10531
915.696	10577
915.809	10580
915.921	10660
916.034	10432
916.146	10512
916.259	10379
916.371	10577
916.483	10508
916.595	10360
916.708	10371
916.82	10398
916.932	10440
917.044	10325
917.156	10390
917.268	10268
917.38	10379
917.491	10348
917.603	10314
917.715	10394
917.826	10481
917.938	10242
918.049	10246
918.161	10242
918.272	10356
918.384	10432
918.495	10363
918.606	10150
918.717	10105
918.828	10192
918.939	10215
919.05	10158
919.161	10196
919.272	9983
919.383	10013
919.494	10207
919.604	10470
919.715	10223
919.826	10101
919.936	10169
920.047	10230
920.157	10227
920.267	10386
920.378	10200
920.488	10173
920.598	10417
920.708	10599
920.818	10432
920.928	10360
921.038	10622
921.148	10535
921.258	10261
921.368	10131
921.477	10059
921.587	10097
921.697	9968
921.806	10040
921.916	9915
922.025	9846
922.134	9690
922.244	9717
922.353	9781
922.462	9637
922.571	9595
922.68	9523
922.789	9447
922.898	9568
923.007	9405
923.116	9485
923.224	9477
923.333	9492
923.442	9348
923.55	9317
923.659	9355
923.767	9424
923.876	9344
923.984	9424
924.092	9264
924.201	9344
924.309	9321
924.417	9367
924.525	9321
924.633	9256
924.741	10230
924.849	9119
924.956	9329
925.064	9119
925.172	8982
925.279	9051
925.387	9127
925.494	9138
925.602	9302
925.709	9192
925.816	9093
925.924	9218
926.031	9249
926.138	9207
926.245	9253
926.352	9123
926.459	9161
926.566	9275
926.673	9047
926.779	9074
926.886	9043
926.993	8918
927.099	8876
927.206	8876
927.312	8861
927.419	8952
927.525	8864
927.631	8876
927.737	8769
927.843	8811
927.95	8655
928.056	8785
928.162	8712
928.267	8880
928.373	9466
928.479	8872
928.585	8617
928.69	8731
928.796	8743
928.901	8693
929.007	8499
929.112	8727
929.218	8625
929.323	8473
929.428	8621
929.533	8682
929.638	8530
929.743	8549
929.848	8625
929.953	8602
930.058	8476
930.163	8320
930.267	8362
930.372	8434
930.477	8374
930.581	8579
930.685	8396
930.79	8256
930.894	8275
930.998	8240
931.103	8434
931.207	8111
931.311	8039
931.415	7967
931.519	7715
931.623	7818
