Data from test_V78500241_85.txt Node
Date: Fri Mar 25 14:34:19 CST 2022
User: usil
Spectrometer: V785-0024
Trigger mode: 0
Integration Time (sec): 4.000000E-1
Scans to average: 1
Nonlinearity correction enabled: false
Boxcar width: 0
Storing dark spectrum: false
XAxis mode: Wavelengths
Number of Pixels in Spectrum: 1024
>>>>>Begin Spectral Data<<<<<
801.071	28873
801.214	28797
801.356	28432
801.499	28466
801.641	28246
801.783	28272
801.926	28105
802.068	28230
802.211	28177
802.353	28158
802.496	28063
802.638	27899
802.78	27895
802.923	27892
803.065	27911
803.208	27736
803.35	27850
803.492	28013
803.635	27895
803.777	27854
803.919	27964
804.061	28192
804.204	28036
804.346	27808
804.488	27842
804.63	27861
804.773	27808
804.915	27907
805.057	27892
805.199	27819
805.341	27766
805.483	28044
805.626	27964
805.768	27823
805.91	27975
806.052	28116
806.194	27808
806.336	28150
806.478	27922
806.62	28002
806.762	28177
806.904	28185
807.046	28481
807.188	28337
807.33	28246
807.472	28401
807.614	28363
807.756	28303
807.898	28249
808.04	28166
808.182	28120
808.324	27922
808.465	28105
808.607	28371
808.749	28386
808.891	28478
809.033	28691
809.174	28478
809.316	28443
809.458	28497
809.6	28497
809.741	28538
809.883	28656
810.025	28831
810.166	28774
810.308	28713
810.45	28672
810.591	28569
810.733	28478
810.875	28428
811.016	28272
811.158	28268
811.299	28432
811.441	28542
811.582	28398
811.724	28322
811.865	28363
812.007	28409
812.148	28356
812.29	28280
812.431	28569
812.573	28691
812.714	28717
812.855	28938
812.997	28923
813.138	29124
813.279	29014
813.421	28930
813.562	28847
813.703	28634
813.845	28550
813.986	28337
814.127	28173
814.268	27994
814.41	27926
814.551	27987
814.692	27926
814.833	27953
814.974	27835
815.115	27907
815.256	27884
815.397	27899
815.539	27736
815.68	27759
815.821	27732
815.962	27724
816.103	27603
816.244	27587
816.385	27397
816.526	27279
816.666	27245
816.807	27146
816.948	27199
817.089	26998
817.23	27058
817.371	26994
817.512	27009
817.653	26982
817.793	27058
817.934	27085
818.075	27024
818.216	27096
818.356	27024
818.497	26960
818.638	26617
818.778	26823
818.919	26937
819.06	26811
819.2	26925
819.341	26986
819.481	26830
819.622	27123
819.762	27287
819.903	27268
820.043	27070
820.184	27009
820.324	27043
820.465	27131
820.605	27154
820.746	26952
820.886	26952
821.026	26914
821.167	26967
821.307	27119
821.447	26910
821.588	26937
821.728	26686
821.868	26442
822.008	26332
822.149	26453
822.289	26282
822.429	26069
822.569	25913
822.709	26134
822.849	25818
822.99	25731
823.13	25776
823.27	25670
823.41	25537
823.55	25479
823.69	25548
823.83	25624
823.97	25518
824.11	25350
824.25	25228
824.389	25343
824.529	25365
824.669	25308
824.809	25373
824.949	25422
825.089	25411
825.228	25495
825.368	25156
825.508	25240
825.648	25213
825.787	25289
825.927	25187
826.067	25168
826.206	25126
826.346	25110
826.485	25225
826.625	25084
826.765	25137
826.904	25187
827.044	24871
827.183	24894
827.323	24852
827.462	24894
827.601	24749
827.741	24852
827.88	24844
828.02	24791
828.159	24753
828.298	24886
828.437	24859
828.577	24574
828.716	24901
828.855	24757
828.994	24513
829.134	24544
829.273	24521
829.412	24456
829.551	24517
829.69	24380
829.829	24528
829.968	24623
830.107	24517
830.246	24346
830.385	24384
830.524	24464
830.663	24277
830.802	24228
830.941	23984
831.08	24068
831.219	24095
831.357	24083
831.496	24224
831.635	24114
831.774	23904
831.913	23923
832.051	23813
832.19	23760
832.329	23783
832.467	23695
832.606	23695
832.744	23630
832.883	23539
833.022	23630
833.16	23680
833.299	23596
833.437	23699
833.576	23752
833.714	23661
833.852	23737
833.991	23707
834.129	23729
834.267	23707
834.406	23619
834.544	23760
834.682	23668
834.821	23604
834.959	23863
835.097	23516
835.235	23695
835.373	23600
835.511	23531
835.65	23501
835.788	23433
835.926	23376
836.064	23288
836.202	23360
836.34	23406
836.478	23539
836.615	23303
836.753	23425
836.891	23573
837.029	23406
837.167	23303
837.305	23353
837.443	23315
837.58	23337
837.718	23330
837.856	23254
837.993	23227
838.131	23372
838.269	23109
838.406	23151
838.544	23098
838.681	23025
838.819	23060
838.956	22812
839.094	22778
839.231	22805
839.369	22991
839.506	23064
839.643	23025
839.781	22797
839.918	22615
840.055	22675
840.193	22607
840.33	22630
840.467	22584
840.604	22607
840.742	22869
840.879	22508
841.016	22565
841.153	22428
841.29	22748
841.427	22603
841.564	22485
841.701	22538
841.838	22500
841.975	22588
842.112	22466
842.249	22318
842.385	22421
842.522	22424
842.659	22360
842.796	22295
842.933	22280
843.069	22150
843.206	22265
843.343	22417
843.479	22344
843.616	22234
843.752	22082
843.889	22188
844.025	22093
844.162	22048
844.298	22124
844.435	22109
844.571	21960
844.708	22090
844.844	22067
844.98	22147
845.117	22067
845.253	21991
845.389	21895
845.525	21850
845.661	21857
845.798	21774
845.934	21709
846.07	21595
846.206	21797
846.342	21880
846.478	21701
846.614	21504
846.75	21424
846.886	21401
847.022	21641
847.158	21488
847.294	21519
847.429	21386
847.565	21466
847.701	21610
847.837	21214
847.972	21081
848.108	21256
848.244	21260
848.379	20952
848.515	21074
848.65	20887
848.786	21001
848.921	21093
849.057	21169
849.192	20982
849.328	20948
849.463	20921
849.598	20883
849.734	20921
849.869	20857
850.004	20887
850.14	20826
850.275	20705
850.41	20670
850.545	20609
850.68	20667
850.815	20788
850.95	20625
851.085	20956
851.22	20697
851.355	20712
851.49	20727
851.625	20613
851.76	20689
851.895	20583
852.03	20530
852.165	20739
852.299	20762
852.434	20891
852.569	20686
852.703	20701
852.838	20769
852.973	20689
853.107	20720
853.242	20537
853.376	20564
853.511	20374
853.645	20533
853.78	20743
853.914	20560
854.048	20434
854.183	20450
854.317	20499
854.451	20636
854.585	20522
854.72	20511
854.854	20549
854.988	20434
855.122	20533
855.256	20218
855.39	20522
855.524	20530
855.658	20514
855.792	20522
855.926	20594
856.06	20640
856.194	20587
856.327	20465
856.461	20412
856.595	20511
856.729	20488
856.862	20636
856.996	20450
857.13	20644
857.263	20560
857.397	20575
857.53	20412
857.664	20389
857.797	20556
857.931	20549
858.064	20530
858.197	20473
858.331	20454
858.464	20408
858.597	20366
858.731	20438
858.864	20385
858.997	20336
859.13	20408
859.263	20404
859.396	20434
859.529	20355
859.662	20469
859.795	20275
859.928	20526
860.061	20556
860.194	20537
860.327	20324
860.46	20419
860.592	20495
860.725	20522
860.858	20404
860.99	20214
861.123	20290
861.256	20415
861.388	20465
861.521	20998
861.653	20206
861.786	20199
861.918	20389
862.05	20431
862.183	20446
862.315	20495
862.447	20412
862.58	20473
862.712	20183
862.844	20164
862.976	20240
863.108	20202
863.24	20556
863.372	20115
863.504	20176
863.636	20065
863.768	20202
863.9	20046
864.032	19963
864.164	20088
864.296	20062
864.428	20122
864.559	20134
864.691	20096
864.823	20153
864.954	20065
865.086	20119
865.217	20058
865.349	19970
865.48	19936
865.612	20027
865.743	20065
865.875	20027
866.006	19955
866.137	20081
866.269	19993
866.4	20005
866.531	20031
866.662	19932
866.793	19993
866.924	19932
867.055	19955
867.186	19898
867.317	19845
867.448	19780
867.579	19814
867.71	19955
867.841	19894
867.972	19974
868.103	20039
868.233	19894
868.364	19951
868.495	19997
868.625	20103
868.756	20282
868.886	20020
869.017	20161
869.147	20210
869.278	20168
869.408	20240
869.539	20180
869.669	20317
869.799	20176
869.929	20324
870.06	20259
870.19	20480
870.32	20396
870.45	20492
870.58	20476
870.71	20663
870.84	20552
870.97	20507
871.1	20617
871.23	20697
871.36	20796
871.489	20606
871.619	20724
871.749	20758
871.879	20750
872.008	20883
872.138	20708
872.267	20853
872.397	20602
872.526	20560
872.656	20568
872.785	20503
872.915	20758
873.044	20773
873.173	20887
873.303	20811
873.432	20849
873.561	20842
873.69	20743
873.819	20796
873.948	20823
874.077	20788
874.206	20739
874.335	20804
874.464	20815
874.593	21020
874.722	20948
874.851	21100
874.979	21089
875.108	21039
875.237	20963
875.365	20872
875.494	20876
875.623	21123
875.751	21100
875.88	20975
876.008	21199
876.136	21154
876.265	21420
876.393	21561
876.521	21458
876.65	21408
876.778	21420
876.906	21428
877.034	21370
877.162	21485
877.29	21477
877.418	21363
877.546	21428
877.674	21332
877.802	21291
877.93	21439
878.058	21401
878.185	21287
878.313	21401
878.441	21348
878.568	21230
878.696	21340
878.824	21439
878.951	21435
879.079	21557
879.206	21728
879.333	21500
879.461	21382
879.588	21428
879.715	21485
879.842	21614
879.97	21443
880.097	21340
880.224	21146
880.351	21226
880.478	21081
880.605	21104
880.732	21188
880.859	21287
880.986	21211
881.112	21245
881.239	21150
881.366	20941
881.493	20796
881.619	20902
881.746	20826
881.872	20800
881.999	20883
882.125	20785
882.252	20891
882.378	20800
882.505	21005
882.631	20629
882.757	20606
882.883	20389
883.01	20571
883.136	20442
883.262	20347
883.388	20298
883.514	20541
883.64	20571
883.766	20423
883.892	20385
884.018	20355
884.143	20488
884.269	20522
884.395	20202
884.52	20214
884.646	20199
884.772	20122
884.897	20191
885.023	20290
885.148	20328
885.274	20362
885.399	20187
885.524	20225
885.65	20210
885.775	20244
885.9	20168
886.025	20202
886.15	20229
886.275	20218
886.4	20092
886.525	20130
886.65	20050
886.775	20005
886.9	20313
887.025	20370
887.149	20065
887.274	19997
887.399	19909
887.523	19890
887.648	19841
887.773	19807
887.897	19986
888.021	19989
888.146	19955
888.27	19928
888.395	20073
888.519	19947
888.643	19856
888.767	20081
888.891	19803
889.015	19761
889.139	19841
889.263	19700
889.387	19784
889.511	19811
889.635	19879
889.759	19750
889.883	19693
890.006	19708
890.13	19723
890.254	19601
890.377	19696
890.501	19464
890.624	19460
890.748	19613
890.871	19308
890.995	19312
891.118	19278
891.241	19312
891.364	19346
891.488	19400
891.611	19244
891.734	19350
891.857	19373
891.98	19384
892.103	19282
892.226	19350
892.349	19164
892.471	19141
892.594	19171
892.717	19122
892.839	19206
892.962	19255
893.085	19274
893.207	19206
893.33	19080
893.452	19027
893.575	19304
893.697	19232
893.819	19365
893.941	19419
894.064	19487
894.186	19240
894.308	19171
894.43	19221
894.552	19464
894.674	19445
894.796	19266
894.918	19209
895.04	19304
895.161	19350
895.283	19354
895.405	19183
895.526	19187
895.648	19228
895.769	19228
895.891	19346
896.012	19346
896.134	19240
896.255	19289
896.376	19194
896.498	19247
896.619	19308
896.74	19301
896.861	19392
896.982	19723
897.103	19791
897.224	19620
897.345	19499
897.466	19411
897.587	19518
897.708	19559
897.828	19487
897.949	19392
898.07	19327
898.19	19384
898.311	19647
898.431	19457
898.552	19457
898.672	19472
898.792	19491
898.913	19502
899.033	19312
899.153	19403
899.273	19187
899.393	19232
899.513	19274
899.633	19270
899.753	19316
899.873	19183
899.993	19324
900.113	19122
900.232	19259
900.352	19065
900.472	19091
900.591	19012
900.711	19122
900.83	19050
900.95	19126
901.069	19225
901.189	19042
901.308	18814
901.427	18639
901.546	18749
901.665	18757
901.784	18646
901.904	18593
902.023	18361
902.141	18174
902.26	18098
902.379	18342
902.498	18171
902.617	18144
902.735	18178
902.854	18148
902.973	18041
903.091	17805
903.21	17817
903.328	17802
903.446	17786
903.565	17539
903.683	17573
903.801	17516
903.919	17649
904.038	17528
904.156	17330
904.274	17547
904.392	17353
904.51	17376
904.627	17345
904.745	17455
904.863	17448
904.981	17071
905.098	17067
905.216	16972
905.334	17033
905.451	17083
905.569	17022
905.686	17003
905.803	16980
905.921	16763
906.038	16919
906.155	16801
906.272	16679
906.389	16850
906.506	16470
906.623	16535
906.74	16538
906.857	16409
906.974	16440
907.091	16580
907.208	16694
907.324	16592
907.441	16390
907.557	16253
907.674	16337
907.79	16169
907.907	16295
908.023	16090
908.139	16200
908.256	16139
908.372	16071
908.488	16036
908.604	15987
908.72	15888
908.836	15918
908.952	15922
909.068	16093
909.184	15960
909.3	15960
909.415	15953
909.531	15804
909.647	15660
909.762	15682
909.878	15584
909.993	15614
910.108	15618
910.224	15458
910.339	15637
910.454	15469
910.57	15458
910.685	15374
910.8	15614
910.915	15534
911.03	15291
911.145	15298
911.259	15119
911.374	15169
911.489	15176
911.604	15055
911.718	15036
911.833	15032
911.947	14804
912.062	14796
912.176	14925
912.291	14941
912.405	14815
912.519	14990
912.633	15081
912.748	14906
912.862	14918
912.976	14777
913.09	14629
913.204	14682
913.318	14823
913.431	14830
913.545	14895
913.659	14800
913.772	14655
913.886	14571
914	14507
914.113	14659
914.226	14762
914.34	14670
914.453	14465
914.566	14651
914.68	14514
914.793	14469
914.906	14294
915.019	14176
915.132	14168
915.245	14233
915.358	14267
915.47	14343
915.583	14339
915.696	14263
915.809	14396
915.921	14374
916.034	14142
916.146	14111
916.259	14119
916.371	14221
916.483	14100
916.595	14088
916.708	14058
916.82	14027
916.932	14027
917.044	14039
917.156	13921
917.268	13868
917.38	13875
917.491	13868
917.603	13871
917.715	13970
917.826	13978
917.938	13822
918.049	13799
918.161	13818
918.272	13936
918.384	13959
918.495	13822
918.606	13769
918.717	13590
918.828	13742
918.939	13753
919.05	13548
919.161	13681
919.272	13415
919.383	13384
919.494	13655
919.604	13814
919.715	13685
919.826	13525
919.936	13647
920.047	13651
920.157	13693
920.267	13822
920.378	13586
920.488	13571
920.598	13734
920.708	13879
920.818	13769
920.928	13776
921.038	13887
921.148	13833
921.258	13556
921.368	13487
921.477	13362
921.587	13377
921.697	13164
921.806	13388
921.916	13304
922.025	13107
922.134	12989
922.244	12909
922.353	13053
922.462	12814
922.571	12829
922.68	12654
922.789	12627
922.898	12760
923.007	12547
923.116	12707
923.224	12566
923.333	12559
923.442	12483
923.55	12433
923.659	12456
923.767	12513
923.876	12441
923.984	12540
924.092	12304
924.201	12410
924.309	12433
924.417	12372
924.525	12327
924.633	12369
924.741	13251
924.849	12129
924.956	12353
925.064	12114
925.172	12026
925.279	12182
925.387	12155
925.494	12125
925.602	12167
925.709	12182
925.816	12060
925.924	12045
926.031	12194
926.138	12083
926.245	12129
926.352	12003
926.459	12053
926.566	12095
926.673	11920
926.779	11912
926.886	11866
926.993	11821
927.099	11741
927.206	11649
927.312	11615
927.419	11661
927.525	11695
927.631	11714
927.737	11748
927.843	11520
927.95	11459
928.056	11463
928.162	11570
928.267	11570
928.373	12057
928.479	11653
928.585	11383
928.69	11425
928.796	11516
928.901	11372
929.007	11303
929.112	11330
929.218	11379
929.323	11231
929.428	11273
929.533	11356
929.638	11113
929.743	11269
929.848	11307
929.953	11273
930.058	11102
930.163	10866
930.267	10999
930.372	11102
930.477	10904
930.581	11056
930.685	11048
930.79	10839
930.894	10873
930.998	10797
931.103	10885
931.207	10596
931.311	10611
931.415	10504
931.519	10280
931.623	10265
