Data from test_V78500241_1832.txt Node
Date: Fri Mar 25 14:46:28 CST 2022
User: usil
Spectrometer: V785-0024
Trigger mode: 0
Integration Time (sec): 4.000000E-1
Scans to average: 1
Nonlinearity correction enabled: false
Boxcar width: 0
Storing dark spectrum: false
XAxis mode: Wavelengths
Number of Pixels in Spectrum: 1024
>>>>>Begin Spectral Data<<<<<
801.071	22204
801.214	22025
801.356	21850
801.499	21724
801.641	21553
801.783	21542
801.926	21595
802.068	21462
802.211	21420
802.353	21313
802.496	21135
802.638	21001
802.78	21112
802.923	20838
803.065	20800
803.208	20796
803.35	20998
803.492	20933
803.635	20971
803.777	20891
803.919	20933
804.061	21180
804.204	20857
804.346	20796
804.488	20807
804.63	20838
804.773	20758
804.915	20788
805.057	20739
805.199	20758
805.341	20880
805.483	21009
805.626	20864
805.768	20651
805.91	20796
806.052	20842
806.194	20731
806.336	20883
806.478	20804
806.62	20849
806.762	20861
806.904	20960
807.046	21302
807.188	21150
807.33	21142
807.472	21150
807.614	20880
807.756	21104
807.898	20819
808.04	20804
808.182	20857
808.324	20849
808.465	20982
808.607	21047
808.749	21165
808.891	21321
809.033	21249
809.174	21332
809.316	21131
809.458	21093
809.6	21272
809.741	21260
809.883	21230
810.025	21344
810.166	21233
810.308	21287
810.45	21313
810.591	21100
810.733	21131
810.875	20868
811.016	20720
811.158	20899
811.299	21001
811.441	20952
811.582	21028
811.724	20956
811.865	20929
812.007	20921
812.148	21039
812.29	20937
812.431	21116
812.573	21321
812.714	21412
812.855	21351
812.997	21458
813.138	21705
813.279	21610
813.421	21481
813.562	21363
813.703	21203
813.845	21028
813.986	20769
814.127	20697
814.268	20450
814.41	20556
814.551	20343
814.692	20545
814.833	20370
814.974	20385
815.115	20457
815.256	20313
815.397	20305
815.539	20412
815.68	20252
815.821	20263
815.962	20202
816.103	20046
816.244	20142
816.385	20008
816.526	19909
816.666	19814
816.807	19628
816.948	19719
817.089	19761
817.23	19651
817.371	19483
817.512	19533
817.653	19674
817.793	19525
817.934	19510
818.075	19514
818.216	19582
818.356	19468
818.497	19434
818.638	19293
818.778	19266
818.919	19228
819.06	19217
819.2	19445
819.341	19460
819.481	19518
819.622	19552
819.762	19795
819.903	19731
820.043	19700
820.184	19655
820.324	19578
820.465	19632
820.605	19670
820.746	19533
820.886	19480
821.026	19601
821.167	19594
821.307	19578
821.447	19506
821.588	19369
821.728	19301
821.868	19076
822.008	18981
822.149	18901
822.289	18932
822.429	18703
822.569	18631
822.709	18684
822.849	18502
822.99	18441
823.13	18410
823.27	18460
823.41	18365
823.55	18163
823.69	18388
823.83	18273
823.97	18235
824.11	18022
824.25	18076
824.389	18057
824.529	18159
824.669	18106
824.809	18171
824.949	18133
825.089	18030
825.228	18079
825.368	17931
825.508	17950
825.648	17805
825.787	17794
825.927	17817
826.067	17783
826.206	17767
826.346	17859
826.485	17836
826.625	17908
826.765	17916
826.904	17802
827.044	17691
827.183	17600
827.323	17516
827.462	17615
827.601	17509
827.741	17516
827.88	17524
828.02	17433
828.159	17539
828.298	17440
828.437	17589
828.577	17497
828.716	17653
828.855	17604
828.994	17368
829.134	17239
829.273	17303
829.412	17216
829.551	17235
829.69	17231
829.829	17265
829.968	17448
830.107	17296
830.246	17296
830.385	17254
830.524	17159
830.663	17155
830.802	16995
830.941	16900
831.08	16839
831.219	16987
831.357	16919
831.496	17079
831.635	16850
831.774	16885
831.913	16835
832.051	16748
832.19	16634
832.329	16778
832.467	16679
832.606	16538
832.744	16599
832.883	16592
833.022	16535
833.16	16687
833.299	16653
833.437	16630
833.576	16710
833.714	16683
833.852	16596
833.991	16687
834.129	16740
834.267	16702
834.406	16569
834.544	16759
834.682	16679
834.821	16626
834.959	16809
835.097	16626
835.235	16748
835.373	16721
835.511	16630
835.65	16653
835.788	16607
835.926	16455
836.064	16360
836.202	16360
836.34	16516
836.478	16641
836.615	16580
836.753	16409
836.891	16713
837.029	16588
837.167	16577
837.305	16428
837.443	16565
837.58	16386
837.718	16508
837.856	16409
837.993	16394
838.131	16447
838.269	16443
838.406	16413
838.544	16284
838.681	16101
838.819	16086
838.956	16040
839.094	16078
839.231	16013
839.369	16158
839.506	16379
839.643	16223
839.781	16067
839.918	15880
840.055	15991
840.193	15888
840.33	15960
840.467	16017
840.604	15918
840.742	16204
840.879	15808
841.016	15979
841.153	15876
841.29	16036
841.427	16086
841.564	16040
841.701	16093
841.838	15945
841.975	15979
842.112	15876
842.249	15816
842.385	15816
842.522	15979
842.659	15911
842.796	15717
842.933	15679
843.069	15797
843.206	15637
843.343	15865
843.479	15846
843.616	15781
843.752	15572
843.889	15549
844.025	15736
844.162	15511
844.298	15625
844.435	15466
844.571	15500
844.708	15656
844.844	15743
844.98	15739
845.117	15736
845.253	15485
845.389	15401
845.525	15549
845.661	15439
845.798	15336
845.934	15378
846.07	15363
846.206	15367
846.342	15511
846.478	15336
846.614	15131
846.75	15131
846.886	15020
847.022	15241
847.158	15146
847.294	15233
847.429	15127
847.565	15108
847.701	15344
847.837	14937
847.972	14921
848.108	14967
848.244	14948
848.379	14800
848.515	14727
848.65	14739
848.786	14804
848.921	14777
849.057	14819
849.192	14891
849.328	14788
849.463	14655
849.598	14701
849.734	14625
849.869	14568
850.004	14568
850.14	14522
850.275	14495
850.41	14408
850.545	14545
850.68	14400
850.815	14503
850.95	14484
851.085	14686
851.22	14541
851.355	14423
851.49	14469
851.625	14438
851.76	14404
851.895	14446
852.03	14324
852.165	14522
852.299	14446
852.434	14598
852.569	14632
852.703	14511
852.838	14545
852.973	14807
853.107	14777
853.242	14431
853.376	14473
853.511	14248
853.645	14336
853.78	14476
853.914	14412
854.048	14389
854.183	14324
854.317	14324
854.451	14514
854.585	14305
854.72	14294
854.854	14396
854.988	14309
855.122	14275
855.256	14301
855.39	14244
855.524	14465
855.658	14473
855.792	14385
855.926	14450
856.06	14423
856.194	14495
856.327	14423
856.461	14271
856.595	14343
856.729	14305
856.862	14450
856.996	14408
857.13	14446
857.263	14396
857.397	14503
857.53	14389
857.664	14343
857.797	14358
857.931	14522
858.064	14328
858.197	14484
858.331	14305
858.464	14309
858.597	14252
858.731	14358
858.864	14362
858.997	14389
859.13	14343
859.263	14351
859.396	14556
859.529	14358
859.662	14328
859.795	14271
859.928	14385
860.061	14552
860.194	14552
860.327	14317
860.46	14305
860.592	14511
860.725	14469
860.858	14431
860.99	14396
861.123	14309
861.256	14221
861.388	14267
861.521	15043
861.653	14301
861.786	14164
861.918	14157
862.05	14275
862.183	14377
862.315	14332
862.447	14412
862.58	14210
862.712	14088
862.844	14145
862.976	14252
863.108	14153
863.24	14568
863.372	14145
863.504	14172
863.636	14164
863.768	14126
863.9	14172
864.032	14031
864.164	14103
864.296	14271
864.428	14309
864.559	14233
864.691	14168
864.823	14225
864.954	14252
865.086	14065
865.217	14164
865.349	14046
865.48	14035
865.612	14001
865.743	14351
865.875	14134
866.006	14073
866.137	14134
866.269	14123
866.4	14180
866.531	14027
866.662	13997
866.793	14088
866.924	14081
867.055	14145
867.186	14168
867.317	14115
867.448	14149
867.579	14130
867.71	14077
867.841	14119
867.972	14088
868.103	14123
868.233	14031
868.364	14138
868.495	14183
868.625	14377
868.756	14457
868.886	14240
869.017	14339
869.147	14484
869.278	14461
869.408	14423
869.539	14377
869.669	14431
869.799	14431
869.929	14434
870.06	14518
870.19	14716
870.32	14708
870.45	14705
870.58	14743
870.71	14823
870.84	14998
870.97	14727
871.1	14762
871.23	14937
871.36	14929
871.489	14857
871.619	14941
871.749	14948
871.879	14982
872.008	15104
872.138	15028
872.267	15005
872.397	14842
872.526	14800
872.656	14769
872.785	14777
872.915	14944
873.044	15066
873.173	14971
873.303	15024
873.432	15070
873.561	15070
873.69	14979
873.819	15009
873.948	15127
874.077	15051
874.206	14990
874.335	15039
874.464	15127
874.593	15351
874.722	15188
874.851	15287
874.979	15386
875.108	15294
875.237	15348
875.365	15306
875.494	15321
875.623	15428
875.751	15355
875.88	15344
876.008	15500
876.136	15515
876.265	15728
876.393	15964
876.521	15793
876.65	15778
876.778	15732
876.906	15812
877.034	15789
877.162	15656
877.29	15633
877.418	15606
877.546	15751
877.674	15766
877.802	15816
877.93	15690
878.058	15682
878.185	15660
878.313	15755
878.441	15766
878.568	15633
878.696	15778
878.824	15732
878.951	15857
879.079	15972
879.206	16017
879.333	15838
879.461	15812
879.588	15793
879.715	15823
879.842	16025
879.97	15827
880.097	15671
880.224	15488
880.351	15561
880.478	15614
880.605	15568
880.732	15492
880.859	15842
880.986	15694
881.112	15557
881.239	15576
881.366	15443
881.493	15348
881.619	15245
881.746	15336
881.872	15211
881.999	15241
882.125	15287
882.252	15279
882.378	15325
882.505	15351
882.631	15272
882.757	15017
882.883	15245
883.01	15085
883.136	15074
883.262	14952
883.388	14891
883.514	15169
883.64	15119
883.766	15005
883.892	14914
884.018	14925
884.143	15081
884.269	15192
884.395	14910
884.52	14746
884.646	14804
884.772	14640
884.897	14621
885.023	14826
885.148	14883
885.274	14902
885.399	14876
885.524	14804
885.65	14765
885.775	14750
885.9	14773
886.025	14880
886.15	14788
886.275	14777
886.4	14731
886.525	14648
886.65	14792
886.775	14648
886.9	14921
887.025	14883
887.149	14781
887.274	14522
887.399	14564
887.523	14545
887.648	14526
887.773	14545
887.897	14731
888.021	14693
888.146	14552
888.27	14727
888.395	14693
888.519	14720
888.643	14648
888.767	14610
888.891	14526
889.015	14434
889.139	14484
889.263	14469
889.387	14617
889.511	14705
889.635	14629
889.759	14469
889.883	14457
890.006	14427
890.13	14579
890.254	14412
890.377	14454
890.501	14343
890.624	14233
890.748	14457
890.871	14233
890.995	14084
891.118	14069
891.241	14237
891.364	14225
891.488	14256
891.611	14153
891.734	14206
891.857	14214
891.98	14119
892.103	14233
892.226	14199
892.349	14088
892.471	14012
892.594	14069
892.717	14183
892.839	14054
892.962	14191
893.085	14195
893.207	14168
893.33	13989
893.452	14107
893.575	14164
893.697	14210
893.819	14278
893.941	14408
894.064	14423
894.186	14092
894.308	14134
894.43	14248
894.552	14389
894.674	14366
894.796	14176
894.918	14157
895.04	14161
895.161	14377
895.283	14328
895.405	14168
895.526	14202
895.648	14282
895.769	14286
895.891	14263
896.012	14415
896.134	14408
896.255	14180
896.376	14233
896.498	14328
896.619	14278
896.74	14370
896.861	14431
896.982	14712
897.103	14845
897.224	14659
897.345	14629
897.466	14431
897.587	14598
897.708	14804
897.828	14617
897.949	14587
898.07	14415
898.19	14613
898.311	14750
898.431	14598
898.552	14765
898.672	14800
898.792	14739
898.913	14804
899.033	14537
899.153	14537
899.273	14465
899.393	14518
899.513	14434
899.633	14602
899.753	14613
899.873	14434
899.993	14541
900.113	14514
900.232	14537
900.352	14480
900.472	14526
900.591	14328
900.711	14419
900.83	14370
900.95	14396
901.069	14434
901.189	14263
901.308	14111
901.427	14073
901.546	14134
901.665	14020
901.784	14107
901.904	13967
902.023	13909
902.141	13666
902.26	13636
902.379	13776
902.498	13636
902.617	13548
902.735	13742
902.854	13624
902.973	13544
903.091	13282
903.21	13384
903.328	13396
903.446	13206
903.565	13232
903.683	13236
903.801	13065
903.919	13232
904.038	13164
904.156	13076
904.274	13095
904.392	12966
904.51	13023
904.627	13015
904.745	13099
904.863	13042
904.981	12772
905.098	12696
905.216	12734
905.334	12776
905.451	12753
905.569	12669
905.686	12844
905.803	12734
905.921	12544
906.038	12578
906.155	12517
906.272	12467
906.389	12494
906.506	12334
906.623	12304
906.74	12304
906.857	12190
906.974	12289
907.091	12311
907.208	12471
907.324	12342
907.441	12194
907.557	12034
907.674	11984
907.79	12003
907.907	12038
908.023	12114
908.139	11996
908.256	12007
908.372	11954
908.488	11931
908.604	11843
908.72	11824
908.836	11733
908.952	11748
909.068	11790
909.184	11893
909.3	11817
909.415	11870
909.531	11813
909.647	11611
909.762	11600
909.878	11589
909.993	11619
910.108	11684
910.224	11608
910.339	11486
910.454	11448
910.57	11459
910.685	11364
910.8	11596
910.915	11562
911.03	11459
911.145	11311
911.259	11299
911.374	11265
911.489	11208
911.604	11231
911.718	11094
911.833	11018
911.947	10908
912.062	10911
912.176	11006
912.291	10984
912.405	11121
912.519	11258
912.633	11307
912.748	11109
912.862	11003
912.976	10968
913.09	10774
913.204	10877
913.318	10930
913.431	10927
913.545	11033
913.659	11022
913.772	10892
913.886	10793
914	10805
914.113	10896
914.226	10915
914.34	10877
914.453	10714
914.566	10854
914.68	10698
914.793	10656
914.906	10500
915.019	10470
915.132	10512
915.245	10500
915.358	10512
915.47	10504
915.583	10554
915.696	10596
915.809	10679
915.921	10717
916.034	10489
916.146	10379
916.259	10508
916.371	10516
916.483	10561
916.595	10432
916.708	10481
916.82	10508
916.932	10421
917.044	10478
917.156	10485
917.268	10360
917.38	10443
917.491	10333
917.603	10379
917.715	10504
917.826	10542
917.938	10367
918.049	10242
918.161	10386
918.272	10569
918.384	10493
918.495	10417
918.606	10227
918.717	10135
918.828	10299
918.939	10257
919.05	10166
919.161	10211
919.272	10109
919.383	10090
919.494	10310
919.604	10481
919.715	10219
919.826	10257
919.936	10230
920.047	10295
920.157	10276
920.267	10508
920.378	10352
920.488	10215
920.598	10379
920.708	10535
920.818	10428
920.928	10474
921.038	10634
921.148	10577
921.258	10367
921.368	10234
921.477	10169
921.587	10082
921.697	9972
921.806	10051
921.916	9979
922.025	9865
922.134	9816
922.244	9770
922.353	9922
922.462	9690
922.571	9542
922.68	9610
922.789	9401
922.898	9496
923.007	9504
923.116	9606
923.224	9542
923.333	9496
923.442	9405
923.55	9393
923.659	9367
923.767	9500
923.876	9336
923.984	9454
924.092	9310
924.201	9336
924.309	9344
924.417	9401
924.525	9325
924.633	9336
924.741	10246
924.849	9180
924.956	9310
925.064	9169
925.172	9013
925.279	9100
925.387	9123
925.494	9138
925.602	9283
925.709	9245
925.816	9093
925.924	9157
926.031	9207
926.138	9195
926.245	9199
926.352	9097
926.459	9199
926.566	9279
926.673	9127
926.779	9085
926.886	9013
926.993	8914
927.099	8849
927.206	8800
927.312	8777
927.419	8902
927.525	8929
927.631	8925
927.737	8769
927.843	8785
927.95	8651
928.056	8712
928.162	8819
928.267	8804
928.373	9401
928.479	8845
928.585	8644
928.69	8667
928.796	8769
928.901	8659
929.007	8541
929.112	8731
929.218	8659
929.323	8575
929.428	8571
929.533	8716
929.638	8606
929.743	8495
929.848	8667
929.953	8632
930.058	8541
930.163	8294
930.267	8457
930.372	8465
930.477	8328
930.581	8549
930.685	8461
930.79	8351
930.894	8271
930.998	8305
931.103	8442
931.207	8115
931.311	8016
931.415	7959
931.519	7852
931.623	7811
