Data from test_V78500241_3369.txt Node
Date: Fri Mar 25 14:57:10 CST 2022
User: usil
Spectrometer: V785-0024
Trigger mode: 0
Integration Time (sec): 4.000000E-1
Scans to average: 1
Nonlinearity correction enabled: false
Boxcar width: 0
Storing dark spectrum: false
XAxis mode: Wavelengths
Number of Pixels in Spectrum: 1024
>>>>>Begin Spectral Data<<<<<
801.071	21964
801.214	21949
801.356	21530
801.499	21481
801.641	21283
801.783	21329
801.926	21336
802.068	21104
802.211	21226
802.353	21123
802.496	20876
802.638	20697
802.78	20686
802.923	20636
803.065	20621
803.208	20587
803.35	20682
803.492	20693
803.635	20769
803.777	20606
803.919	20708
804.061	21005
804.204	20602
804.346	20579
804.488	20560
804.63	20552
804.773	20556
804.915	20583
805.057	20598
805.199	20526
805.341	20651
805.483	20697
805.626	20613
805.768	20530
805.91	20556
806.052	20587
806.194	20488
806.336	20598
806.478	20522
806.62	20526
806.762	20632
806.904	20792
807.046	20887
807.188	20948
807.33	20712
807.472	20845
807.614	20720
807.756	20788
807.898	20735
808.04	20514
808.182	20552
808.324	20594
808.465	20617
808.607	20727
808.749	20891
808.891	20952
809.033	21051
809.174	20933
809.316	20823
809.458	20876
809.6	20842
809.741	20967
809.883	20857
810.025	21028
810.166	21108
810.308	20914
810.45	21055
810.591	20857
810.733	20708
810.875	20682
811.016	20465
811.158	20499
811.299	20613
811.441	20807
811.582	20682
811.724	20712
811.865	20609
812.007	20659
812.148	20526
812.29	20746
812.431	20853
812.573	21005
812.714	21058
812.855	21180
812.997	21256
813.138	21294
813.279	21188
813.421	21173
813.562	20941
813.703	21047
813.845	20731
813.986	20617
814.127	20259
814.268	20092
814.41	20233
814.551	20172
814.692	20248
814.833	20142
814.974	20111
815.115	20142
815.256	20043
815.397	19978
815.539	20084
815.68	19986
815.821	19913
815.962	20043
816.103	20001
816.244	19696
816.385	19620
816.526	19632
816.666	19445
816.807	19251
816.948	19343
817.089	19407
817.23	19464
817.371	19320
817.512	19308
817.653	19301
817.793	19107
817.934	19407
818.075	19346
818.216	19282
818.356	19346
818.497	19187
818.638	18882
818.778	18993
818.919	19008
819.06	18962
819.2	19156
819.341	19198
819.481	19187
819.622	19335
819.762	19559
819.903	19453
820.043	19384
820.184	19240
820.324	19316
820.465	19419
820.605	19289
820.746	19274
820.886	19168
821.026	19316
821.167	19285
821.307	19415
821.447	19304
821.588	19179
821.728	19008
821.868	18783
822.008	18768
822.149	18734
822.289	18772
822.429	18365
822.569	18448
822.709	18357
822.849	18209
822.99	18178
823.13	18171
823.27	18068
823.41	18003
823.55	17931
823.69	17965
823.83	17992
823.97	17965
824.11	17805
824.25	17722
824.389	17843
824.529	17760
824.669	17653
824.809	17908
824.949	17855
825.089	17866
825.228	17748
825.368	17573
825.508	17649
825.648	17547
825.787	17600
825.927	17676
826.067	17570
826.206	17459
826.346	17646
826.485	17604
826.625	17551
826.765	17767
826.904	17589
827.044	17341
827.183	17330
827.323	17193
827.462	17326
827.601	17315
827.741	17155
827.88	17200
828.02	17086
828.159	17197
828.298	17277
828.437	17402
828.577	17197
828.716	17334
828.855	17292
828.994	17025
829.134	16999
829.273	17102
829.412	17022
829.551	16946
829.69	16904
829.829	16965
829.968	17128
830.107	17006
830.246	16953
830.385	16946
830.524	16843
830.663	16805
830.802	16713
830.941	16759
831.08	16630
831.219	16748
831.357	16698
831.496	16934
831.635	16668
831.774	16561
831.913	16497
832.051	16394
832.19	16329
832.329	16447
832.467	16352
832.606	16303
832.744	16280
832.883	16280
833.022	16158
833.16	16356
833.299	16390
833.437	16481
833.576	16394
833.714	16470
833.852	16436
833.991	16405
834.129	16432
834.267	16447
834.406	16382
834.544	16363
834.682	16398
834.821	16322
834.959	16504
835.097	16344
835.235	16500
835.373	16390
835.511	16462
835.65	16318
835.788	16211
835.926	16112
836.064	16128
836.202	16067
836.34	16344
836.478	16428
836.615	16238
836.753	16299
836.891	16348
837.029	16375
837.167	16303
837.305	16303
837.443	16143
837.58	16192
837.718	16261
837.856	16226
837.993	16257
838.131	16169
838.269	16181
838.406	16082
838.544	16097
838.681	16025
838.819	15819
838.956	15724
839.094	15675
839.231	15819
839.369	15926
839.506	16120
839.643	16040
839.781	15789
839.918	15656
840.055	15808
840.193	15724
840.33	15736
840.467	15759
840.604	15701
840.742	16021
840.879	15686
841.016	15660
841.153	15576
841.29	15835
841.427	15633
841.564	15781
841.701	15789
841.838	15671
841.975	15686
842.112	15709
842.249	15622
842.385	15523
842.522	15743
842.659	15591
842.796	15496
842.933	15511
843.069	15519
843.206	15485
843.343	15663
843.479	15576
843.616	15519
843.752	15275
843.889	15218
844.025	15416
844.162	15287
844.298	15431
844.435	15325
844.571	15344
844.708	15332
844.844	15408
844.98	15405
845.117	15382
845.253	15222
845.389	15249
845.525	15165
845.661	15291
845.798	15055
845.934	15169
846.07	15077
846.206	15081
846.342	15222
846.478	15123
846.614	14982
846.75	14830
846.886	14956
847.022	15001
847.158	14857
847.294	14849
847.429	15001
847.565	14819
847.701	15214
847.837	14659
847.972	14667
848.108	14693
848.244	14629
848.379	14530
848.515	14484
848.65	14511
848.786	14537
848.921	14526
849.057	14541
849.192	14552
849.328	14499
849.463	14507
849.598	14492
849.734	14450
849.869	14351
850.004	14355
850.14	14305
850.275	14259
850.41	14096
850.545	14168
850.68	14225
850.815	14298
850.95	14153
851.085	14377
851.22	14237
851.355	14286
851.49	14161
851.625	14164
851.76	14107
851.895	14157
852.03	14069
852.165	14263
852.299	14328
852.434	14233
852.569	14271
852.703	14214
852.838	14347
852.973	14400
853.107	14438
853.242	14240
853.376	14069
853.511	14103
853.645	14134
853.78	14206
853.914	14142
854.048	14221
854.183	14176
854.317	14191
854.451	14332
854.585	14081
854.72	14088
854.854	14145
854.988	14111
855.122	14043
855.256	14016
855.39	14020
855.524	14275
855.658	14191
855.792	14248
855.926	14073
856.06	14229
856.194	14214
856.327	14123
856.461	14016
856.595	14142
856.729	14119
856.862	14199
856.996	14138
857.13	14164
857.263	14145
857.397	14191
857.53	14157
857.664	14278
857.797	14267
857.931	14252
858.064	14195
858.197	14172
858.331	14096
858.464	14107
858.597	14096
858.731	14065
858.864	14115
858.997	14142
859.13	14164
859.263	14157
859.396	14187
859.529	14107
859.662	14054
859.795	14065
859.928	14123
860.061	14218
860.194	14267
860.327	14126
860.46	14206
860.592	14244
860.725	14221
860.858	14248
860.99	14145
861.123	14119
861.256	14164
861.388	14115
861.521	14948
861.653	14039
861.786	13963
861.918	13947
862.05	14149
862.183	14142
862.315	14062
862.447	14172
862.58	14126
862.712	13868
862.844	13868
862.976	14103
863.108	14031
863.24	14336
863.372	13879
863.504	13883
863.636	13849
863.768	13944
863.9	13921
864.032	13936
864.164	13852
864.296	13925
864.428	13898
864.559	13913
864.691	14031
864.823	13982
864.954	13913
865.086	14001
865.217	13871
865.349	13875
865.48	13963
865.612	13997
865.743	14016
865.875	13940
866.006	13917
866.137	13921
866.269	13982
866.4	13868
866.531	13902
866.662	13898
866.793	13887
866.924	13944
867.055	13849
867.186	13909
867.317	13902
867.448	13772
867.579	13799
867.71	13814
867.841	13757
867.972	13951
868.103	13849
868.233	13917
868.364	14031
868.495	13967
868.625	14145
868.756	14290
868.886	14081
869.017	14187
869.147	14263
869.278	14248
869.408	14176
869.539	14153
869.669	14244
869.799	14161
869.929	14355
870.06	14214
870.19	14469
870.32	14469
870.45	14522
870.58	14492
870.71	14701
870.84	14651
870.97	14571
871.1	14431
871.23	14773
871.36	14701
871.489	14629
871.619	14701
871.749	14792
871.879	14792
872.008	14861
872.138	14876
872.267	14743
872.397	14613
872.526	14526
872.656	14613
872.785	14625
872.915	14716
873.044	14872
873.173	14792
873.303	14804
873.432	14804
873.561	14929
873.69	14823
873.819	14880
873.948	14910
874.077	14891
874.206	14853
874.335	14815
874.464	14925
874.593	15112
874.722	14921
874.851	15127
874.979	15211
875.108	15169
875.237	15077
875.365	15104
875.494	15074
875.623	15176
875.751	15116
875.88	15199
876.008	15230
876.136	15374
876.265	15553
876.393	15667
876.521	15633
876.65	15629
876.778	15545
876.906	15595
877.034	15428
877.162	15496
877.29	15477
877.418	15538
877.546	15625
877.674	15500
877.802	15500
877.93	15660
878.058	15576
878.185	15344
878.313	15587
878.441	15545
878.568	15363
878.696	15401
878.824	15526
878.951	15606
879.079	15648
879.206	15884
879.333	15736
879.461	15576
879.588	15660
879.715	15736
879.842	15774
879.97	15572
880.097	15469
880.224	15416
880.351	15412
880.478	15481
880.605	15370
880.732	15492
880.859	15454
880.986	15500
881.112	15408
881.239	15310
881.366	15169
881.493	15116
881.619	15009
881.746	15066
881.872	15017
881.999	15013
882.125	15066
882.252	15070
882.378	15001
882.505	15218
882.631	14975
882.757	14887
882.883	14883
883.01	14830
883.136	14701
883.262	14667
883.388	14590
883.514	14800
883.64	14880
883.766	14811
883.892	14781
884.018	14754
884.143	14861
884.269	14937
884.395	14602
884.52	14564
884.646	14613
884.772	14480
884.897	14423
885.023	14541
885.148	14686
885.274	14739
885.399	14739
885.524	14606
885.65	14522
885.775	14617
885.9	14602
886.025	14701
886.15	14625
886.275	14556
886.4	14465
886.525	14579
886.65	14533
886.775	14495
886.9	14686
887.025	14765
887.149	14590
887.274	14522
887.399	14427
887.523	14313
887.648	14343
887.773	14290
887.897	14438
888.021	14374
888.146	14366
888.27	14549
888.395	14549
888.519	14431
888.643	14400
888.767	14454
888.891	14412
889.015	14244
889.139	14278
889.263	14259
889.387	14309
889.511	14526
889.635	14404
889.759	14278
889.883	14233
890.006	14271
890.13	14438
890.254	14218
890.377	14214
890.501	14119
890.624	14092
890.748	14218
890.871	14008
890.995	13864
891.118	13864
891.241	13947
891.364	13906
891.488	14161
891.611	13925
891.734	13959
891.857	14058
891.98	13925
892.103	13989
892.226	13921
892.349	13967
892.471	13814
892.594	13932
892.717	13978
892.839	13947
892.962	13940
893.085	14065
893.207	14035
893.33	13887
893.452	13894
893.575	14043
893.697	14020
893.819	14206
893.941	14233
894.064	14103
894.186	13906
894.308	13959
894.43	14123
894.552	14195
894.674	14126
894.796	14065
894.918	13967
895.04	14031
895.161	14088
895.283	14020
895.405	13921
895.526	14115
895.648	14008
895.769	14149
895.891	14180
896.012	14183
896.134	14229
896.255	14206
896.376	14103
896.498	14161
896.619	14145
896.74	14195
896.861	14214
896.982	14545
897.103	14644
897.224	14446
897.345	14275
897.466	14298
897.587	14450
897.708	14537
897.828	14492
897.949	14324
898.07	14278
898.19	14396
898.311	14636
898.431	14450
898.552	14499
898.672	14568
898.792	14568
898.913	14587
899.033	14469
899.153	14275
899.273	14256
899.393	14396
899.513	14336
899.633	14298
899.753	14339
899.873	14385
899.993	14415
900.113	14343
900.232	14415
900.352	14332
900.472	14248
900.591	14069
900.711	14259
900.83	14168
900.95	14366
901.069	14271
901.189	14202
901.308	13879
901.427	13811
901.546	13936
901.665	13868
901.784	13811
901.904	13750
902.023	13799
902.141	13514
902.26	13430
902.379	13514
902.498	13457
902.617	13346
902.735	13464
902.854	13449
902.973	13358
903.091	13202
903.21	13270
903.328	13183
903.446	13095
903.565	12985
903.683	13080
903.801	12939
903.919	12962
904.038	13012
904.156	12947
904.274	12913
904.392	12817
904.51	12837
904.627	12837
904.745	12840
904.863	12909
904.981	12574
905.098	12540
905.216	12502
905.334	12639
905.451	12441
905.569	12483
905.686	12585
905.803	12612
905.921	12414
906.038	12502
906.155	12327
906.272	12216
906.389	12213
906.506	12125
906.623	12163
906.74	12072
906.857	12015
906.974	12076
907.091	12213
907.208	12300
907.324	12243
907.441	12068
907.557	11942
907.674	11855
907.79	11874
907.907	11866
908.023	11908
908.139	11942
908.256	11824
908.372	11809
908.488	11798
908.604	11710
908.72	11771
908.836	11657
908.952	11649
909.068	11604
909.184	11729
909.3	11668
909.415	11642
909.531	11653
909.647	11440
909.762	11387
909.878	11376
909.993	11471
910.108	11376
910.224	11387
910.339	11414
910.454	11376
910.57	11254
910.685	11185
910.8	11474
910.915	11436
911.03	11315
911.145	11189
911.259	11064
911.374	11170
911.489	11105
911.604	10934
911.718	10866
911.833	11018
911.947	10942
912.062	10790
912.176	10877
912.291	10866
912.405	10812
912.519	11010
912.633	11010
912.748	10923
912.862	10991
912.976	10854
913.09	10637
913.204	10634
913.318	10786
913.431	10896
913.545	10850
913.659	10809
913.772	10721
913.886	10656
914	10630
914.113	10736
914.226	10790
914.34	10752
914.453	10656
914.566	10729
914.68	10531
914.793	10683
914.906	10409
915.019	10462
915.132	10280
915.245	10402
915.358	10382
915.47	10478
915.583	10462
915.696	10394
915.809	10504
915.921	10535
916.034	10443
916.146	10295
916.259	10303
916.371	10466
916.483	10489
916.595	10375
916.708	10318
916.82	10337
916.932	10287
917.044	10329
917.156	10322
917.268	10329
917.38	10265
917.491	10234
917.603	10295
917.715	10314
917.826	10375
917.938	10265
918.049	10139
918.161	10333
918.272	10386
918.384	10394
918.495	10287
918.606	10200
918.717	10078
918.828	10166
918.939	10238
919.05	10051
919.161	10135
919.272	9979
919.383	9975
919.494	10147
919.604	10382
919.715	10196
919.826	10040
919.936	10116
920.047	10215
920.157	10131
920.267	10402
920.378	10268
920.488	10139
920.598	10348
920.708	10592
920.818	10352
920.928	10440
921.038	10493
921.148	10500
921.258	10204
921.368	10078
921.477	10051
921.587	10044
921.697	9975
921.806	9960
921.916	9956
922.025	9770
922.134	9705
922.244	9633
922.353	9850
922.462	9622
922.571	9595
922.68	9462
922.789	9367
922.898	9454
923.007	9412
923.116	9488
923.224	9481
923.333	9397
923.442	9317
923.55	9298
923.659	9272
923.767	9477
923.876	9283
923.984	9412
924.092	9214
924.201	9233
924.309	9253
924.417	9294
924.525	9253
924.633	9253
924.741	10257
924.849	9104
924.956	9233
925.064	9055
925.172	9043
925.279	8975
925.387	9077
925.494	9165
925.602	9211
925.709	9081
925.816	8948
925.924	9112
926.031	9176
926.138	9138
926.245	9131
926.352	9036
926.459	9161
926.566	9173
926.673	9062
926.779	8941
926.886	8933
926.993	8815
927.099	8819
927.206	8720
927.312	8678
927.419	8857
927.525	8739
927.631	8899
927.737	8693
927.843	8686
927.95	8602
928.056	8674
928.162	8667
928.267	8678
928.373	9367
928.479	8891
928.585	8564
928.69	8746
928.796	8762
928.901	8617
929.007	8492
929.112	8655
929.218	8621
929.323	8552
929.428	8575
929.533	8621
929.638	8518
929.743	8423
929.848	8533
929.953	8511
930.058	8404
930.163	8271
930.267	8301
930.372	8465
930.477	8332
930.581	8488
930.685	8415
930.79	8225
930.894	8221
930.998	8256
931.103	8377
931.207	8092
931.311	8035
931.415	7921
931.519	7792
931.623	7715
