Data from test_V78500241_1869.txt Node
Date: Fri Mar 25 14:46:43 CST 2022
User: usil
Spectrometer: V785-0024
Trigger mode: 0
Integration Time (sec): 4.000000E-1
Scans to average: 1
Nonlinearity correction enabled: false
Boxcar width: 0
Storing dark spectrum: false
XAxis mode: Wavelengths
Number of Pixels in Spectrum: 1024
>>>>>Begin Spectral Data<<<<<
801.071	22169
801.214	21964
801.356	22036
801.499	21713
801.641	21481
801.783	21530
801.926	21473
802.068	21561
802.211	21332
802.353	21249
802.496	21093
802.638	21020
802.78	20986
802.923	20864
803.065	20834
803.208	20724
803.35	20830
803.492	20849
803.635	21017
803.777	20872
803.919	20853
804.061	21165
804.204	20918
804.346	20746
804.488	20712
804.63	20739
804.773	20731
804.915	20754
805.057	20864
805.199	20701
805.341	20785
805.483	20845
805.626	20899
805.768	20667
805.91	20712
806.052	20823
806.194	20686
806.336	20838
806.478	20735
806.62	20678
806.762	20796
806.904	20998
807.046	21195
807.188	21055
807.33	21127
807.472	21077
807.614	20990
807.756	20994
807.898	20876
808.04	20804
808.182	20842
808.324	20902
808.465	20804
808.607	21055
808.749	21161
808.891	21241
809.033	21382
809.174	21176
809.316	21039
809.458	21131
809.6	21024
809.741	21287
809.883	21226
810.025	21336
810.166	21351
810.308	21321
810.45	21211
810.591	21199
810.733	21116
810.875	20918
811.016	20845
811.158	20823
811.299	20971
811.441	21032
811.582	21100
811.724	20845
811.865	20785
812.007	20902
812.148	20963
812.29	20861
812.431	21085
812.573	21237
812.714	21321
812.855	21526
812.997	21583
813.138	21682
813.279	21557
813.421	21329
813.562	21332
813.703	21199
813.845	20921
813.986	20705
814.127	20644
814.268	20541
814.41	20442
814.551	20526
814.692	20537
814.833	20408
814.974	20404
815.115	20389
815.256	20252
815.397	20358
815.539	20248
815.68	20248
815.821	20122
815.962	20282
816.103	20229
816.244	20027
816.385	19909
816.526	19925
816.666	19700
816.807	19670
816.948	19613
817.089	19529
817.23	19712
817.371	19495
817.512	19651
817.653	19556
817.793	19552
817.934	19476
818.075	19544
818.216	19616
818.356	19495
818.497	19289
818.638	19228
818.778	19365
818.919	19190
819.06	19343
819.2	19411
819.341	19407
819.481	19445
819.622	19609
819.762	19791
819.903	19750
820.043	19582
820.184	19643
820.324	19430
820.465	19700
820.605	19563
820.746	19586
820.886	19445
821.026	19556
821.167	19487
821.307	19609
821.447	19445
821.588	19453
821.728	19164
821.868	19061
822.008	19057
822.149	18932
822.289	18806
822.429	18703
822.569	18696
822.709	18817
822.849	18445
822.99	18475
823.13	18486
823.27	18376
823.41	18292
823.55	18209
823.69	18315
823.83	18372
823.97	18270
824.11	17973
824.25	18098
824.389	18114
824.529	18254
824.669	18072
824.809	18155
824.949	18053
825.089	18136
825.228	18083
825.368	17885
825.508	17904
825.648	17821
825.787	17950
825.927	17916
826.067	17821
826.206	17805
826.346	17901
826.485	17783
826.625	17851
826.765	17897
826.904	17946
827.044	17577
827.183	17573
827.323	17448
827.462	17623
827.601	17665
827.741	17596
827.88	17455
828.02	17383
828.159	17440
828.298	17436
828.437	17497
828.577	17471
828.716	17642
828.855	17543
828.994	17277
829.134	17261
829.273	17334
829.412	17311
829.551	17254
829.69	17299
829.829	17223
829.968	17303
830.107	17376
830.246	17303
830.385	17227
830.524	17258
830.663	17140
830.802	16991
830.941	16885
831.08	16831
831.219	16984
831.357	16911
831.496	17102
831.635	16896
831.774	16854
831.913	16869
832.051	16763
832.19	16755
832.329	16759
832.467	16668
832.606	16538
832.744	16580
832.883	16603
833.022	16615
833.16	16596
833.299	16694
833.437	16668
833.576	16683
833.714	16660
833.852	16626
833.991	16713
834.129	16793
834.267	16759
834.406	16622
834.544	16634
834.682	16702
834.821	16660
834.959	16793
835.097	16573
835.235	16786
835.373	16580
835.511	16675
835.65	16546
835.788	16558
835.926	16493
836.064	16310
836.202	16398
836.34	16645
836.478	16717
836.615	16550
836.753	16500
836.891	16744
837.029	16660
837.167	16577
837.305	16516
837.443	16485
837.58	16432
837.718	16512
837.856	16493
837.993	16508
838.131	16375
838.269	16360
838.406	16386
838.544	16440
838.681	16071
838.819	16071
838.956	15968
839.094	15949
839.231	15987
839.369	16162
839.506	16447
839.643	16272
839.781	15964
839.918	15987
840.055	15998
840.193	15949
840.33	15880
840.467	16021
840.604	15972
840.742	16249
840.879	15850
841.016	15918
841.153	15949
841.29	16059
841.427	15960
841.564	16021
841.701	16067
841.838	15960
841.975	15838
842.112	15850
842.249	15781
842.385	15789
842.522	15899
842.659	15739
842.796	15808
842.933	15720
843.069	15774
843.206	15739
843.343	15770
843.479	15781
843.616	15876
843.752	15591
843.889	15523
844.025	15633
844.162	15492
844.298	15717
844.435	15454
844.571	15534
844.708	15641
844.844	15603
844.98	15717
845.117	15701
845.253	15492
845.389	15374
845.525	15523
845.661	15374
845.798	15355
845.934	15386
846.07	15439
846.206	15393
846.342	15416
846.478	15370
846.614	15169
846.75	15154
846.886	15154
847.022	15252
847.158	15150
847.294	15093
847.429	15199
847.565	15043
847.701	15351
847.837	14864
847.972	14883
848.108	14944
848.244	14899
848.379	14815
848.515	14777
848.65	14655
848.786	14708
848.921	14773
849.057	14842
849.192	14788
849.328	14697
849.463	14670
849.598	14663
849.734	14689
849.869	14606
850.004	14511
850.14	14552
850.275	14514
850.41	14400
850.545	14511
850.68	14492
850.815	14473
850.95	14389
851.085	14705
851.22	14571
851.355	14621
851.49	14438
851.625	14511
851.76	14408
851.895	14431
852.03	14393
852.165	14469
852.299	14465
852.434	14499
852.569	14575
852.703	14438
852.838	14606
852.973	14564
853.107	14606
853.242	14488
853.376	14450
853.511	14214
853.645	14309
853.78	14408
853.914	14320
854.048	14210
854.183	14305
854.317	14396
854.451	14446
854.585	14317
854.72	14248
854.854	14381
854.988	14237
855.122	14328
855.256	14263
855.39	14233
855.524	14533
855.658	14377
855.792	14400
855.926	14332
856.06	14396
856.194	14530
856.327	14320
856.461	14339
856.595	14385
856.729	14252
856.862	14438
856.996	14408
857.13	14339
857.263	14495
857.397	14476
857.53	14412
857.664	14309
857.797	14446
857.931	14522
858.064	14324
858.197	14480
858.331	14434
858.464	14347
858.597	14317
858.731	14328
858.864	14324
858.997	14381
859.13	14396
859.263	14339
859.396	14442
859.529	14370
859.662	14389
859.795	14301
859.928	14370
860.061	14450
860.194	14415
860.327	14358
860.46	14317
860.592	14400
860.725	14507
860.858	14537
860.99	14324
861.123	14309
861.256	14183
861.388	14317
861.521	14929
861.653	14248
861.786	14313
861.918	14126
862.05	14351
862.183	14225
862.315	14324
862.447	14450
862.58	14381
862.712	14092
862.844	14115
862.976	14259
863.108	14111
863.24	14454
863.372	14103
863.504	14134
863.636	14081
863.768	14206
863.9	14100
864.032	13986
864.164	14157
864.296	14218
864.428	14187
864.559	14317
864.691	14199
864.823	14180
864.954	14138
865.086	14142
865.217	14126
865.349	14073
865.48	14210
865.612	14214
865.743	14317
865.875	14119
866.006	14119
866.137	14195
866.269	14096
866.4	14031
866.531	14126
866.662	14001
866.793	14084
866.924	14084
867.055	14149
867.186	14176
867.317	14084
867.448	13944
867.579	14031
867.71	14024
867.841	14031
867.972	14199
868.103	14119
868.233	14172
868.364	14191
868.495	14233
868.625	14282
868.756	14473
868.886	14229
869.017	14324
869.147	14434
869.278	14556
869.408	14362
869.539	14385
869.669	14473
869.799	14415
869.929	14461
870.06	14492
870.19	14724
870.32	14667
870.45	14682
870.58	14750
870.71	14754
870.84	14948
870.97	14712
871.1	14765
871.23	14895
871.36	14918
871.489	14735
871.619	14925
871.749	14967
871.879	14956
872.008	15233
872.138	14948
872.267	14944
872.397	14807
872.526	14796
872.656	14887
872.785	14743
872.915	14910
873.044	15085
873.173	14979
873.303	15020
873.432	15051
873.561	15108
873.69	15028
873.819	15017
873.948	15013
874.077	14998
874.206	14933
874.335	15081
874.464	15146
874.593	15336
874.722	15249
874.851	15374
874.979	15389
875.108	15386
875.237	15317
875.365	15176
875.494	15386
875.623	15325
875.751	15294
875.88	15408
876.008	15416
876.136	15526
876.265	15701
876.393	15934
876.521	15911
876.65	15831
876.778	15800
876.906	15675
877.034	15667
877.162	15720
877.29	15686
877.418	15743
877.546	15823
877.674	15667
877.802	15724
877.93	15861
878.058	15778
878.185	15606
878.313	15816
878.441	15755
878.568	15633
878.696	15770
878.824	15736
878.951	15736
879.079	15915
879.206	16120
879.333	15819
879.461	15755
879.588	15812
879.715	16032
879.842	15998
879.97	15819
880.097	15641
880.224	15603
880.351	15698
880.478	15652
880.605	15591
880.732	15641
880.859	15842
880.986	15599
881.112	15762
881.239	15564
881.366	15332
881.493	15268
881.619	15294
881.746	15241
881.872	15287
881.999	15211
882.125	15188
882.252	15264
882.378	15325
882.505	15447
882.631	15195
882.757	15039
882.883	15135
883.01	15142
883.136	14982
883.262	14937
883.388	14967
883.514	15024
883.64	15077
883.766	15020
883.892	14914
884.018	14842
884.143	15055
884.269	15100
884.395	14872
884.52	14678
884.646	14834
884.772	14686
884.897	14750
885.023	14773
885.148	14864
885.274	14921
885.399	14883
885.524	14861
885.65	14765
885.775	14857
885.9	14750
886.025	14807
886.15	14823
886.275	14731
886.4	14743
886.525	14693
886.65	14701
886.775	14781
886.9	14769
887.025	14960
887.149	14716
887.274	14571
887.399	14533
887.523	14644
887.648	14575
887.773	14549
887.897	14598
888.021	14735
888.146	14556
888.27	14674
888.395	14705
888.519	14735
888.643	14689
888.767	14625
888.891	14492
889.015	14507
889.139	14457
889.263	14434
889.387	14663
889.511	14644
889.635	14556
889.759	14431
889.883	14537
890.006	14552
890.13	14602
890.254	14358
890.377	14427
890.501	14149
890.624	14123
890.748	14332
890.871	14263
890.995	14123
891.118	14054
891.241	14195
891.364	14191
891.488	14263
891.611	14103
891.734	14107
891.857	14176
891.98	14199
892.103	14237
892.226	14263
892.349	14134
892.471	14005
892.594	14119
892.717	14050
892.839	14084
892.962	14149
893.085	14157
893.207	14206
893.33	13993
893.452	14065
893.575	14233
893.697	14202
893.819	14313
893.941	14355
894.064	14282
894.186	14149
894.308	14161
894.43	14351
894.552	14339
894.674	14195
894.796	14187
894.918	14199
895.04	14111
895.161	14294
895.283	14259
895.405	14206
895.526	14172
895.648	14259
895.769	14240
895.891	14347
896.012	14366
896.134	14389
896.255	14309
896.376	14233
896.498	14298
896.619	14343
896.74	14389
896.861	14377
896.982	14746
897.103	14899
897.224	14575
897.345	14495
897.466	14465
897.587	14549
897.708	14655
897.828	14621
897.949	14606
898.07	14518
898.19	14545
898.311	14735
898.431	14545
898.552	14697
898.672	14720
898.792	14689
898.913	14731
899.033	14697
899.153	14514
899.273	14461
899.393	14552
899.513	14625
899.633	14610
899.753	14541
899.873	14530
899.993	14678
900.113	14450
900.232	14579
900.352	14522
900.472	14446
900.591	14423
900.711	14415
900.83	14362
900.95	14476
901.069	14419
901.189	14301
901.308	14115
901.427	14084
901.546	14123
901.665	14039
901.784	14088
901.904	13898
902.023	13845
902.141	13620
902.26	13655
902.379	13727
902.498	13651
902.617	13556
902.735	13696
902.854	13658
902.973	13586
903.091	13297
903.21	13392
903.328	13373
903.446	13282
903.565	13225
903.683	13293
903.801	13088
903.919	13236
904.038	13194
904.156	13031
904.274	13065
904.392	13053
904.51	13057
904.627	12981
904.745	13129
904.863	13122
904.981	12821
905.098	12719
905.216	12696
905.334	12817
905.451	12738
905.569	12673
905.686	12719
905.803	12700
905.921	12570
906.038	12654
906.155	12532
906.272	12441
906.389	12395
906.506	12334
906.623	12292
906.74	12350
906.857	12224
906.974	12213
907.091	12384
907.208	12361
907.324	12300
907.441	12216
907.557	12053
907.674	12060
907.79	11969
907.907	12041
908.023	12068
908.139	12117
908.256	11996
908.372	12034
908.488	11961
908.604	11893
908.72	11741
908.836	11889
908.952	11760
909.068	11824
909.184	11920
909.3	11843
909.415	11809
909.531	11863
909.647	11657
909.762	11577
909.878	11532
909.993	11558
910.108	11524
910.224	11554
910.339	11570
910.454	11402
910.57	11474
910.685	11349
910.8	11623
910.915	11585
911.03	11486
911.145	11330
911.259	11280
911.374	11303
911.489	11075
911.604	11075
911.718	11060
911.833	10984
911.947	10953
912.062	10847
912.176	11105
912.291	11029
912.405	11037
912.519	11212
912.633	11353
912.748	11155
912.862	11014
912.976	10877
913.09	10771
913.204	10847
913.318	10976
913.431	10957
913.545	11029
913.659	11064
913.772	10938
913.886	10812
914	10847
914.113	10881
914.226	10968
914.34	10839
914.453	10672
914.566	10896
914.68	10755
914.793	10767
914.906	10626
915.019	10542
915.132	10493
915.245	10478
915.358	10596
915.47	10584
915.583	10523
915.696	10527
915.809	10592
915.921	10733
916.034	10561
916.146	10512
916.259	10489
916.371	10660
916.483	10622
916.595	10455
916.708	10443
916.82	10573
916.932	10474
917.044	10356
917.156	10424
917.268	10287
917.38	10440
917.491	10386
917.603	10390
917.715	10550
917.826	10489
917.938	10451
918.049	10291
918.161	10375
918.272	10569
918.384	10527
918.495	10459
918.606	10314
918.717	10253
918.828	10215
918.939	10341
919.05	10162
919.161	10284
919.272	10090
919.383	10169
919.494	10318
919.604	10599
919.715	10261
919.826	10234
919.936	10242
920.047	10402
920.157	10322
920.267	10569
920.378	10348
920.488	10261
920.598	10493
920.708	10664
920.818	10535
920.928	10538
921.038	10577
921.148	10618
921.258	10295
921.368	10295
921.477	10135
921.587	10124
921.697	10021
921.806	10143
921.916	10010
922.025	9907
922.134	9850
922.244	9785
922.353	9903
922.462	9717
922.571	9728
922.68	9534
922.789	9496
922.898	9572
923.007	9530
923.116	9568
923.224	9500
923.333	9477
923.442	9496
923.55	9378
923.659	9458
923.767	9454
923.876	9378
923.984	9416
924.092	9340
924.201	9443
924.309	9435
924.417	9382
924.525	9348
924.633	9370
924.741	10352
924.849	9249
924.956	9325
925.064	9203
925.172	9127
925.279	9192
925.387	9226
925.494	9211
925.602	9313
925.709	9302
925.816	9165
925.924	9199
926.031	9283
926.138	9188
926.245	9222
926.352	9131
926.459	9230
926.566	9287
926.673	9169
926.779	9097
926.886	9066
926.993	8971
927.099	8929
927.206	8804
927.312	8796
927.419	8918
927.525	8975
927.631	8933
927.737	8876
927.843	8891
927.95	8746
928.056	8769
928.162	8781
928.267	8872
928.373	9374
928.479	8956
928.585	8621
928.69	8769
928.796	8838
928.901	8689
929.007	8575
929.112	8701
929.218	8708
929.323	8640
929.428	8610
929.533	8712
929.638	8610
929.743	8594
929.848	8621
929.953	8610
930.058	8461
930.163	8362
930.267	8362
930.372	8530
930.477	8381
930.581	8629
930.685	8427
930.79	8381
930.894	8305
930.998	8324
931.103	8454
931.207	8115
931.311	8077
931.415	8039
931.519	7852
931.623	7868
