Data from test_V78500241_2135.txt Node
Date: Fri Mar 25 14:48:34 CST 2022
User: usil
Spectrometer: V785-0024
Trigger mode: 0
Integration Time (sec): 4.000000E-1
Scans to average: 1
Nonlinearity correction enabled: false
Boxcar width: 0
Storing dark spectrum: false
XAxis mode: Wavelengths
Number of Pixels in Spectrum: 1024
>>>>>Begin Spectral Data<<<<<
801.071	22109
801.214	21998
801.356	21667
801.499	21625
801.641	21405
801.783	21469
801.926	21485
802.068	21523
802.211	21321
802.353	21252
802.496	21150
802.638	20975
802.78	21039
802.923	20762
803.065	20727
803.208	20872
803.35	20823
803.492	20876
803.635	20948
803.777	20834
803.919	20902
804.061	21161
804.204	20891
804.346	20758
804.488	20720
804.63	20834
804.773	20682
804.915	20731
805.057	20857
805.199	20765
805.341	20872
805.483	20857
805.626	20792
805.768	20731
805.91	20811
806.052	20701
806.194	20792
806.336	20815
806.478	20773
806.62	20739
806.762	20891
806.904	20998
807.046	21093
807.188	21116
807.33	21100
807.472	21043
807.614	20979
807.756	21020
807.898	20754
808.04	20861
808.182	20887
808.324	20891
808.465	20944
808.607	21116
808.749	21108
808.891	21233
809.033	21393
809.174	21203
809.316	21176
809.458	21116
809.6	21096
809.741	21306
809.883	21176
810.025	21355
810.166	21401
810.308	21317
810.45	21310
810.591	21195
810.733	20960
810.875	20998
811.016	20800
811.158	20739
811.299	21051
811.441	21108
811.582	20994
811.724	21005
811.865	21013
812.007	20914
812.148	20883
812.29	20952
812.431	21192
812.573	21081
812.714	21310
812.855	21329
812.997	21469
813.138	21641
813.279	21386
813.421	21340
813.562	21443
813.703	21165
813.845	20994
813.986	20765
814.127	20625
814.268	20541
814.41	20590
814.551	20511
814.692	20564
814.833	20389
814.974	20336
815.115	20499
815.256	20252
815.397	20286
815.539	20240
815.68	20142
815.821	20145
815.962	20210
816.103	20214
816.244	20077
816.385	19963
816.526	19818
816.666	19822
816.807	19620
816.948	19677
817.089	19670
817.23	19681
817.371	19693
817.512	19544
817.653	19647
817.793	19567
817.934	19685
818.075	19575
818.216	19567
818.356	19491
818.497	19411
818.638	19289
818.778	19346
818.919	19274
819.06	19350
819.2	19480
819.341	19544
819.481	19483
819.622	19609
819.762	19765
819.903	19772
820.043	19613
820.184	19544
820.324	19506
820.465	19613
820.605	19658
820.746	19510
820.886	19472
821.026	19575
821.167	19594
821.307	19594
821.447	19441
821.588	19491
821.728	19266
821.868	19206
822.008	18916
822.149	19057
822.289	18966
822.429	18753
822.569	18734
822.709	18776
822.849	18582
822.99	18479
823.13	18414
823.27	18464
823.41	18251
823.55	18376
823.69	18350
823.83	18304
823.97	18270
824.11	18064
824.25	17996
824.389	18133
824.529	18125
824.669	18133
824.809	18163
824.949	18076
825.089	18167
825.228	18171
825.368	17912
825.508	17836
825.648	17893
825.787	17893
825.927	17965
826.067	17760
826.206	17684
826.346	17870
826.485	17840
826.625	17813
826.765	17912
826.904	17813
827.044	17596
827.183	17638
827.323	17532
827.462	17627
827.601	17573
827.741	17558
827.88	17615
828.02	17383
828.159	17562
828.298	17566
828.437	17528
828.577	17425
828.716	17623
828.855	17501
828.994	17292
829.134	17223
829.273	17258
829.412	17353
829.551	17170
829.69	17189
829.829	17284
829.968	17402
830.107	17303
830.246	17204
830.385	17212
830.524	17273
830.663	17090
830.802	17060
830.941	16873
831.08	16953
831.219	16968
831.357	16976
831.496	17200
831.635	16896
831.774	16843
831.913	16831
832.051	16660
832.19	16637
832.329	16691
832.467	16645
832.606	16573
832.744	16656
832.883	16622
833.022	16565
833.16	16626
833.299	16656
833.437	16561
833.576	16725
833.714	16660
833.852	16694
833.991	16675
834.129	16630
834.267	16733
834.406	16660
834.544	16713
834.682	16641
834.821	16721
834.959	16801
835.097	16611
835.235	16683
835.373	16733
835.511	16645
835.65	16535
835.788	16565
835.926	16386
836.064	16413
836.202	16363
836.34	16523
836.478	16618
836.615	16432
836.753	16592
836.891	16611
837.029	16504
837.167	16588
837.305	16542
837.443	16440
837.58	16363
837.718	16596
837.856	16413
837.993	16417
838.131	16474
838.269	16310
838.406	16367
838.544	16238
838.681	16169
838.819	16090
838.956	15968
839.094	15907
839.231	15922
839.369	16036
839.506	16325
839.643	16272
839.781	16048
839.918	15804
840.055	16116
840.193	15991
840.33	15945
840.467	15857
840.604	15876
840.742	16204
840.879	15835
841.016	15766
841.153	15911
841.29	16071
841.427	15865
841.564	16002
841.701	15994
841.838	15922
841.975	15808
842.112	15781
842.249	15743
842.385	15766
842.522	15793
842.659	15842
842.796	15694
842.933	15816
843.069	15732
843.206	15591
843.343	15869
843.479	15724
843.616	15762
843.752	15454
843.889	15580
844.025	15610
844.162	15576
844.298	15629
844.435	15553
844.571	15507
844.708	15633
844.844	15679
844.98	15720
845.117	15724
845.253	15473
845.389	15477
845.525	15496
845.661	15428
845.798	15321
845.934	15389
846.07	15268
846.206	15310
846.342	15568
846.478	15306
846.614	15081
846.75	15184
846.886	15104
847.022	15138
847.158	15070
847.294	15226
847.429	15154
847.565	15074
847.701	15302
847.837	14895
847.972	14815
848.108	14800
848.244	14929
848.379	14735
848.515	14644
848.65	14720
848.786	14648
848.921	14743
849.057	14765
849.192	14777
849.328	14705
849.463	14743
849.598	14701
849.734	14602
849.869	14545
850.004	14530
850.14	14389
850.275	14530
850.41	14339
850.545	14396
850.68	14434
850.815	14431
850.95	14484
851.085	14644
851.22	14549
851.355	14480
851.49	14473
851.625	14389
851.76	14541
851.895	14370
852.03	14396
852.165	14419
852.299	14423
852.434	14492
852.569	14495
852.703	14454
852.838	14541
852.973	14613
853.107	14568
853.242	14431
853.376	14385
853.511	14229
853.645	14267
853.78	14488
853.914	14400
854.048	14313
854.183	14256
854.317	14263
854.451	14469
854.585	14252
854.72	14259
854.854	14351
854.988	14244
855.122	14305
855.256	14176
855.39	14199
855.524	14336
855.658	14252
855.792	14381
855.926	14393
856.06	14412
856.194	14461
856.327	14362
856.461	14309
856.595	14248
856.729	14301
856.862	14408
856.996	14427
857.13	14499
857.263	14450
857.397	14484
857.53	14202
857.664	14415
857.797	14366
857.931	14450
858.064	14374
858.197	14358
858.331	14412
858.464	14202
858.597	14187
858.731	14252
858.864	14267
858.997	14328
859.13	14381
859.263	14347
859.396	14389
859.529	14275
859.662	14252
859.795	14278
859.928	14336
860.061	14518
860.194	14427
860.327	14324
860.46	14332
860.592	14374
860.725	14431
860.858	14366
860.99	14176
861.123	14278
861.256	14233
861.388	14351
861.521	15028
861.653	14172
861.786	14210
861.918	14142
862.05	14248
862.183	14278
862.315	14202
862.447	14389
862.58	14256
862.712	14115
862.844	13986
862.976	14115
863.108	14142
863.24	14393
863.372	13967
863.504	14077
863.636	14035
863.768	14100
863.9	14081
864.032	13997
864.164	14062
864.296	14252
864.428	14218
864.559	14180
864.691	14244
864.823	14229
864.954	14142
865.086	14210
865.217	14115
865.349	14043
865.48	14035
865.612	14126
865.743	14172
865.875	14024
866.006	14027
866.137	14168
866.269	13974
866.4	14043
866.531	14046
866.662	14115
866.793	13925
866.924	14107
867.055	14027
867.186	14027
867.317	14035
867.448	13970
867.579	13993
867.71	14008
867.841	13963
867.972	14138
868.103	14039
868.233	14183
868.364	14084
868.495	14107
868.625	14298
868.756	14415
868.886	14263
869.017	14210
869.147	14476
869.278	14381
869.408	14366
869.539	14347
869.669	14446
869.799	14309
869.929	14454
870.06	14347
870.19	14629
870.32	14663
870.45	14575
870.58	14826
870.71	14800
870.84	14868
870.97	14682
871.1	14712
871.23	14956
871.36	14948
871.489	14895
871.619	14861
871.749	15001
871.879	14918
872.008	15066
872.138	14956
872.267	14762
872.397	14720
872.526	14663
872.656	14705
872.785	14754
872.915	14960
873.044	15089
873.173	14902
873.303	14963
873.432	14979
873.561	15051
873.69	14986
873.819	14868
873.948	15119
874.077	15039
874.206	14948
874.335	15013
874.464	15108
874.593	15233
874.722	15211
874.851	15374
874.979	15370
875.108	15287
875.237	15260
875.365	15237
875.494	15226
875.623	15454
875.751	15313
875.88	15294
876.008	15386
876.136	15496
876.265	15633
876.393	15831
876.521	15724
876.65	15835
876.778	15743
876.906	15709
877.034	15667
877.162	15717
877.29	15591
877.418	15713
877.546	15686
877.674	15739
877.802	15724
877.93	15762
878.058	15629
878.185	15576
878.313	15747
878.441	15739
878.568	15694
878.696	15652
878.824	15690
878.951	15797
879.079	15975
879.206	15972
879.333	15903
879.461	15732
879.588	15732
879.715	15953
879.842	15979
879.97	15827
880.097	15492
880.224	15500
880.351	15580
880.478	15477
880.605	15492
880.732	15557
880.859	15747
880.986	15584
881.112	15660
881.239	15389
881.366	15340
881.493	15233
881.619	15154
881.746	15169
881.872	15329
881.999	15184
882.125	15169
882.252	15351
882.378	15279
882.505	15317
882.631	15233
882.757	15051
882.883	15116
883.01	15093
883.136	15077
883.262	14963
883.388	14899
883.514	15085
883.64	15070
883.766	15024
883.892	14876
884.018	14910
884.143	15112
884.269	15036
884.395	14773
884.52	14788
884.646	14777
884.772	14670
884.897	14659
885.023	14678
885.148	14777
885.274	14975
885.399	14849
885.524	14800
885.65	14830
885.775	14773
885.9	14689
886.025	14887
886.15	14842
886.275	14750
886.4	14686
886.525	14724
886.65	14697
886.775	14682
886.9	14872
887.025	14941
887.149	14826
887.274	14526
887.399	14556
887.523	14514
887.648	14606
887.773	14537
887.897	14670
888.021	14674
888.146	14492
888.27	14667
888.395	14682
888.519	14670
888.643	14610
888.767	14594
888.891	14499
889.015	14461
889.139	14549
889.263	14457
889.387	14568
889.511	14636
889.635	14602
889.759	14427
889.883	14396
890.006	14518
890.13	14552
890.254	14412
890.377	14408
890.501	14244
890.624	14278
890.748	14305
890.871	14195
890.995	14088
891.118	14069
891.241	14168
891.364	14077
891.488	14229
891.611	14199
891.734	14206
891.857	14237
891.98	14138
892.103	14240
892.226	14111
892.349	14077
892.471	14031
892.594	14149
892.717	14084
892.839	14130
892.962	14153
893.085	14305
893.207	14161
893.33	14115
893.452	14084
893.575	14195
893.697	14069
893.819	14301
893.941	14336
894.064	14290
894.186	14107
894.308	14119
894.43	14161
894.552	14366
894.674	14313
894.796	13997
894.918	14244
895.04	14107
895.161	14282
895.283	14294
895.405	14115
895.526	14282
895.648	14176
895.769	14271
895.891	14305
896.012	14358
896.134	14313
896.255	14313
896.376	14324
896.498	14237
896.619	14294
896.74	14290
896.861	14400
896.982	14689
897.103	14785
897.224	14617
897.345	14552
897.466	14514
897.587	14632
897.708	14727
897.828	14602
897.949	14629
898.07	14347
898.19	14503
898.311	14754
898.431	14587
898.552	14617
898.672	14754
898.792	14670
898.913	14686
899.033	14602
899.153	14461
899.273	14415
899.393	14358
899.513	14499
899.633	14560
899.753	14511
899.873	14583
899.993	14598
900.113	14438
900.232	14549
900.352	14522
900.472	14442
900.591	14202
900.711	14374
900.83	14389
900.95	14541
901.069	14450
901.189	14415
901.308	14130
901.427	14046
901.546	14058
901.665	14081
901.784	14103
901.904	13997
902.023	13871
902.141	13693
902.26	13677
902.379	13704
902.498	13571
902.617	13620
902.735	13571
902.854	13677
902.973	13510
903.091	13369
903.21	13320
903.328	13381
903.446	13282
903.565	13209
903.683	13202
903.801	13072
903.919	13183
904.038	13202
904.156	12996
904.274	13088
904.392	13012
904.51	12943
904.627	12905
904.745	13034
904.863	12981
904.981	12760
905.098	12711
905.216	12642
905.334	12738
905.451	12738
905.569	12802
905.686	12745
905.803	12658
905.921	12585
906.038	12658
906.155	12517
906.272	12589
906.389	12437
906.506	12311
906.623	12327
906.74	12254
906.857	12133
906.974	12197
907.091	12414
907.208	12433
907.324	12289
907.441	12140
907.557	12030
907.674	12121
907.79	12041
907.907	11942
908.023	12011
908.139	11996
908.256	11969
908.372	11980
908.488	12011
908.604	11794
908.72	11798
908.836	11874
908.952	11714
909.068	11912
909.184	11847
909.3	11866
909.415	11901
909.531	11802
909.647	11668
909.762	11570
909.878	11501
909.993	11543
910.108	11535
910.224	11558
910.339	11516
910.454	11493
910.57	11417
910.685	11429
910.8	11600
910.915	11509
911.03	11414
911.145	11269
911.259	11315
911.374	11391
911.489	11223
911.604	11162
911.718	11041
911.833	10991
911.947	10923
912.062	10858
912.176	10999
912.291	10999
912.405	10953
912.519	11227
912.633	11193
912.748	11083
912.862	10984
912.976	10938
913.09	10774
913.204	10835
913.318	10987
913.431	10987
913.545	10987
913.659	10995
913.772	10968
913.886	10771
914	10755
914.113	10854
914.226	10938
914.34	10843
914.453	10759
914.566	10862
914.68	10691
914.793	10744
914.906	10569
915.019	10470
915.132	10421
915.245	10558
915.358	10577
915.47	10558
915.583	10550
915.696	10558
915.809	10679
915.921	10672
916.034	10538
916.146	10527
916.259	10451
916.371	10584
916.483	10508
916.595	10462
916.708	10459
916.82	10470
916.932	10470
917.044	10382
917.156	10451
917.268	10337
917.38	10299
917.491	10382
917.603	10386
917.715	10459
917.826	10478
917.938	10367
918.049	10227
918.161	10344
918.272	10592
918.384	10443
918.495	10360
918.606	10287
918.717	10204
918.828	10257
918.939	10280
919.05	10173
919.161	10143
919.272	10051
919.383	10097
919.494	10280
919.604	10386
919.715	10227
919.826	10128
919.936	10192
920.047	10272
920.157	10211
920.267	10516
920.378	10325
920.488	10242
920.598	10443
920.708	10607
920.818	10436
920.928	10375
921.038	10637
921.148	10558
921.258	10318
921.368	10204
921.477	10135
921.587	10086
921.697	10010
921.806	10173
921.916	10086
922.025	9793
922.134	9743
922.244	9789
922.353	9804
922.462	9740
922.571	9663
922.68	9549
922.789	9458
922.898	9473
923.007	9511
923.116	9507
923.224	9496
923.333	9515
923.442	9344
923.55	9359
923.659	9424
923.767	9424
923.876	9325
923.984	9397
924.092	9302
924.201	9386
924.309	9370
924.417	9382
924.525	9374
924.633	9370
924.741	10249
924.849	9131
924.956	9374
925.064	9142
925.172	9123
925.279	9100
925.387	9165
925.494	9131
925.602	9291
925.709	9268
925.816	9104
925.924	9146
926.031	9203
926.138	9169
926.245	9169
926.352	9119
926.459	9211
926.566	9336
926.673	9085
926.779	9055
926.886	9085
926.993	8910
927.099	8853
927.206	8804
927.312	8880
927.419	8929
927.525	8925
927.631	8944
927.737	8796
927.843	8811
927.95	8632
928.056	8663
928.162	8800
928.267	8918
928.373	9310
928.479	8918
928.585	8678
928.69	8735
928.796	8758
928.901	8693
929.007	8499
929.112	8640
929.218	8678
929.323	8632
929.428	8499
929.533	8705
929.638	8571
929.743	8564
929.848	8575
929.953	8579
930.058	8480
930.163	8370
930.267	8320
930.372	8400
930.477	8332
930.581	8541
930.685	8438
930.79	8267
930.894	8298
930.998	8244
931.103	8396
931.207	8069
931.311	8054
931.415	7974
931.519	7753
931.623	7822
