Data from test_V78500241_2558.txt Node
Date: Fri Mar 25 14:51:31 CST 2022
User: usil
Spectrometer: V785-0024
Trigger mode: 0
Integration Time (sec): 4.000000E-1
Scans to average: 1
Nonlinearity correction enabled: false
Boxcar width: 0
Storing dark spectrum: false
XAxis mode: Wavelengths
Number of Pixels in Spectrum: 1024
>>>>>Begin Spectral Data<<<<<
801.071	22063
801.214	21937
801.356	21663
801.499	21549
801.641	21511
801.783	21370
801.926	21431
802.068	21363
802.211	21188
802.353	21241
802.496	20918
802.638	20933
802.78	20804
802.923	20800
803.065	20792
803.208	20480
803.35	20625
803.492	20758
803.635	20876
803.777	20640
803.919	20754
804.061	21036
804.204	20750
804.346	20678
804.488	20560
804.63	20587
804.773	20541
804.915	20587
805.057	20769
805.199	20689
805.341	20609
805.483	20857
805.626	20712
805.768	20541
805.91	20579
806.052	20499
806.194	20484
806.336	20765
806.478	20594
806.62	20590
806.762	20720
806.904	20819
807.046	21009
807.188	20868
807.33	20960
807.472	20902
807.614	20876
807.756	20853
807.898	20727
808.04	20636
808.182	20632
808.324	20765
808.465	20644
808.607	20853
808.749	21112
808.891	21207
809.033	21146
809.174	20952
809.316	21001
809.458	21020
809.6	20899
809.741	21039
809.883	21070
810.025	20982
810.166	21241
810.308	21138
810.45	21055
810.591	20982
810.733	20891
810.875	20716
811.016	20705
811.158	20674
811.299	20849
811.441	20861
811.582	20960
811.724	20765
811.865	20796
812.007	20655
812.148	20773
812.29	20769
812.431	20876
812.573	21013
812.714	21214
812.855	21237
812.997	21268
813.138	21629
813.279	21268
813.421	21249
813.562	21279
813.703	21036
813.845	20838
813.986	20693
814.127	20446
814.268	20370
814.41	20282
814.551	20282
814.692	20438
814.833	20161
814.974	20278
815.115	20343
815.256	20119
815.397	20210
815.539	20138
815.68	20039
815.821	20092
815.962	20043
816.103	19921
816.244	19921
816.385	19780
816.526	19727
816.666	19559
816.807	19354
816.948	19540
817.089	19548
817.23	19434
817.371	19400
817.512	19422
817.653	19445
817.793	19407
817.934	19365
818.075	19422
818.216	19453
818.356	19346
818.497	19232
818.638	19099
818.778	19107
818.919	19194
819.06	19118
819.2	19236
819.341	19316
819.481	19350
819.622	19449
819.762	19674
819.903	19544
820.043	19377
820.184	19362
820.324	19327
820.465	19396
820.605	19388
820.746	19373
820.886	19316
821.026	19327
821.167	19396
821.307	19491
821.447	19434
821.588	19209
821.728	19114
821.868	19080
822.008	18905
822.149	18890
822.289	18856
822.429	18513
822.569	18597
822.709	18502
822.849	18372
822.99	18369
823.13	18277
823.27	18285
823.41	18209
823.55	18106
823.69	18136
823.83	18136
823.97	18068
824.11	17866
824.25	17798
824.389	17885
824.529	17923
824.669	17935
824.809	17946
824.949	17942
825.089	17832
825.228	17874
825.368	17695
825.508	17748
825.648	17779
825.787	17767
825.927	17748
826.067	17657
826.206	17714
826.346	17653
826.485	17672
826.625	17714
826.765	17893
826.904	17687
827.044	17478
827.183	17410
827.323	17360
827.462	17474
827.601	17330
827.741	17360
827.88	17448
828.02	17166
828.159	17398
828.298	17452
828.437	17402
828.577	17467
828.716	17433
828.855	17269
828.994	17098
829.134	17109
829.273	17025
829.412	17033
829.551	17075
829.69	17124
829.829	17231
829.968	17200
830.107	17162
830.246	17162
830.385	17128
830.524	16999
830.663	16949
830.802	16850
830.941	16812
831.08	16721
831.219	16828
831.357	16778
831.496	16885
831.635	16767
831.774	16615
831.913	16778
832.051	16535
832.19	16607
832.329	16577
832.467	16398
832.606	16447
832.744	16367
832.883	16462
833.022	16459
833.16	16360
833.299	16531
833.437	16519
833.576	16398
833.714	16493
833.852	16527
833.991	16634
834.129	16580
834.267	16618
834.406	16493
834.544	16569
834.682	16531
834.821	16508
834.959	16713
835.097	16508
835.235	16649
835.373	16637
835.511	16527
835.65	16459
835.788	16466
835.926	16325
836.064	16318
836.202	16314
836.34	16451
836.478	16443
836.615	16485
836.753	16565
836.891	16531
837.029	16481
837.167	16421
837.305	16382
837.443	16344
837.58	16215
837.718	16398
837.856	16295
837.993	16394
838.131	16390
838.269	16265
838.406	16226
838.544	16188
838.681	16071
838.819	16048
838.956	15831
839.094	15800
839.231	15991
839.369	15960
839.506	16215
839.643	16219
839.781	15865
839.918	15831
840.055	15884
840.193	15915
840.33	15903
840.467	15888
840.604	15880
840.742	16097
840.879	15690
841.016	15717
841.153	15793
841.29	16017
841.427	15873
841.564	15911
841.701	15895
841.838	15831
841.975	15736
842.112	15812
842.249	15599
842.385	15682
842.522	15895
842.659	15705
842.796	15675
842.933	15720
843.069	15717
843.206	15652
843.343	15755
843.479	15808
843.616	15686
843.752	15439
843.889	15504
844.025	15614
844.162	15416
844.298	15492
844.435	15462
844.571	15568
844.708	15542
844.844	15629
844.98	15618
845.117	15545
845.253	15397
845.389	15302
845.525	15348
845.661	15397
845.798	15264
845.934	15260
846.07	15116
846.206	15214
846.342	15340
846.478	15272
846.614	15062
846.75	15093
846.886	15024
847.022	15032
847.158	14990
847.294	15005
847.429	15020
847.565	14952
847.701	15180
847.837	14807
847.972	14636
848.108	14876
848.244	14853
848.379	14606
848.515	14564
848.65	14545
848.786	14564
848.921	14568
849.057	14731
849.192	14762
849.328	14651
849.463	14651
849.598	14568
849.734	14613
849.869	14377
850.004	14385
850.14	14484
850.275	14431
850.41	14240
850.545	14347
850.68	14324
850.815	14393
850.95	14374
851.085	14518
851.22	14545
851.355	14381
851.49	14358
851.625	14339
851.76	14351
851.895	14252
852.03	14248
852.165	14362
852.299	14404
852.434	14442
852.569	14408
852.703	14427
852.838	14461
852.973	14549
853.107	14526
853.242	14362
853.376	14278
853.511	14138
853.645	14187
853.78	14343
853.914	14336
854.048	14206
854.183	14157
854.317	14320
854.451	14419
854.585	14199
854.72	14210
854.854	14229
854.988	14240
855.122	14206
855.256	14161
855.39	14176
855.524	14317
855.658	14290
855.792	14351
855.926	14305
856.06	14351
856.194	14336
856.327	14252
856.461	14214
856.595	14180
856.729	14214
856.862	14339
856.996	14332
857.13	14328
857.263	14423
857.397	14396
857.53	14218
857.664	14355
857.797	14339
857.931	14389
858.064	14282
858.197	14290
858.331	14271
858.464	14123
858.597	14164
858.731	14267
858.864	14191
858.997	14336
859.13	14172
859.263	14256
859.396	14336
859.529	14142
859.662	14237
859.795	14248
859.928	14343
860.061	14503
860.194	14450
860.327	14298
860.46	14298
860.592	14377
860.725	14324
860.858	14332
860.99	14210
861.123	14259
861.256	14240
861.388	14248
861.521	14933
861.653	14126
861.786	14088
861.918	14012
862.05	14176
862.183	14218
862.315	14229
862.447	14358
862.58	14195
862.712	13974
862.844	13986
862.976	14142
863.108	14043
863.24	14469
863.372	13974
863.504	13997
863.636	14027
863.768	14046
863.9	14012
864.032	13890
864.164	14008
864.296	14065
864.428	14081
864.559	14142
864.691	14126
864.823	14164
864.954	14126
865.086	13963
865.217	14088
865.349	13978
865.48	14027
865.612	14142
865.743	14103
865.875	14020
866.006	13997
866.137	13993
866.269	14001
866.4	13989
866.531	13936
866.662	13898
866.793	14050
866.924	14119
867.055	14031
867.186	13989
867.317	13963
867.448	13936
867.579	13921
867.71	13868
867.841	13944
867.972	14039
868.103	13890
868.233	14111
868.364	13936
868.495	14069
868.625	14278
868.756	14381
868.886	14187
869.017	14172
869.147	14434
869.278	14362
869.408	14199
869.539	14248
869.669	14351
869.799	14358
869.929	14450
870.06	14347
870.19	14670
870.32	14511
870.45	14670
870.58	14594
870.71	14815
870.84	14743
870.97	14579
871.1	14545
871.23	14815
871.36	14857
871.489	14769
871.619	14781
871.749	14872
871.879	14910
872.008	15005
872.138	14861
872.267	14887
872.397	14815
872.526	14769
872.656	14705
872.785	14670
872.915	14785
873.044	14910
873.173	15001
873.303	14960
873.432	15085
873.561	14967
873.69	14910
873.819	14891
873.948	14990
874.077	14956
874.206	14921
874.335	14990
874.464	15047
874.593	15211
874.722	15066
874.851	15313
874.979	15230
875.108	15420
875.237	15112
875.365	15127
875.494	15214
875.623	15317
875.751	15298
875.88	15367
876.008	15359
876.136	15458
876.265	15660
876.393	15713
876.521	15755
876.65	15755
876.778	15660
876.906	15648
877.034	15568
877.162	15656
877.29	15492
877.418	15671
877.546	15523
877.674	15675
877.802	15663
877.93	15622
878.058	15618
878.185	15595
878.313	15618
878.441	15644
878.568	15492
878.696	15584
878.824	15660
878.951	15755
879.079	15770
879.206	16021
879.333	15884
879.461	15576
879.588	15762
879.715	15842
879.842	15956
879.97	15679
880.097	15481
880.224	15488
880.351	15492
880.478	15576
880.605	15450
880.732	15408
880.859	15762
880.986	15496
881.112	15401
881.239	15507
881.366	15184
881.493	15169
881.619	15188
881.746	15184
881.872	15154
881.999	15241
882.125	15108
882.252	15203
882.378	15192
882.505	15275
882.631	15070
882.757	14986
882.883	14994
883.01	14948
883.136	14781
883.262	14910
883.388	14781
883.514	15005
883.64	14937
883.766	14887
883.892	14712
884.018	14762
884.143	14944
884.269	14982
884.395	14792
884.52	14693
884.646	14724
884.772	14682
884.897	14583
885.023	14670
885.148	14815
885.274	14830
885.399	14925
885.524	14804
885.65	14724
885.775	14701
885.9	14670
886.025	14800
886.15	14788
886.275	14625
886.4	14659
886.525	14636
886.65	14629
886.775	14629
886.9	14804
887.025	14887
887.149	14655
887.274	14446
887.399	14499
887.523	14358
887.648	14530
887.773	14377
887.897	14613
888.021	14495
888.146	14495
888.27	14606
888.395	14648
888.519	14629
888.643	14625
888.767	14511
888.891	14400
889.015	14336
889.139	14412
889.263	14377
889.387	14434
889.511	14530
889.635	14427
889.759	14366
889.883	14286
890.006	14438
890.13	14446
890.254	14377
890.377	14343
890.501	14202
890.624	14126
890.748	14267
890.871	14145
890.995	14035
891.118	13951
891.241	14153
891.364	14107
891.488	14202
891.611	14039
891.734	14073
891.857	14111
891.98	14164
892.103	14218
892.226	14065
892.349	14100
892.471	13909
892.594	14043
892.717	14008
892.839	14073
892.962	14016
893.085	14218
893.207	14062
893.33	13906
893.452	13967
893.575	14062
893.697	14020
893.819	14256
893.941	14336
894.064	14229
894.186	14081
894.308	14092
894.43	14142
894.552	14282
894.674	14199
894.796	14062
894.918	14111
895.04	14145
895.161	14221
895.283	14214
895.405	14119
895.526	14237
895.648	14271
895.769	14180
895.891	14183
896.012	14298
896.134	14305
896.255	14339
896.376	14149
896.498	14221
896.619	14275
896.74	14107
896.861	14366
896.982	14640
897.103	14781
897.224	14537
897.345	14404
897.466	14374
897.587	14537
897.708	14682
897.828	14568
897.949	14423
898.07	14290
898.19	14427
898.311	14663
898.431	14575
898.552	14655
898.672	14564
898.792	14583
898.913	14610
899.033	14511
899.153	14404
899.273	14332
899.393	14438
899.513	14461
899.633	14438
899.753	14457
899.873	14484
899.993	14613
900.113	14457
900.232	14343
900.352	14469
900.472	14343
900.591	14199
900.711	14374
900.83	14214
900.95	14374
901.069	14377
901.189	14244
901.308	14008
901.427	14001
901.546	13963
901.665	14024
901.784	14123
901.904	13879
902.023	13765
902.141	13548
902.26	13544
902.379	13628
902.498	13590
902.617	13396
902.735	13639
902.854	13491
902.973	13411
903.091	13358
903.21	13320
903.328	13304
903.446	13179
903.565	13213
903.683	13141
903.801	13004
903.919	13133
904.038	13137
904.156	13027
904.274	13034
904.392	12977
904.51	12947
904.627	12882
904.745	13023
904.863	13042
904.981	12871
905.098	12517
905.216	12635
905.334	12719
905.451	12623
905.569	12623
905.686	12757
905.803	12650
905.921	12426
906.038	12540
906.155	12410
906.272	12327
906.389	12357
906.506	12209
906.623	12194
906.74	12220
906.857	12076
906.974	12148
907.091	12350
907.208	12372
907.324	12251
907.441	12235
907.557	12060
907.674	12053
907.79	11927
907.907	11969
908.023	12003
908.139	12034
908.256	11923
908.372	11954
908.488	11878
908.604	11824
908.72	11760
908.836	11737
908.952	11676
909.068	11760
909.184	11866
909.3	11771
909.415	11733
909.531	11771
909.647	11520
909.762	11524
909.878	11490
909.993	11592
910.108	11558
910.224	11467
910.339	11490
910.454	11440
910.57	11322
910.685	11364
910.8	11615
910.915	11604
911.03	11402
911.145	11197
911.259	11273
911.374	11235
911.489	11117
911.604	11151
911.718	10972
911.833	11079
911.947	10938
912.062	10816
912.176	11010
912.291	11037
912.405	10999
912.519	11216
912.633	11193
912.748	11109
912.862	11003
912.976	10911
913.09	10767
913.204	10771
913.318	10831
913.431	10934
913.545	11041
913.659	11010
913.772	10862
913.886	10774
914	10694
914.113	10866
914.226	10858
914.34	10763
914.453	10683
914.566	10793
914.68	10797
914.793	10725
914.906	10478
915.019	10489
915.132	10390
915.245	10466
915.358	10500
915.47	10508
915.583	10558
915.696	10519
915.809	10626
915.921	10569
916.034	10493
916.146	10402
916.259	10390
916.371	10542
916.483	10432
916.595	10432
916.708	10455
916.82	10375
916.932	10405
917.044	10405
917.156	10333
917.268	10265
917.38	10428
917.491	10196
917.603	10299
917.715	10394
917.826	10451
917.938	10329
918.049	10215
918.161	10341
918.272	10390
918.384	10508
918.495	10287
918.606	10173
918.717	10246
918.828	10265
918.939	10287
919.05	10162
919.161	10261
919.272	9915
919.383	10055
919.494	10284
919.604	10409
919.715	10200
919.826	10169
919.936	10196
920.047	10234
920.157	10246
920.267	10462
920.378	10310
920.488	10257
920.598	10402
920.708	10523
920.818	10367
920.928	10371
921.038	10691
921.148	10497
921.258	10230
921.368	10181
921.477	10185
921.587	10074
921.697	9899
921.806	10025
921.916	9930
922.025	9778
922.134	9774
922.244	9740
922.353	9789
922.462	9663
922.571	9591
922.68	9469
922.789	9431
922.898	9542
923.007	9389
923.116	9500
923.224	9477
923.333	9458
923.442	9306
923.55	9458
923.659	9386
923.767	9424
923.876	9321
923.984	9393
924.092	9249
924.201	9321
924.309	9287
924.417	9340
924.525	9329
924.633	9279
924.741	10051
924.849	9089
924.956	9279
925.064	9142
925.172	9104
925.279	9119
925.387	9184
925.494	9131
925.602	9233
925.709	9253
925.816	9127
925.924	9165
926.031	9150
926.138	9154
926.245	9180
926.352	9055
926.459	9146
926.566	9222
926.673	9062
926.779	9020
926.886	8994
926.993	8800
927.099	8842
927.206	8788
927.312	8758
927.419	8883
927.525	8838
927.631	8925
927.737	8746
927.843	8735
927.95	8667
928.056	8693
928.162	8724
928.267	8735
928.373	9435
928.479	8830
928.585	8568
928.69	8750
928.796	8792
928.901	8670
929.007	8545
929.112	8651
929.218	8598
929.323	8533
929.428	8590
929.533	8701
929.638	8488
929.743	8537
929.848	8629
929.953	8560
930.058	8545
930.163	8328
930.267	8336
930.372	8454
930.477	8362
930.581	8571
930.685	8446
930.79	8305
930.894	8339
930.998	8282
931.103	8484
931.207	8100
931.311	7970
931.415	7986
931.519	7784
931.623	7753
