Data from test_V78500241_3460.txt Node
Date: Fri Mar 25 14:57:48 CST 2022
User: usil
Spectrometer: V785-0024
Trigger mode: 0
Integration Time (sec): 4.000000E-1
Scans to average: 1
Nonlinearity correction enabled: false
Boxcar width: 0
Storing dark spectrum: false
XAxis mode: Wavelengths
Number of Pixels in Spectrum: 1024
>>>>>Begin Spectral Data<<<<<
801.071	21975
801.214	21804
801.356	21500
801.499	21511
801.641	21473
801.783	21336
801.926	21249
802.068	21382
802.211	21230
802.353	21043
802.496	20891
802.638	20842
802.78	20697
802.923	20621
803.065	20697
803.208	20598
803.35	20636
803.492	20754
803.635	20853
803.777	20613
803.919	20670
804.061	21009
804.204	20625
804.346	20526
804.488	20488
804.63	20636
804.773	20549
804.915	20423
805.057	20594
805.199	20514
805.341	20495
805.483	20640
805.626	20549
805.768	20587
805.91	20648
806.052	20594
806.194	20446
806.336	20689
806.478	20511
806.62	20514
806.762	20590
806.904	20823
807.046	21001
807.188	20830
807.33	20819
807.472	20895
807.614	20762
807.756	20876
807.898	20617
808.04	20571
808.182	20571
808.324	20693
808.465	20621
808.607	20689
808.749	20823
808.891	20982
809.033	21047
809.174	20998
809.316	20910
809.458	20781
809.6	20735
809.741	21020
809.883	20994
810.025	21036
810.166	21039
810.308	21009
810.45	20979
810.591	20845
810.733	20727
810.875	20621
811.016	20590
811.158	20484
811.299	20712
811.441	20788
811.582	20773
811.724	20625
811.865	20644
812.007	20606
812.148	20594
812.29	20617
812.431	20773
812.573	20853
812.714	20967
812.855	21055
812.997	21173
813.138	21272
813.279	21230
813.421	21161
813.562	21138
813.703	20921
813.845	20632
813.986	20514
814.127	20218
814.268	20278
814.41	20119
814.551	20240
814.692	20248
814.833	20142
814.974	20180
815.115	20111
815.256	20020
815.397	20039
815.539	20092
815.68	19928
815.821	19917
815.962	19788
816.103	19807
816.244	19860
816.385	19734
816.526	19529
816.666	19502
816.807	19293
816.948	19400
817.089	19434
817.23	19403
817.371	19354
817.512	19369
817.653	19369
817.793	19259
817.934	19297
818.075	19270
818.216	19304
818.356	19278
818.497	19110
818.638	18913
818.778	19019
818.919	19015
819.06	19076
819.2	18993
819.341	19278
819.481	19164
819.622	19377
819.762	19571
819.903	19495
820.043	19396
820.184	19396
820.324	19190
820.465	19339
820.605	19308
820.746	19240
820.886	19099
821.026	19209
821.167	19206
821.307	19358
821.447	19183
821.588	19137
821.728	19008
821.868	18844
822.008	18669
822.149	18802
822.289	18692
822.429	18399
822.569	18376
822.709	18388
822.849	18121
822.99	18224
823.13	18232
823.27	18117
823.41	17996
823.55	17931
823.69	18019
823.83	18060
823.97	17870
824.11	17832
824.25	17748
824.389	17741
824.529	17813
824.669	17737
824.809	17916
824.949	17832
825.089	17832
825.228	17760
825.368	17642
825.508	17646
825.648	17581
825.787	17528
825.927	17596
826.067	17425
826.206	17459
826.346	17512
826.485	17516
826.625	17398
826.765	17653
826.904	17573
827.044	17315
827.183	17288
827.323	17227
827.462	17227
827.601	17185
827.741	17193
827.88	17254
828.02	17155
828.159	17136
828.298	17296
828.437	17212
828.577	17162
828.716	17326
828.855	17109
828.994	17048
829.134	17056
829.273	17064
829.412	16999
829.551	16946
829.69	16923
829.829	16949
829.968	17189
830.107	17083
830.246	17109
830.385	16873
830.524	16908
830.663	16816
830.802	16717
830.941	16565
831.08	16596
831.219	16615
831.357	16790
831.496	16748
831.635	16660
831.774	16538
831.913	16577
832.051	16523
832.19	16459
832.329	16394
832.467	16329
832.606	16230
832.744	16276
832.883	16272
833.022	16291
833.16	16405
833.299	16402
833.437	16352
833.576	16432
833.714	16417
833.852	16337
833.991	16462
834.129	16363
834.267	16440
834.406	16344
834.544	16478
834.682	16352
834.821	16367
834.959	16565
835.097	16402
835.235	16489
835.373	16402
835.511	16443
835.65	16299
835.788	16215
835.926	16185
836.064	16185
836.202	16135
836.34	16280
836.478	16375
836.615	16249
836.753	16249
836.891	16413
837.029	16303
837.167	16310
837.305	16181
837.443	16226
837.58	16181
837.718	16154
837.856	16166
837.993	16109
838.131	16173
838.269	16051
838.406	16120
838.544	16139
838.681	15964
838.819	15911
838.956	15812
839.094	15682
839.231	15945
839.369	15861
839.506	16192
839.643	16010
839.781	15850
839.918	15644
840.055	15816
840.193	15724
840.33	15747
840.467	15732
840.604	15781
840.742	16021
840.879	15610
841.016	15637
841.153	15580
841.29	15781
841.427	15884
841.564	15736
841.701	15736
841.838	15663
841.975	15663
842.112	15690
842.249	15538
842.385	15519
842.522	15698
842.659	15496
842.796	15515
842.933	15454
843.069	15424
843.206	15408
843.343	15523
843.479	15618
843.616	15469
843.752	15245
843.889	15332
844.025	15492
844.162	15325
844.298	15439
844.435	15355
844.571	15199
844.708	15351
844.844	15462
844.98	15469
845.117	15408
845.253	15252
845.389	15199
845.525	15127
845.661	15218
845.798	15051
845.934	15199
846.07	15097
846.206	15138
846.342	15119
846.478	15119
846.614	14853
846.75	14891
846.886	14807
847.022	14925
847.158	14979
847.294	14895
847.429	15013
847.565	14861
847.701	15135
847.837	14640
847.972	14613
848.108	14705
848.244	14640
848.379	14636
848.515	14556
848.65	14514
848.786	14556
848.921	14362
849.057	14613
849.192	14560
849.328	14457
849.463	14514
849.598	14431
849.734	14469
849.869	14351
850.004	14355
850.14	14282
850.275	14324
850.41	14191
850.545	14191
850.68	14195
850.815	14259
850.95	14145
851.085	14484
851.22	14286
851.355	14259
851.49	14180
851.625	14271
851.76	14229
851.895	14043
852.03	14107
852.165	14233
852.299	14298
852.434	14408
852.569	14282
852.703	14229
852.838	14309
852.973	14355
853.107	14400
853.242	14256
853.376	14088
853.511	14088
853.645	14043
853.78	14202
853.914	14134
854.048	14046
854.183	14134
854.317	14084
854.451	14221
854.585	14134
854.72	14046
854.854	14153
854.988	14020
855.122	14039
855.256	13978
855.39	14187
855.524	14290
855.658	14206
855.792	14126
855.926	14206
856.06	14161
856.194	14275
856.327	14088
856.461	14157
856.595	14062
856.729	14157
856.862	14218
856.996	14225
857.13	14210
857.263	14195
857.397	14271
857.53	14164
857.664	14142
857.797	14229
857.931	14290
858.064	14199
858.197	14145
858.331	14153
858.464	14180
858.597	14058
858.731	14123
858.864	14039
858.997	14123
859.13	14149
859.263	14172
859.396	14301
859.529	14050
859.662	14100
859.795	13989
859.928	14176
860.061	14286
860.194	14290
860.327	14138
860.46	14077
860.592	14221
860.725	14225
860.858	14244
860.99	14062
861.123	14157
861.256	14050
861.388	14138
861.521	14834
861.653	13955
861.786	13928
861.918	13940
862.05	14081
862.183	14016
862.315	14210
862.447	14172
862.58	14107
862.712	13902
862.844	13871
862.976	13875
863.108	13951
863.24	14317
863.372	13803
863.504	13871
863.636	13902
863.768	13967
863.9	13909
864.032	13795
864.164	13940
864.296	13921
864.428	14043
864.559	13997
864.691	14024
864.823	13894
864.954	14012
865.086	13997
865.217	13909
865.349	13928
865.48	13845
865.612	13955
865.743	14031
865.875	13970
866.006	13761
866.137	13944
866.269	13959
866.4	13856
866.531	13765
866.662	13811
866.793	13837
866.924	13856
867.055	13947
867.186	13909
867.317	13856
867.448	13841
867.579	13833
867.71	13795
867.841	13753
867.972	13959
868.103	13818
868.233	13868
868.364	13936
868.495	13974
868.625	14088
868.756	14267
868.886	14024
869.017	14138
869.147	14290
869.278	14218
869.408	14138
869.539	14157
869.669	14176
869.799	14161
869.929	14298
870.06	14320
870.19	14488
870.32	14438
870.45	14507
870.58	14575
870.71	14655
870.84	14674
870.97	14556
871.1	14492
871.23	14750
871.36	14765
871.489	14682
871.619	14667
871.749	14762
871.879	14701
872.008	14819
872.138	14659
872.267	14602
872.397	14560
872.526	14663
872.656	14480
872.785	14610
872.915	14735
873.044	14807
873.173	14750
873.303	14845
873.432	14891
873.561	14902
873.69	14781
873.819	14811
873.948	14883
874.077	14823
874.206	14785
874.335	14777
874.464	14929
874.593	15058
874.722	15058
874.851	15226
874.979	15218
875.108	15097
875.237	14944
875.365	15093
875.494	15081
875.623	15192
875.751	15116
875.88	15222
876.008	15252
876.136	15351
876.265	15420
876.393	15705
876.521	15580
876.65	15618
876.778	15538
876.906	15481
877.034	15454
877.162	15580
877.29	15492
877.418	15561
877.546	15606
877.674	15549
877.802	15462
877.93	15428
878.058	15492
878.185	15519
878.313	15526
878.441	15572
878.568	15389
878.696	15397
878.824	15466
878.951	15660
879.079	15663
879.206	15800
879.333	15701
879.461	15530
879.588	15576
879.715	15751
879.842	15816
879.97	15557
880.097	15416
880.224	15431
880.351	15447
880.478	15428
880.605	15321
880.732	15294
880.859	15637
880.986	15393
881.112	15321
881.239	15340
881.366	15157
881.493	15043
881.619	15161
881.746	15104
881.872	14990
881.999	14990
882.125	15017
882.252	15017
882.378	15100
882.505	15222
882.631	15020
882.757	14826
882.883	15001
883.01	14823
883.136	14804
883.262	14777
883.388	14754
883.514	14838
883.64	14864
883.766	14838
883.892	14697
884.018	14743
884.143	14838
884.269	14861
884.395	14613
884.52	14503
884.646	14530
884.772	14522
884.897	14434
885.023	14568
885.148	14667
885.274	14712
885.399	14743
885.524	14602
885.65	14522
885.775	14648
885.9	14552
886.025	14716
886.15	14621
886.275	14442
886.4	14393
886.525	14541
886.65	14442
886.775	14552
886.9	14682
887.025	14883
887.149	14636
887.274	14423
887.399	14328
887.523	14415
887.648	14324
887.773	14298
887.897	14537
888.021	14389
888.146	14313
888.27	14541
888.395	14507
888.519	14480
888.643	14358
888.767	14385
888.891	14298
889.015	14183
889.139	14351
889.263	14206
889.387	14294
889.511	14522
889.635	14377
889.759	14271
889.883	14358
890.006	14191
890.13	14336
890.254	14176
890.377	14233
890.501	14031
890.624	13944
890.748	14138
890.871	13967
890.995	13978
891.118	13909
891.241	13925
891.364	13986
891.488	14115
891.611	13928
891.734	14024
891.857	14062
891.98	13921
892.103	14062
892.226	14005
892.349	13883
892.471	13807
892.594	13917
892.717	14001
892.839	14084
892.962	13963
893.085	14020
893.207	14008
893.33	13765
893.452	13936
893.575	13978
893.697	13898
893.819	14130
893.941	14153
894.064	14161
894.186	13959
894.308	13993
894.43	14058
894.552	14115
894.674	14096
894.796	13917
894.918	14016
895.04	14123
895.161	14058
895.283	14065
895.405	14031
895.526	14134
895.648	14214
895.769	14065
895.891	14161
896.012	14145
896.134	14107
896.255	14172
896.376	14077
896.498	14172
896.619	14176
896.74	14210
896.861	14187
896.982	14495
897.103	14530
897.224	14518
897.345	14457
897.466	14267
897.587	14336
897.708	14492
897.828	14457
897.949	14446
898.07	14275
898.19	14362
898.311	14522
898.431	14442
898.552	14438
898.672	14454
898.792	14590
898.913	14587
899.033	14442
899.153	14381
899.273	14252
899.393	14324
899.513	14294
899.633	14290
899.753	14385
899.873	14278
899.993	14377
900.113	14351
900.232	14393
900.352	14370
900.472	14221
900.591	14202
900.711	14282
900.83	14172
900.95	14282
901.069	14313
901.189	14263
901.308	13868
901.427	13860
901.546	13856
901.665	13837
901.784	13951
901.904	13681
902.023	13681
902.141	13460
902.26	13556
902.379	13525
902.498	13377
902.617	13403
902.735	13487
902.854	13502
902.973	13449
903.091	13232
903.21	13213
903.328	13270
903.446	13103
903.565	13015
903.683	13133
903.801	12905
903.919	12962
904.038	12993
904.156	12905
904.274	12966
904.392	12875
904.51	12821
904.627	12802
904.745	12886
904.863	12909
904.981	12650
905.098	12578
905.216	12517
905.334	12479
905.451	12631
905.569	12536
905.686	12570
905.803	12559
905.921	12475
906.038	12414
906.155	12426
906.272	12228
906.389	12346
906.506	12133
906.623	12003
906.74	12091
906.857	12022
906.974	12121
907.091	12213
907.208	12289
907.324	12205
907.441	12144
907.557	11920
907.674	11965
907.79	11726
907.907	11885
908.023	12030
908.139	11912
908.256	11840
908.372	11707
908.488	11809
908.604	11661
908.72	11604
908.836	11657
908.952	11707
909.068	11611
909.184	11760
909.3	11653
909.415	11707
909.531	11691
909.647	11414
909.762	11379
909.878	11356
909.993	11486
910.108	11383
910.224	11376
910.339	11528
910.454	11299
910.57	11227
910.685	11201
910.8	11459
910.915	11421
911.03	11303
911.145	11067
911.259	11151
911.374	11178
911.489	11083
911.604	11048
911.718	10953
911.833	10900
911.947	10828
912.062	10759
912.176	10812
912.291	10892
912.405	10847
912.519	10972
912.633	11117
912.748	10953
912.862	10927
912.976	10752
913.09	10664
913.204	10664
913.318	10816
913.431	10900
913.545	10877
913.659	10873
913.772	10733
913.886	10630
914	10603
914.113	10721
914.226	10710
914.34	10790
914.453	10641
914.566	10733
914.68	10561
914.793	10535
914.906	10470
915.019	10436
915.132	10348
915.245	10276
915.358	10417
915.47	10394
915.583	10386
915.696	10432
915.809	10561
915.921	10481
916.034	10443
916.146	10333
916.259	10230
916.371	10421
916.483	10371
916.595	10276
916.708	10272
916.82	10318
916.932	10409
917.044	10333
917.156	10314
917.268	10280
917.38	10211
917.491	10246
917.603	10223
917.715	10291
917.826	10257
917.938	10204
918.049	10090
918.161	10207
918.272	10356
918.384	10367
918.495	10230
918.606	10139
918.717	10051
918.828	10128
918.939	10192
919.05	9998
919.161	10124
919.272	9876
919.383	9949
919.494	10162
919.604	10363
919.715	10158
919.826	10010
919.936	10097
920.047	10192
920.157	10097
920.267	10272
920.378	10200
920.488	10181
920.598	10306
920.708	10443
920.818	10329
920.928	10360
921.038	10535
921.148	10493
921.258	10230
921.368	10181
921.477	9972
921.587	9987
921.697	9873
921.806	10021
921.916	9861
922.025	9690
922.134	9701
922.244	9663
922.353	9701
922.462	9591
922.571	9477
922.68	9439
922.789	9317
922.898	9386
923.007	9287
923.116	9393
923.224	9401
923.333	9355
923.442	9294
923.55	9230
923.659	9329
923.767	9283
923.876	9298
923.984	9268
924.092	9176
924.201	9230
924.309	9283
924.417	9245
924.525	9192
924.633	9233
924.741	10063
924.849	9032
924.956	9226
925.064	9047
925.172	8944
925.279	8979
925.387	9051
925.494	9051
925.602	9165
925.709	9131
925.816	9028
925.924	9017
926.031	9085
926.138	9055
926.245	9097
926.352	8986
926.459	9142
926.566	9154
926.673	9028
926.779	8895
926.886	8906
926.993	8788
927.099	8800
927.206	8724
927.312	8682
927.419	8883
927.525	8762
927.631	8785
927.737	8716
927.843	8648
927.95	8621
928.056	8663
928.162	8602
928.267	8697
928.373	9332
928.479	8758
928.585	8499
928.69	8636
928.796	8708
928.901	8583
929.007	8446
929.112	8522
929.218	8526
929.323	8438
929.428	8461
929.533	8674
929.638	8450
929.743	8461
929.848	8549
929.953	8465
930.058	8358
930.163	8244
930.267	8248
930.372	8347
930.477	8328
930.581	8404
930.685	8317
930.79	8142
930.894	8240
930.998	8157
931.103	8370
931.207	7970
931.311	7841
931.415	7871
931.519	7719
931.623	7658
