Data from test_V78500241_3411.txt Node
Date: Fri Mar 25 14:57:27 CST 2022
User: usil
Spectrometer: V785-0024
Trigger mode: 0
Integration Time (sec): 4.000000E-1
Scans to average: 1
Nonlinearity correction enabled: false
Boxcar width: 0
Storing dark spectrum: false
XAxis mode: Wavelengths
Number of Pixels in Spectrum: 1024
>>>>>Begin Spectral Data<<<<<
801.071	22048
801.214	21778
801.356	21633
801.499	21542
801.641	21389
801.783	21268
801.926	21412
802.068	21275
802.211	21291
802.353	21135
802.496	20994
802.638	20853
802.78	20823
802.923	20686
803.065	20609
803.208	20655
803.35	20602
803.492	20807
803.635	20765
803.777	20606
803.919	20716
804.061	21036
804.204	20746
804.346	20587
804.488	20446
804.63	20609
804.773	20465
804.915	20617
805.057	20625
805.199	20609
805.341	20583
805.483	20655
805.626	20625
805.768	20518
805.91	20587
806.052	20598
806.194	20370
806.336	20629
806.478	20461
806.62	20541
806.762	20579
806.904	20663
807.046	20982
807.188	20758
807.33	20906
807.472	20876
807.614	20758
807.756	20682
807.898	20708
808.04	20594
808.182	20537
808.324	20552
808.465	20617
808.607	20792
808.749	20937
808.891	20990
809.033	21150
809.174	21043
809.316	20891
809.458	20861
809.6	20838
809.741	21036
809.883	21028
810.025	21036
810.166	21028
810.308	21058
810.45	20963
810.591	20960
810.733	20769
810.875	20743
811.016	20541
811.158	20602
811.299	20773
811.441	20834
811.582	20727
811.724	20602
811.865	20609
812.007	20670
812.148	20708
812.29	20705
812.431	20887
812.573	20906
812.714	21085
812.855	21230
812.997	21123
813.138	21291
813.279	21268
813.421	21138
813.562	21203
813.703	20857
813.845	20811
813.986	20454
814.127	20427
814.268	20313
814.41	20317
814.551	20309
814.692	20324
814.833	20115
814.974	20130
815.115	20286
815.256	20001
815.397	19997
815.539	20027
815.68	19849
815.821	19822
815.962	19841
816.103	19932
816.244	19700
816.385	19685
816.526	19548
816.666	19434
816.807	19209
816.948	19438
817.089	19495
817.23	19426
817.371	19331
817.512	19327
817.653	19293
817.793	19278
817.934	19358
818.075	19270
818.216	19316
818.356	19194
818.497	19046
818.638	18909
818.778	19004
818.919	18954
819.06	19080
819.2	19251
819.341	19187
819.481	19148
819.622	19339
819.762	19495
819.903	19578
820.043	19388
820.184	19365
820.324	19221
820.465	19403
820.605	19293
820.746	19343
820.886	19232
821.026	19285
821.167	19354
821.307	19411
821.447	19179
821.588	19244
821.728	19038
821.868	18844
822.008	18757
822.149	18700
822.289	18688
822.429	18494
822.569	18395
822.709	18494
822.849	18197
822.99	18136
823.13	18167
823.27	18163
823.41	18019
823.55	17946
823.69	18030
823.83	18064
823.97	17916
824.11	17809
824.25	17729
824.389	17756
824.529	17821
824.669	17767
824.809	17901
824.949	17794
825.089	17923
825.228	17779
825.368	17627
825.508	17608
825.648	17516
825.787	17642
825.927	17573
826.067	17490
826.206	17501
826.346	17551
826.485	17672
826.625	17474
826.765	17748
826.904	17520
827.044	17425
827.183	17360
827.323	17216
827.462	17265
827.601	17318
827.741	17303
827.88	17239
828.02	17155
828.159	17227
828.298	17258
828.437	17284
828.577	17200
828.716	17353
828.855	17189
828.994	17033
829.134	16984
829.273	17056
829.412	17052
829.551	17018
829.69	16866
829.829	17041
829.968	17140
830.107	17022
830.246	17045
830.385	16987
830.524	16987
830.663	16938
830.802	16820
830.941	16634
831.08	16596
831.219	16729
831.357	16793
831.496	16858
831.635	16694
831.774	16561
831.913	16485
832.051	16432
832.19	16485
832.329	16554
832.467	16371
832.606	16234
832.744	16325
832.883	16337
833.022	16322
833.16	16363
833.299	16287
833.437	16443
833.576	16432
833.714	16394
833.852	16356
833.991	16447
834.129	16546
834.267	16413
834.406	16333
834.544	16432
834.682	16405
834.821	16436
834.959	16577
835.097	16363
835.235	16626
835.373	16421
835.511	16390
835.65	16344
835.788	16261
835.926	16173
836.064	16150
836.202	16185
836.34	16428
836.478	16478
836.615	16276
836.753	16299
836.891	16352
837.029	16356
837.167	16375
837.305	16314
837.443	16230
837.58	16173
837.718	16253
837.856	16287
837.993	16063
838.131	16120
838.269	16090
838.406	16173
838.544	16158
838.681	15945
838.819	15964
838.956	15755
839.094	15747
839.231	15812
839.369	15937
839.506	16185
839.643	16036
839.781	15808
839.918	15709
840.055	15759
840.193	15781
840.33	15625
840.467	15789
840.604	15747
840.742	15903
840.879	15496
841.016	15660
841.153	15633
841.29	15827
841.427	15800
841.564	15831
841.701	15800
841.838	15732
841.975	15656
842.112	15690
842.249	15606
842.385	15504
842.522	15724
842.659	15519
842.796	15542
842.933	15660
843.069	15469
843.206	15424
843.343	15599
843.479	15599
843.616	15595
843.752	15389
843.889	15291
844.025	15496
844.162	15355
844.298	15393
844.435	15275
844.571	15389
844.708	15431
844.844	15492
844.98	15450
845.117	15393
845.253	15397
845.389	15230
845.525	15275
845.661	15184
845.798	15077
845.934	15135
846.07	15085
846.206	15169
846.342	15218
846.478	15108
846.614	14895
846.75	14826
846.886	14823
847.022	14933
847.158	14967
847.294	14918
847.429	14925
847.565	14929
847.701	15081
847.837	14670
847.972	14571
848.108	14705
848.244	14739
848.379	14461
848.515	14492
848.65	14461
848.786	14431
848.921	14526
849.057	14514
849.192	14613
849.328	14537
849.463	14469
849.598	14393
849.734	14438
849.869	14290
850.004	14263
850.14	14290
850.275	14282
850.41	14199
850.545	14237
850.68	14180
850.815	14286
850.95	14301
851.085	14415
851.22	14355
851.355	14271
851.49	14298
851.625	14237
851.76	14221
851.895	14153
852.03	14149
852.165	14221
852.299	14328
852.434	14374
852.569	14298
852.703	14286
852.838	14339
852.973	14442
853.107	14366
853.242	14248
853.376	14176
853.511	14035
853.645	14168
853.78	14282
853.914	14161
854.048	14161
854.183	14138
854.317	14096
854.451	14358
854.585	14191
854.72	14138
854.854	14180
854.988	14145
855.122	14103
855.256	14035
855.39	14115
855.524	14195
855.658	14202
855.792	14092
855.926	14237
856.06	14199
856.194	14218
856.327	14176
856.461	14123
856.595	14168
856.729	14161
856.862	14301
856.996	14183
857.13	14282
857.263	14221
857.397	14305
857.53	14180
857.664	14248
857.797	14347
857.931	14320
858.064	14168
858.197	14263
858.331	14115
858.464	14138
858.597	14084
858.731	14275
858.864	14218
858.997	14145
859.13	14218
859.263	14130
859.396	14187
859.529	14187
859.662	14206
859.795	14161
859.928	14130
860.061	14259
860.194	14320
860.327	14210
860.46	14233
860.592	14339
860.725	14328
860.858	14275
860.99	14195
861.123	14073
861.256	14077
861.388	14153
861.521	14944
861.653	14134
861.786	14012
861.918	14088
862.05	14111
862.183	14065
862.315	14107
862.447	14252
862.58	14081
862.712	13780
862.844	13921
862.976	14039
863.108	14008
863.24	14415
863.372	13955
863.504	13967
863.636	13864
863.768	14001
863.9	14001
864.032	13803
864.164	14016
864.296	13944
864.428	14035
864.559	14039
864.691	13989
864.823	14062
864.954	13967
865.086	14027
865.217	14016
865.349	13833
865.48	14050
865.612	13944
865.743	14001
865.875	14001
866.006	13913
866.137	14005
866.269	13898
866.4	13982
866.531	13871
866.662	13902
866.793	13944
866.924	13883
867.055	13978
867.186	14008
867.317	13852
867.448	13860
867.579	13928
867.71	13852
867.841	13887
867.972	13887
868.103	13864
868.233	13890
868.364	14046
868.495	13944
868.625	14145
868.756	14347
868.886	14050
869.017	14084
869.147	14313
869.278	14301
869.408	14248
869.539	14164
869.669	14267
869.799	14180
869.929	14313
870.06	14400
870.19	14545
870.32	14571
870.45	14530
870.58	14632
870.71	14739
870.84	14701
870.97	14644
871.1	14610
871.23	14838
871.36	14826
871.489	14686
871.619	14693
871.749	14823
871.879	14838
872.008	14883
872.138	14804
872.267	14785
872.397	14613
872.526	14625
872.656	14625
872.785	14621
872.915	14785
873.044	14921
873.173	14792
873.303	14883
873.432	14826
873.561	14914
873.69	14883
873.819	14800
873.948	14914
874.077	14834
874.206	14804
874.335	14796
874.464	15036
874.593	15028
874.722	15062
874.851	15180
874.979	15154
875.108	15275
875.237	15119
875.365	15047
875.494	15116
875.623	15233
875.751	15142
875.88	15180
876.008	15306
876.136	15294
876.265	15591
876.393	15701
876.521	15675
876.65	15698
876.778	15618
876.906	15599
877.034	15519
877.162	15576
877.29	15614
877.418	15584
877.546	15614
877.674	15545
877.802	15591
877.93	15587
878.058	15504
878.185	15389
878.313	15469
878.441	15553
878.568	15389
878.696	15492
878.824	15595
878.951	15698
879.079	15766
879.206	15968
879.333	15736
879.461	15637
879.588	15618
879.715	15671
879.842	15869
879.97	15625
880.097	15351
880.224	15572
880.351	15450
880.478	15485
880.605	15420
880.732	15370
880.859	15713
880.986	15534
881.112	15351
881.239	15393
881.366	15260
881.493	15230
881.619	15036
881.746	15135
881.872	15097
881.999	15013
882.125	15081
882.252	15135
882.378	15055
882.505	15317
882.631	14979
882.757	14902
882.883	14990
883.01	14880
883.136	14864
883.262	14724
883.388	14716
883.514	15036
883.64	14876
883.766	14765
883.892	14785
884.018	14792
884.143	14826
884.269	14963
884.395	14667
884.52	14583
884.646	14541
884.772	14518
884.897	14549
885.023	14629
885.148	14682
885.274	14655
885.399	14655
885.524	14613
885.65	14632
885.775	14651
885.9	14590
886.025	14705
886.15	14727
886.275	14571
886.4	14431
886.525	14640
886.65	14480
886.775	14610
886.9	14739
887.025	14899
887.149	14617
887.274	14469
887.399	14473
887.523	14431
887.648	14313
887.773	14252
887.897	14541
888.021	14549
888.146	14362
888.27	14621
888.395	14621
888.519	14499
888.643	14499
888.767	14602
888.891	14393
889.015	14282
889.139	14275
889.263	14263
889.387	14484
889.511	14541
889.635	14374
889.759	14221
889.883	14305
890.006	14377
890.13	14396
890.254	14313
890.377	14199
890.501	14115
890.624	13989
890.748	14195
890.871	14035
890.995	14008
891.118	13894
891.241	14024
891.364	14001
891.488	14092
891.611	14016
891.734	14005
891.857	13955
891.98	13989
892.103	14096
892.226	14031
892.349	13890
892.471	13890
892.594	13974
892.717	14115
892.839	14035
892.962	13967
893.085	14115
893.207	14039
893.33	13936
893.452	13913
893.575	13978
893.697	14035
893.819	14202
893.941	14111
894.064	14149
894.186	13951
894.308	13967
894.43	14142
894.552	14206
894.674	14092
894.796	13986
894.918	14043
895.04	14058
895.161	14153
895.283	14100
895.405	13974
895.526	14005
895.648	14145
895.769	14153
895.891	14134
896.012	14252
896.134	14161
896.255	14123
896.376	14221
896.498	14252
896.619	14275
896.74	14202
896.861	14248
896.982	14537
897.103	14617
897.224	14442
897.345	14476
897.466	14355
897.587	14404
897.708	14549
897.828	14427
897.949	14377
898.07	14301
898.19	14465
898.311	14560
898.431	14480
898.552	14590
898.672	14598
898.792	14629
898.913	14648
899.033	14492
899.153	14339
899.273	14229
899.393	14385
899.513	14396
899.633	14404
899.753	14442
899.873	14317
899.993	14347
900.113	14374
900.232	14343
900.352	14377
900.472	14267
900.591	14187
900.711	14191
900.83	14176
900.95	14263
901.069	14305
901.189	14172
901.308	13974
901.427	13807
901.546	13951
901.665	14001
901.784	13986
901.904	13837
902.023	13696
902.141	13529
902.26	13457
902.379	13514
902.498	13441
902.617	13449
902.735	13556
902.854	13521
902.973	13411
903.091	13251
903.21	13133
903.328	13198
903.446	13152
903.565	13114
903.683	13114
903.801	12901
903.919	13080
904.038	12996
904.156	12928
904.274	12951
904.392	12901
904.51	12859
904.627	12859
904.745	12920
904.863	12867
904.981	12719
905.098	12521
905.216	12589
905.334	12563
905.451	12547
905.569	12555
905.686	12597
905.803	12601
905.921	12437
906.038	12452
906.155	12441
906.272	12327
906.389	12258
906.506	12178
906.623	12079
906.74	12098
906.857	12026
906.974	12106
907.091	12167
907.208	12414
907.324	12220
907.441	12163
907.557	11901
907.674	11882
907.79	11878
907.907	11870
908.023	11984
908.139	11889
908.256	11843
908.372	11786
908.488	11794
908.604	11699
908.72	11649
908.836	11710
908.952	11684
909.068	11665
909.184	11718
909.3	11623
909.415	11745
909.531	11718
909.647	11566
909.762	11452
909.878	11364
909.993	11471
910.108	11482
910.224	11322
910.339	11387
910.454	11360
910.57	11303
910.685	11265
910.8	11532
910.915	11406
911.03	11311
911.145	11185
911.259	11121
911.374	11105
911.489	11052
911.604	11086
911.718	10839
911.833	10976
911.947	10812
912.062	10733
912.176	10881
912.291	10862
912.405	10858
912.519	11132
912.633	11189
912.748	10968
912.862	10885
912.976	10714
913.09	10675
913.204	10710
913.318	10786
913.431	10847
913.545	10927
913.659	10866
913.772	10854
913.886	10725
914	10573
914.113	10782
914.226	10752
914.34	10748
914.453	10588
914.566	10790
914.68	10527
914.793	10561
914.906	10447
915.019	10394
915.132	10329
915.245	10417
915.358	10417
915.47	10402
915.583	10424
915.696	10462
915.809	10550
915.921	10535
916.034	10394
916.146	10360
916.259	10306
916.371	10432
916.483	10481
916.595	10325
916.708	10421
916.82	10352
916.932	10211
917.044	10394
917.156	10341
917.268	10253
917.38	10314
917.491	10287
917.603	10219
917.715	10295
917.826	10287
917.938	10143
918.049	10181
918.161	10192
918.272	10318
918.384	10459
918.495	10268
918.606	10063
918.717	10120
918.828	10162
918.939	10169
919.05	10040
919.161	10124
919.272	9930
919.383	10036
919.494	10112
919.604	10329
919.715	10078
919.826	10029
919.936	10139
920.047	10219
920.157	10166
920.267	10337
920.378	10272
920.488	10097
920.598	10402
920.708	10535
920.818	10314
920.928	10337
921.038	10474
921.148	10493
921.258	10150
921.368	10074
921.477	10055
921.587	10017
921.697	9865
921.806	10048
921.916	9918
922.025	9762
922.134	9663
922.244	9637
922.353	9705
922.462	9591
922.571	9492
922.68	9332
922.789	9370
922.898	9450
923.007	9355
923.116	9469
923.224	9405
923.333	9389
923.442	9256
923.55	9253
923.659	9329
923.767	9329
923.876	9176
923.984	9363
924.092	9188
924.201	9268
924.309	9249
924.417	9340
924.525	9188
924.633	9188
924.741	10101
924.849	9005
924.956	9241
925.064	9077
925.172	8952
925.279	8986
925.387	9058
925.494	9055
925.602	9192
925.709	9161
925.816	9036
925.924	9047
926.031	9138
926.138	9005
926.245	9001
926.352	8929
926.459	9142
926.566	9127
926.673	9093
926.779	8956
926.886	8864
926.993	8796
927.099	8743
927.206	8720
927.312	8670
927.419	8872
927.525	8819
927.631	8796
927.737	8659
927.843	8659
927.95	8590
928.056	8648
928.162	8659
928.267	8708
928.373	9283
928.479	8792
928.585	8438
928.69	8667
928.796	8602
928.901	8613
929.007	8461
929.112	8598
929.218	8564
929.323	8568
929.428	8473
929.533	8594
929.638	8514
929.743	8492
929.848	8541
929.953	8511
930.058	8412
930.163	8199
930.267	8225
930.372	8355
930.477	8263
930.581	8476
930.685	8279
930.79	8244
930.894	8290
930.998	8313
931.103	8347
931.207	7955
931.311	7921
931.415	7898
931.519	7715
931.623	7715
