Data from test_V78500241_1383.txt Node
Date: Fri Mar 25 14:43:20 CST 2022
User: usil
Spectrometer: V785-0024
Trigger mode: 0
Integration Time (sec): 4.000000E-1
Scans to average: 1
Nonlinearity correction enabled: false
Boxcar width: 0
Storing dark spectrum: false
XAxis mode: Wavelengths
Number of Pixels in Spectrum: 1024
>>>>>Begin Spectral Data<<<<<
801.071	22436
801.214	22363
801.356	22147
801.499	21987
801.641	21835
801.783	21842
801.926	21751
802.068	21682
802.211	21652
802.353	21519
802.496	21332
802.638	21378
802.78	21157
802.923	21222
803.065	21176
803.208	21036
803.35	21093
803.492	21135
803.635	21195
803.777	21173
803.919	21214
804.061	21515
804.204	21207
804.346	21062
804.488	20929
804.63	21043
804.773	20929
804.915	21024
805.057	21169
805.199	21112
805.341	21131
805.483	21199
805.626	21096
805.768	21077
805.91	21104
806.052	21119
806.194	20899
806.336	21161
806.478	21028
806.62	21058
806.762	21150
806.904	21275
807.046	21488
807.188	21492
807.33	21370
807.472	21332
807.614	21389
807.756	21450
807.898	21192
808.04	21116
808.182	21241
808.324	21310
808.465	21317
808.607	21553
808.749	21663
808.891	21865
809.033	21819
809.174	21663
809.316	21538
809.458	21652
809.6	21507
809.741	21641
809.883	21572
810.025	21671
810.166	21816
810.308	21732
810.45	21591
810.591	21492
810.733	21351
810.875	21211
811.016	21150
811.158	21256
811.299	21275
811.441	21287
811.582	21294
811.724	21218
811.865	21127
812.007	21169
812.148	21146
812.29	21245
812.431	21439
812.573	21511
812.714	21576
812.855	21808
812.997	21800
813.138	21903
813.279	21835
813.421	21736
813.562	21755
813.703	21466
813.845	21473
813.986	21017
814.127	20994
814.268	20792
814.41	20956
814.551	20743
814.692	20845
814.833	20826
814.974	20598
815.115	20746
815.256	20659
815.397	20693
815.539	20617
815.68	20461
815.821	20389
815.962	20571
816.103	20393
816.244	20309
816.385	20301
816.526	20282
816.666	20077
816.807	19887
816.948	19849
817.089	19967
817.23	19993
817.371	19795
817.512	19883
817.653	19875
817.793	19906
817.934	19845
818.075	19951
818.216	19795
818.356	19845
818.497	19746
818.638	19605
818.778	19544
818.919	19582
819.06	19647
819.2	19715
819.341	19837
819.481	19712
819.622	19921
819.762	20062
819.903	20062
820.043	20016
820.184	19970
820.324	19875
820.465	19883
820.605	19944
820.746	19765
820.886	19799
821.026	19852
821.167	19875
821.307	19967
821.447	19868
821.588	19704
821.728	19582
821.868	19464
822.008	19270
822.149	19327
822.289	19247
822.429	19129
822.569	18993
822.709	18989
822.849	18745
822.99	18821
823.13	18829
823.27	18722
823.41	18604
823.55	18555
823.69	18601
823.83	18566
823.97	18532
824.11	18285
824.25	18342
824.389	18456
824.529	18422
824.669	18426
824.809	18433
824.949	18509
825.089	18464
825.228	18391
825.368	18235
825.508	18197
825.648	18186
825.787	18197
825.927	18220
826.067	18133
826.206	18140
826.346	18292
826.485	18182
826.625	18163
826.765	18232
826.904	18174
827.044	17893
827.183	17927
827.323	17748
827.462	17859
827.601	17878
827.741	17882
827.88	17866
828.02	17779
828.159	17786
828.298	17802
828.437	17874
828.577	17779
828.716	17969
828.855	17783
828.994	17615
829.134	17665
829.273	17615
829.412	17562
829.551	17482
829.69	17501
829.829	17646
829.968	17745
830.107	17684
830.246	17710
830.385	17410
830.524	17482
830.663	17436
830.802	17379
830.941	17174
831.08	17204
831.219	17315
831.357	17258
831.496	17372
831.635	17178
831.774	17147
831.913	17090
832.051	17052
832.19	17018
832.329	17105
832.467	16866
832.606	16824
832.744	16946
832.883	16949
833.022	16828
833.16	16900
833.299	16889
833.437	16965
833.576	16976
833.714	16957
833.852	17022
833.991	16957
834.129	17071
834.267	16957
834.406	17136
834.544	17022
834.682	16885
834.821	16961
834.959	17143
835.097	16904
835.235	17010
835.373	17094
835.511	16946
835.65	16892
835.788	16805
835.926	16645
836.064	16706
836.202	16675
836.34	16889
836.478	16965
836.615	16850
836.753	16873
836.891	16778
837.029	16953
837.167	16797
837.305	16786
837.443	16736
837.58	16649
837.718	16835
837.856	16660
837.993	16713
838.131	16645
838.269	16656
838.406	16653
838.544	16607
838.681	16497
838.819	16386
838.956	16402
839.094	16299
839.231	16318
839.369	16527
839.506	16558
839.643	16508
839.781	16295
839.918	16226
840.055	16280
840.193	16265
840.33	16177
840.467	16226
840.604	16284
840.742	16436
840.879	16234
841.016	16124
841.153	16131
841.29	16375
841.427	16303
841.564	16318
841.701	16310
841.838	16238
841.975	16128
842.112	16226
842.249	16124
842.385	16067
842.522	16238
842.659	16032
842.796	16055
842.933	16105
843.069	15983
843.206	16044
843.343	16139
843.479	16147
843.616	16097
843.752	15846
843.889	15884
844.025	15964
844.162	15785
844.298	15968
844.435	15838
844.571	15743
844.708	15880
844.844	16032
844.98	16029
845.117	15930
845.253	15884
845.389	15804
845.525	15857
845.661	15903
845.798	15793
845.934	16044
846.07	15968
846.206	15994
846.342	16029
846.478	15857
846.614	15625
846.75	15511
846.886	15359
847.022	15572
847.158	15412
847.294	15393
847.429	15412
847.565	15374
847.701	15584
847.837	15131
847.972	15154
848.108	15176
848.244	15154
848.379	15020
848.515	14914
848.65	14986
848.786	15032
848.921	15009
849.057	15097
849.192	15097
849.328	15066
849.463	15066
849.598	14979
849.734	14842
849.869	14902
850.004	14830
850.14	14819
850.275	14720
850.41	14769
850.545	14716
850.68	14830
850.815	14754
850.95	14834
851.085	14895
851.22	14929
851.355	14796
851.49	14705
851.625	14689
851.76	14758
851.895	14606
852.03	14682
852.165	14678
852.299	14826
852.434	14842
852.569	14861
852.703	14773
852.838	14864
852.973	14883
853.107	14876
853.242	14689
853.376	14655
853.511	14446
853.645	14659
853.78	14743
853.914	14693
854.048	14568
854.183	14598
854.317	14663
854.451	14849
854.585	14663
854.72	14602
854.854	14750
854.988	14659
855.122	14590
855.256	14473
855.39	14583
855.524	14815
855.658	14583
855.792	14686
855.926	14693
856.06	14655
856.194	14686
856.327	14594
856.461	14594
856.595	14606
856.729	14636
856.862	14754
856.996	14598
857.13	14693
857.263	14777
857.397	14731
857.53	14674
857.664	14777
857.797	14724
857.931	14773
858.064	14689
858.197	14697
858.331	14648
858.464	14617
858.597	14511
858.731	14610
858.864	14678
858.997	14750
859.13	14644
859.263	14648
859.396	14720
859.529	14655
859.662	14583
859.795	14602
859.928	14655
860.061	14720
860.194	14830
860.327	14636
860.46	14686
860.592	14724
860.725	14758
860.858	14693
860.99	14678
861.123	14499
861.256	14533
861.388	14587
861.521	15382
861.653	14461
861.786	14427
861.918	14454
862.05	14488
862.183	14590
862.315	14689
862.447	14712
862.58	14606
862.712	14473
862.844	14381
862.976	14457
863.108	14412
863.24	14781
863.372	14355
863.504	14355
863.636	14385
863.768	14473
863.9	14393
864.032	14313
864.164	14446
864.296	14385
864.428	14541
864.559	14499
864.691	14465
864.823	14503
864.954	14511
865.086	14461
865.217	14377
865.349	14320
865.48	14469
865.612	14309
865.743	14530
865.875	14313
866.006	14320
866.137	14366
866.269	14404
866.4	14336
866.531	14275
866.662	14328
866.793	14370
866.924	14320
867.055	14389
867.186	14347
867.317	14313
867.448	14313
867.579	14336
867.71	14305
867.841	14263
867.972	14370
868.103	14480
868.233	14393
868.364	14434
868.495	14454
868.625	14564
868.756	14686
868.886	14514
869.017	14568
869.147	14731
869.278	14743
869.408	14640
869.539	14663
869.669	14667
869.799	14682
869.929	14781
870.06	14739
870.19	15001
870.32	14861
870.45	14868
870.58	14963
870.71	15169
870.84	15093
870.97	15013
871.1	14960
871.23	15275
871.36	15249
871.489	15150
871.619	15169
871.749	15203
871.879	15317
872.008	15256
872.138	15203
872.267	15154
872.397	15085
872.526	15070
872.656	15036
872.785	15093
872.915	15287
873.044	15363
873.173	15252
873.303	15287
873.432	15367
873.561	15291
873.69	15310
873.819	15245
873.948	15485
874.077	15348
874.206	15279
874.335	15264
874.464	15439
874.593	15454
874.722	15504
874.851	15610
874.979	15576
875.108	15660
875.237	15545
875.365	15477
875.494	15584
875.623	15694
875.751	15515
875.88	15557
876.008	15682
876.136	15766
876.265	15926
876.393	16150
876.521	16112
876.65	16078
876.778	16025
876.906	15964
877.034	15968
877.162	16029
877.29	15975
877.418	16044
877.546	16078
877.674	15991
877.802	15880
877.93	15994
878.058	15979
878.185	15895
878.313	15972
878.441	16090
878.568	15964
878.696	15979
878.824	16025
878.951	16093
879.079	16188
879.206	16337
879.333	16303
879.461	16200
879.588	16272
879.715	16314
879.842	16390
879.97	16257
880.097	15899
880.224	15846
880.351	15934
880.478	15895
880.605	15941
880.732	15941
880.859	16150
880.986	15861
881.112	15949
881.239	15884
881.366	15686
881.493	15656
881.619	15603
881.746	15648
881.872	15500
881.999	15477
882.125	15462
882.252	15599
882.378	15561
882.505	15679
882.631	15561
882.757	15363
882.883	15431
883.01	15218
883.136	15363
883.262	15192
883.388	15237
883.514	15382
883.64	15447
883.766	15363
883.892	15203
884.018	15142
884.143	15351
884.269	15329
884.395	15123
884.52	15028
884.646	14998
884.772	14967
884.897	14910
885.023	15024
885.148	15169
885.274	15211
885.399	15154
885.524	14910
885.65	14986
885.775	15138
885.9	15009
886.025	15131
886.15	15241
886.275	15036
886.4	14872
886.525	15009
886.65	14929
886.775	14929
886.9	15214
887.025	15245
887.149	15097
887.274	14792
887.399	14838
887.523	14804
887.648	14769
887.773	14788
887.897	14895
888.021	14887
888.146	14792
888.27	14960
888.395	15055
888.519	14986
888.643	14853
888.767	14925
888.891	14651
889.015	14701
889.139	14762
889.263	14617
889.387	14781
889.511	14918
889.635	14872
889.759	14727
889.883	14651
890.006	14777
890.13	14887
890.254	14610
890.377	14674
890.501	14556
890.624	14530
890.748	14552
890.871	14469
890.995	14385
891.118	14396
891.241	14457
891.364	14396
891.488	14492
891.611	14400
891.734	14362
891.857	14465
891.98	14457
892.103	14457
892.226	14461
892.349	14434
892.471	14309
892.594	14396
892.717	14473
892.839	14423
892.962	14476
893.085	14514
893.207	14339
893.33	14282
893.452	14290
893.575	14480
893.697	14385
893.819	14541
893.941	14511
894.064	14461
894.186	14309
894.308	14271
894.43	14492
894.552	14587
894.674	14693
894.796	14415
894.918	14450
895.04	14438
895.161	14514
895.283	14450
895.405	14415
895.526	14533
895.648	14469
895.769	14488
895.891	14621
896.012	14587
896.134	14587
896.255	14564
896.376	14514
896.498	14473
896.619	14651
896.74	14590
896.861	14499
896.982	14899
897.103	15001
897.224	14853
897.345	14864
897.466	14762
897.587	14807
897.708	15013
897.828	14845
897.949	14762
898.07	14651
898.19	14682
898.311	14944
898.431	14868
898.552	14910
898.672	15001
898.792	14998
898.913	14956
899.033	14788
899.153	14754
899.273	14701
899.393	14754
899.513	14758
899.633	14720
899.753	14788
899.873	14708
899.993	14819
900.113	14781
900.232	14872
900.352	14682
900.472	14655
900.591	14461
900.711	14617
900.83	14583
900.95	14682
901.069	14785
901.189	14560
901.308	14366
901.427	14282
901.546	14248
901.665	14267
901.784	14256
901.904	14195
902.023	14107
902.141	13898
902.26	13750
902.379	13894
902.498	13788
902.617	13814
902.735	13860
902.854	13734
902.973	13833
903.091	13567
903.21	13567
903.328	13597
903.446	13529
903.565	13434
903.683	13354
903.801	13327
903.919	13339
904.038	13282
904.156	13209
904.274	13209
904.392	13221
904.51	13202
904.627	13187
904.745	13285
904.863	13282
904.981	12958
905.098	12894
905.216	12909
905.334	13034
905.451	12863
905.569	12852
905.686	12844
905.803	12882
905.921	12791
906.038	12852
906.155	12654
906.272	12662
906.389	12570
906.506	12532
906.623	12502
906.74	12517
906.857	12357
906.974	12452
907.091	12521
907.208	12589
907.324	12536
907.441	12410
907.557	12311
907.674	12129
907.79	12178
907.907	12270
908.023	12315
908.139	12285
908.256	12136
908.372	12152
908.488	12129
908.604	11996
908.72	11965
908.836	11965
908.952	12011
909.068	11988
909.184	12144
909.3	11988
909.415	11999
909.531	11954
909.647	11760
909.762	11767
909.878	11703
909.993	11809
910.108	11756
910.224	11733
910.339	11786
910.454	11699
910.57	11623
910.685	11554
910.8	11901
910.915	11741
911.03	11657
911.145	11528
911.259	11467
911.374	11471
911.489	11379
911.604	11349
911.718	11311
911.833	11189
911.947	11113
912.062	11067
912.176	11159
912.291	11178
912.405	11121
912.519	11425
912.633	11406
912.748	11341
912.862	11197
912.976	11025
913.09	11014
913.204	11071
913.318	11098
913.431	11181
913.545	11128
913.659	11223
913.772	11113
913.886	10965
914	10953
914.113	11094
914.226	11155
914.34	11090
914.453	10889
914.566	11003
914.68	10957
914.793	10892
914.906	10725
915.019	10687
915.132	10607
915.245	10736
915.358	10752
915.47	10729
915.583	10771
915.696	10778
915.809	10889
915.921	10866
916.034	10706
916.146	10679
916.259	10611
916.371	10694
916.483	10740
916.595	10618
916.708	10588
916.82	10626
916.932	10702
917.044	10687
917.156	10588
917.268	10466
917.38	10489
917.491	10565
917.603	10493
917.715	10622
917.826	10615
917.938	10508
918.049	10371
918.161	10512
918.272	10668
918.384	10672
918.495	10561
918.606	10428
918.717	10371
918.828	10443
918.939	10485
919.05	10306
919.161	10405
919.272	10196
919.383	10246
919.494	10390
919.604	10637
919.715	10481
919.826	10348
919.936	10333
920.047	10466
920.157	10470
920.267	10630
920.378	10497
920.488	10417
920.598	10596
920.708	10778
920.818	10580
920.928	10592
921.038	10824
921.148	10752
921.258	10497
921.368	10428
921.477	10268
921.587	10265
921.697	10192
921.806	10287
921.916	10166
922.025	9983
922.134	10029
922.244	9918
922.353	10040
922.462	9899
922.571	9861
922.68	9667
922.789	9656
922.898	9701
923.007	9629
923.116	9705
923.224	9682
923.333	9648
923.442	9614
923.55	9557
923.659	9576
923.767	9587
923.876	9523
923.984	9625
924.092	9420
924.201	9496
924.309	9488
924.417	9469
924.525	9462
924.633	9473
924.741	10382
924.849	9325
924.956	9439
925.064	9340
925.172	9230
925.279	9329
925.387	9367
925.494	9233
925.602	9374
925.709	9374
925.816	9230
925.924	9325
926.031	9408
926.138	9329
926.245	9351
926.352	9287
926.459	9348
926.566	9370
926.673	9279
926.779	9165
926.886	9222
926.993	8982
927.099	9017
927.206	8998
927.312	8902
927.419	9028
927.525	8929
927.631	9039
927.737	8883
927.843	8944
927.95	8800
928.056	8895
928.162	8937
928.267	8868
928.373	9511
928.479	8994
928.585	8766
928.69	8906
928.796	8937
928.901	8857
929.007	8712
929.112	8883
929.218	8731
929.323	8746
929.428	8716
929.533	8857
929.638	8682
929.743	8686
929.848	8788
929.953	8746
930.058	8564
930.163	8450
930.267	8530
930.372	8568
930.477	8438
930.581	8758
930.685	8602
930.79	8450
930.894	8507
930.998	8423
931.103	8625
931.207	8294
931.311	8199
931.415	8100
931.519	7932
931.623	7890
