Data from test_V78500241_3669.txt Node
Date: Fri Mar 25 14:59:15 CST 2022
User: usil
Spectrometer: V785-0024
Trigger mode: 0
Integration Time (sec): 4.000000E-1
Scans to average: 1
Nonlinearity correction enabled: false
Boxcar width: 0
Storing dark spectrum: false
XAxis mode: Wavelengths
Number of Pixels in Spectrum: 1024
>>>>>Begin Spectral Data<<<<<
801.071	21945
801.214	21732
801.356	21663
801.499	21538
801.641	21291
801.783	21298
801.926	21351
802.068	21272
802.211	21127
802.353	20971
802.496	20861
802.638	20807
802.78	20785
802.923	20689
803.065	20556
803.208	20484
803.35	20609
803.492	20743
803.635	20629
803.777	20575
803.919	20602
804.061	20948
804.204	20625
804.346	20488
804.488	20514
804.63	20579
804.773	20423
804.915	20625
805.057	20594
805.199	20324
805.341	20556
805.483	20674
805.626	20511
805.768	20358
805.91	20564
806.052	20499
806.194	20324
806.336	20571
806.478	20530
806.62	20499
806.762	20541
806.904	20655
807.046	20944
807.188	20765
807.33	20826
807.472	20876
807.614	20693
807.756	20731
807.898	20571
808.04	20533
808.182	20613
808.324	20552
808.465	20499
808.607	20712
808.749	20792
808.891	20941
809.033	20956
809.174	20864
809.316	20842
809.458	20792
809.6	20849
809.741	20982
809.883	20933
810.025	20982
810.166	21051
810.308	21051
810.45	20990
810.591	20880
810.733	20686
810.875	20606
811.016	20431
811.158	20530
811.299	20682
811.441	20804
811.582	20815
811.724	20674
811.865	20636
812.007	20514
812.148	20648
812.29	20686
812.431	20648
812.573	20929
812.714	20918
812.855	21169
812.997	21260
813.138	21363
813.279	21302
813.421	21138
813.562	20990
813.703	20857
813.845	20663
813.986	20488
814.127	20282
814.268	20385
814.41	20206
814.551	20229
814.692	20248
814.833	20130
814.974	20180
815.115	20210
815.256	20039
815.397	19974
815.539	20012
815.68	19913
815.821	19883
815.962	19902
816.103	19894
816.244	19647
816.385	19594
816.526	19613
816.666	19491
816.807	19320
816.948	19346
817.089	19521
817.23	19396
817.371	19213
817.512	19232
817.653	19320
817.793	19274
817.934	19297
818.075	19297
818.216	19255
818.356	19263
818.497	19050
818.638	18844
818.778	18989
818.919	18897
819.06	18897
819.2	19118
819.341	19175
819.481	19183
819.622	19358
819.762	19510
819.903	19487
820.043	19327
820.184	19175
820.324	19209
820.465	19308
820.605	19228
820.746	19339
820.886	19069
821.026	19221
821.167	19274
821.307	19365
821.447	19301
821.588	18996
821.728	19050
821.868	18829
822.008	18783
822.149	18703
822.289	18654
822.429	18479
822.569	18323
822.709	18380
822.849	18216
822.99	18114
823.13	18232
823.27	18148
823.41	18038
823.55	17973
823.69	18068
823.83	17969
823.97	17973
824.11	17695
824.25	17790
824.389	17821
824.529	17843
824.669	17775
824.809	17859
824.949	17908
825.089	17980
825.228	17813
825.368	17646
825.508	17562
825.648	17558
825.787	17585
825.927	17672
826.067	17474
826.206	17627
826.346	17501
826.485	17611
826.625	17570
826.765	17687
826.904	17653
827.044	17417
827.183	17345
827.323	17235
827.462	17288
827.601	17296
827.741	17258
827.88	17326
828.02	17197
828.159	17254
828.298	17299
828.437	17353
828.577	17212
828.716	17471
828.855	17174
828.994	16987
829.134	17083
829.273	17067
829.412	16972
829.551	16927
829.69	17064
829.829	17121
829.968	17193
830.107	17083
830.246	17067
830.385	17029
830.524	16805
830.663	16847
830.802	16622
830.941	16717
831.08	16664
831.219	16824
831.357	16691
831.496	16812
831.635	16675
831.774	16561
831.913	16485
832.051	16367
832.19	16489
832.329	16344
832.467	16386
832.606	16333
832.744	16310
832.883	16314
833.022	16314
833.16	16261
833.299	16363
833.437	16367
833.576	16337
833.714	16398
833.852	16402
833.991	16375
834.129	16436
834.267	16512
834.406	16428
834.544	16398
834.682	16489
834.821	16371
834.959	16516
835.097	16394
835.235	16561
835.373	16402
835.511	16485
835.65	16322
835.788	16246
835.926	16211
836.064	16169
836.202	16109
836.34	16322
836.478	16421
836.615	16382
836.753	16344
836.891	16402
837.029	16367
837.167	16230
837.305	16265
837.443	16238
837.58	16124
837.718	16287
837.856	16192
837.993	16162
838.131	16162
838.269	16082
838.406	16162
838.544	15987
838.681	15975
838.819	15789
838.956	15835
839.094	15785
839.231	15827
839.369	15911
839.506	16154
839.643	16154
839.781	15686
839.918	15747
840.055	15720
840.193	15724
840.33	15686
840.467	15728
840.604	15781
840.742	15975
840.879	15519
841.016	15606
841.153	15557
841.29	15911
841.427	15759
841.564	15857
841.701	15728
841.838	15732
841.975	15682
842.112	15679
842.249	15599
842.385	15492
842.522	15804
842.659	15507
842.796	15656
842.933	15545
843.069	15564
843.206	15504
843.343	15682
843.479	15534
843.616	15545
843.752	15336
843.889	15386
844.025	15462
844.162	15302
844.298	15359
844.435	15450
844.571	15351
844.708	15408
844.844	15462
844.98	15500
845.117	15386
845.253	15237
845.389	15294
845.525	15321
845.661	15294
845.798	15085
845.934	15249
846.07	15146
846.206	15199
846.342	15173
846.478	15142
846.614	14914
846.75	14975
846.886	14853
847.022	14937
847.158	14944
847.294	14872
847.429	14918
847.565	14819
847.701	15043
847.837	14682
847.972	14594
848.108	14727
848.244	14689
848.379	14598
848.515	14526
848.65	14537
848.786	14339
848.921	14454
849.057	14587
849.192	14511
849.328	14530
849.463	14461
849.598	14526
849.734	14396
849.869	14404
850.004	14259
850.14	14366
850.275	14324
850.41	14244
850.545	14320
850.68	14248
850.815	14225
850.95	14218
851.085	14374
851.22	14393
851.355	14252
851.49	14225
851.625	14237
851.76	14237
851.895	14161
852.03	14206
852.165	14229
852.299	14195
852.434	14347
852.569	14317
852.703	14225
852.838	14324
852.973	14370
853.107	14377
853.242	14237
853.376	14107
853.511	14024
853.645	14172
853.78	14210
853.914	14168
854.048	14123
854.183	14145
854.317	14088
854.451	14256
854.585	14130
854.72	14081
854.854	14225
854.988	14069
855.122	14157
855.256	13963
855.39	14142
855.524	14233
855.658	14240
855.792	14180
855.926	14229
856.06	14172
856.194	14221
856.327	14103
856.461	14092
856.595	14065
856.729	14069
856.862	14275
856.996	14149
857.13	14176
857.263	14225
857.397	14164
857.53	14016
857.664	14172
857.797	14180
857.931	14263
858.064	14119
858.197	14218
858.331	14100
858.464	14107
858.597	14027
858.731	14145
858.864	14149
858.997	14172
859.13	14115
859.263	14210
859.396	14214
859.529	14107
859.662	14168
859.795	14153
859.928	14134
860.061	14294
860.194	14355
860.327	14244
860.46	14172
860.592	14259
860.725	14336
860.858	14221
860.99	14134
861.123	14046
861.256	14001
861.388	14123
861.521	14815
861.653	14058
861.786	13974
861.918	14100
862.05	14107
862.183	14111
862.315	14092
862.447	14244
862.58	14012
862.712	13890
862.844	13868
862.976	14001
863.108	13940
863.24	14286
863.372	13849
863.504	13883
863.636	13890
863.768	13951
863.9	13909
864.032	13845
864.164	13879
864.296	13967
864.428	14065
864.559	14027
864.691	14077
864.823	13928
864.954	13898
865.086	13951
865.217	13940
865.349	13856
865.48	13955
865.612	13989
865.743	14020
865.875	13909
866.006	13932
866.137	13944
866.269	13932
866.4	13898
866.531	13883
866.662	13750
866.793	13826
866.924	13909
867.055	13883
867.186	13909
867.317	13788
867.448	13750
867.579	13921
867.71	13849
867.841	13803
867.972	13947
868.103	13925
868.233	13944
868.364	13944
868.495	13955
868.625	14172
868.756	14336
868.886	14058
869.017	14164
869.147	14263
869.278	14256
869.408	14187
869.539	14081
869.669	14248
869.799	14187
869.929	14267
870.06	14240
870.19	14404
870.32	14457
870.45	14442
870.58	14636
870.71	14659
870.84	14659
870.97	14522
871.1	14606
871.23	14712
871.36	14648
871.489	14651
871.619	14739
871.749	14731
871.879	14769
872.008	14804
872.138	14788
872.267	14804
872.397	14602
872.526	14571
872.656	14541
872.785	14568
872.915	14876
873.044	14918
873.173	14826
873.303	14773
873.432	14861
873.561	14838
873.69	14826
873.819	14785
873.948	14849
874.077	14834
874.206	14644
874.335	14845
874.464	15013
874.593	15093
874.722	14960
874.851	15062
874.979	15180
875.108	15184
875.237	15123
875.365	15077
875.494	15028
875.623	15222
875.751	15055
875.88	15138
876.008	15275
876.136	15367
876.265	15671
876.393	15682
876.521	15557
876.65	15572
876.778	15530
876.906	15572
877.034	15450
877.162	15500
877.29	15492
877.418	15496
877.546	15580
877.674	15663
877.802	15564
877.93	15580
878.058	15454
878.185	15424
878.313	15488
878.441	15496
878.568	15355
878.696	15504
878.824	15488
878.951	15587
879.079	15766
879.206	15789
879.333	15686
879.461	15584
879.588	15629
879.715	15778
879.842	15880
879.97	15614
880.097	15321
880.224	15230
880.351	15416
880.478	15386
880.605	15332
880.732	15420
880.859	15568
880.986	15462
881.112	15412
881.239	15329
881.366	15176
881.493	15100
881.619	15047
881.746	14994
881.872	15097
881.999	14994
882.125	14990
882.252	15108
882.378	15058
882.505	15188
882.631	15047
882.757	14891
882.883	14887
883.01	14872
883.136	14815
883.262	14682
883.388	14773
883.514	14876
883.64	14906
883.766	14842
883.892	14773
884.018	14689
884.143	14853
884.269	14952
884.395	14739
884.52	14537
884.646	14594
884.772	14541
884.897	14499
885.023	14503
885.148	14617
885.274	14712
885.399	14693
885.524	14606
885.65	14522
885.775	14606
885.9	14579
886.025	14750
886.15	14651
886.275	14476
886.4	14423
886.525	14545
886.65	14545
886.775	14545
886.9	14663
887.025	14739
887.149	14655
887.274	14461
887.399	14408
887.523	14370
887.648	14294
887.773	14355
887.897	14488
888.021	14537
888.146	14294
888.27	14571
888.395	14522
888.519	14480
888.643	14450
888.767	14457
888.891	14320
889.015	14282
889.139	14324
889.263	14301
889.387	14320
889.511	14431
889.635	14434
889.759	14176
889.883	14221
890.006	14355
890.13	14351
890.254	14237
890.377	14248
890.501	14149
890.624	14130
890.748	14191
890.871	14008
890.995	13906
891.118	13883
891.241	13955
891.364	13986
891.488	14187
891.611	13925
891.734	14035
891.857	14012
891.98	14016
892.103	14134
892.226	13997
892.349	13974
892.471	13769
892.594	13833
892.717	13993
892.839	13879
892.962	14012
893.085	13974
893.207	14050
893.33	13788
893.452	13868
893.575	14062
893.697	13963
893.819	14237
893.941	14183
894.064	14168
894.186	13951
894.308	13989
894.43	14031
894.552	14233
894.674	14050
894.796	14001
894.918	13974
895.04	13993
895.161	14103
895.283	14134
895.405	14084
895.526	14100
895.648	14119
895.769	14077
895.891	14092
896.012	14153
896.134	14237
896.255	14202
896.376	14073
896.498	14130
896.619	14259
896.74	14145
896.861	14252
896.982	14450
897.103	14667
897.224	14461
897.345	14461
897.466	14336
897.587	14457
897.708	14545
897.828	14423
897.949	14457
898.07	14336
898.19	14362
898.311	14648
898.431	14473
898.552	14457
898.672	14575
898.792	14571
898.913	14682
899.033	14492
899.153	14355
899.273	14191
899.393	14218
899.513	14298
899.633	14389
899.753	14389
899.873	14240
899.993	14396
900.113	14412
900.232	14465
900.352	14313
900.472	14233
900.591	14092
900.711	14221
900.83	14218
900.95	14339
901.069	14309
901.189	14191
901.308	13989
901.427	13913
901.546	13906
901.665	13887
901.784	13925
901.904	13807
902.023	13696
902.141	13487
902.26	13438
902.379	13506
902.498	13453
902.617	13407
902.735	13499
902.854	13422
902.973	13400
903.091	13202
903.21	13145
903.328	13198
903.446	13080
903.565	13034
903.683	13095
903.801	12909
903.919	13031
904.038	12977
904.156	12989
904.274	12954
904.392	12878
904.51	12859
904.627	12871
904.745	12844
904.863	12909
904.981	12715
905.098	12483
905.216	12555
905.334	12597
905.451	12426
905.569	12494
905.686	12551
905.803	12509
905.921	12395
906.038	12456
906.155	12414
906.272	12292
906.389	12289
906.506	12205
906.623	12197
906.74	12159
906.857	12011
906.974	12121
907.091	12273
907.208	12266
907.324	12057
907.441	12060
907.557	11920
907.674	11893
907.79	11863
907.907	11893
908.023	11954
908.139	11809
908.256	11790
908.372	11824
908.488	11748
908.604	11672
908.72	11608
908.836	11703
908.952	11562
909.068	11691
909.184	11703
909.3	11581
909.415	11619
909.531	11699
909.647	11440
909.762	11436
909.878	11417
909.993	11436
910.108	11459
910.224	11417
910.339	11376
910.454	11296
910.57	11337
910.685	11140
910.8	11482
910.915	11417
911.03	11208
911.145	11086
911.259	11102
911.374	11109
911.489	11132
911.604	10984
911.718	10889
911.833	10934
911.947	10755
912.062	10702
912.176	10831
912.291	10946
912.405	10911
912.519	10987
912.633	11067
912.748	10885
912.862	10919
912.976	10858
913.09	10603
913.204	10603
913.318	10812
913.431	10877
913.545	10885
913.659	10858
913.772	10816
913.886	10618
914	10558
914.113	10797
914.226	10740
914.34	10702
914.453	10523
914.566	10797
914.68	10592
914.793	10565
914.906	10402
915.019	10371
915.132	10356
915.245	10363
915.358	10432
915.47	10394
915.583	10337
915.696	10462
915.809	10607
915.921	10512
916.034	10291
916.146	10337
916.259	10284
916.371	10466
916.483	10348
916.595	10268
916.708	10314
916.82	10356
916.932	10394
917.044	10348
917.156	10287
917.268	10204
917.38	10299
917.491	10234
917.603	10249
917.715	10291
917.826	10379
917.938	10188
918.049	10131
918.161	10227
918.272	10409
918.384	10375
918.495	10249
918.606	10097
918.717	10017
918.828	10131
918.939	10086
919.05	10135
919.161	10116
919.272	9732
919.383	9934
919.494	10230
919.604	10341
919.715	10147
919.826	10036
919.936	10059
920.047	10211
920.157	10143
920.267	10295
920.378	10090
920.488	10109
920.598	10356
920.708	10474
920.818	10363
920.928	10363
921.038	10466
921.148	10455
921.258	10185
921.368	10162
921.477	10032
921.587	9983
921.697	9827
921.806	10067
921.916	9838
922.025	9743
922.134	9686
922.244	9603
922.353	9778
922.462	9561
922.571	9488
922.68	9424
922.789	9325
922.898	9477
923.007	9378
923.116	9477
923.224	9321
923.333	9279
923.442	9256
923.55	9298
923.659	9294
923.767	9294
923.876	9207
923.984	9237
924.092	9230
924.201	9237
924.309	9199
924.417	9294
924.525	9188
924.633	9237
924.741	9926
924.849	9119
924.956	9222
925.064	9036
925.172	8982
925.279	9005
925.387	9077
925.494	9028
925.602	9138
925.709	9131
925.816	8952
925.924	9028
926.031	9062
926.138	9070
926.245	9081
926.352	8948
926.459	9047
926.566	9123
926.673	8960
926.779	8895
926.886	8933
926.993	8811
927.099	8777
927.206	8682
927.312	8735
927.419	8826
927.525	8788
927.631	8739
927.737	8686
927.843	8629
927.95	8511
928.056	8659
928.162	8621
928.267	8663
928.373	9184
928.479	8788
928.585	8545
928.69	8655
928.796	8693
928.901	8613
929.007	8415
929.112	8590
929.218	8571
929.323	8495
929.428	8499
929.533	8571
929.638	8476
929.743	8438
929.848	8503
929.953	8492
930.058	8396
930.163	8210
930.267	8221
930.372	8366
930.477	8199
930.581	8511
930.685	8252
930.79	8183
930.894	8191
930.998	8130
931.103	8370
931.207	7936
931.311	7993
931.415	7906
931.519	7734
931.623	7719
