Data from test_V78500241_532.txt Node
Date: Fri Mar 25 14:37:25 CST 2022
User: usil
Spectrometer: V785-0024
Trigger mode: 0
Integration Time (sec): 4.000000E-1
Scans to average: 1
Nonlinearity correction enabled: false
Boxcar width: 0
Storing dark spectrum: false
XAxis mode: Wavelengths
Number of Pixels in Spectrum: 1024
>>>>>Begin Spectral Data<<<<<
801.071	27264
801.214	27302
801.356	26982
801.499	26758
801.641	26815
801.783	26564
801.926	26739
802.068	26682
802.211	26549
802.353	26476
802.496	26301
802.638	26225
802.78	26225
802.923	26301
803.065	26119
803.208	26180
803.35	26187
803.492	26233
803.635	26267
803.777	26191
803.919	26381
804.061	26640
804.204	26267
804.346	26176
804.488	26092
804.63	26328
804.773	26252
804.915	26317
805.057	26400
805.199	26320
805.341	26282
805.483	26408
805.626	26415
805.768	26374
805.91	26438
806.052	26499
806.194	26389
806.336	26648
806.478	26545
806.62	26632
806.762	26792
806.904	27009
807.046	27306
807.188	27367
807.33	27466
807.472	27610
807.614	27911
807.756	28074
807.898	28322
808.04	28603
808.182	29193
808.324	30064
808.465	30901
808.607	31993
808.749	32773
808.891	33294
809.033	33355
809.174	32845
809.316	31818
809.458	31034
809.6	29999
809.741	29375
809.883	28790
810.025	28500
810.166	28192
810.308	27842
810.45	27774
810.591	27443
810.733	27306
810.875	26986
811.016	26914
811.158	26845
811.299	27036
811.441	27085
811.582	26929
811.724	26758
811.865	26754
812.007	26674
812.148	26762
812.29	26720
812.431	26739
812.573	26876
812.714	26982
812.855	27089
812.997	27093
813.138	27279
813.279	27199
813.421	27009
813.562	26826
813.703	26849
813.845	26697
813.986	26317
814.127	26183
814.268	26024
814.41	26092
814.551	26031
814.692	26084
814.833	25951
814.974	25974
815.115	25928
815.256	25864
815.397	25776
815.539	25784
815.68	25772
815.821	25620
815.962	25712
816.103	25712
816.244	25499
816.385	25521
816.526	25479
816.666	25202
816.807	25164
816.948	25168
817.089	25183
817.23	24996
817.371	25000
817.512	25000
817.653	25012
817.793	25084
817.934	24882
818.075	25019
818.216	24943
818.356	25019
818.497	24932
818.638	24779
818.778	24806
818.919	24715
819.06	24669
819.2	24821
819.341	24943
819.481	24871
819.622	25095
819.762	25137
819.903	25190
820.043	25000
820.184	25164
820.324	25023
820.465	25164
820.605	24943
820.746	25000
820.886	24928
821.026	24928
821.167	24920
821.307	24954
821.447	24825
821.588	24787
821.728	24578
821.868	24471
822.008	24281
822.149	24174
822.289	24213
822.429	24049
822.569	23805
822.709	24114
822.849	23790
822.99	23691
823.13	23699
823.27	23714
823.41	23482
823.55	23482
823.69	23562
823.83	23604
823.97	23455
824.11	23269
824.25	23284
824.389	23296
824.529	23406
824.669	23212
824.809	23315
824.949	23455
825.089	23307
825.228	23303
825.368	23098
825.508	23166
825.648	23079
825.787	23102
825.927	23025
826.067	23159
826.206	23098
826.346	23052
826.485	23204
826.625	23041
826.765	23166
826.904	22999
827.044	22755
827.183	22797
827.323	22672
827.462	22721
827.601	22630
827.741	22793
827.88	22702
828.02	22611
828.159	22596
828.298	22736
828.437	22691
828.577	22584
828.716	22675
828.855	22584
828.994	22443
829.134	22360
829.273	22500
829.412	22371
829.551	22226
829.69	22382
829.829	22386
829.968	22428
830.107	22516
830.246	22417
830.385	22314
830.524	22272
830.663	22207
830.802	22109
830.941	22040
831.08	21918
831.219	22067
831.357	22082
831.496	22074
831.635	22067
831.774	21850
831.913	21884
832.051	21698
832.19	21865
832.329	21713
832.467	21682
832.606	21663
832.744	21644
832.883	21629
833.022	21679
833.16	21679
833.299	21759
833.437	21892
833.576	21857
833.714	21865
833.852	21960
833.991	21945
834.129	22051
834.267	21983
834.406	21884
834.544	21968
834.682	21953
834.821	21907
834.959	22025
835.097	21690
835.235	21846
835.373	21728
835.511	21800
835.65	21572
835.788	21466
835.926	21401
836.064	21195
836.202	21272
836.34	21549
836.478	21507
836.615	21519
836.753	21351
836.891	21519
837.029	21466
837.167	21557
837.305	21348
837.443	21325
837.58	21321
837.718	21412
837.856	21408
837.993	21287
838.131	21165
838.269	21173
838.406	21199
838.544	21104
838.681	20876
838.819	20956
838.956	20796
839.094	20670
839.231	20823
839.369	20845
839.506	21081
839.643	21005
839.781	20769
839.918	20651
840.055	20663
840.193	20815
840.33	20697
840.467	20648
840.604	20648
840.742	20887
840.879	20484
841.016	20518
841.153	20518
841.29	20857
841.427	20613
841.564	20705
841.701	20648
841.838	20568
841.975	20602
842.112	20537
842.249	20530
842.385	20404
842.522	20476
842.659	20408
842.796	20362
842.933	20298
843.069	20404
843.206	20343
843.343	20415
843.479	20377
843.616	20339
843.752	20275
843.889	20122
844.025	20339
844.162	20237
844.298	20355
844.435	20286
844.571	20355
844.708	20347
844.844	20720
844.98	20697
845.117	20941
845.253	21123
845.389	21538
845.525	22428
845.661	23851
845.798	25784
845.934	27473
846.07	28090
846.206	27759
846.342	26735
846.478	24589
846.614	22850
846.75	21405
846.886	20941
847.022	20549
847.158	20275
847.294	20027
847.429	19883
847.565	19921
847.701	19947
847.837	19476
847.972	19476
848.108	19426
848.244	19491
848.379	19278
848.515	19278
848.65	19274
848.786	19304
848.921	19122
849.057	19297
849.192	19240
849.328	19255
849.463	19099
849.598	19122
849.734	19099
849.869	19046
850.004	18943
850.14	18947
850.275	18954
850.41	18738
850.545	18924
850.68	18859
850.815	18753
850.95	18924
851.085	19076
851.22	18886
851.355	18817
851.49	18833
851.625	18916
851.76	18890
851.895	18848
852.03	18821
852.165	18829
852.299	18882
852.434	19023
852.569	18867
852.703	18951
852.838	18916
852.973	19034
853.107	19107
853.242	18905
853.376	18734
853.511	18711
853.645	18738
853.78	19019
853.914	18825
854.048	18741
854.183	18856
854.317	18821
854.451	18905
854.585	18863
854.72	18757
854.854	18909
854.988	18753
855.122	18787
855.256	18620
855.39	18821
855.524	18783
855.658	18814
855.792	18749
855.926	18730
856.06	18760
856.194	18791
856.327	18825
856.461	18623
856.595	18604
856.729	18673
856.862	18844
856.996	18707
857.13	18837
857.263	18764
857.397	18814
857.53	18696
857.664	18734
857.797	18760
857.931	18783
858.064	18681
858.197	18878
858.331	18536
858.464	18612
858.597	18513
858.731	18677
858.864	18673
858.997	18612
859.13	18639
859.263	18715
859.396	18703
859.529	18612
859.662	18669
859.795	18536
859.928	18669
860.061	18745
860.194	18802
860.327	18536
860.46	18547
860.592	18726
860.725	18700
860.858	18726
860.99	18559
861.123	18528
861.256	18593
861.388	18620
861.521	19384
861.653	18513
861.786	18350
861.918	18437
862.05	18574
862.183	18654
862.315	18646
862.447	18673
862.58	18574
862.712	18342
862.844	18361
862.976	18433
863.108	18456
863.24	18840
863.372	18323
863.504	18365
863.636	18300
863.768	18334
863.9	18289
864.032	18270
864.164	18330
864.296	18330
864.428	18346
864.559	18437
864.691	18399
864.823	18369
864.954	18346
865.086	18270
865.217	18361
865.349	18148
865.48	18285
865.612	18315
865.743	18467
865.875	18323
866.006	18121
866.137	18228
866.269	18224
866.4	18243
866.531	18224
866.662	18148
866.793	18121
866.924	18190
867.055	18182
867.186	18194
867.317	18159
867.448	17988
867.579	18232
867.71	18110
867.841	17999
867.972	18209
868.103	18247
868.233	18289
868.364	18197
868.495	18334
868.625	18418
868.756	18441
868.886	18315
869.017	18376
869.147	18612
869.278	18540
869.408	18433
869.539	18456
869.669	18544
869.799	18410
869.929	18517
870.06	18544
870.19	18677
870.32	18700
870.45	18631
870.58	18795
870.71	18840
870.84	18954
870.97	18814
871.1	18802
871.23	19114
871.36	18954
871.489	18932
871.619	19072
871.749	18909
871.879	19042
872.008	19110
872.138	19095
872.267	19053
872.397	18932
872.526	18859
872.656	18829
872.785	18916
872.915	19107
873.044	19213
873.173	19148
873.303	19103
873.432	19206
873.561	19168
873.69	19228
873.819	19171
873.948	19289
874.077	19080
874.206	19278
874.335	19145
874.464	19335
874.593	19559
874.722	19331
874.851	19472
874.979	19544
875.108	19499
875.237	19540
875.365	19460
875.494	19567
875.623	19567
875.751	19495
875.88	19651
876.008	19788
876.136	19826
876.265	20012
876.393	20138
876.521	20073
876.65	20210
876.778	20115
876.906	20100
877.034	20001
877.162	20149
877.29	20084
877.418	20069
877.546	20199
877.674	20199
877.802	20214
877.93	20358
878.058	20298
878.185	20343
878.313	20396
878.441	20606
878.568	20480
878.696	20727
878.824	21024
878.951	21492
879.079	22013
879.206	22615
879.333	23079
879.461	23421
879.588	23931
879.715	24057
879.842	23870
879.97	23064
880.097	22299
880.224	21869
880.351	21561
880.478	21176
880.605	21020
880.732	20849
880.859	21066
880.986	20895
881.112	20796
881.239	20705
881.366	20613
881.493	20431
881.619	20377
881.746	20358
881.872	20358
881.999	20282
882.125	20362
882.252	20454
882.378	20419
882.505	20564
882.631	20366
882.757	20290
882.883	20305
883.01	20301
883.136	20214
883.262	20096
883.388	20195
883.514	20412
883.64	20259
883.766	20176
883.892	19879
884.018	20153
884.143	20168
884.269	20240
884.395	19898
884.52	19940
884.646	19940
884.772	19868
884.897	19799
885.023	19902
885.148	19936
885.274	19993
885.399	19928
885.524	19883
885.65	19715
885.775	19655
885.9	19674
886.025	19788
886.15	19738
886.275	19552
886.4	19502
886.525	19472
886.65	19358
886.775	19434
886.9	19537
887.025	19670
887.149	19335
887.274	19228
887.399	19114
887.523	19137
887.648	19061
887.773	18989
887.897	19076
888.021	18901
888.146	18993
888.27	19076
888.395	19103
888.519	19004
888.643	19008
888.767	18989
888.891	18749
889.015	18722
889.139	18726
889.263	18757
889.387	18661
889.511	18825
889.635	18738
889.759	18627
889.883	18597
890.006	18658
890.13	18726
890.254	18551
890.377	18566
890.501	18467
890.624	18464
890.748	18388
890.871	18281
890.995	18148
891.118	18178
891.241	18102
891.364	18235
891.488	18235
891.611	18087
891.734	18243
891.857	18216
891.98	18136
892.103	18216
892.226	18213
892.349	18079
892.471	17999
892.594	18022
892.717	18019
892.839	17961
892.962	18057
893.085	18030
893.207	18053
893.33	17870
893.452	17946
893.575	17999
893.697	17980
893.819	18091
893.941	18106
894.064	17965
894.186	17923
894.308	17889
894.43	17973
894.552	18011
894.674	17958
894.796	17935
894.918	17954
895.04	17885
895.161	17931
895.283	17946
895.405	17885
895.526	17946
895.648	17828
895.769	17843
895.891	18034
896.012	17916
896.134	17950
896.255	17882
896.376	17961
896.498	18079
896.619	18030
896.74	17923
896.861	18003
896.982	18270
897.103	18464
897.224	18277
897.345	18182
897.466	18155
897.587	18171
897.708	18273
897.828	18163
897.949	18091
898.07	17992
898.19	18114
898.311	18296
898.431	18064
898.552	18247
898.672	18201
898.792	18247
898.913	18300
899.033	18030
899.153	18026
899.273	17798
899.393	18030
899.513	17996
899.633	17836
899.753	17980
899.873	17942
899.993	17977
900.113	17946
900.232	17771
900.352	17904
900.472	17805
900.591	17783
900.711	17760
900.83	17665
900.95	17866
901.069	17874
901.189	17760
901.308	17410
901.427	17387
901.546	17425
901.665	17474
901.784	17372
901.904	17220
902.023	17155
902.141	17006
902.26	16889
902.379	16896
902.498	16919
902.617	16809
902.735	16843
902.854	16869
902.973	16831
903.091	16561
903.21	16588
903.328	16577
903.446	16493
903.565	16356
903.683	16455
903.801	16268
903.919	16238
904.038	16329
904.156	16036
904.274	16223
904.392	16158
904.51	16128
904.627	16105
904.745	16135
904.863	16147
904.981	15873
905.098	15785
905.216	15785
905.334	15869
905.451	15751
905.569	15766
905.686	15736
905.803	15709
905.921	15534
906.038	15656
906.155	15606
906.272	15462
906.389	15477
906.506	15321
906.623	15249
906.74	15249
906.857	15279
906.974	15169
907.091	15397
907.208	15386
907.324	15313
907.441	15230
907.557	15055
907.674	15020
907.79	14979
907.907	14914
908.023	15051
908.139	14956
908.256	15097
908.372	14902
908.488	14819
908.604	14765
908.72	14629
908.836	14727
908.952	14682
909.068	14727
909.184	14815
909.3	14651
909.415	14788
909.531	14731
909.647	14434
909.762	14389
909.878	14355
909.993	14347
910.108	14355
910.224	14396
910.339	14423
910.454	14252
910.57	14187
910.685	14290
910.8	14465
910.915	14400
911.03	14191
911.145	14024
911.259	14058
911.374	14050
911.489	13875
911.604	13868
911.718	13795
911.833	13784
911.947	13791
912.062	13655
912.176	13723
912.291	13769
912.405	13700
912.519	14016
912.633	13959
912.748	13784
912.862	13803
912.976	13613
913.09	13514
913.204	13620
913.318	13590
913.431	13628
913.545	13772
913.659	13696
913.772	13529
913.886	13430
914	13415
914.113	13460
914.226	13594
914.34	13468
914.453	13335
914.566	13578
914.68	13403
914.793	13301
914.906	13225
915.019	13179
915.132	12996
915.245	13061
915.358	13126
915.47	13114
915.583	13225
915.696	13129
915.809	13278
915.921	13206
916.034	13133
916.146	13065
916.259	13129
916.371	13069
916.483	13107
916.595	13012
916.708	13069
916.82	12981
916.932	13000
917.044	12981
917.156	12954
917.268	12821
917.38	12932
917.491	12886
917.603	12867
917.715	12852
917.826	12954
917.938	12734
918.049	12650
918.161	12814
918.272	12989
918.384	12867
918.495	12821
918.606	12703
918.717	12620
918.828	12665
918.939	12707
919.05	12414
919.161	12551
919.272	12433
919.383	12467
919.494	12639
919.604	12837
919.715	12582
919.826	12502
919.936	12532
920.047	12688
920.157	12582
920.267	12719
920.378	12635
920.488	12544
920.598	12726
920.708	12833
920.818	12798
920.928	12700
921.038	12935
921.148	12779
921.258	12593
921.368	12452
921.477	12433
921.587	12414
921.697	12254
921.806	12319
921.916	12251
922.025	12095
922.134	12087
922.244	12026
922.353	12045
922.462	12007
922.571	11805
922.68	11775
922.789	11665
922.898	11668
923.007	11649
923.116	11737
923.224	11642
923.333	11680
923.442	11604
923.55	11570
923.659	11493
923.767	11634
923.876	11433
923.984	11585
924.092	11493
924.201	11520
924.309	11505
924.417	11551
924.525	11455
924.633	11463
924.741	12209
924.849	11212
924.956	11410
925.064	11296
925.172	11128
925.279	11223
925.387	11254
925.494	11181
925.602	11368
925.709	11292
925.816	11231
925.924	11242
926.031	11284
926.138	11143
926.245	11197
926.352	11071
926.459	11208
926.566	11303
926.673	11128
926.779	11037
926.886	10946
926.993	10873
927.099	10828
927.206	10782
927.312	10801
927.419	10877
927.525	10896
927.631	10877
927.737	10790
927.843	10618
927.95	10626
928.056	10679
928.162	10744
928.267	10763
928.373	11261
928.479	10744
928.585	10634
928.69	10637
928.796	10733
928.901	10516
929.007	10363
929.112	10641
929.218	10508
929.323	10481
929.428	10500
929.533	10561
929.638	10352
929.743	10516
929.848	10497
929.953	10424
930.058	10337
930.163	10192
930.267	10230
930.372	10276
930.477	10204
930.581	10386
930.685	10204
930.79	10067
930.894	10101
930.998	10131
931.103	10242
931.207	9926
931.311	9838
931.415	9625
931.519	9564
931.623	9511
