Data from test_V78500241_785.txt Node
Date: Fri Mar 25 14:39:11 CST 2022
User: usil
Spectrometer: V785-0024
Trigger mode: 0
Integration Time (sec): 4.000000E-1
Scans to average: 1
Nonlinearity correction enabled: false
Boxcar width: 0
Storing dark spectrum: false
XAxis mode: Wavelengths
Number of Pixels in Spectrum: 1024
>>>>>Begin Spectral Data<<<<<
801.071	26826
801.214	26442
801.356	26324
801.499	26332
801.641	26168
801.783	26126
801.926	26103
802.068	25955
802.211	25769
802.353	25734
802.496	25597
802.638	25704
802.78	25529
802.923	25468
803.065	25396
803.208	25411
803.35	25449
803.492	25662
803.635	25742
803.777	25552
803.919	25575
804.061	26119
804.204	25822
804.346	25571
804.488	25677
804.63	25685
804.773	25643
804.915	25753
805.057	25864
805.199	25917
805.341	25921
805.483	26142
805.626	26096
805.768	26126
805.91	26294
806.052	26320
806.194	26415
806.336	26739
806.478	26807
806.62	26990
806.762	27264
806.904	27496
807.046	28204
807.188	28360
807.33	28744
807.472	29227
807.614	29847
807.756	30521
807.898	31658
808.04	32883
808.182	34782
808.324	37031
808.465	39660
808.607	42719
808.749	45268
808.891	46957
809.033	46957
809.174	45591
809.316	43042
809.458	40036
809.6	36852
809.741	34409
809.883	32389
810.025	31244
810.166	30171
810.308	29482
810.45	28919
810.591	28333
810.733	27907
810.875	27603
811.016	27325
811.158	27116
811.299	27077
811.441	27043
811.582	26842
811.724	26636
811.865	26366
812.007	26469
812.148	26355
812.29	26450
812.431	26404
812.573	26453
812.714	26317
812.855	26602
812.997	26659
813.138	26720
813.279	26579
813.421	26434
813.562	26366
813.703	26199
813.845	25932
813.986	25700
814.127	25533
814.268	25346
814.41	25289
814.551	25217
814.692	25289
814.833	25103
814.974	25034
815.115	25244
815.256	24916
815.397	24905
815.539	24905
815.68	24897
815.821	24658
815.962	24852
816.103	24795
816.244	24604
816.385	24551
816.526	24426
816.666	24228
816.807	24030
816.948	24220
817.089	24167
817.23	24171
817.371	24106
817.512	23965
817.653	24034
817.793	24053
817.934	24144
818.075	24178
818.216	23954
818.356	24011
818.497	23885
818.638	23634
818.778	23703
818.919	23661
819.06	23703
819.2	23790
819.341	23931
819.481	23977
819.622	24076
819.762	24232
819.903	24155
820.043	24064
820.184	23942
820.324	23870
820.465	24015
820.605	23980
820.746	23790
820.886	23813
821.026	23809
821.167	23691
821.307	23821
821.447	23710
821.588	23551
821.728	23448
821.868	23280
822.008	23212
822.149	23181
822.289	23094
822.429	22972
822.569	22816
822.709	22828
822.849	22645
822.99	22706
823.13	22542
823.27	22485
823.41	22375
823.55	22360
823.69	22470
823.83	22504
823.97	22432
824.11	22185
824.25	22078
824.389	22249
824.529	22242
824.669	22185
824.809	22280
824.949	22253
825.089	22181
825.228	22219
825.368	21960
825.508	21964
825.648	21956
825.787	21949
825.927	21972
826.067	21873
826.206	21800
826.346	21888
826.485	21987
826.625	21968
826.765	22063
826.904	22002
827.044	21755
827.183	21587
827.323	21686
827.462	21724
827.601	21629
827.741	21530
827.88	21564
828.02	21447
828.159	21519
828.298	21679
828.437	21614
828.577	21431
828.716	21633
828.855	21561
828.994	21272
829.134	21351
829.273	21329
829.412	21214
829.551	21138
829.69	21370
829.829	21173
829.968	21344
830.107	21218
830.246	21294
830.385	21226
830.524	21119
830.663	21039
830.802	21104
830.941	20895
831.08	20811
831.219	20967
831.357	20933
831.496	21070
831.635	20807
831.774	20724
831.913	20883
832.051	20655
832.19	20686
832.329	20834
832.467	20674
832.606	20655
832.744	20697
832.883	20689
833.022	20777
833.16	20872
833.299	20876
833.437	21051
833.576	21389
833.714	21412
833.852	21439
833.991	21538
834.129	21732
834.267	21595
834.406	21648
834.544	21587
834.682	21405
834.821	21355
834.959	21405
835.097	21100
835.235	21043
835.373	21036
835.511	20880
835.65	20727
835.788	20807
835.926	20488
836.064	20355
836.202	20358
836.34	20495
836.478	20545
836.615	20545
836.753	20446
836.891	20511
837.029	20454
837.167	20415
837.305	20309
837.443	20233
837.58	20229
837.718	20214
837.856	20332
837.993	20157
838.131	20161
838.269	20138
838.406	19974
838.544	20157
838.681	19940
838.819	19860
838.956	19601
839.094	19670
839.231	19723
839.369	19807
839.506	20077
839.643	19898
839.781	19639
839.918	19567
840.055	19597
840.193	19666
840.33	19453
840.467	19632
840.604	19578
840.742	19875
840.879	19548
841.016	19620
841.153	19449
841.29	19605
841.427	19643
841.564	19635
841.701	19529
841.838	19578
841.975	19510
842.112	19586
842.249	19518
842.385	19365
842.522	19647
842.659	19594
842.796	19571
842.933	19396
843.069	19362
843.206	19499
843.343	19628
843.479	19514
843.616	19616
843.752	19327
843.889	19365
844.025	19567
844.162	19521
844.298	19837
844.435	19837
844.571	19894
844.708	20290
844.844	20727
844.98	21070
845.117	21591
845.253	22299
845.389	23927
845.525	26975
845.661	32297
845.798	38229
845.934	42840
846.07	44720
846.206	43605
846.342	39454
846.478	33233
846.614	28032
846.75	24521
846.886	22428
847.022	21359
847.158	20495
847.294	20103
847.429	19670
847.565	19510
847.701	19495
847.837	19034
847.972	18848
848.108	18802
848.244	18787
848.379	18604
848.515	18559
848.65	18464
848.786	18464
848.921	18441
849.057	18555
849.192	18407
849.328	18384
849.463	18372
849.598	18277
849.734	18315
849.869	18300
850.004	18133
850.14	18243
850.275	18148
850.41	17961
850.545	17977
850.68	18034
850.815	18117
850.95	18106
851.085	18201
851.22	18197
851.355	18057
851.49	18049
851.625	18007
851.76	17977
851.895	17908
852.03	17977
852.165	18057
852.299	18129
852.434	18133
852.569	18095
852.703	18068
852.838	18209
852.973	18277
853.107	18300
853.242	18068
853.376	18136
853.511	18011
853.645	18053
853.78	18254
853.914	18213
854.048	18273
854.183	18076
854.317	18319
854.451	18452
854.585	18311
854.72	18216
854.854	18323
854.988	18083
855.122	18072
855.256	18060
855.39	18022
855.524	18098
855.658	18083
855.792	17954
855.926	17908
856.06	18011
856.194	18026
856.327	18015
856.461	17817
856.595	17824
856.729	17764
856.862	17984
856.996	17897
857.13	18022
857.263	17965
857.397	17999
857.53	17859
857.664	17817
857.797	17923
857.931	17988
858.064	17828
858.197	17920
858.331	17752
858.464	17748
858.597	17665
858.731	17821
858.864	17775
858.997	17786
859.13	17718
859.263	17752
859.396	17893
859.529	17703
859.662	17817
859.795	17703
859.928	17752
860.061	17798
860.194	17958
860.327	17809
860.46	17615
860.592	17817
860.725	17798
860.858	17923
860.99	17611
861.123	17707
861.256	17661
861.388	17638
861.521	18292
861.653	17581
861.786	17520
861.918	17627
862.05	17665
862.183	17691
862.315	17585
862.447	17703
862.58	17619
862.712	17265
862.844	17337
862.976	17497
863.108	17448
863.24	17916
863.372	17387
863.504	17349
863.636	17448
863.768	17322
863.9	17372
864.032	17288
864.164	17436
864.296	17311
864.428	17467
864.559	17414
864.691	17535
864.823	17383
864.954	17410
865.086	17433
865.217	17376
865.349	17189
865.48	17360
865.612	17296
865.743	17440
865.875	17455
866.006	17231
866.137	17223
866.269	17341
866.4	17269
866.531	17364
866.662	17189
866.793	17273
866.924	17280
867.055	17372
867.186	17246
867.317	17216
867.448	17269
867.579	17200
867.71	17307
867.841	17212
867.972	17307
868.103	17288
868.233	17280
868.364	17220
868.495	17429
868.625	17512
868.756	17687
868.886	17547
869.017	17543
869.147	17710
869.278	17710
869.408	17585
869.539	17703
869.669	17707
869.799	17649
869.929	17817
870.06	17619
870.19	17874
870.32	17923
870.45	17950
870.58	17942
870.71	18007
870.84	18091
870.97	18015
871.1	18049
871.23	18205
871.36	18308
871.489	18174
871.619	18296
871.749	18338
871.879	18289
872.008	18361
872.138	18372
872.267	18243
872.397	18163
872.526	18091
872.656	18213
872.785	18232
872.915	18376
873.044	18437
873.173	18452
873.303	18494
873.432	18513
873.561	18623
873.69	18582
873.819	18544
873.948	18589
874.077	18582
874.206	18563
874.335	18635
874.464	18768
874.593	18905
874.722	18901
874.851	19072
874.979	19057
875.108	19137
875.237	18970
875.365	19046
875.494	19038
875.623	19160
875.751	19057
875.88	19190
876.008	19339
876.136	19525
876.265	19753
876.393	19860
876.521	19852
876.65	19921
876.778	19986
876.906	19997
877.034	19959
877.162	20092
877.29	20100
877.418	20252
877.546	20252
877.674	20336
877.802	20560
877.93	20705
878.058	20746
878.185	20883
878.313	21096
878.441	21515
878.568	21698
878.696	22314
878.824	23025
878.951	24064
879.079	25499
879.206	27302
879.333	29140
879.461	30597
879.588	31635
879.715	31537
879.842	30817
879.97	29117
880.097	27306
880.224	25757
880.351	24692
880.478	23996
880.605	23376
880.732	23105
880.859	23128
880.986	22656
881.112	22687
881.239	22417
881.366	22185
881.493	22257
881.619	22109
881.746	22166
881.872	22284
881.999	22318
882.125	22188
882.252	22322
882.378	22344
882.505	22512
882.631	22318
882.757	22200
882.883	22268
883.01	22268
883.136	22166
883.262	21987
883.388	21949
883.514	22173
883.64	22230
883.766	22017
883.892	21937
884.018	21918
884.143	22135
884.269	22280
884.395	22021
884.52	21907
884.646	21899
884.772	21915
884.897	21838
885.023	22017
885.148	21937
885.274	21880
885.399	21880
885.524	21675
885.65	21660
885.775	21557
885.9	21363
886.025	21298
886.15	21127
886.275	20872
886.4	20705
886.525	20716
886.65	20644
886.775	20450
886.9	20587
887.025	20442
887.149	20256
887.274	20065
887.399	19856
887.523	19788
887.648	19666
887.773	19594
887.897	19734
888.021	19556
888.146	19426
888.27	19518
888.395	19510
888.519	19358
888.643	19308
888.767	19362
888.891	19190
889.015	19057
889.139	19114
889.263	19031
889.387	19126
889.511	19160
889.635	19031
889.759	18878
889.883	18745
890.006	18882
890.13	18829
890.254	18612
890.377	18696
890.501	18433
890.624	18479
890.748	18544
890.871	18270
890.995	18136
891.118	18049
891.241	18232
891.364	18209
891.488	18262
891.611	18064
891.734	18076
891.857	18079
891.98	18201
892.103	17961
892.226	17958
892.349	17912
892.471	17676
892.594	17821
892.717	17824
892.839	17756
892.962	17794
893.085	17859
893.207	17638
893.33	17611
893.452	17615
893.575	17710
893.697	17642
893.819	17729
893.941	17874
894.064	17741
894.186	17520
894.308	17501
894.43	17657
894.552	17680
894.674	17535
894.796	17376
894.918	17349
895.04	17463
895.161	17581
895.283	17421
895.405	17395
895.526	17410
895.648	17349
895.769	17524
895.891	17436
896.012	17402
896.134	17448
896.255	17440
896.376	17406
896.498	17455
896.619	17395
896.74	17326
896.861	17471
896.982	17661
897.103	17824
897.224	17600
897.345	17554
897.466	17562
897.587	17600
897.708	17585
897.828	17554
897.949	17444
898.07	17406
898.19	17524
898.311	17672
898.431	17532
898.552	17577
898.672	17551
898.792	17585
898.913	17566
899.033	17497
899.153	17379
899.273	17376
899.393	17345
899.513	17410
899.633	17303
899.753	17318
899.873	17284
899.993	17349
900.113	17326
900.232	17368
900.352	17402
900.472	17162
900.591	17162
900.711	17102
900.83	17105
900.95	17216
901.069	17299
901.189	17098
901.308	16961
901.427	16759
901.546	16820
901.665	16812
901.784	16717
901.904	16603
902.023	16550
902.141	16333
902.26	16284
902.379	16386
902.498	16272
902.617	16223
902.735	16314
902.854	16158
902.973	16139
903.091	15831
903.21	15899
903.328	15778
903.446	15861
903.565	15641
903.683	15724
903.801	15584
903.919	15686
904.038	15603
904.156	15416
904.274	15485
904.392	15439
904.51	15408
904.627	15351
904.745	15538
904.863	15447
904.981	15173
905.098	15100
905.216	15131
905.334	15062
905.451	14994
905.569	15062
905.686	15051
905.803	15047
905.921	14807
906.038	14933
906.155	14773
906.272	14804
906.389	14845
906.506	14621
906.623	14708
906.74	14602
906.857	14434
906.974	14457
907.091	14640
907.208	14708
907.324	14480
907.441	14381
907.557	14320
907.674	14259
907.79	14187
907.907	14252
908.023	14404
908.139	14282
908.256	14252
908.372	14180
908.488	14256
908.604	14073
908.72	14027
908.836	13978
908.952	14001
909.068	14024
909.184	14130
909.3	13932
909.415	14005
909.531	13986
909.647	13761
909.762	13708
909.878	13765
909.993	13765
910.108	13685
910.224	13738
910.339	13689
910.454	13765
910.57	13677
910.685	13476
910.8	13772
910.915	13753
911.03	13586
911.145	13464
911.259	13362
911.374	13400
911.489	13396
911.604	13343
911.718	13152
911.833	13175
911.947	13027
912.062	12989
912.176	13198
912.291	13149
912.405	13126
912.519	13373
912.633	13312
912.748	13228
912.862	13145
912.976	12989
913.09	12909
913.204	12977
913.318	13088
913.431	13152
913.545	13175
913.659	13061
913.772	12989
913.886	12886
914	12783
914.113	13004
914.226	13027
914.34	12951
914.453	12734
914.566	12939
914.68	12722
914.793	12726
914.906	12528
915.019	12540
915.132	12483
915.245	12597
915.358	12601
915.47	12555
915.583	12593
915.696	12604
915.809	12798
915.921	12719
916.034	12506
916.146	12532
916.259	12589
916.371	12650
916.483	12517
916.595	12547
916.708	12570
916.82	12582
916.932	12471
917.044	12426
917.156	12528
917.268	12426
917.38	12388
917.491	12327
917.603	12448
917.715	12418
917.826	12426
917.938	12292
918.049	12114
918.161	12342
918.272	12456
918.384	12407
918.495	12388
918.606	12121
918.717	12026
918.828	12133
918.939	12171
919.05	12068
919.161	12095
919.272	11920
919.383	11935
919.494	12289
919.604	12308
919.715	12144
919.826	12011
919.936	12117
920.047	12129
920.157	12079
920.267	12292
920.378	12079
920.488	12095
920.598	12201
920.708	12410
920.818	12254
920.928	12254
921.038	12388
921.148	12201
921.258	12129
921.368	12038
921.477	11935
921.587	11847
921.697	11798
921.806	11904
921.916	11764
922.025	11547
922.134	11512
922.244	11448
922.353	11566
922.462	11493
922.571	11341
922.68	11181
922.789	11208
922.898	11216
923.007	11113
923.116	11212
923.224	11223
923.333	11185
923.442	11128
923.55	11003
923.659	11113
923.767	11227
923.876	10995
923.984	11147
924.092	10957
924.201	11060
924.309	11079
924.417	11014
924.525	10961
924.633	11006
924.741	11863
924.849	10748
924.956	10923
925.064	10733
925.172	10771
925.279	10816
925.387	10717
925.494	10725
925.602	10991
925.709	10843
925.816	10611
925.924	10767
926.031	10866
926.138	10790
926.245	10812
926.352	10675
926.459	10767
926.566	10778
926.673	10660
926.779	10565
926.886	10577
926.993	10485
927.099	10382
927.206	10363
927.312	10417
927.419	10405
927.525	10360
927.631	10436
927.737	10280
927.843	10238
927.95	10109
928.056	10284
928.162	10227
928.267	10295
928.373	10869
928.479	10352
928.585	10215
928.69	10219
928.796	10265
928.901	10230
929.007	10040
929.112	10169
929.218	10200
929.323	10051
929.428	10036
929.533	10147
929.638	9945
929.743	10044
929.848	9994
929.953	9968
930.058	9964
930.163	9759
930.267	9766
930.372	9888
930.477	9800
930.581	9998
930.685	9865
930.79	9701
930.894	9740
930.998	9736
931.103	9804
931.207	9485
931.311	9401
931.415	9287
931.519	9108
931.623	9154
