Data from test_V78500241_2441.txt Node
Date: Fri Mar 25 14:50:42 CST 2022
User: usil
Spectrometer: V785-0024
Trigger mode: 0
Integration Time (sec): 4.000000E-1
Scans to average: 1
Nonlinearity correction enabled: false
Boxcar width: 0
Storing dark spectrum: false
XAxis mode: Wavelengths
Number of Pixels in Spectrum: 1024
>>>>>Begin Spectral Data<<<<<
801.071	22131
801.214	22025
801.356	21720
801.499	21720
801.641	21496
801.783	21428
801.926	21591
802.068	21519
802.211	21351
802.353	21275
802.496	20990
802.638	21017
802.78	20887
802.923	20792
803.065	20781
803.208	20746
803.35	20769
803.492	20929
803.635	20815
803.777	20705
803.919	20895
804.061	21180
804.204	20716
804.346	20826
804.488	20743
804.63	20727
804.773	20594
804.915	20743
805.057	20777
805.199	20727
805.341	20811
805.483	20838
805.626	20773
805.768	20720
805.91	20743
806.052	20769
806.194	20629
806.336	20853
806.478	20769
806.62	20632
806.762	20796
806.904	20963
807.046	21230
807.188	20941
807.33	21058
807.472	21051
807.614	20918
807.756	20849
807.898	20941
808.04	20929
808.182	20739
808.324	20777
808.465	20868
808.607	20963
808.749	21165
808.891	21310
809.033	21260
809.174	21192
809.316	20960
809.458	21146
809.6	21089
809.741	21188
809.883	21070
810.025	21306
810.166	21298
810.308	21142
810.45	21294
810.591	21070
810.733	21116
810.875	20861
811.016	20758
811.158	20815
811.299	21058
811.441	20982
811.582	21081
811.724	20986
811.865	20861
812.007	20773
812.148	20925
812.29	20895
812.431	21009
812.573	21192
812.714	21207
812.855	21348
812.997	21534
813.138	21599
813.279	21469
813.421	21287
813.562	21332
813.703	21062
813.845	20921
813.986	20811
814.127	20522
814.268	20332
814.41	20522
814.551	20533
814.692	20450
814.833	20229
814.974	20332
815.115	20408
815.256	20278
815.397	20183
815.539	20294
815.68	20119
815.821	20031
815.962	20126
816.103	20024
816.244	19989
816.385	19841
816.526	19814
816.666	19734
816.807	19415
816.948	19753
817.089	19696
817.23	19460
817.371	19658
817.512	19578
817.653	19518
817.793	19457
817.934	19491
818.075	19499
818.216	19567
818.356	19468
818.497	19312
818.638	19160
818.778	19255
818.919	19282
819.06	19335
819.2	19419
819.341	19487
819.481	19377
819.622	19521
819.762	19742
819.903	19666
820.043	19651
820.184	19491
820.324	19468
820.465	19567
820.605	19533
820.746	19468
820.886	19476
821.026	19441
821.167	19460
821.307	19582
821.447	19365
821.588	19415
821.728	19190
821.868	19000
822.008	18985
822.149	18901
822.289	18939
822.429	18726
822.569	18669
822.709	18635
822.849	18483
822.99	18403
823.13	18315
823.27	18300
823.41	18311
823.55	18194
823.69	18254
823.83	18232
823.97	18064
824.11	18064
824.25	17931
824.389	18041
824.529	18045
824.669	17897
824.809	18087
824.949	18019
825.089	18034
825.228	17950
825.368	17737
825.508	17874
825.648	17756
825.787	17832
825.927	17771
826.067	17657
826.206	17684
826.346	17790
826.485	17794
826.625	17695
826.765	17790
826.904	17741
827.044	17592
827.183	17410
827.323	17414
827.462	17474
827.601	17395
827.741	17395
827.88	17474
828.02	17360
828.159	17459
828.298	17448
828.437	17566
828.577	17353
828.716	17562
828.855	17269
828.994	17181
829.134	17231
829.273	17227
829.412	17170
829.551	17067
829.69	17143
829.829	17212
829.968	17277
830.107	17273
830.246	17273
830.385	17223
830.524	17162
830.663	16995
830.802	16976
830.941	16824
831.08	16774
831.219	16889
831.357	16835
831.496	17010
831.635	16809
831.774	16759
831.913	16679
832.051	16611
832.19	16535
832.329	16664
832.467	16603
832.606	16508
832.744	16535
832.883	16504
833.022	16493
833.16	16516
833.299	16428
833.437	16615
833.576	16637
833.714	16523
833.852	16478
833.991	16519
834.129	16592
834.267	16637
834.406	16592
834.544	16527
834.682	16546
834.821	16554
834.959	16683
835.097	16542
835.235	16561
835.373	16565
835.511	16550
835.65	16497
835.788	16550
835.926	16371
836.064	16295
836.202	16352
836.34	16519
836.478	16634
836.615	16451
836.753	16489
836.891	16523
837.029	16516
837.167	16443
837.305	16360
837.443	16337
837.58	16394
837.718	16352
837.856	16310
837.993	16226
838.131	16337
838.269	16348
838.406	16287
838.544	16230
838.681	16010
838.819	15983
838.956	15873
839.094	15903
839.231	15930
839.369	15991
839.506	16242
839.643	16128
839.781	15922
839.918	15800
840.055	15865
840.193	15945
840.33	15808
840.467	15739
840.604	15797
840.742	16147
840.879	15701
841.016	15793
841.153	15846
841.29	15937
841.427	15903
841.564	15861
841.701	15949
841.838	15747
841.975	15785
842.112	15816
842.249	15656
842.385	15637
842.522	15899
842.659	15739
842.796	15641
842.933	15686
843.069	15629
843.206	15622
843.343	15759
843.479	15656
843.616	15675
843.752	15504
843.889	15576
844.025	15599
844.162	15405
844.298	15500
844.435	15572
844.571	15428
844.708	15515
844.844	15637
844.98	15656
845.117	15511
845.253	15393
845.389	15306
845.525	15367
845.661	15329
845.798	15180
845.934	15252
846.07	15199
846.206	15302
846.342	15306
846.478	15203
846.614	15032
846.75	14971
846.886	14963
847.022	15100
847.158	15093
847.294	15020
847.429	15020
847.565	14887
847.701	15332
847.837	14731
847.972	14727
848.108	14838
848.244	14834
848.379	14720
848.515	14560
848.65	14575
848.786	14606
848.921	14632
849.057	14712
849.192	14746
849.328	14594
849.463	14625
849.598	14617
849.734	14465
849.869	14431
850.004	14332
850.14	14389
850.275	14343
850.41	14370
850.545	14400
850.68	14362
850.815	14427
850.95	14351
851.085	14568
851.22	14434
851.355	14469
851.49	14336
851.625	14275
851.76	14374
851.895	14263
852.03	14233
852.165	14370
852.299	14313
852.434	14541
852.569	14347
852.703	14503
852.838	14537
852.973	14480
853.107	14575
853.242	14377
853.376	14298
853.511	14164
853.645	14214
853.78	14328
853.914	14339
854.048	14267
854.183	14199
854.317	14290
854.451	14488
854.585	14229
854.72	14229
854.854	14427
854.988	14183
855.122	14206
855.256	14103
855.39	14225
855.524	14305
855.658	14381
855.792	14343
855.926	14313
856.06	14286
856.194	14339
856.327	14233
856.461	14259
856.595	14298
856.729	14282
856.862	14362
856.996	14309
857.13	14404
857.263	14480
857.397	14480
857.53	14324
857.664	14221
857.797	14339
857.931	14339
858.064	14362
858.197	14419
858.331	14256
858.464	14206
858.597	14286
858.731	14240
858.864	14278
858.997	14202
859.13	14206
859.263	14317
859.396	14324
859.529	14301
859.662	14267
859.795	14244
859.928	14332
860.061	14301
860.194	14526
860.327	14385
860.46	14347
860.592	14404
860.725	14396
860.858	14339
860.99	14278
861.123	14290
861.256	14259
861.388	14256
861.521	14937
861.653	14115
861.786	14096
861.918	14214
862.05	14202
862.183	14259
862.315	14123
862.447	14278
862.58	14214
862.712	13993
862.844	13951
862.976	14191
863.108	14183
863.24	14457
863.372	14062
863.504	14138
863.636	14016
863.768	14054
863.9	14138
864.032	13986
864.164	14065
864.296	14176
864.428	14069
864.559	14164
864.691	14157
864.823	14199
864.954	14084
865.086	14088
865.217	14073
865.349	14020
865.48	14164
865.612	14100
865.743	14218
865.875	14069
866.006	14039
866.137	14065
866.269	14054
866.4	14024
866.531	14001
866.662	13986
866.793	14050
866.924	14069
867.055	13982
867.186	14043
867.317	14016
867.448	13963
867.579	13993
867.71	13833
867.841	13967
867.972	14119
868.103	13997
868.233	14081
868.364	14126
868.495	14138
868.625	14286
868.756	14336
868.886	14172
869.017	14278
869.147	14377
869.278	14404
869.408	14347
869.539	14324
869.669	14343
869.799	14301
869.929	14434
870.06	14442
870.19	14602
870.32	14564
870.45	14613
870.58	14568
870.71	14830
870.84	14739
870.97	14659
871.1	14796
871.23	14796
871.36	14857
871.489	14796
871.619	14838
871.749	14857
871.879	15001
872.008	15081
872.138	14929
872.267	14921
872.397	14724
872.526	14720
872.656	14701
872.785	14659
872.915	14861
873.044	15051
873.173	14910
873.303	15051
873.432	15017
873.561	14986
873.69	15036
873.819	15032
873.948	15089
874.077	14872
874.206	14861
874.335	14910
874.464	15161
874.593	15264
874.722	15294
874.851	15283
874.979	15211
875.108	15363
875.237	15226
875.365	15233
875.494	15195
875.623	15317
875.751	15283
875.88	15249
876.008	15447
876.136	15504
876.265	15663
876.393	15762
876.521	15800
876.65	15747
876.778	15774
876.906	15663
877.034	15675
877.162	15686
877.29	15584
877.418	15675
877.546	15667
877.674	15705
877.802	15690
877.93	15709
878.058	15679
878.185	15591
878.313	15724
878.441	15652
878.568	15542
878.696	15561
878.824	15660
878.951	15789
879.079	15854
879.206	16002
879.333	15956
879.461	15663
879.588	15846
879.715	15926
879.842	15953
879.97	15736
880.097	15595
880.224	15488
880.351	15542
880.478	15500
880.605	15469
880.732	15462
880.859	15667
880.986	15504
881.112	15561
881.239	15408
881.366	15428
881.493	15226
881.619	15169
881.746	15176
881.872	15188
881.999	15131
882.125	15058
882.252	15211
882.378	15176
882.505	15313
882.631	15161
882.757	15028
882.883	15024
883.01	15058
883.136	14990
883.262	14868
883.388	14773
883.514	14986
883.64	15074
883.766	14967
883.892	14819
884.018	14845
884.143	14990
884.269	15047
884.395	14819
884.52	14697
884.646	14712
884.772	14598
884.897	14571
885.023	14682
885.148	14769
885.274	14891
885.399	14765
885.524	14667
885.65	14667
885.775	14689
885.9	14724
886.025	14902
886.15	14815
886.275	14667
886.4	14602
886.525	14655
886.65	14590
886.775	14590
886.9	14765
887.025	14914
887.149	14670
887.274	14583
887.399	14514
887.523	14533
887.648	14404
887.773	14385
887.897	14545
888.021	14617
888.146	14587
888.27	14632
888.395	14541
888.519	14613
888.643	14621
888.767	14552
888.891	14511
889.015	14370
889.139	14461
889.263	14507
889.387	14514
889.511	14636
889.635	14518
889.759	14309
889.883	14366
890.006	14431
890.13	14476
890.254	14320
890.377	14347
890.501	14191
890.624	14130
890.748	14229
890.871	14244
890.995	14001
891.118	14092
891.241	14100
891.364	14065
891.488	14221
891.611	14191
891.734	14157
891.857	14126
891.98	14065
892.103	14119
892.226	14180
892.349	14065
892.471	13951
892.594	14058
892.717	14119
892.839	14130
892.962	14130
893.085	14202
893.207	14088
893.33	13978
893.452	13986
893.575	14180
893.697	14050
893.819	14244
893.941	14374
894.064	14172
894.186	14107
894.308	14107
894.43	14233
894.552	14339
894.674	14202
894.796	14107
894.918	14161
895.04	14107
895.161	14123
895.283	14233
895.405	14107
895.526	14123
895.648	14115
895.769	14271
895.891	14263
896.012	14332
896.134	14290
896.255	14267
896.376	14263
896.498	14271
896.619	14389
896.74	14233
896.861	14393
896.982	14545
897.103	14819
897.224	14636
897.345	14461
897.466	14404
897.587	14598
897.708	14629
897.828	14587
897.949	14499
898.07	14351
898.19	14549
898.311	14556
898.431	14571
898.552	14560
898.672	14686
898.792	14674
898.913	14651
899.033	14537
899.153	14511
899.273	14476
899.393	14499
899.513	14434
899.633	14488
899.753	14419
899.873	14423
899.993	14518
900.113	14419
900.232	14530
900.352	14454
900.472	14377
900.591	14358
900.711	14309
900.83	14271
900.95	14404
901.069	14408
901.189	14278
901.308	14073
901.427	14073
901.546	14054
901.665	14084
901.784	13974
901.904	13917
902.023	13830
902.141	13662
902.26	13632
902.379	13655
902.498	13594
902.617	13510
902.735	13742
902.854	13567
902.973	13518
903.091	13289
903.21	13373
903.328	13316
903.446	13213
903.565	13107
903.683	13168
903.801	13065
903.919	13183
904.038	13145
904.156	12989
904.274	12981
904.392	12935
904.51	13050
904.627	12939
904.745	13031
904.863	12973
904.981	12734
905.098	12616
905.216	12730
905.334	12608
905.451	12642
905.569	12654
905.686	12730
905.803	12669
905.921	12452
906.038	12566
906.155	12490
906.272	12365
906.389	12342
906.506	12258
906.623	12232
906.74	12304
906.857	12057
906.974	12152
907.091	12289
907.208	12372
907.324	12281
907.441	12144
907.557	12003
907.674	12057
907.79	11885
907.907	11946
908.023	12022
908.139	12057
908.256	11965
908.372	11863
908.488	11855
908.604	11821
908.72	11771
908.836	11676
908.952	11710
909.068	11748
909.184	11821
909.3	11790
909.415	11783
909.531	11817
909.647	11604
909.762	11554
909.878	11512
909.993	11577
910.108	11543
910.224	11455
910.339	11516
910.454	11433
910.57	11326
910.685	11330
910.8	11528
910.915	11497
911.03	11292
911.145	11296
911.259	11189
911.374	11254
911.489	11132
911.604	11136
911.718	11006
911.833	10938
911.947	10816
912.062	10755
912.176	10946
912.291	10987
912.405	10949
912.519	11181
912.633	11140
912.748	11086
912.862	10927
912.976	10847
913.09	10740
913.204	10843
913.318	10816
913.431	10995
913.545	10919
913.659	10923
913.772	10858
913.886	10694
914	10710
914.113	10820
914.226	10877
914.34	10694
914.453	10592
914.566	10786
914.68	10618
914.793	10736
914.906	10527
915.019	10455
915.132	10382
915.245	10443
915.358	10455
915.47	10519
915.583	10519
915.696	10584
915.809	10588
915.921	10630
916.034	10481
916.146	10428
916.259	10470
916.371	10561
916.483	10558
916.595	10409
916.708	10440
916.82	10344
916.932	10474
917.044	10386
917.156	10405
917.268	10276
917.38	10356
917.491	10253
917.603	10276
917.715	10329
917.826	10417
917.938	10265
918.049	10246
918.161	10386
918.272	10519
918.384	10447
918.495	10352
918.606	10154
918.717	10185
918.828	10223
918.939	10227
919.05	10097
919.161	10124
919.272	9945
919.383	10055
919.494	10207
919.604	10405
919.715	10246
919.826	10207
919.936	10169
920.047	10280
920.157	10306
920.267	10413
920.378	10287
920.488	10242
920.598	10474
920.708	10554
920.818	10459
920.928	10409
921.038	10603
921.148	10519
921.258	10265
921.368	10169
921.477	10109
921.587	10086
921.697	9953
921.806	10135
921.916	10006
922.025	9747
922.134	9850
922.244	9717
922.353	9797
922.462	9701
922.571	9644
922.68	9488
922.789	9462
922.898	9500
923.007	9435
923.116	9519
923.224	9473
923.333	9504
923.442	9367
923.55	9412
923.659	9439
923.767	9408
923.876	9412
923.984	9420
924.092	9283
924.201	9416
924.309	9313
924.417	9348
924.525	9291
924.633	9272
924.741	10086
924.849	9161
924.956	9321
925.064	9127
925.172	9043
925.279	9093
925.387	9180
925.494	9157
925.602	9241
925.709	9233
925.816	9097
925.924	9108
926.031	9294
926.138	9176
926.245	9146
926.352	9127
926.459	9237
926.566	9241
926.673	9089
926.779	9085
926.886	8967
926.993	8876
927.099	8819
927.206	8845
927.312	8895
927.419	8914
927.525	8933
927.631	8876
927.737	8815
927.843	8731
927.95	8598
928.056	8670
928.162	8754
928.267	8830
928.373	9439
928.479	8864
928.585	8632
928.69	8746
928.796	8823
928.901	8693
929.007	8560
929.112	8670
929.218	8648
929.323	8667
929.428	8537
929.533	8823
929.638	8583
929.743	8598
929.848	8629
929.953	8560
930.058	8469
930.163	8370
930.267	8282
930.372	8590
930.477	8389
930.581	8587
930.685	8366
930.79	8275
930.894	8305
930.998	8267
931.103	8454
931.207	8138
931.311	8081
931.415	7955
931.519	7811
931.623	7792
