Data from test_V78500241_2055.txt Node
Date: Fri Mar 25 14:48:01 CST 2022
User: usil
Spectrometer: V785-0024
Trigger mode: 0
Integration Time (sec): 4.000000E-1
Scans to average: 1
Nonlinearity correction enabled: false
Boxcar width: 0
Storing dark spectrum: false
XAxis mode: Wavelengths
Number of Pixels in Spectrum: 1024
>>>>>Begin Spectral Data<<<<<
801.071	22078
801.214	21945
801.356	21713
801.499	21622
801.641	21564
801.783	21542
801.926	21511
802.068	21401
802.211	21348
802.353	21252
802.496	21264
802.638	20937
802.78	20937
802.923	20853
803.065	20845
803.208	20796
803.35	20750
803.492	20929
803.635	20971
803.777	20758
803.919	20902
804.061	21203
804.204	20872
804.346	20765
804.488	20663
804.63	20815
804.773	20724
804.915	20739
805.057	20853
805.199	20804
805.341	20887
805.483	20921
805.626	20880
805.768	20762
805.91	20762
806.052	20773
806.194	20689
806.336	20830
806.478	20705
806.62	20727
806.762	20876
806.904	21009
807.046	21279
807.188	21062
807.33	21089
807.472	21047
807.614	20918
807.756	20948
807.898	20849
808.04	20686
808.182	20823
808.324	20937
808.465	20933
808.607	20929
808.749	21074
808.891	21192
809.033	21363
809.174	21180
809.316	21112
809.458	21123
809.6	21085
809.741	21245
809.883	21169
810.025	21378
810.166	21313
810.308	21279
810.45	21279
810.591	21100
810.733	21036
810.875	20921
811.016	20891
811.158	20674
811.299	20899
811.441	21017
811.582	21036
811.724	20857
811.865	20941
812.007	20830
812.148	20899
812.29	20967
812.431	21150
812.573	21260
812.714	21355
812.855	21504
812.997	21568
813.138	21515
813.279	21561
813.421	21348
813.562	21294
813.703	21085
813.845	21077
813.986	20727
814.127	20381
814.268	20503
814.41	20408
814.551	20343
814.692	20492
814.833	20320
814.974	20396
815.115	20442
815.256	20176
815.397	20252
815.539	20225
815.68	20134
815.821	20081
815.962	20107
816.103	20195
816.244	20062
816.385	19947
816.526	19902
816.666	19731
816.807	19499
816.948	19704
817.089	19696
817.23	19632
817.371	19624
817.512	19597
817.653	19449
817.793	19415
817.934	19544
818.075	19647
818.216	19537
818.356	19483
818.497	19434
818.638	19255
818.778	19171
818.919	19221
819.06	19293
819.2	19422
819.341	19403
819.481	19483
819.622	19666
819.762	19811
819.903	19742
820.043	19552
820.184	19594
820.324	19483
820.465	19700
820.605	19537
820.746	19514
820.886	19438
821.026	19453
821.167	19487
821.307	19575
821.447	19499
821.588	19438
821.728	19206
821.868	19194
822.008	18962
822.149	19031
822.289	18913
822.429	18623
822.569	18608
822.709	18604
822.849	18502
822.99	18464
823.13	18555
823.27	18494
823.41	18232
823.55	18197
823.69	18190
823.83	18254
823.97	18174
824.11	17996
824.25	18003
824.389	17939
824.529	18163
824.669	18114
824.809	18076
824.949	18057
825.089	18114
825.228	18045
825.368	17870
825.508	17882
825.648	17847
825.787	17798
825.927	17889
826.067	17851
826.206	17794
826.346	18026
826.485	17771
826.625	17824
826.765	17832
826.904	17813
827.044	17535
827.183	17592
827.323	17486
827.462	17543
827.601	17547
827.741	17505
827.88	17619
828.02	17391
828.159	17570
828.298	17520
828.437	17516
828.577	17516
828.716	17532
828.855	17528
828.994	17197
829.134	17273
829.273	17299
829.412	17261
829.551	17242
829.69	17193
829.829	17231
829.968	17280
830.107	17360
830.246	17318
830.385	17223
830.524	17178
830.663	17064
830.802	17045
830.941	16869
831.08	16934
831.219	16896
831.357	17006
831.496	17003
831.635	16873
831.774	16744
831.913	16759
832.051	16634
832.19	16664
832.329	16630
832.467	16596
832.606	16546
832.744	16516
832.883	16516
833.022	16493
833.16	16577
833.299	16675
833.437	16497
833.576	16683
833.714	16561
833.852	16607
833.991	16713
834.129	16694
834.267	16706
834.406	16626
834.544	16710
834.682	16611
834.821	16649
834.959	16820
835.097	16561
835.235	16744
835.373	16588
835.511	16668
835.65	16584
835.788	16451
835.926	16466
836.064	16394
836.202	16352
836.34	16531
836.478	16637
836.615	16493
836.753	16558
836.891	16611
837.029	16580
837.167	16440
837.305	16527
837.443	16398
837.58	16352
837.718	16421
837.856	16303
837.993	16402
838.131	16390
838.269	16394
838.406	16291
838.544	16310
838.681	16090
838.819	16139
838.956	15960
839.094	15873
839.231	16021
839.369	16093
839.506	16303
839.643	16147
839.781	16067
839.918	15850
840.055	15918
840.193	15873
840.33	15945
840.467	16025
840.604	16048
840.742	16135
840.879	15865
841.016	15831
841.153	15873
841.29	16086
841.427	15968
841.564	16116
841.701	15964
841.838	15903
841.975	15960
842.112	15918
842.249	15770
842.385	15709
842.522	15926
842.659	15789
842.796	15606
842.933	15812
843.069	15694
843.206	15755
843.343	15800
843.479	15698
843.616	15709
843.752	15473
843.889	15599
844.025	15633
844.162	15473
844.298	15663
844.435	15534
844.571	15492
844.708	15538
844.844	15720
844.98	15682
845.117	15587
845.253	15507
845.389	15321
845.525	15355
845.661	15420
845.798	15291
845.934	15431
846.07	15355
846.206	15355
846.342	15405
846.478	15363
846.614	15150
846.75	14982
846.886	15135
847.022	15233
847.158	15039
847.294	15127
847.429	15135
847.565	15017
847.701	15283
847.837	14804
847.972	14792
848.108	14975
848.244	14910
848.379	14785
848.515	14564
848.65	14788
848.786	14701
848.921	14712
849.057	14804
849.192	14796
849.328	14716
849.463	14670
849.598	14686
849.734	14621
849.869	14670
850.004	14400
850.14	14503
850.275	14446
850.41	14488
850.545	14438
850.68	14419
850.815	14457
850.95	14446
851.085	14598
851.22	14640
851.355	14541
851.49	14278
851.625	14438
851.76	14396
851.895	14263
852.03	14336
852.165	14396
852.299	14393
852.434	14583
852.569	14514
852.703	14404
852.838	14446
852.973	14655
853.107	14598
853.242	14385
853.376	14282
853.511	14263
853.645	14267
853.78	14457
853.914	14309
854.048	14256
854.183	14271
854.317	14294
854.451	14396
854.585	14301
854.72	14252
854.854	14389
854.988	14271
855.122	14324
855.256	14092
855.39	14339
855.524	14389
855.658	14317
855.792	14412
855.926	14301
856.06	14461
856.194	14336
856.327	14347
856.461	14233
856.595	14263
856.729	14195
856.862	14381
856.996	14366
857.13	14469
857.263	14412
857.397	14450
857.53	14404
857.664	14381
857.797	14358
857.931	14537
858.064	14396
858.197	14434
858.331	14332
858.464	14351
858.597	14237
858.731	14256
858.864	14332
858.997	14347
859.13	14317
859.263	14263
859.396	14454
859.529	14244
859.662	14351
859.795	14286
859.928	14320
860.061	14530
860.194	14438
860.327	14374
860.46	14332
860.592	14385
860.725	14446
860.858	14355
860.99	14454
861.123	14290
861.256	14237
861.388	14298
861.521	15138
861.653	14218
861.786	14149
861.918	14233
862.05	14278
862.183	14263
862.315	14374
862.447	14305
862.58	14210
862.712	14050
862.844	14134
862.976	14115
863.108	14134
863.24	14465
863.372	14046
863.504	14126
863.636	14077
863.768	14218
863.9	14027
864.032	14069
864.164	14058
864.296	14107
864.428	14256
864.559	14191
864.691	14202
864.823	14206
864.954	14172
865.086	14145
865.217	14069
865.349	14069
865.48	14005
865.612	14077
865.743	14313
865.875	14065
866.006	14062
866.137	14119
866.269	14130
866.4	14043
866.531	14043
866.662	13970
866.793	14046
866.924	14081
867.055	14088
867.186	14134
867.317	14103
867.448	13883
867.579	13921
867.71	13928
867.841	14062
867.972	14043
868.103	14088
868.233	14134
868.364	14107
868.495	14164
868.625	14267
868.756	14415
868.886	14301
869.017	14351
869.147	14408
869.278	14423
869.408	14313
869.539	14336
869.669	14385
869.799	14393
869.929	14450
870.06	14457
870.19	14613
870.32	14488
870.45	14674
870.58	14731
870.71	14861
870.84	14830
870.97	14632
871.1	14689
871.23	14834
871.36	14952
871.489	14811
871.619	14838
871.749	14925
871.879	14921
872.008	15020
872.138	14929
872.267	14830
872.397	14788
872.526	14785
872.656	14815
872.785	14826
872.915	14971
873.044	15017
873.173	14982
873.303	14921
873.432	15127
873.561	14979
873.69	14979
873.819	15028
873.948	15104
874.077	14990
874.206	14921
874.335	15013
874.464	15131
874.593	15291
874.722	15287
874.851	15332
874.979	15332
875.108	15287
875.237	15230
875.365	15203
875.494	15252
875.623	15393
875.751	15268
875.88	15325
876.008	15496
876.136	15504
876.265	15732
876.393	15816
876.521	15709
876.65	15762
876.778	15747
876.906	15698
877.034	15759
877.162	15679
877.29	15625
877.418	15717
877.546	15694
877.674	15720
877.802	15732
877.93	15728
878.058	15728
878.185	15564
878.313	15770
878.441	15724
878.568	15572
878.696	15660
878.824	15831
878.951	15800
879.079	15926
879.206	15918
879.333	15941
879.461	15713
879.588	15850
879.715	15888
879.842	15979
879.97	15755
880.097	15618
880.224	15538
880.351	15622
880.478	15580
880.605	15576
880.732	15515
880.859	15800
880.986	15568
881.112	15625
881.239	15389
881.366	15412
881.493	15283
881.619	15302
881.746	15241
881.872	15252
881.999	15184
882.125	15214
882.252	15340
882.378	15275
882.505	15367
882.631	15230
882.757	15032
882.883	14963
883.01	15058
883.136	14975
883.262	14902
883.388	14979
883.514	14998
883.64	15097
883.766	14990
883.892	14857
884.018	14815
884.143	15028
884.269	15051
884.395	14868
884.52	14686
884.646	14826
884.772	14644
884.897	14708
885.023	14788
885.148	14914
885.274	14937
885.399	14895
885.524	14727
885.65	14739
885.775	14765
885.9	14712
886.025	14800
886.15	14830
886.275	14663
886.4	14682
886.525	14739
886.65	14659
886.775	14724
886.9	14788
887.025	14994
887.149	14674
887.274	14549
887.399	14476
887.523	14499
887.648	14454
887.773	14434
887.897	14720
888.021	14716
888.146	14560
888.27	14708
888.395	14674
888.519	14590
888.643	14575
888.767	14621
888.891	14575
889.015	14495
889.139	14480
889.263	14431
889.387	14495
889.511	14568
889.635	14514
889.759	14381
889.883	14400
890.006	14522
890.13	14545
890.254	14381
890.377	14419
890.501	14206
890.624	14191
890.748	14240
890.871	14180
890.995	14138
891.118	14126
891.241	14187
891.364	14088
891.488	14298
891.611	14214
891.734	14123
891.857	14145
891.98	14107
892.103	14138
892.226	14103
892.349	14115
892.471	14046
892.594	14054
892.717	14088
892.839	14058
892.962	14172
893.085	14240
893.207	14123
893.33	13974
893.452	14138
893.575	14214
893.697	14168
893.819	14343
893.941	14263
894.064	14305
894.186	14043
894.308	14081
894.43	14164
894.552	14385
894.674	14282
894.796	14088
894.918	14180
895.04	14218
895.161	14259
895.283	14218
895.405	14256
895.526	14225
895.648	14221
895.769	14355
895.891	14412
896.012	14339
896.134	14377
896.255	14229
896.376	14278
896.498	14313
896.619	14370
896.74	14290
896.861	14225
896.982	14594
897.103	14682
897.224	14743
897.345	14549
897.466	14476
897.587	14602
897.708	14724
897.828	14655
897.949	14575
898.07	14434
898.19	14511
898.311	14648
898.431	14507
898.552	14678
898.672	14705
898.792	14777
898.913	14701
899.033	14499
899.153	14571
899.273	14381
899.393	14492
899.513	14575
899.633	14530
899.753	14568
899.873	14587
899.993	14621
900.113	14457
900.232	14507
900.352	14419
900.472	14450
900.591	14301
900.711	14393
900.83	14336
900.95	14423
901.069	14442
901.189	14290
901.308	14024
901.427	13982
901.546	14081
901.665	14035
901.784	14065
901.904	13940
902.023	13868
902.141	13689
902.26	13571
902.379	13658
902.498	13578
902.617	13563
902.735	13677
902.854	13681
902.973	13533
903.091	13335
903.21	13339
903.328	13346
903.446	13324
903.565	13289
903.683	13209
903.801	13072
903.919	13076
904.038	13084
904.156	12989
904.274	13110
904.392	13000
904.51	12989
904.627	12954
904.745	13012
904.863	13072
904.981	12837
905.098	12696
905.216	12620
905.334	12711
905.451	12654
905.569	12658
905.686	12681
905.803	12692
905.921	12574
906.038	12616
906.155	12555
906.272	12414
906.389	12399
906.506	12296
906.623	12308
906.74	12258
906.857	12114
906.974	12152
907.091	12308
907.208	12429
907.324	12281
907.441	12205
907.557	12079
907.674	12038
907.79	12003
907.907	12022
908.023	12030
908.139	12011
908.256	11958
908.372	11935
908.488	11996
908.604	11878
908.72	11737
908.836	11779
908.952	11729
909.068	11760
909.184	11893
909.3	11882
909.415	11817
909.531	11798
909.647	11600
909.762	11535
909.878	11509
909.993	11592
910.108	11539
910.224	11528
910.339	11634
910.454	11516
910.57	11436
910.685	11307
910.8	11657
910.915	11554
911.03	11444
911.145	11242
911.259	11204
911.374	11242
911.489	11227
911.604	11185
911.718	10995
911.833	11067
911.947	10904
912.062	10869
912.176	10968
912.291	11029
912.405	10980
912.519	11292
912.633	11162
912.748	11098
912.862	11052
912.976	10828
913.09	10763
913.204	10831
913.318	10873
913.431	11056
913.545	10923
913.659	10987
913.772	10904
913.886	10820
914	10729
914.113	10866
914.226	10927
914.34	10820
914.453	10767
914.566	10858
914.68	10710
914.793	10706
914.906	10531
915.019	10527
915.132	10390
915.245	10485
915.358	10535
915.47	10527
915.583	10588
915.696	10577
915.809	10645
915.921	10653
916.034	10466
916.146	10512
916.259	10459
916.371	10489
916.483	10462
916.595	10424
916.708	10402
916.82	10500
916.932	10409
917.044	10413
917.156	10352
917.268	10287
917.38	10348
917.491	10379
917.603	10310
917.715	10356
917.826	10375
917.938	10348
918.049	10276
918.161	10341
918.272	10409
918.384	10466
918.495	10394
918.606	10185
918.717	10128
918.828	10238
918.939	10185
919.05	10120
919.161	10120
919.272	10013
919.383	10116
919.494	10196
919.604	10443
919.715	10261
919.826	10128
919.936	10230
920.047	10337
920.157	10284
920.267	10421
920.378	10265
920.488	10120
920.598	10500
920.708	10561
920.818	10432
920.928	10421
921.038	10599
921.148	10588
921.258	10227
921.368	10185
921.477	10059
921.587	10105
921.697	9987
921.806	10082
921.916	10044
922.025	9789
922.134	9778
922.244	9724
922.353	9838
922.462	9686
922.571	9641
922.68	9511
922.789	9439
922.898	9564
923.007	9469
923.116	9568
923.224	9504
923.333	9408
923.442	9325
923.55	9313
923.659	9382
923.767	9424
923.876	9344
923.984	9374
924.092	9275
924.201	9378
924.309	9363
924.417	9336
924.525	9256
924.633	9268
924.741	10242
924.849	9085
924.956	9287
925.064	9207
925.172	9154
925.279	9100
925.387	9165
925.494	9100
925.602	9291
925.709	9260
925.816	9024
925.924	9192
926.031	9184
926.138	9176
926.245	9199
926.352	9142
926.459	9222
926.566	9230
926.673	9100
926.779	9009
926.886	9058
926.993	8823
927.099	8902
927.206	8804
927.312	8781
927.419	8895
927.525	8868
927.631	8986
927.737	8758
927.843	8746
927.95	8663
928.056	8773
928.162	8712
928.267	8743
928.373	9428
928.479	8864
928.585	8552
928.69	8788
928.796	8864
928.901	8708
929.007	8511
929.112	8598
929.218	8625
929.323	8575
929.428	8568
929.533	8697
929.638	8495
929.743	8549
929.848	8629
929.953	8545
930.058	8495
930.163	8305
930.267	8313
930.372	8457
930.477	8290
930.581	8552
930.685	8381
930.79	8301
930.894	8309
930.998	8229
931.103	8434
931.207	8046
931.311	8024
931.415	7932
931.519	7841
931.623	7841
