Data from test_V78500241_3180.txt Node
Date: Fri Mar 25 14:55:51 CST 2022
User: usil
Spectrometer: V785-0024
Trigger mode: 0
Integration Time (sec): 4.000000E-1
Scans to average: 1
Nonlinearity correction enabled: false
Boxcar width: 0
Storing dark spectrum: false
XAxis mode: Wavelengths
Number of Pixels in Spectrum: 1024
>>>>>Begin Spectral Data<<<<<
801.071	21934
801.214	22010
801.356	21625
801.499	21477
801.641	21454
801.783	21344
801.926	21359
802.068	21325
802.211	21211
802.353	21211
802.496	20990
802.638	20952
802.78	20796
802.923	20773
803.065	20613
803.208	20598
803.35	20781
803.492	20800
803.635	20823
803.777	20625
803.919	20777
804.061	21096
804.204	20689
804.346	20514
804.488	20655
804.63	20765
804.773	20450
804.915	20648
805.057	20701
805.199	20708
805.341	20636
805.483	20746
805.626	20629
805.768	20469
805.91	20571
806.052	20598
806.194	20514
806.336	20762
806.478	20678
806.62	20461
806.762	20659
806.904	20792
807.046	21024
807.188	20944
807.33	21055
807.472	21024
807.614	20792
807.756	20971
807.898	20769
808.04	20674
808.182	20568
808.324	20811
808.465	20720
808.607	20929
808.749	21039
808.891	21085
809.033	21176
809.174	21184
809.316	20819
809.458	21001
809.6	20990
809.741	21070
809.883	21100
810.025	21096
810.166	21150
810.308	21207
810.45	21116
810.591	21142
810.733	20830
810.875	20720
811.016	20636
811.158	20606
811.299	20842
811.441	21017
811.582	20876
811.724	20735
811.865	20773
812.007	20754
812.148	20701
812.29	20754
812.431	21005
812.573	21203
812.714	21116
812.855	21252
812.997	21374
813.138	21485
813.279	21317
813.421	21237
813.562	21169
813.703	21028
813.845	20956
813.986	20720
814.127	20461
814.268	20347
814.41	20313
814.551	20320
814.692	20290
814.833	20267
814.974	20084
815.115	20218
815.256	20206
815.397	20202
815.539	20206
815.68	20134
815.821	19997
815.962	20065
816.103	19917
816.244	19902
816.385	19868
816.526	19708
816.666	19582
816.807	19578
816.948	19525
817.089	19468
817.23	19537
817.371	19388
817.512	19476
817.653	19373
817.793	19312
817.934	19430
818.075	19411
818.216	19415
818.356	19301
818.497	19293
818.638	19053
818.778	19206
818.919	19133
819.06	19095
819.2	19236
819.341	19293
819.481	19198
819.622	19487
819.762	19693
819.903	19548
820.043	19430
820.184	19457
820.324	19392
820.465	19529
820.605	19441
820.746	19339
820.886	19324
821.026	19460
821.167	19381
821.307	19487
821.447	19381
821.588	19282
821.728	19072
821.868	19129
822.008	18798
822.149	18844
822.289	18760
822.429	18608
822.569	18532
822.709	18536
822.849	18319
822.99	18308
823.13	18350
823.27	18273
823.41	18186
823.55	18076
823.69	18159
823.83	18159
823.97	17958
824.11	17946
824.25	17870
824.389	17878
824.529	18015
824.669	18011
824.809	17961
824.949	17999
825.089	17927
825.228	17885
825.368	17764
825.508	17710
825.648	17741
825.787	17634
825.927	17684
826.067	17611
826.206	17604
826.346	17646
826.485	17551
826.625	17604
826.765	17710
826.904	17630
827.044	17520
827.183	17406
827.323	17372
827.462	17459
827.601	17326
827.741	17376
827.88	17299
828.02	17303
828.159	17220
828.298	17318
828.437	17334
828.577	17326
828.716	17440
828.855	17242
828.994	17242
829.134	17098
829.273	17174
829.412	17060
829.551	17041
829.69	17079
829.829	17037
829.968	17231
830.107	17151
830.246	17140
830.385	17056
830.524	17052
830.663	16930
830.802	16801
830.941	16778
831.08	16713
831.219	16778
831.357	16809
831.496	16995
831.635	16748
831.774	16653
831.913	16615
832.051	16508
832.19	16447
832.329	16584
832.467	16504
832.606	16421
832.744	16375
832.883	16394
833.022	16341
833.16	16565
833.299	16504
833.437	16455
833.576	16462
833.714	16485
833.852	16550
833.991	16462
834.129	16569
834.267	16489
834.406	16519
834.544	16489
834.682	16565
834.821	16550
834.959	16622
835.097	16508
835.235	16599
835.373	16538
835.511	16569
835.65	16417
835.788	16432
835.926	16268
836.064	16147
836.202	16226
836.34	16451
836.478	16485
836.615	16325
836.753	16421
836.891	16546
837.029	16466
837.167	16287
837.305	16344
837.443	16261
837.58	16337
837.718	16280
837.856	16310
837.993	16261
838.131	16272
838.269	16188
838.406	16238
838.544	16109
838.681	15926
838.819	15880
838.956	15827
839.094	15846
839.231	15964
839.369	16040
839.506	16242
839.643	16188
839.781	15865
839.918	15819
840.055	15850
840.193	15800
840.33	15778
840.467	15880
840.604	15884
840.742	16143
840.879	15698
841.016	15770
841.153	15660
841.29	15907
841.427	15861
841.564	15892
841.701	15812
841.838	15785
841.975	15770
842.112	15679
842.249	15614
842.385	15625
842.522	15781
842.659	15660
842.796	15606
842.933	15561
843.069	15564
843.206	15488
843.343	15743
843.479	15709
843.616	15690
843.752	15428
843.889	15473
844.025	15481
844.162	15393
844.298	15523
844.435	15351
844.571	15469
844.708	15473
844.844	15504
844.98	15557
845.117	15477
845.253	15310
845.389	15256
845.525	15313
845.661	15302
845.798	15226
845.934	15260
846.07	15104
846.206	15192
846.342	15416
846.478	15260
846.614	14971
846.75	14952
846.886	14963
847.022	15055
847.158	14990
847.294	14986
847.429	15013
847.565	14883
847.701	15283
847.837	14689
847.972	14667
848.108	14777
848.244	14750
848.379	14648
848.515	14522
848.65	14606
848.786	14560
848.921	14541
849.057	14629
849.192	14659
849.328	14568
849.463	14602
849.598	14511
849.734	14492
849.869	14377
850.004	14400
850.14	14374
850.275	14313
850.41	14202
850.545	14271
850.68	14225
850.815	14377
850.95	14339
851.085	14461
851.22	14400
851.355	14381
851.49	14355
851.625	14362
851.76	14343
851.895	14191
852.03	14187
852.165	14324
852.299	14404
852.434	14339
852.569	14278
852.703	14317
852.838	14374
852.973	14480
853.107	14526
853.242	14221
853.376	14168
853.511	13982
853.645	14157
853.78	14324
853.914	14225
854.048	14145
854.183	14081
854.317	14218
854.451	14339
854.585	14263
854.72	14115
854.854	14195
854.988	14161
855.122	14244
855.256	13955
855.39	14199
855.524	14324
855.658	14275
855.792	14199
855.926	14282
856.06	14259
856.194	14263
856.327	14229
856.461	14172
856.595	14142
856.729	14176
856.862	14275
856.996	14275
857.13	14290
857.263	14396
857.397	14374
857.53	14267
857.664	14290
857.797	14332
857.931	14240
858.064	14309
858.197	14328
858.331	14187
858.464	14187
858.597	14145
858.731	14221
858.864	14119
858.997	14244
859.13	14168
859.263	14282
859.396	14263
859.529	14103
859.662	14142
859.795	14168
859.928	14187
860.061	14309
860.194	14370
860.327	14240
860.46	14130
860.592	14351
860.725	14309
860.858	14278
860.99	14202
861.123	14058
861.256	14084
861.388	14187
861.521	15055
861.653	14043
861.786	13997
861.918	14054
862.05	14199
862.183	14149
862.315	14157
862.447	14214
862.58	14092
862.712	13932
862.844	13928
862.976	13989
863.108	14062
863.24	14332
863.372	13944
863.504	13940
863.636	13913
863.768	13936
863.9	14016
864.032	13898
864.164	13974
864.296	13932
864.428	14065
864.559	14069
864.691	13997
864.823	13986
864.954	13947
865.086	13959
865.217	13932
865.349	13963
865.48	13894
865.612	13978
865.743	14073
865.875	14008
866.006	13875
866.137	13967
866.269	13989
866.4	13982
866.531	13883
866.662	13906
866.793	13970
866.924	14005
867.055	13913
867.186	14031
867.317	13989
867.448	13811
867.579	13925
867.71	13814
867.841	13841
867.972	13978
868.103	13913
868.233	13936
868.364	14115
868.495	14016
868.625	14218
868.756	14187
868.886	14096
869.017	14123
869.147	14267
869.278	14301
869.408	14309
869.539	14183
869.669	14374
869.799	14278
869.929	14374
870.06	14305
870.19	14545
870.32	14583
870.45	14594
870.58	14629
870.71	14617
870.84	14823
870.97	14590
871.1	14579
871.23	14861
871.36	14788
871.489	14773
871.619	14758
871.749	14861
871.879	14967
872.008	14948
872.138	14861
872.267	14720
872.397	14648
872.526	14746
872.656	14674
872.785	14670
872.915	14750
873.044	14899
873.173	14800
873.303	14925
873.432	14880
873.561	14895
873.69	14944
873.819	14918
873.948	14960
874.077	14880
874.206	14804
874.335	14948
874.464	14948
874.593	15146
874.722	15058
874.851	15173
874.979	15203
875.108	15287
875.237	15020
875.365	15001
875.494	15131
875.623	15226
875.751	15188
875.88	15272
876.008	15317
876.136	15313
876.265	15530
876.393	15686
876.521	15652
876.65	15686
876.778	15584
876.906	15454
877.034	15515
877.162	15633
877.29	15504
877.418	15568
877.546	15720
877.674	15603
877.802	15557
877.93	15603
878.058	15507
878.185	15538
878.313	15682
878.441	15686
878.568	15386
878.696	15568
878.824	15587
878.951	15705
879.079	15781
879.206	15922
879.333	15766
879.461	15705
879.588	15736
879.715	15816
879.842	15903
879.97	15663
880.097	15469
880.224	15412
880.351	15401
880.478	15428
880.605	15500
880.732	15393
880.859	15660
880.986	15496
881.112	15359
881.239	15245
881.366	15146
881.493	15108
881.619	15047
881.746	15051
881.872	15081
881.999	15017
882.125	15104
882.252	15108
882.378	15013
882.505	15245
882.631	14986
882.757	14910
882.883	14876
883.01	14891
883.136	14845
883.262	14796
883.388	14804
883.514	14933
883.64	15013
883.766	14861
883.892	14712
884.018	14724
884.143	14849
884.269	14941
884.395	14686
884.52	14503
884.646	14598
884.772	14495
884.897	14518
885.023	14640
885.148	14678
885.274	14800
885.399	14735
885.524	14594
885.65	14667
885.775	14693
885.9	14686
886.025	14750
886.15	14670
886.275	14560
886.4	14484
886.525	14659
886.65	14545
886.775	14613
886.9	14781
887.025	14819
887.149	14712
887.274	14590
887.399	14419
887.523	14465
887.648	14393
887.773	14374
887.897	14484
888.021	14476
888.146	14419
888.27	14518
888.395	14552
888.519	14617
888.643	14560
888.767	14503
888.891	14427
889.015	14374
889.139	14317
889.263	14237
889.387	14347
889.511	14514
889.635	14469
889.759	14271
889.883	14324
890.006	14385
890.13	14362
890.254	14172
890.377	14191
890.501	14142
890.624	14153
890.748	14244
890.871	14046
890.995	13978
891.118	13913
891.241	14008
891.364	14046
891.488	14069
891.611	13951
891.734	14126
891.857	14123
891.98	14046
892.103	14050
892.226	14050
892.349	14008
892.471	13879
892.594	14031
892.717	13982
892.839	13940
892.962	14035
893.085	14111
893.207	13951
893.33	13917
893.452	13970
893.575	14027
893.697	14020
893.819	14195
893.941	14278
894.064	14172
894.186	13997
894.308	13909
894.43	14191
894.552	14221
894.674	14191
894.796	14005
894.918	14096
895.04	14081
895.161	14123
895.283	14145
895.405	14058
895.526	14062
895.648	14126
895.769	14240
895.891	14149
896.012	14195
896.134	14180
896.255	14168
896.376	14126
896.498	14065
896.619	14191
896.74	14157
896.861	14271
896.982	14594
897.103	14743
897.224	14511
897.345	14469
897.466	14393
897.587	14442
897.708	14579
897.828	14533
897.949	14465
898.07	14393
898.19	14377
898.311	14663
898.431	14488
898.552	14549
898.672	14663
898.792	14648
898.913	14610
899.033	14473
899.153	14457
899.273	14317
899.393	14301
899.513	14381
899.633	14393
899.753	14461
899.873	14374
899.993	14423
900.113	14339
900.232	14400
900.352	14412
900.472	14347
900.591	14195
900.711	14233
900.83	14195
900.95	14298
901.069	14370
901.189	14195
901.308	14092
901.427	13944
901.546	13871
901.665	13982
901.784	13978
901.904	13826
902.023	13784
902.141	13594
902.26	13521
902.379	13597
902.498	13445
902.617	13362
902.735	13525
902.854	13586
902.973	13415
903.091	13183
903.21	13232
903.328	13240
903.446	13095
903.565	13137
903.683	13099
903.801	13034
903.919	13012
904.038	13080
904.156	12932
904.274	12954
904.392	12833
904.51	12962
904.627	12882
904.745	12924
904.863	12905
904.981	12764
905.098	12650
905.216	12650
905.334	12646
905.451	12642
905.569	12563
905.686	12585
905.803	12559
905.921	12467
906.038	12494
906.155	12464
906.272	12399
906.389	12338
906.506	12201
906.623	12239
906.74	12239
906.857	12072
906.974	12083
907.091	12300
907.208	12239
907.324	12258
907.441	12129
907.557	12011
907.674	12026
907.79	11809
907.907	11950
908.023	12015
908.139	11927
908.256	11901
908.372	11935
908.488	11828
908.604	11691
908.72	11665
908.836	11672
908.952	11661
909.068	11737
909.184	11863
909.3	11707
909.415	11851
909.531	11703
909.647	11497
909.762	11463
909.878	11429
909.993	11532
910.108	11512
910.224	11433
910.339	11547
910.454	11330
910.57	11326
910.685	11311
910.8	11653
910.915	11547
911.03	11303
911.145	11280
911.259	11201
911.374	11220
911.489	11102
911.604	11067
911.718	10927
911.833	10961
911.947	10866
912.062	10755
912.176	10904
912.291	10904
912.405	11025
912.519	11143
912.633	11067
912.748	10980
912.862	10972
912.976	10881
913.09	10790
913.204	10778
913.318	10797
913.431	10820
913.545	10911
913.659	10908
913.772	10824
913.886	10744
914	10721
914.113	10824
914.226	10900
914.34	10839
914.453	10675
914.566	10778
914.68	10656
914.793	10694
914.906	10516
915.019	10436
915.132	10306
915.245	10489
915.358	10424
915.47	10489
915.583	10519
915.696	10500
915.809	10634
915.921	10603
916.034	10428
916.146	10409
916.259	10341
916.371	10485
916.483	10519
916.595	10375
916.708	10356
916.82	10382
916.932	10417
917.044	10390
917.156	10379
917.268	10257
917.38	10344
917.491	10299
917.603	10268
917.715	10398
917.826	10371
917.938	10223
918.049	10131
918.161	10287
918.272	10363
918.384	10474
918.495	10329
918.606	10169
918.717	10105
918.828	10192
918.939	10188
919.05	10093
919.161	10128
919.272	10002
919.383	10025
919.494	10204
919.604	10432
919.715	10211
919.826	10120
919.936	10181
920.047	10306
920.157	10207
920.267	10386
920.378	10188
920.488	10242
920.598	10276
920.708	10474
920.818	10394
920.928	10405
921.038	10573
921.148	10451
921.258	10295
921.368	10071
921.477	10109
921.587	9994
921.697	9892
921.806	10173
921.916	9926
922.025	9762
922.134	9747
922.244	9694
922.353	9819
922.462	9648
922.571	9561
922.68	9466
922.789	9408
922.898	9393
923.007	9435
923.116	9515
923.224	9496
923.333	9408
923.442	9291
923.55	9317
923.659	9382
923.767	9435
923.876	9298
923.984	9431
924.092	9226
924.201	9306
924.309	9306
924.417	9260
924.525	9245
924.633	9313
924.741	10169
924.849	9081
924.956	9195
925.064	9123
925.172	8937
925.279	9055
925.387	9123
925.494	9097
925.602	9188
925.709	9184
925.816	9066
925.924	9142
926.031	9142
926.138	9146
926.245	9157
926.352	8982
926.459	9161
926.566	9138
926.673	9013
926.779	8975
926.886	8963
926.993	8838
927.099	8861
927.206	8819
927.312	8788
927.419	8864
927.525	8826
927.631	8891
927.737	8720
927.843	8758
927.95	8541
928.056	8697
928.162	8716
928.267	8792
928.373	9302
928.479	8826
928.585	8545
928.69	8678
928.796	8750
928.901	8674
929.007	8522
929.112	8625
929.218	8655
929.323	8552
929.428	8465
929.533	8667
929.638	8412
929.743	8533
929.848	8575
929.953	8560
930.058	8400
930.163	8320
930.267	8282
930.372	8415
930.477	8294
930.581	8518
930.685	8385
930.79	8279
930.894	8233
930.998	8191
931.103	8427
931.207	8073
931.311	8024
931.415	7944
931.519	7811
931.623	7769
