Data from test_V78500241_2017.txt Node
Date: Fri Mar 25 14:47:45 CST 2022
User: usil
Spectrometer: V785-0024
Trigger mode: 0
Integration Time (sec): 4.000000E-1
Scans to average: 1
Nonlinearity correction enabled: false
Boxcar width: 0
Storing dark spectrum: false
XAxis mode: Wavelengths
Number of Pixels in Spectrum: 1024
>>>>>Begin Spectral Data<<<<<
801.071	22093
801.214	21934
801.356	21652
801.499	21675
801.641	21561
801.783	21428
801.926	21583
802.068	21401
802.211	21294
802.353	21264
802.496	21020
802.638	20986
802.78	20979
802.923	20842
803.065	20758
803.208	20895
803.35	20724
803.492	21001
803.635	20902
803.777	20716
803.919	20838
804.061	21195
804.204	20952
804.346	20785
804.488	20712
804.63	20845
804.773	20659
804.915	20705
805.057	20712
805.199	20735
805.341	20804
805.483	20849
805.626	20842
805.768	20667
805.91	20750
806.052	20731
806.194	20727
806.336	20785
806.478	20613
806.62	20720
806.762	20792
806.904	20849
807.046	21100
807.188	21036
807.33	21093
807.472	21039
807.614	21005
807.756	20986
807.898	20788
808.04	20758
808.182	20655
808.324	20845
808.465	20914
808.607	20944
808.749	21013
808.891	21184
809.033	21332
809.174	21131
809.316	21131
809.458	21104
809.6	21077
809.741	21256
809.883	21066
810.025	21272
810.166	21298
810.308	21226
810.45	21321
810.591	21051
810.733	20998
810.875	20956
811.016	20735
811.158	20670
811.299	20994
811.441	21074
811.582	20933
811.724	20906
811.865	20804
812.007	20785
812.148	20921
812.29	20880
812.431	21070
812.573	21096
812.714	21264
812.855	21348
812.997	21435
813.138	21564
813.279	21428
813.421	21370
813.562	21310
813.703	21195
813.845	21036
813.986	20705
814.127	20617
814.268	20503
814.41	20434
814.551	20366
814.692	20560
814.833	20385
814.974	20263
815.115	20309
815.256	20180
815.397	20221
815.539	20252
815.68	20088
815.821	20122
815.962	20210
816.103	20134
816.244	19978
816.385	19868
816.526	19849
816.666	19811
816.807	19540
816.948	19655
817.089	19715
817.23	19552
817.371	19495
817.512	19609
817.653	19597
817.793	19578
817.934	19571
818.075	19464
818.216	19548
818.356	19468
818.497	19308
818.638	19289
818.778	19145
818.919	19236
819.06	19228
819.2	19369
819.341	19339
819.481	19521
819.622	19537
819.762	19651
819.903	19643
820.043	19567
820.184	19540
820.324	19552
820.465	19647
820.605	19422
820.746	19529
820.886	19411
821.026	19521
821.167	19552
821.307	19556
821.447	19487
821.588	19392
821.728	19164
821.868	19160
822.008	18878
822.149	19034
822.289	18837
822.429	18623
822.569	18650
822.709	18631
822.849	18429
822.99	18414
823.13	18346
823.27	18456
823.41	18254
823.55	18186
823.69	18243
823.83	18186
823.97	18194
824.11	18045
824.25	18015
824.389	18091
824.529	18045
824.669	17965
824.809	18136
824.949	18148
825.089	18144
825.228	18019
825.368	17733
825.508	17805
825.648	17756
825.787	17851
825.927	17939
826.067	17718
826.206	17870
826.346	17783
826.485	17695
826.625	17824
826.765	17851
826.904	17710
827.044	17615
827.183	17474
827.323	17493
827.462	17509
827.601	17455
827.741	17490
827.88	17532
828.02	17417
828.159	17452
828.298	17501
828.437	17562
828.577	17520
828.716	17573
828.855	17436
828.994	17170
829.134	17109
829.273	17398
829.412	17231
829.551	17128
829.69	17231
829.829	17246
829.968	17463
830.107	17284
830.246	17269
830.385	17189
830.524	17178
830.663	17014
830.802	16942
830.941	16953
831.08	16839
831.219	16923
831.357	17006
831.496	17170
831.635	16778
831.774	16793
831.913	16767
832.051	16706
832.19	16717
832.329	16603
832.467	16500
832.606	16611
832.744	16550
832.883	16504
833.022	16497
833.16	16660
833.299	16622
833.437	16641
833.576	16615
833.714	16573
833.852	16626
833.991	16599
834.129	16729
834.267	16630
834.406	16660
834.544	16691
834.682	16599
834.821	16656
834.959	16736
835.097	16573
835.235	16668
835.373	16569
835.511	16626
835.65	16504
835.788	16478
835.926	16421
836.064	16265
836.202	16382
836.34	16558
836.478	16596
836.615	16542
836.753	16542
836.891	16558
837.029	16561
837.167	16409
837.305	16489
837.443	16379
837.58	16386
837.718	16398
837.856	16402
837.993	16291
838.131	16348
838.269	16360
838.406	16325
838.544	16371
838.681	16135
838.819	16067
838.956	15926
839.094	15922
839.231	15987
839.369	16074
839.506	16211
839.643	16257
839.781	15991
839.918	15945
840.055	16013
840.193	15960
840.33	15888
840.467	15964
840.604	15991
840.742	16181
840.879	15797
841.016	15842
841.153	15774
841.29	16120
841.427	15960
841.564	15994
841.701	15937
841.838	15975
841.975	15789
842.112	15899
842.249	15698
842.385	15675
842.522	15903
842.659	15789
842.796	15698
842.933	15778
843.069	15580
843.206	15652
843.343	15778
843.479	15720
843.616	15694
843.752	15412
843.889	15622
844.025	15675
844.162	15576
844.298	15675
844.435	15477
844.571	15485
844.708	15538
844.844	15808
844.98	15686
845.117	15587
845.253	15496
845.389	15370
845.525	15397
845.661	15450
845.798	15321
845.934	15496
846.07	15241
846.206	15378
846.342	15416
846.478	15374
846.614	15123
846.75	14990
846.886	15165
847.022	15188
847.158	15070
847.294	15188
847.429	15161
847.565	15070
847.701	15241
847.837	14838
847.972	14743
848.108	14899
848.244	14868
848.379	14762
848.515	14705
848.65	14724
848.786	14701
848.921	14754
849.057	14842
849.192	14792
849.328	14754
849.463	14689
849.598	14655
849.734	14530
849.869	14594
850.004	14629
850.14	14495
850.275	14522
850.41	14503
850.545	14370
850.68	14393
850.815	14438
850.95	14454
851.085	14674
851.22	14495
851.355	14503
851.49	14374
851.625	14381
851.76	14404
851.895	14377
852.03	14324
852.165	14366
852.299	14419
852.434	14530
852.569	14522
852.703	14518
852.838	14480
852.973	14629
853.107	14636
853.242	14423
853.376	14298
853.511	14221
853.645	14290
853.78	14415
853.914	14282
854.048	14282
854.183	14370
854.317	14385
854.451	14454
854.585	14396
854.72	14332
854.854	14351
854.988	14339
855.122	14263
855.256	14134
855.39	14271
855.524	14385
855.658	14290
855.792	14400
855.926	14244
856.06	14381
856.194	14393
856.327	14263
856.461	14282
856.595	14195
856.729	14286
856.862	14507
856.996	14313
857.13	14377
857.263	14393
857.397	14450
857.53	14339
857.664	14358
857.797	14442
857.931	14503
858.064	14393
858.197	14408
858.331	14286
858.464	14252
858.597	14278
858.731	14320
858.864	14202
858.997	14248
859.13	14320
859.263	14324
859.396	14415
859.529	14271
859.662	14218
859.795	14313
859.928	14347
860.061	14480
860.194	14526
860.327	14393
860.46	14305
860.592	14358
860.725	14450
860.858	14465
860.99	14396
861.123	14172
861.256	14332
861.388	14332
861.521	14952
861.653	14206
861.786	14043
861.918	14244
862.05	14233
862.183	14214
862.315	14263
862.447	14347
862.58	14218
862.712	14164
862.844	14088
862.976	14191
863.108	14081
863.24	14480
863.372	14024
863.504	14134
863.636	14046
863.768	14039
863.9	14145
864.032	14096
864.164	14077
864.296	14126
864.428	14142
864.559	14176
864.691	14206
864.823	14282
864.954	14130
865.086	14073
865.217	14062
865.349	14092
865.48	14149
865.612	14096
865.743	14298
865.875	14008
866.006	14065
866.137	14103
866.269	14027
866.4	14001
866.531	14046
866.662	13970
866.793	13986
866.924	14027
867.055	14069
867.186	14130
867.317	14050
867.448	13982
867.579	13986
867.71	14096
867.841	14020
867.972	14180
868.103	14111
868.233	14088
868.364	14103
868.495	14107
868.625	14286
868.756	14355
868.886	14218
869.017	14294
869.147	14427
869.278	14473
869.408	14396
869.539	14282
869.669	14393
869.799	14355
869.929	14427
870.06	14450
870.19	14587
870.32	14701
870.45	14629
870.58	14781
870.71	14853
870.84	14823
870.97	14773
871.1	14716
871.23	14929
871.36	14796
871.489	14842
871.619	14963
871.749	15024
871.879	14952
872.008	15089
872.138	14933
872.267	14998
872.397	14861
872.526	14644
872.656	14861
872.785	14785
872.915	14994
873.044	14986
873.173	15020
873.303	14944
873.432	14941
873.561	15039
873.69	14929
873.819	14986
873.948	15119
874.077	14982
874.206	14864
874.335	14906
874.464	15195
874.593	15176
874.722	15173
874.851	15294
874.979	15367
875.108	15310
875.237	15272
875.365	15283
875.494	15283
875.623	15374
875.751	15279
875.88	15462
876.008	15428
876.136	15504
876.265	15766
876.393	15850
876.521	15789
876.65	15778
876.778	15690
876.906	15686
877.034	15660
877.162	15663
877.29	15572
877.418	15785
877.546	15675
877.674	15701
877.802	15694
877.93	15701
878.058	15679
878.185	15496
878.313	15728
878.441	15690
878.568	15564
878.696	15694
878.824	15720
878.951	15751
879.079	15888
879.206	16074
879.333	15793
879.461	15804
879.588	15751
879.715	15808
879.842	15956
879.97	15835
880.097	15580
880.224	15595
880.351	15568
880.478	15587
880.605	15538
880.732	15519
880.859	15880
880.986	15534
881.112	15568
881.239	15538
881.366	15374
881.493	15252
881.619	15214
881.746	15169
881.872	15222
881.999	15176
882.125	15127
882.252	15199
882.378	15275
882.505	15336
882.631	15165
882.757	15104
882.883	15032
883.01	15081
883.136	14902
883.262	14914
883.388	14834
883.514	15161
883.64	15066
883.766	14887
883.892	14906
884.018	14853
884.143	14963
884.269	15226
884.395	14804
884.52	14731
884.646	14750
884.772	14667
884.897	14644
885.023	14777
885.148	14876
885.274	15028
885.399	14925
885.524	14765
885.65	14727
885.775	14750
885.9	14735
886.025	14811
886.15	14861
886.275	14716
886.4	14697
886.525	14705
886.65	14594
886.775	14693
886.9	14826
887.025	14918
887.149	14735
887.274	14629
887.399	14568
887.523	14617
887.648	14518
887.773	14533
887.897	14625
888.021	14606
888.146	14484
888.27	14674
888.395	14693
888.519	14575
888.643	14549
888.767	14579
888.891	14457
889.015	14434
889.139	14381
889.263	14461
889.387	14571
889.511	14651
889.635	14587
889.759	14339
889.883	14537
890.006	14393
890.13	14518
890.254	14396
890.377	14366
890.501	14309
890.624	14202
890.748	14286
890.871	14115
890.995	14103
891.118	14035
891.241	14092
891.364	14202
891.488	14259
891.611	14145
891.734	13986
891.857	14168
891.98	14145
892.103	14130
892.226	14191
892.349	14119
892.471	13997
892.594	14065
892.717	14119
892.839	14149
892.962	14123
893.085	14138
893.207	14180
893.33	14001
893.452	14092
893.575	14145
893.697	14088
893.819	14313
893.941	14415
894.064	14267
894.186	14206
894.308	14054
894.43	14221
894.552	14366
894.674	14263
894.796	14081
894.918	14176
895.04	14240
895.161	14275
895.283	14199
895.405	14180
895.526	14157
895.648	14244
895.769	14286
895.891	14301
896.012	14362
896.134	14328
896.255	14237
896.376	14324
896.498	14259
896.619	14244
896.74	14358
896.861	14347
896.982	14712
897.103	14765
897.224	14503
897.345	14526
897.466	14438
897.587	14526
897.708	14636
897.828	14587
897.949	14571
898.07	14412
898.19	14511
898.311	14655
898.431	14549
898.552	14610
898.672	14697
898.792	14758
898.913	14667
899.033	14587
899.153	14499
899.273	14408
899.393	14446
899.513	14552
899.633	14549
899.753	14522
899.873	14381
899.993	14598
900.113	14499
900.232	14590
900.352	14377
900.472	14423
900.591	14366
900.711	14393
900.83	14275
900.95	14476
901.069	14480
901.189	14320
901.308	14020
901.427	14111
901.546	14016
901.665	14039
901.784	14054
901.904	13868
902.023	13871
902.141	13662
902.26	13696
902.379	13666
902.498	13537
902.617	13438
902.735	13544
902.854	13655
902.973	13460
903.091	13308
903.21	13266
903.328	13278
903.446	13297
903.565	13141
903.683	13217
903.801	13088
903.919	13194
904.038	13183
904.156	13027
904.274	13042
904.392	13023
904.51	12958
904.627	12954
904.745	13053
904.863	13012
904.981	12798
905.098	12635
905.216	12684
905.334	12703
905.451	12616
905.569	12585
905.686	12692
905.803	12779
905.921	12441
906.038	12616
906.155	12540
906.272	12380
906.389	12350
906.506	12338
906.623	12311
906.74	12270
906.857	12155
906.974	12243
907.091	12296
907.208	12395
907.324	12304
907.441	12285
907.557	12045
907.674	11980
907.79	11992
907.907	11999
908.023	12060
908.139	12030
908.256	11988
908.372	11973
908.488	11878
908.604	11752
908.72	11794
908.836	11783
908.952	11748
909.068	11798
909.184	11840
909.3	11836
909.415	11813
909.531	11729
909.647	11528
909.762	11573
909.878	11482
909.993	11581
910.108	11604
910.224	11570
910.339	11570
910.454	11478
910.57	11406
910.685	11315
910.8	11604
910.915	11543
911.03	11452
911.145	11296
911.259	11124
911.374	11201
911.489	11242
911.604	11121
911.718	10987
911.833	10984
911.947	10889
912.062	10862
912.176	10987
912.291	11003
912.405	11003
912.519	11166
912.633	11239
912.748	11128
912.862	11006
912.976	10869
913.09	10824
913.204	10900
913.318	10866
913.431	10896
913.545	10984
913.659	11018
913.772	10873
913.886	10778
914	10729
914.113	10828
914.226	10824
914.34	10809
914.453	10656
914.566	10824
914.68	10759
914.793	10740
914.906	10584
915.019	10489
915.132	10474
915.245	10424
915.358	10478
915.47	10508
915.583	10512
915.696	10561
915.809	10672
915.921	10660
916.034	10527
916.146	10470
916.259	10424
916.371	10546
916.483	10485
916.595	10436
916.708	10451
916.82	10481
916.932	10402
917.044	10344
917.156	10360
917.268	10341
917.38	10284
917.491	10303
917.603	10390
917.715	10436
917.826	10386
917.938	10268
918.049	10242
918.161	10344
918.272	10428
918.384	10451
918.495	10382
918.606	10246
918.717	10093
918.828	10238
918.939	10284
919.05	10150
919.161	10215
919.272	9964
919.383	10067
919.494	10234
919.604	10299
919.715	10219
919.826	10230
919.936	10215
920.047	10356
920.157	10265
920.267	10481
920.378	10303
920.488	10223
920.598	10478
920.708	10573
920.818	10356
920.928	10363
921.038	10622
921.148	10523
921.258	10284
921.368	10219
921.477	10078
921.587	10112
921.697	10013
921.806	10063
921.916	9983
922.025	9804
922.134	9835
922.244	9797
922.353	9911
922.462	9694
922.571	9625
922.68	9553
922.789	9488
922.898	9534
923.007	9454
923.116	9557
923.224	9492
923.333	9568
923.442	9393
923.55	9393
923.659	9412
923.767	9462
923.876	9321
923.984	9450
924.092	9401
924.201	9447
924.309	9344
924.417	9439
924.525	9313
924.633	9370
924.741	10227
924.849	9161
924.956	9291
925.064	9157
925.172	9138
925.279	9108
925.387	9161
925.494	9203
925.602	9256
925.709	9203
925.816	9104
925.924	9253
926.031	9298
926.138	9188
926.245	9233
926.352	9097
926.459	9195
926.566	9310
926.673	9195
926.779	9066
926.886	8990
926.993	8910
927.099	8849
927.206	8868
927.312	8823
927.419	8925
927.525	8880
927.631	8963
927.737	8842
927.843	8823
927.95	8659
928.056	8724
928.162	8773
928.267	8872
928.373	9466
928.479	8883
928.585	8667
928.69	8743
928.796	8800
928.901	8724
929.007	8613
929.112	8705
929.218	8674
929.323	8594
929.428	8545
929.533	8758
929.638	8545
929.743	8560
929.848	8663
929.953	8712
930.058	8526
930.163	8362
930.267	8328
930.372	8560
930.477	8339
930.581	8571
930.685	8400
930.79	8225
930.894	8355
930.998	8328
931.103	8454
931.207	8084
931.311	8111
931.415	8024
931.519	7845
931.623	7822
