Data from test_V78500241_1527.txt Node
Date: Fri Mar 25 14:44:20 CST 2022
User: usil
Spectrometer: V785-0024
Trigger mode: 0
Integration Time (sec): 4.000000E-1
Scans to average: 1
Nonlinearity correction enabled: false
Boxcar width: 0
Storing dark spectrum: false
XAxis mode: Wavelengths
Number of Pixels in Spectrum: 1024
>>>>>Begin Spectral Data<<<<<
801.071	22363
801.214	22249
801.356	22032
801.499	22021
801.641	21804
801.783	21762
801.926	21690
802.068	21545
802.211	21660
802.353	21530
802.496	21287
802.638	21412
802.78	21279
802.923	21077
803.065	21043
803.208	21127
803.35	21161
803.492	21230
803.635	21173
803.777	21055
803.919	21256
804.061	21389
804.204	21142
804.346	21017
804.488	20891
804.63	21017
804.773	20967
804.915	21100
805.057	21260
805.199	21009
805.341	21104
805.483	21146
805.626	21119
805.768	21135
805.91	21108
806.052	21020
806.194	20994
806.336	21161
806.478	20941
806.62	21020
806.762	21070
806.904	21359
807.046	21485
807.188	21416
807.33	21367
807.472	21367
807.614	21321
807.756	21325
807.898	21287
808.04	21192
808.182	21176
808.324	21207
808.465	21386
808.607	21428
808.749	21519
808.891	21606
809.033	21857
809.174	21656
809.316	21591
809.458	21561
809.6	21454
809.741	21603
809.883	21652
810.025	21717
810.166	21614
810.308	21682
810.45	21641
810.591	21389
810.733	21496
810.875	21252
811.016	21211
811.158	21096
811.299	21340
811.441	21412
811.582	21504
811.724	21233
811.865	21157
812.007	21165
812.148	21138
812.29	21275
812.431	21351
812.573	21466
812.714	21705
812.855	21743
812.997	21842
813.138	21857
813.279	21816
813.421	21675
813.562	21618
813.703	21450
813.845	21351
813.986	21146
814.127	20937
814.268	20849
814.41	20876
814.551	20674
814.692	20796
814.833	20598
814.974	20629
815.115	20667
815.256	20640
815.397	20697
815.539	20678
815.68	20598
815.821	20446
815.962	20499
816.103	20549
816.244	20351
816.385	20180
816.526	20237
816.666	20050
816.807	19970
816.948	20062
817.089	20065
817.23	20073
817.371	19951
817.512	19982
817.653	19997
817.793	19849
817.934	19799
818.075	19875
818.216	19845
818.356	19955
818.497	19658
818.638	19613
818.778	19639
818.919	19647
819.06	19658
819.2	19731
819.341	19666
819.481	19860
819.622	19799
819.762	20077
819.903	20126
820.043	19989
820.184	19936
820.324	19890
820.465	19913
820.605	19959
820.746	19841
820.886	19677
821.026	19803
821.167	19788
821.307	19902
821.447	19727
821.588	19769
821.728	19655
821.868	19468
822.008	19339
822.149	19377
822.289	19289
822.429	18966
822.569	18966
822.709	18958
822.849	18787
822.99	18802
823.13	18753
823.27	18795
823.41	18677
823.55	18498
823.69	18604
823.83	18608
823.97	18429
824.11	18361
824.25	18289
824.389	18350
824.529	18460
824.669	18361
824.809	18601
824.949	18475
825.089	18384
825.228	18429
825.368	18194
825.508	18178
825.648	18224
825.787	18129
825.927	18194
826.067	18152
826.206	18152
826.346	18277
826.485	18121
826.625	17984
826.765	18174
826.904	18197
827.044	17897
827.183	17821
827.323	17832
827.462	17855
827.601	17790
827.741	17855
827.88	17775
828.02	17783
828.159	17840
828.298	17866
828.437	17863
828.577	17741
828.716	17969
828.855	17752
828.994	17490
829.134	17619
829.273	17600
829.412	17505
829.551	17471
829.69	17520
829.829	17638
829.968	17638
830.107	17528
830.246	17433
830.385	17611
830.524	17414
830.663	17368
830.802	17197
830.941	17056
831.08	17098
831.219	17261
831.357	17208
831.496	17425
831.635	17250
831.774	17136
831.913	17086
832.051	16934
832.19	16873
832.329	17052
832.467	16911
832.606	16824
832.744	16862
832.883	16866
833.022	16927
833.16	16816
833.299	16953
833.437	16930
833.576	16968
833.714	16873
833.852	16900
833.991	16919
834.129	17041
834.267	16869
834.406	16889
834.544	16869
834.682	16968
834.821	16793
834.959	17037
835.097	16850
835.235	16900
835.373	16927
835.511	16854
835.65	16828
835.788	16919
835.926	16679
836.064	16592
836.202	16565
836.34	16869
836.478	16968
836.615	16805
836.753	16771
836.891	16774
837.029	16805
837.167	16740
837.305	16664
837.443	16675
837.58	16592
837.718	16733
837.856	16679
837.993	16569
838.131	16771
838.269	16603
838.406	16504
838.544	16561
838.681	16344
838.819	16367
838.956	16185
839.094	16257
839.231	16223
839.369	16337
839.506	16512
839.643	16455
839.781	16211
839.918	16196
840.055	16185
840.193	16196
840.33	16211
840.467	16177
840.604	16257
840.742	16371
840.879	16021
841.016	16147
841.153	16124
841.29	16299
841.427	16253
841.564	16234
841.701	16192
841.838	16150
841.975	16040
842.112	16116
842.249	15979
842.385	15949
842.522	16059
842.659	16032
842.796	15949
842.933	16006
843.069	15903
843.206	15979
843.343	15991
843.479	15998
843.616	16006
843.752	15789
843.889	15846
844.025	15960
844.162	15728
844.298	15838
844.435	15679
844.571	15724
844.708	15823
844.844	15895
844.98	15880
845.117	15865
845.253	15743
845.389	15667
845.525	15785
845.661	15854
845.798	15720
845.934	15922
846.07	15720
846.206	15736
846.342	15873
846.478	15622
846.614	15473
846.75	15211
846.886	15325
847.022	15420
847.158	15306
847.294	15386
847.429	15393
847.565	15306
847.701	15557
847.837	15070
847.972	14998
848.108	15161
848.244	15116
848.379	15089
848.515	14929
848.65	14902
848.786	14952
848.921	14941
849.057	15001
849.192	15051
849.328	15009
849.463	14948
849.598	14952
849.734	14902
849.869	14762
850.004	14670
850.14	14716
850.275	14762
850.41	14644
850.545	14701
850.68	14613
850.815	14686
850.95	14765
851.085	14838
851.22	14849
851.355	14636
851.49	14693
851.625	14663
851.76	14663
851.895	14552
852.03	14644
852.165	14731
852.299	14724
852.434	14811
852.569	14754
852.703	14800
852.838	14743
852.973	14773
853.107	14880
853.242	14629
853.376	14636
853.511	14488
853.645	14556
853.78	14727
853.914	14583
854.048	14598
854.183	14560
854.317	14503
854.451	14758
854.585	14552
854.72	14488
854.854	14621
854.988	14385
855.122	14476
855.256	14419
855.39	14454
855.524	14575
855.658	14701
855.792	14617
855.926	14629
856.06	14575
856.194	14716
856.327	14564
856.461	14587
856.595	14488
856.729	14629
856.862	14750
856.996	14629
857.13	14579
857.263	14648
857.397	14701
857.53	14587
857.664	14632
857.797	14663
857.931	14693
858.064	14575
858.197	14575
858.331	14629
858.464	14556
858.597	14488
858.731	14526
858.864	14488
858.997	14549
859.13	14594
859.263	14522
859.396	14678
859.529	14514
859.662	14465
859.795	14545
859.928	14640
860.061	14686
860.194	14739
860.327	14632
860.46	14545
860.592	14644
860.725	14743
860.858	14621
860.99	14598
861.123	14412
861.256	14476
861.388	14606
861.521	15131
861.653	14492
861.786	14377
861.918	14427
862.05	14511
862.183	14514
862.315	14678
862.447	14610
862.58	14480
862.712	14313
862.844	14145
862.976	14396
863.108	14385
863.24	14716
863.372	14263
863.504	14469
863.636	14339
863.768	14434
863.9	14294
864.032	14309
864.164	14355
864.296	14320
864.428	14396
864.559	14393
864.691	14480
864.823	14366
864.954	14434
865.086	14332
865.217	14336
865.349	14229
865.48	14271
865.612	14351
865.743	14537
865.875	14446
866.006	14267
866.137	14343
866.269	14358
866.4	14294
866.531	14267
866.662	14202
866.793	14320
866.924	14225
867.055	14366
867.186	14259
867.317	14271
867.448	14233
867.579	14309
867.71	14168
867.841	14195
867.972	14328
868.103	14256
868.233	14278
868.364	14313
868.495	14377
868.625	14507
868.756	14659
868.886	14415
869.017	14511
869.147	14583
869.278	14750
869.408	14530
869.539	14583
869.669	14689
869.799	14522
869.929	14655
870.06	14670
870.19	14849
870.32	14823
870.45	14880
870.58	14880
870.71	15074
870.84	14975
870.97	14952
871.1	14929
871.23	15176
871.36	15226
871.489	15032
871.619	15157
871.749	15138
871.879	15237
872.008	15245
872.138	15207
872.267	15116
872.397	15081
872.526	14956
872.656	14990
872.785	15074
872.915	15127
873.044	15275
873.173	15169
873.303	15329
873.432	15302
873.561	15184
873.69	15161
873.819	15241
873.948	15279
874.077	15264
874.206	15119
874.335	15173
874.464	15279
874.593	15545
874.722	15408
874.851	15595
874.979	15580
875.108	15603
875.237	15439
875.365	15492
875.494	15492
875.623	15568
875.751	15477
875.88	15606
876.008	15591
876.136	15675
876.265	15941
876.393	16017
876.521	16013
876.65	15983
876.778	15968
876.906	15972
877.034	15781
877.162	15934
877.29	15804
877.418	15979
877.546	15922
877.674	15876
877.802	15911
877.93	15937
878.058	15895
878.185	15816
878.313	15876
878.441	15899
878.568	15812
878.696	15926
878.824	15968
878.951	16032
879.079	16105
879.206	16249
879.333	16177
879.461	16078
879.588	16169
879.715	16253
879.842	16215
879.97	16078
880.097	15743
880.224	15690
880.351	15808
880.478	15793
880.605	15869
880.732	15751
880.859	16044
880.986	15911
881.112	15789
881.239	15781
881.366	15625
881.493	15458
881.619	15306
881.746	15359
881.872	15473
881.999	15443
882.125	15428
882.252	15553
882.378	15450
882.505	15549
882.631	15412
882.757	15355
882.883	15363
883.01	15252
883.136	15211
883.262	15165
883.388	15097
883.514	15321
883.64	15241
883.766	15169
883.892	15131
884.018	15180
884.143	15275
884.269	15325
884.395	15051
884.52	15005
884.646	15028
884.772	14876
884.897	14891
885.023	14941
885.148	15123
885.274	15127
885.399	15173
885.524	14967
885.65	14921
885.775	14990
885.9	14929
886.025	15237
886.15	14960
886.275	14967
886.4	14777
886.525	14929
886.65	14838
886.775	14910
886.9	15070
887.025	15142
887.149	14956
887.274	14864
887.399	14735
887.523	14720
887.648	14807
887.773	14678
887.897	14895
888.021	14796
888.146	14629
888.27	14880
888.395	14887
888.519	14861
888.643	14762
888.767	14944
888.891	14640
889.015	14594
889.139	14606
889.263	14708
889.387	14743
889.511	14743
889.635	14788
889.759	14644
889.883	14587
890.006	14727
890.13	14655
890.254	14587
890.377	14613
890.501	14469
890.624	14495
890.748	14476
890.871	14374
890.995	14328
891.118	14225
891.241	14408
891.364	14362
891.488	14541
891.611	14256
891.734	14309
891.857	14351
891.98	14400
892.103	14438
892.226	14313
892.349	14351
892.471	14142
892.594	14347
892.717	14317
892.839	14362
892.962	14442
893.085	14309
893.207	14320
893.33	14259
893.452	14286
893.575	14320
893.697	14347
893.819	14526
893.941	14549
894.064	14495
894.186	14290
894.308	14336
894.43	14465
894.552	14434
894.674	14511
894.796	14221
894.918	14343
895.04	14419
895.161	14549
895.283	14434
895.405	14393
895.526	14488
895.648	14434
895.769	14457
895.891	14476
896.012	14518
896.134	14457
896.255	14419
896.376	14370
896.498	14469
896.619	14522
896.74	14450
896.861	14564
896.982	14777
897.103	15081
897.224	14777
897.345	14682
897.466	14613
897.587	14746
897.708	14921
897.828	14807
897.949	14670
898.07	14556
898.19	14712
898.311	14864
898.431	14739
898.552	14773
898.672	14921
898.792	14891
898.913	14845
899.033	14754
899.153	14587
899.273	14629
899.393	14560
899.513	14640
899.633	14686
899.753	14746
899.873	14640
899.993	14701
900.113	14625
900.232	14693
900.352	14663
900.472	14606
900.591	14526
900.711	14511
900.83	14469
900.95	14636
901.069	14667
901.189	14522
901.308	14252
901.427	14294
901.546	14225
901.665	14275
901.784	14199
901.904	14149
902.023	14035
902.141	13909
902.26	13753
902.379	13856
902.498	13708
902.617	13769
902.735	13795
902.854	13734
902.973	13723
903.091	13480
903.21	13521
903.328	13495
903.446	13521
903.565	13388
903.683	13324
903.801	13312
903.919	13426
904.038	13297
904.156	13206
904.274	13236
904.392	13225
904.51	13206
904.627	13190
904.745	13228
904.863	13114
904.981	12966
905.098	12852
905.216	12840
905.334	12920
905.451	12886
905.569	12795
905.686	12844
905.803	12821
905.921	12692
906.038	12787
906.155	12650
906.272	12525
906.389	12582
906.506	12475
906.623	12448
906.74	12506
906.857	12350
906.974	12315
907.091	12475
907.208	12509
907.324	12456
907.441	12388
907.557	12201
907.674	12110
907.79	12194
907.907	12106
908.023	12201
908.139	12186
908.256	12114
908.372	12163
908.488	12003
908.604	12034
908.72	11977
908.836	11878
908.952	11866
909.068	11992
909.184	12038
909.3	11897
909.415	11965
909.531	11950
909.647	11722
909.762	11699
909.878	11649
909.993	11733
910.108	11672
910.224	11684
910.339	11691
910.454	11646
910.57	11528
910.685	11440
910.8	11889
910.915	11714
911.03	11524
911.145	11383
911.259	11372
911.374	11425
911.489	11326
911.604	11288
911.718	11201
911.833	11170
911.947	11041
912.062	10987
912.176	11151
912.291	11147
912.405	11208
912.519	11341
912.633	11379
912.748	11242
912.862	11231
912.976	11071
913.09	10923
913.204	10999
913.318	11033
913.431	11124
913.545	11132
913.659	11231
913.772	11048
913.886	10972
914	10923
914.113	10949
914.226	11105
914.34	10995
914.453	10877
914.566	11048
914.68	10843
914.793	10835
914.906	10736
915.019	10656
915.132	10649
915.245	10615
915.358	10630
915.47	10626
915.583	10752
915.696	10748
915.809	10858
915.921	10839
916.034	10664
916.146	10599
916.259	10584
916.371	10706
916.483	10656
916.595	10561
916.708	10527
916.82	10580
916.932	10527
917.044	10596
917.156	10580
917.268	10455
917.38	10538
917.491	10519
917.603	10497
917.715	10588
917.826	10550
917.938	10504
918.049	10337
918.161	10500
918.272	10626
918.384	10637
918.495	10512
918.606	10291
918.717	10367
918.828	10432
918.939	10356
919.05	10322
919.161	10314
919.272	10101
919.383	10234
919.494	10360
919.604	10599
919.715	10329
919.826	10280
919.936	10375
920.047	10504
920.157	10474
920.267	10584
920.378	10481
920.488	10333
920.598	10493
920.708	10805
920.818	10592
920.928	10531
921.038	10729
921.148	10649
921.258	10413
921.368	10272
921.477	10188
921.587	10227
921.697	10078
921.806	10295
921.916	10124
922.025	9956
922.134	9987
922.244	9854
922.353	9926
922.462	9785
922.571	9736
922.68	9660
922.789	9622
922.898	9595
923.007	9587
923.116	9679
923.224	9576
923.333	9526
923.442	9564
923.55	9584
923.659	9519
923.767	9500
923.876	9492
923.984	9667
924.092	9469
924.201	9473
924.309	9462
924.417	9507
924.525	9443
924.633	9477
924.741	10329
924.849	9233
924.956	9389
925.064	9245
925.172	9211
925.279	9214
925.387	9279
925.494	9249
925.602	9370
925.709	9329
925.816	9230
925.924	9264
926.031	9378
926.138	9325
926.245	9313
926.352	9230
926.459	9317
926.566	9382
926.673	9138
926.779	9104
926.886	9192
926.993	9032
927.099	9028
927.206	8971
927.312	8880
927.419	9039
927.525	8982
927.631	9058
927.737	8868
927.843	8883
927.95	8754
928.056	8883
928.162	8929
928.267	8921
928.373	9462
928.479	8944
928.585	8712
928.69	8857
928.796	8986
928.901	8804
929.007	8648
929.112	8834
929.218	8720
929.323	8663
929.428	8651
929.533	8773
929.638	8632
929.743	8670
929.848	8731
929.953	8663
930.058	8571
930.163	8412
930.267	8434
930.372	8518
930.477	8393
930.581	8705
930.685	8564
930.79	8370
930.894	8442
930.998	8377
931.103	8621
931.207	8172
931.311	8153
931.415	8027
931.519	7871
931.623	7921
