Data from test_V78500241_3638.txt Node
Date: Fri Mar 25 14:59:02 CST 2022
User: usil
Spectrometer: V785-0024
Trigger mode: 0
Integration Time (sec): 4.000000E-1
Scans to average: 1
Nonlinearity correction enabled: false
Boxcar width: 0
Storing dark spectrum: false
XAxis mode: Wavelengths
Number of Pixels in Spectrum: 1024
>>>>>Begin Spectral Data<<<<<
801.071	21895
801.214	21774
801.356	21629
801.499	21469
801.641	21348
801.783	21306
801.926	21211
802.068	21211
802.211	21161
802.353	21047
802.496	20823
802.638	20712
802.78	20705
802.923	20621
803.065	20545
803.208	20499
803.35	20613
803.492	20648
803.635	20800
803.777	20568
803.919	20731
804.061	20967
804.204	20682
804.346	20495
804.488	20442
804.63	20549
804.773	20476
804.915	20469
805.057	20518
805.199	20499
805.341	20518
805.483	20651
805.626	20507
805.768	20370
805.91	20400
806.052	20507
806.194	20389
806.336	20667
806.478	20431
806.62	20465
806.762	20454
806.904	20545
807.046	20826
807.188	20792
807.33	20826
807.472	20830
807.614	20819
807.756	20689
807.898	20564
808.04	20450
808.182	20556
808.324	20469
808.465	20693
808.607	20864
808.749	20853
808.891	20960
809.033	21028
809.174	20967
809.316	20773
809.458	20876
809.6	20819
809.741	20990
809.883	20944
810.025	21032
810.166	20990
810.308	20899
810.45	20979
810.591	20826
810.733	20659
810.875	20587
811.016	20488
811.158	20621
811.299	20697
811.441	20682
811.582	20686
811.724	20457
811.865	20541
812.007	20621
812.148	20541
812.29	20655
812.431	20864
812.573	20925
812.714	20937
812.855	21047
812.997	21116
813.138	21367
813.279	21146
813.421	21081
813.562	21001
813.703	20849
813.845	20765
813.986	20396
814.127	20339
814.268	20187
814.41	20161
814.551	20142
814.692	20195
814.833	20138
814.974	20088
815.115	20126
815.256	19978
815.397	19978
815.539	20001
815.68	19780
815.821	19765
815.962	19970
816.103	19894
816.244	19674
816.385	19597
816.526	19605
816.666	19415
816.807	19304
816.948	19354
817.089	19396
817.23	19396
817.371	19339
817.512	19282
817.653	19228
817.793	19274
817.934	19365
818.075	19282
818.216	19274
818.356	19259
818.497	19141
818.638	18878
818.778	18916
818.919	18852
819.06	18916
819.2	19004
819.341	19122
819.481	19107
819.622	19384
819.762	19384
819.903	19430
820.043	19297
820.184	19225
820.324	19331
820.465	19346
820.605	19339
820.746	19312
820.886	19027
821.026	19168
821.167	19171
821.307	19266
821.447	19255
821.588	19187
821.728	19061
821.868	18867
822.008	18764
822.149	18677
822.289	18772
822.429	18441
822.569	18429
822.709	18483
822.849	18148
822.99	18098
823.13	18213
823.27	18007
823.41	18015
823.55	17832
823.69	17999
823.83	17988
823.97	17920
824.11	17786
824.25	17710
824.389	17775
824.529	17794
824.669	17707
824.809	17847
824.949	17916
825.089	17832
825.228	17786
825.368	17562
825.508	17516
825.648	17642
825.787	17634
825.927	17596
826.067	17501
826.206	17452
826.346	17497
826.485	17619
826.625	17505
826.765	17722
826.904	17490
827.044	17246
827.183	17284
827.323	17208
827.462	17261
827.601	17140
827.741	17239
827.88	17174
828.02	17064
828.159	17090
828.298	17250
828.437	17193
828.577	17197
828.716	17277
828.855	17246
828.994	16987
829.134	16946
829.273	17083
829.412	16908
829.551	16984
829.69	16953
829.829	17052
829.968	17170
830.107	16984
830.246	17006
830.385	16976
830.524	16919
830.663	16809
830.802	16698
830.941	16573
831.08	16588
831.219	16679
831.357	16641
831.496	16713
831.635	16550
831.774	16424
831.913	16424
832.051	16329
832.19	16402
832.329	16432
832.467	16257
832.606	16318
832.744	16249
832.883	16272
833.022	16196
833.16	16318
833.299	16333
833.437	16325
833.576	16314
833.714	16413
833.852	16421
833.991	16443
834.129	16405
834.267	16333
834.406	16356
834.544	16394
834.682	16325
834.821	16386
834.959	16531
835.097	16249
835.235	16497
835.373	16379
835.511	16333
835.65	16371
835.788	16276
835.926	16090
836.064	16059
836.202	16086
836.34	16306
836.478	16268
836.615	16280
836.753	16276
836.891	16329
837.029	16200
837.167	16230
837.305	16230
837.443	16169
837.58	16166
837.718	16215
837.856	16139
837.993	16051
838.131	16109
838.269	16040
838.406	16051
838.544	16051
838.681	15865
838.819	15819
838.956	15743
839.094	15797
839.231	15785
839.369	15964
839.506	16048
839.643	15869
839.781	15679
839.918	15622
840.055	15751
840.193	15644
840.33	15648
840.467	15701
840.604	15717
840.742	15880
840.879	15576
841.016	15606
841.153	15732
841.29	15789
841.427	15755
841.564	15614
841.701	15720
841.838	15614
841.975	15652
842.112	15686
842.249	15485
842.385	15447
842.522	15667
842.659	15587
842.796	15511
842.933	15545
843.069	15477
843.206	15469
843.343	15595
843.479	15507
843.616	15454
843.752	15222
843.889	15249
844.025	15466
844.162	15260
844.298	15340
844.435	15317
844.571	15214
844.708	15279
844.844	15462
844.98	15545
845.117	15401
845.253	15249
845.389	15252
845.525	15176
845.661	15097
845.798	14937
845.934	15116
846.07	15062
846.206	15154
846.342	15230
846.478	15028
846.614	14941
846.75	14792
846.886	14735
847.022	14960
847.158	14937
847.294	14864
847.429	14872
847.565	14830
847.701	15112
847.837	14613
847.972	14545
848.108	14674
848.244	14686
848.379	14450
848.515	14488
848.65	14400
848.786	14438
848.921	14454
849.057	14507
849.192	14507
849.328	14549
849.463	14442
849.598	14320
849.734	14355
849.869	14271
850.004	14309
850.14	14286
850.275	14221
850.41	14130
850.545	14119
850.68	14180
850.815	14218
850.95	14176
851.085	14419
851.22	14347
851.355	14191
851.49	14191
851.625	14149
851.76	14145
851.895	14123
852.03	14008
852.165	14221
852.299	14256
852.434	14309
852.569	14336
852.703	14317
852.838	14385
852.973	14415
853.107	14294
853.242	14130
853.376	14134
853.511	14069
853.645	13978
853.78	14199
853.914	14172
854.048	14107
854.183	14058
854.317	14161
854.451	14271
854.585	14115
854.72	14050
854.854	14168
854.988	14016
855.122	14039
855.256	13799
855.39	14092
855.524	14210
855.658	14088
855.792	14046
855.926	14187
856.06	14172
856.194	14191
856.327	14187
856.461	14138
856.595	13944
856.729	14050
856.862	14115
856.996	14134
857.13	14187
857.263	14199
857.397	14240
857.53	14138
857.664	14103
857.797	14172
857.931	14237
858.064	14096
858.197	14191
858.331	14043
858.464	14008
858.597	13986
858.731	14084
858.864	14153
858.997	14081
859.13	14046
859.263	14126
859.396	14187
859.529	14046
859.662	14039
859.795	14077
859.928	14100
860.061	14237
860.194	14290
860.327	14149
860.46	14054
860.592	14210
860.725	14317
860.858	14267
860.99	14119
861.123	14062
861.256	14123
861.388	14149
861.521	14960
861.653	14046
861.786	13986
861.918	14001
862.05	13978
862.183	13970
862.315	14111
862.447	14081
862.58	14058
862.712	13837
862.844	13841
862.976	14008
863.108	13947
863.24	14309
863.372	13875
863.504	13902
863.636	13898
863.768	13970
863.9	13986
864.032	13841
864.164	13894
864.296	13951
864.428	14043
864.559	14005
864.691	14001
864.823	13955
864.954	13955
865.086	13925
865.217	13871
865.349	13879
865.48	13856
865.612	13970
865.743	14180
865.875	13940
866.006	13852
866.137	13898
866.269	13868
866.4	13883
866.531	13928
866.662	13906
866.793	13841
866.924	13830
867.055	13947
867.186	13879
867.317	13875
867.448	13856
867.579	13856
867.71	13856
867.841	13750
867.972	13967
868.103	13898
868.233	13925
868.364	13925
868.495	13932
868.625	14119
868.756	14180
868.886	14130
869.017	14084
869.147	14263
869.278	14305
869.408	14157
869.539	14157
869.669	14240
869.799	14259
869.929	14248
870.06	14298
870.19	14480
870.32	14400
870.45	14511
870.58	14530
870.71	14541
870.84	14777
870.97	14522
871.1	14530
871.23	14758
871.36	14644
871.489	14708
871.619	14758
871.749	14769
871.879	14815
872.008	14853
872.138	14811
872.267	14693
872.397	14651
872.526	14686
872.656	14598
872.785	14610
872.915	14842
873.044	14868
873.173	14815
873.303	14883
873.432	14807
873.561	14918
873.69	14804
873.819	14796
873.948	14868
874.077	14823
874.206	14773
874.335	14883
874.464	14971
874.593	15043
874.722	15028
874.851	15135
874.979	15093
875.108	15195
875.237	15119
875.365	15009
875.494	15108
875.623	15176
875.751	15062
875.88	15161
876.008	15317
876.136	15416
876.265	15568
876.393	15755
876.521	15622
876.65	15675
876.778	15511
876.906	15553
877.034	15485
877.162	15481
877.29	15397
877.418	15549
877.546	15523
877.674	15549
877.802	15496
877.93	15538
878.058	15443
878.185	15435
878.313	15496
878.441	15488
878.568	15367
878.696	15454
878.824	15538
878.951	15656
879.079	15690
879.206	15823
879.333	15591
879.461	15610
879.588	15538
879.715	15667
879.842	15766
879.97	15648
880.097	15367
880.224	15386
880.351	15325
880.478	15450
880.605	15447
880.732	15447
880.859	15572
880.986	15416
881.112	15481
881.239	15348
881.366	15218
881.493	15150
881.619	15070
881.746	15043
881.872	15070
881.999	15047
882.125	15032
882.252	15055
882.378	15135
882.505	15154
882.631	14937
882.757	14815
882.883	14899
883.01	14933
883.136	14895
883.262	14667
883.388	14659
883.514	14918
883.64	14967
883.766	14804
883.892	14678
884.018	14682
884.143	14857
884.269	14883
884.395	14606
884.52	14518
884.646	14560
884.772	14560
884.897	14476
885.023	14663
885.148	14743
885.274	14648
885.399	14640
885.524	14693
885.65	14564
885.775	14701
885.9	14522
886.025	14762
886.15	14663
886.275	14560
886.4	14431
886.525	14533
886.65	14556
886.775	14541
886.9	14697
887.025	14823
887.149	14655
887.274	14389
887.399	14408
887.523	14374
887.648	14381
887.773	14282
887.897	14537
888.021	14469
888.146	14427
888.27	14484
888.395	14556
888.519	14560
888.643	14526
888.767	14465
888.891	14347
889.015	14225
889.139	14248
889.263	14298
889.387	14423
889.511	14507
889.635	14301
889.759	14278
889.883	14393
890.006	14240
890.13	14404
890.254	14176
890.377	14256
890.501	14008
890.624	14027
890.748	14084
890.871	14035
890.995	13909
891.118	13845
891.241	14069
891.364	13925
891.488	14069
891.611	13967
891.734	14008
891.857	14031
891.98	13963
892.103	14027
892.226	14001
892.349	13928
892.471	13826
892.594	13959
892.717	13986
892.839	13978
892.962	13970
893.085	14081
893.207	13955
893.33	13845
893.452	13852
893.575	14084
893.697	13932
893.819	14161
893.941	14290
894.064	14142
894.186	13963
894.308	14001
894.43	14180
894.552	14267
894.674	14221
894.796	14016
894.918	14084
895.04	14050
895.161	14073
895.283	14153
895.405	13921
895.526	14153
895.648	14115
895.769	14164
895.891	14225
896.012	14149
896.134	14157
896.255	14240
896.376	14073
896.498	14123
896.619	14123
896.74	14134
896.861	14183
896.982	14533
897.103	14663
897.224	14526
897.345	14343
897.466	14457
897.587	14385
897.708	14590
897.828	14389
897.949	14419
898.07	14339
898.19	14351
898.311	14537
898.431	14408
898.552	14499
898.672	14526
898.792	14663
898.913	14545
899.033	14469
899.153	14393
899.273	14252
899.393	14267
899.513	14408
899.633	14343
899.753	14336
899.873	14282
899.993	14446
900.113	14457
900.232	14412
900.352	14305
900.472	14362
900.591	14221
900.711	14275
900.83	14107
900.95	14248
901.069	14301
901.189	14138
901.308	13963
901.427	13852
901.546	13845
901.665	13947
901.784	13875
901.904	13689
902.023	13670
902.141	13537
902.26	13422
902.379	13540
902.498	13491
902.617	13422
902.735	13499
902.854	13407
902.973	13369
903.091	13175
903.21	13225
903.328	13301
903.446	13046
903.565	13050
903.683	13027
903.801	13012
903.919	12981
904.038	13034
904.156	12768
904.274	12920
904.392	12802
904.51	12882
904.627	12833
904.745	12901
904.863	12916
904.981	12707
905.098	12551
905.216	12513
905.334	12578
905.451	12551
905.569	12490
905.686	12517
905.803	12540
905.921	12403
906.038	12506
906.155	12388
906.272	12315
906.389	12262
906.506	12182
906.623	12117
906.74	12019
906.857	12064
906.974	12095
907.091	12247
907.208	12243
907.324	12228
907.441	12106
907.557	11866
907.674	11912
907.79	11813
907.907	11866
908.023	11893
908.139	11859
908.256	11901
908.372	11855
908.488	11786
908.604	11680
908.72	11699
908.836	11623
908.952	11649
909.068	11649
909.184	11748
909.3	11691
909.415	11688
909.531	11646
909.647	11490
909.762	11414
909.878	11444
909.993	11406
910.108	11368
910.224	11440
910.339	11406
910.454	11360
910.57	11273
910.685	11235
910.8	11581
910.915	11478
911.03	11212
911.145	11155
911.259	11201
911.374	11159
911.489	11071
911.604	11014
911.718	10892
911.833	10873
911.947	10725
912.062	10641
912.176	10911
912.291	10946
912.405	10866
912.519	11067
912.633	11075
912.748	10976
912.862	10908
912.976	10752
913.09	10607
913.204	10782
913.318	10850
913.431	10831
913.545	10862
913.659	10908
913.772	10820
913.886	10611
914	10599
914.113	10778
914.226	10782
914.34	10694
914.453	10554
914.566	10752
914.68	10626
914.793	10558
914.906	10493
915.019	10478
915.132	10253
915.245	10390
915.358	10447
915.47	10428
915.583	10462
915.696	10466
915.809	10531
915.921	10577
916.034	10436
916.146	10333
916.259	10295
916.371	10382
916.483	10478
916.595	10246
916.708	10318
916.82	10341
916.932	10348
917.044	10265
917.156	10272
917.268	10166
917.38	10242
917.491	10242
917.603	10261
917.715	10310
917.826	10325
917.938	10230
918.049	10162
918.161	10211
918.272	10253
918.384	10306
918.495	10303
918.606	10063
918.717	9991
918.828	10128
918.939	10093
919.05	10021
919.161	10036
919.272	9884
919.383	9941
919.494	10154
919.604	10379
919.715	10120
919.826	10055
919.936	10093
920.047	10215
920.157	10078
920.267	10360
920.378	10101
920.488	10090
920.598	10322
920.708	10459
920.818	10303
920.928	10272
921.038	10546
921.148	10440
921.258	10116
921.368	10036
921.477	9994
921.587	9956
921.697	9816
921.806	9975
921.916	9876
922.025	9759
922.134	9698
922.244	9591
922.353	9713
922.462	9644
922.571	9530
922.68	9367
922.789	9351
922.898	9424
923.007	9420
923.116	9397
923.224	9420
923.333	9428
923.442	9199
923.55	9268
923.659	9283
923.767	9405
923.876	9203
923.984	9332
924.092	9173
924.201	9294
924.309	9241
924.417	9302
924.525	9154
924.633	9222
924.741	9998
924.849	8952
924.956	9119
925.064	9001
925.172	8960
925.279	8994
925.387	9028
925.494	9039
925.602	9180
925.709	9127
925.816	9024
925.924	9036
926.031	9127
926.138	9146
926.245	9093
926.352	8967
926.459	9100
926.566	9180
926.673	9009
926.779	8948
926.886	8929
926.993	8746
927.099	8785
927.206	8686
927.312	8674
927.419	8796
927.525	8807
927.631	8811
927.737	8705
927.843	8686
927.95	8526
928.056	8629
928.162	8697
928.267	8727
928.373	9230
928.479	8697
928.585	8549
928.69	8617
928.796	8686
928.901	8549
929.007	8507
929.112	8590
929.218	8545
929.323	8454
929.428	8476
929.533	8659
929.638	8465
929.743	8457
929.848	8518
929.953	8446
930.058	8427
930.163	8263
930.267	8263
930.372	8343
930.477	8210
930.581	8461
930.685	8374
930.79	8218
930.894	8244
930.998	8240
931.103	8377
931.207	8005
931.311	7932
931.415	7898
931.519	7769
931.623	7776
