Data from test_V78500241_3226.txt Node
Date: Fri Mar 25 14:56:10 CST 2022
User: usil
Spectrometer: V785-0024
Trigger mode: 0
Integration Time (sec): 4.000000E-1
Scans to average: 1
Nonlinearity correction enabled: false
Boxcar width: 0
Storing dark spectrum: false
XAxis mode: Wavelengths
Number of Pixels in Spectrum: 1024
>>>>>Begin Spectral Data<<<<<
801.071	22078
801.214	21945
801.356	21701
801.499	21572
801.641	21351
801.783	21439
801.926	21321
802.068	21416
802.211	21378
802.353	21184
802.496	20929
802.638	20990
802.78	20910
802.923	20834
803.065	20739
803.208	20667
803.35	20743
803.492	20792
803.635	20967
803.777	20575
803.919	20773
804.061	21180
804.204	20693
804.346	20648
804.488	20560
804.63	20579
804.773	20609
804.915	20632
805.057	20765
805.199	20674
805.341	20701
805.483	20674
805.626	20678
805.768	20533
805.91	20606
806.052	20682
806.194	20480
806.336	20655
806.478	20659
806.62	20670
806.762	20678
806.904	20758
807.046	21058
807.188	20937
807.33	20971
807.472	20910
807.614	20857
807.756	20921
807.898	20648
808.04	20594
808.182	20697
808.324	20716
808.465	20872
808.607	20967
808.749	20960
808.891	21032
809.033	21020
809.174	20952
809.316	20880
809.458	20842
809.6	20952
809.741	20986
809.883	21039
810.025	21085
810.166	21081
810.308	21165
810.45	21165
810.591	21055
810.733	20811
810.875	20667
811.016	20648
811.158	20693
811.299	20743
811.441	20910
811.582	20925
811.724	20788
811.865	20701
812.007	20720
812.148	20697
812.29	20792
812.431	20899
812.573	21013
812.714	21157
812.855	21325
812.997	21329
813.138	21473
813.279	21408
813.421	21268
813.562	21119
813.703	21039
813.845	20891
813.986	20678
814.127	20423
814.268	20202
814.41	20199
814.551	20385
814.692	20381
814.833	20282
814.974	20062
815.115	20195
815.256	20142
815.397	20126
815.539	20168
815.68	19982
815.821	19860
815.962	20024
816.103	20039
816.244	19947
816.385	19742
816.526	19674
816.666	19521
816.807	19419
816.948	19502
817.089	19540
817.23	19537
817.371	19331
817.512	19362
817.653	19419
817.793	19365
817.934	19430
818.075	19411
818.216	19422
818.356	19320
818.497	19213
818.638	19019
818.778	19129
818.919	19095
819.06	19122
819.2	19362
819.341	19282
819.481	19335
819.622	19438
819.762	19510
819.903	19540
820.043	19438
820.184	19365
820.324	19384
820.465	19426
820.605	19346
820.746	19327
820.886	19255
821.026	19259
821.167	19327
821.307	19460
821.447	19274
821.588	19251
821.728	18977
821.868	18996
822.008	18825
822.149	18787
822.289	18749
822.429	18642
822.569	18513
822.709	18471
822.849	18365
822.99	18289
823.13	18232
823.27	18266
823.41	18232
823.55	18072
823.69	18121
823.83	18110
823.97	18106
824.11	17897
824.25	17817
824.389	17764
824.529	17954
824.669	17824
824.809	17984
824.949	17984
825.089	17996
825.228	17878
825.368	17805
825.508	17661
825.648	17600
825.787	17630
825.927	17619
826.067	17532
826.206	17653
826.346	17642
826.485	17680
826.625	17642
826.765	17642
826.904	17676
827.044	17372
827.183	17372
827.323	17242
827.462	17535
827.601	17459
827.741	17299
827.88	17379
828.02	17178
828.159	17242
828.298	17341
828.437	17395
828.577	17379
828.716	17395
828.855	17200
828.994	17064
829.134	17147
829.273	17098
829.412	17075
829.551	17071
829.69	17090
829.829	17010
829.968	17235
830.107	17193
830.246	17102
830.385	17052
830.524	16965
830.663	16862
830.802	16820
830.941	16748
831.08	16668
831.219	16653
831.357	16831
831.496	16881
831.635	16672
831.774	16611
831.913	16679
832.051	16569
832.19	16493
832.329	16436
832.467	16375
832.606	16341
832.744	16405
832.883	16333
833.022	16405
833.16	16344
833.299	16398
833.437	16436
833.576	16497
833.714	16432
833.852	16470
833.991	16558
834.129	16466
834.267	16561
834.406	16421
834.544	16527
834.682	16504
834.821	16379
834.959	16630
835.097	16440
835.235	16558
835.373	16565
835.511	16462
835.65	16405
835.788	16405
835.926	16291
836.064	16143
836.202	16207
836.34	16402
836.478	16424
836.615	16333
836.753	16443
836.891	16470
837.029	16341
837.167	16310
837.305	16436
837.443	16344
837.58	16166
837.718	16306
837.856	16287
837.993	16147
838.131	16219
838.269	16097
838.406	16200
838.544	16173
838.681	15998
838.819	15926
838.956	15850
839.094	15789
839.231	15766
839.369	15941
839.506	16036
839.643	16059
839.781	15759
839.918	15774
840.055	15884
840.193	15759
840.33	15717
840.467	15709
840.604	15778
840.742	15991
840.879	15584
841.016	15648
841.153	15690
841.29	15838
841.427	15895
841.564	15732
841.701	15831
841.838	15842
841.975	15709
842.112	15705
842.249	15652
842.385	15515
842.522	15717
842.659	15603
842.796	15519
842.933	15656
843.069	15469
843.206	15622
843.343	15587
843.479	15625
843.616	15671
843.752	15447
843.889	15424
844.025	15564
844.162	15325
844.298	15408
844.435	15370
844.571	15294
844.708	15405
844.844	15530
844.98	15485
845.117	15458
845.253	15325
845.389	15237
845.525	15279
845.661	15226
845.798	15081
845.934	15184
846.07	15055
846.206	15123
846.342	15275
846.478	15032
846.614	14933
846.75	14937
846.886	14876
847.022	14941
847.158	14979
847.294	14986
847.429	15055
847.565	14906
847.701	15085
847.837	14823
847.972	14678
848.108	14758
848.244	14701
848.379	14556
848.515	14476
848.65	14537
848.786	14629
848.921	14518
849.057	14568
849.192	14587
849.328	14526
849.463	14473
849.598	14488
849.734	14419
849.869	14374
850.004	14221
850.14	14313
850.275	14347
850.41	14202
850.545	14191
850.68	14267
850.815	14248
850.95	14225
851.085	14446
851.22	14400
851.355	14309
851.49	14282
851.625	14259
851.76	14187
851.895	14134
852.03	14206
852.165	14218
852.299	14313
852.434	14370
852.569	14374
852.703	14381
852.838	14415
852.973	14396
853.107	14393
853.242	14259
853.376	14180
853.511	14100
853.645	14142
853.78	14290
853.914	14221
854.048	14123
854.183	14134
854.317	14195
854.451	14267
854.585	14092
854.72	14176
854.854	14202
854.988	13982
855.122	14161
855.256	14069
855.39	14210
855.524	14278
855.658	14149
855.792	14221
855.926	14172
856.06	14172
856.194	14256
856.327	14115
856.461	14039
856.595	14046
856.729	14119
856.862	14271
856.996	14180
857.13	14138
857.263	14309
857.397	14244
857.53	14123
857.664	14225
857.797	14210
857.931	14351
858.064	14107
858.197	14393
858.331	14233
858.464	14069
858.597	14054
858.731	14077
858.864	14191
858.997	14096
859.13	14115
859.263	14176
859.396	14298
859.529	14149
859.662	14157
859.795	14096
859.928	14214
860.061	14366
860.194	14282
860.327	14145
860.46	14008
860.592	14317
860.725	14305
860.858	14218
860.99	14225
861.123	14100
861.256	13982
861.388	14210
861.521	14906
861.653	13993
861.786	13944
861.918	14020
862.05	14092
862.183	14111
862.315	14168
862.447	14172
862.58	14092
862.712	13932
862.844	13887
862.976	13978
863.108	13967
863.24	14374
863.372	13879
863.504	13928
863.636	13970
863.768	13887
863.9	13902
864.032	13898
864.164	13898
864.296	13841
864.428	14123
864.559	14062
864.691	13944
864.823	13947
864.954	13963
865.086	13989
865.217	13940
865.349	13841
865.48	13944
865.612	13906
865.743	14062
865.875	13856
866.006	13837
866.137	13989
866.269	13868
866.4	14069
866.531	13875
866.662	13837
866.793	13868
866.924	13837
867.055	14012
867.186	13913
867.317	13837
867.448	13769
867.579	13917
867.71	13814
867.841	13791
867.972	13947
868.103	13967
868.233	13906
868.364	13928
868.495	13951
868.625	14206
868.756	14130
868.886	14100
869.017	14252
869.147	14389
869.278	14301
869.408	14252
869.539	14180
869.669	14278
869.799	14233
869.929	14294
870.06	14294
870.19	14583
870.32	14530
870.45	14480
870.58	14583
870.71	14739
870.84	14727
870.97	14526
871.1	14492
871.23	14880
871.36	14807
871.489	14575
871.619	14830
871.749	14750
871.879	14876
872.008	14910
872.138	14754
872.267	14739
872.397	14617
872.526	14556
872.656	14556
872.785	14629
872.915	14777
873.044	14929
873.173	14823
873.303	14739
873.432	14895
873.561	14830
873.69	14891
873.819	14838
873.948	14880
874.077	14807
874.206	14811
874.335	14883
874.464	15005
874.593	15089
874.722	15062
874.851	15184
874.979	15165
875.108	15150
875.237	15066
875.365	15020
875.494	15154
875.623	15188
875.751	15062
875.88	15169
876.008	15351
876.136	15397
876.265	15599
876.393	15743
876.521	15618
876.65	15660
876.778	15568
876.906	15481
877.034	15466
877.162	15637
877.29	15523
877.418	15671
877.546	15481
877.674	15660
877.802	15599
877.93	15504
878.058	15557
878.185	15416
878.313	15511
878.441	15572
878.568	15447
878.696	15416
878.824	15504
878.951	15679
879.079	15679
879.206	15743
879.333	15709
879.461	15587
879.588	15675
879.715	15747
879.842	15770
879.97	15709
880.097	15424
880.224	15492
880.351	15408
880.478	15401
880.605	15374
880.732	15416
880.859	15709
880.986	15450
881.112	15447
881.239	15260
881.366	15222
881.493	15100
881.619	15093
881.746	15104
881.872	15013
881.999	15157
882.125	14967
882.252	15097
882.378	15135
882.505	15169
882.631	14963
882.757	14971
882.883	14994
883.01	14906
883.136	14845
883.262	14769
883.388	14743
883.514	14845
883.64	14864
883.766	14811
883.892	14674
884.018	14701
884.143	14773
884.269	14941
884.395	14598
884.52	14594
884.646	14556
884.772	14533
884.897	14511
885.023	14640
885.148	14708
885.274	14743
885.399	14670
885.524	14701
885.65	14495
885.775	14583
885.9	14568
886.025	14606
886.15	14648
886.275	14560
886.4	14377
886.525	14568
886.65	14503
886.775	14545
886.9	14674
887.025	14838
887.149	14552
887.274	14427
887.399	14427
887.523	14400
887.648	14393
887.773	14298
887.897	14545
888.021	14454
888.146	14362
888.27	14556
888.395	14530
888.519	14404
888.643	14518
888.767	14408
888.891	14351
889.015	14301
889.139	14301
889.263	14252
889.387	14427
889.511	14488
889.635	14389
889.759	14313
889.883	14176
890.006	14332
890.13	14450
890.254	14214
890.377	14229
890.501	14065
890.624	14126
890.748	14107
890.871	14084
890.995	14012
891.118	13875
891.241	13936
891.364	14046
891.488	14199
891.611	14024
891.734	14073
891.857	14039
891.98	14012
892.103	14092
892.226	14046
892.349	13955
892.471	13849
892.594	13993
892.717	14001
892.839	14020
892.962	13963
893.085	14043
893.207	14008
893.33	13951
893.452	13944
893.575	14164
893.697	13970
893.819	14191
893.941	14199
894.064	14126
894.186	14012
894.308	14005
894.43	14164
894.552	14195
894.674	14111
894.796	13970
894.918	14035
895.04	14001
895.161	14096
895.283	14138
895.405	14138
895.526	14077
895.648	14168
895.769	14123
895.891	14115
896.012	14221
896.134	14290
896.255	14088
896.376	14221
896.498	14195
896.619	14187
896.74	14244
896.861	14180
896.982	14545
897.103	14724
897.224	14545
897.345	14423
897.466	14366
897.587	14503
897.708	14484
897.828	14431
897.949	14415
898.07	14320
898.19	14389
898.311	14571
898.431	14522
898.552	14522
898.672	14495
898.792	14590
898.913	14587
899.033	14423
899.153	14393
899.273	14317
899.393	14393
899.513	14396
899.633	14328
899.753	14442
899.873	14389
899.993	14446
900.113	14381
900.232	14339
900.352	14362
900.472	14256
900.591	14206
900.711	14221
900.83	14278
900.95	14309
901.069	14381
901.189	14183
901.308	14027
901.427	13902
901.546	13959
901.665	13887
901.784	13913
901.904	13753
902.023	13746
902.141	13575
902.26	13533
902.379	13609
902.498	13491
902.617	13419
902.735	13582
902.854	13468
902.973	13464
903.091	13240
903.21	13232
903.328	13297
903.446	13209
903.565	13069
903.683	13156
903.801	12916
903.919	12989
904.038	13046
904.156	12920
904.274	13053
904.392	12882
904.51	12833
904.627	12848
904.745	12916
904.863	13000
904.981	12749
905.098	12650
905.216	12559
905.334	12665
905.451	12616
905.569	12623
905.686	12597
905.803	12623
905.921	12437
906.038	12570
906.155	12483
906.272	12372
906.389	12391
906.506	12232
906.623	12190
906.74	12140
906.857	12091
906.974	12076
907.091	12319
907.208	12353
907.324	12194
907.441	12167
907.557	11980
907.674	11977
907.79	11904
907.907	11878
908.023	11866
908.139	11946
908.256	11984
908.372	11878
908.488	11878
908.604	11729
908.72	11722
908.836	11714
908.952	11714
909.068	11760
909.184	11779
909.3	11726
909.415	11718
909.531	11699
909.647	11524
909.762	11463
909.878	11417
909.993	11490
910.108	11444
910.224	11482
910.339	11520
910.454	11376
910.57	11368
910.685	11174
910.8	11589
910.915	11524
911.03	11387
911.145	11227
911.259	11174
911.374	11181
911.489	11105
911.604	11052
911.718	10923
911.833	10995
911.947	10752
912.062	10729
912.176	10877
912.291	10987
912.405	10961
912.519	11128
912.633	11185
912.748	11045
912.862	10930
912.976	10854
913.09	10721
913.204	10755
913.318	10854
913.431	10828
913.545	10953
913.659	10919
913.772	10805
913.886	10782
914	10683
914.113	10809
914.226	10831
914.34	10702
914.453	10607
914.566	10843
914.68	10653
914.793	10634
914.906	10500
915.019	10428
915.132	10394
915.245	10379
915.358	10481
915.47	10462
915.583	10447
915.696	10470
915.809	10565
915.921	10596
916.034	10428
916.146	10375
916.259	10386
916.371	10413
916.483	10402
916.595	10318
916.708	10329
916.82	10322
916.932	10360
917.044	10443
917.156	10284
917.268	10280
917.38	10257
917.491	10207
917.603	10337
917.715	10367
917.826	10367
917.938	10284
918.049	10280
918.161	10223
918.272	10428
918.384	10409
918.495	10272
918.606	10143
918.717	10131
918.828	10185
918.939	10196
919.05	10036
919.161	10147
919.272	9934
919.383	10029
919.494	10234
919.604	10363
919.715	10181
919.826	9991
919.936	10082
920.047	10272
920.157	10192
920.267	10344
920.378	10227
920.488	10143
920.598	10318
920.708	10542
920.818	10398
920.928	10398
921.038	10500
921.148	10493
921.258	10181
921.368	10078
921.477	10021
921.587	10032
921.697	9915
921.806	10010
921.916	9949
922.025	9762
922.134	9701
922.244	9709
922.353	9736
922.462	9622
922.571	9595
922.68	9473
922.789	9397
922.898	9530
923.007	9428
923.116	9466
923.224	9386
923.333	9511
923.442	9329
923.55	9226
923.659	9340
923.767	9348
923.876	9283
923.984	9374
924.092	9241
924.201	9287
924.309	9298
924.417	9321
924.525	9199
924.633	9275
924.741	10185
924.849	9047
924.956	9218
925.064	9100
925.172	9013
925.279	9039
925.387	9085
925.494	9093
925.602	9317
925.709	9169
925.816	8967
925.924	9066
926.031	9199
926.138	9135
926.245	9085
926.352	9066
926.459	9138
926.566	9283
926.673	9070
926.779	8979
926.886	8933
926.993	8788
927.099	8842
927.206	8750
927.312	8735
927.419	8788
927.525	8788
927.631	8811
927.737	8754
927.843	8697
927.95	8640
928.056	8686
928.162	8655
928.267	8731
928.373	9283
928.479	8788
928.585	8613
928.69	8701
928.796	8716
928.901	8636
929.007	8454
929.112	8621
929.218	8610
929.323	8533
929.428	8526
929.533	8651
929.638	8431
929.743	8503
929.848	8594
929.953	8587
930.058	8347
930.163	8313
930.267	8351
930.372	8450
930.477	8286
930.581	8545
930.685	8423
930.79	8191
930.894	8259
930.998	8240
931.103	8408
931.207	8024
931.311	7982
931.415	7936
931.519	7715
931.623	7689
