Data from test_V78500241_3333.txt Node
Date: Fri Mar 25 14:56:55 CST 2022
User: usil
Spectrometer: V785-0024
Trigger mode: 0
Integration Time (sec): 4.000000E-1
Scans to average: 1
Nonlinearity correction enabled: false
Boxcar width: 0
Storing dark spectrum: false
XAxis mode: Wavelengths
Number of Pixels in Spectrum: 1024
>>>>>Begin Spectral Data<<<<<
801.071	21975
801.214	21899
801.356	21785
801.499	21515
801.641	21466
801.783	21222
801.926	21378
802.068	21275
802.211	21226
802.353	21108
802.496	20868
802.638	20868
802.78	20861
802.923	20746
803.065	20522
803.208	20613
803.35	20705
803.492	20659
803.635	20743
803.777	20705
803.919	20636
804.061	21013
804.204	20727
804.346	20594
804.488	20541
804.63	20632
804.773	20499
804.915	20492
805.057	20583
805.199	20526
805.341	20526
805.483	20689
805.626	20640
805.768	20594
805.91	20575
806.052	20560
806.194	20389
806.336	20697
806.478	20454
806.62	20571
806.762	20579
806.904	20746
807.046	21066
807.188	20800
807.33	20956
807.472	20986
807.614	20769
807.756	20826
807.898	20598
808.04	20545
808.182	20632
808.324	20568
808.465	20686
808.607	20819
808.749	20933
808.891	20914
809.033	21047
809.174	20781
809.316	20811
809.458	20868
809.6	20872
809.741	20986
809.883	20967
810.025	21085
810.166	21058
810.308	21028
810.45	20952
810.591	20971
810.733	20743
810.875	20667
811.016	20670
811.158	20625
811.299	20621
811.441	20705
811.582	20826
811.724	20697
811.865	20621
812.007	20689
812.148	20625
812.29	20575
812.431	20910
812.573	20921
812.714	21043
812.855	21264
812.997	21245
813.138	21477
813.279	21317
813.421	21146
813.562	20975
813.703	20899
813.845	20727
813.986	20541
814.127	20332
814.268	20370
814.41	20320
814.551	20225
814.692	20256
814.833	20107
814.974	20142
815.115	20187
815.256	20046
815.397	20119
815.539	20115
815.68	20046
815.821	19746
815.962	19849
816.103	19913
816.244	19841
816.385	19738
816.526	19666
816.666	19537
816.807	19460
816.948	19430
817.089	19578
817.23	19331
817.371	19415
817.512	19316
817.653	19289
817.793	19263
817.934	19362
818.075	19491
818.216	19293
818.356	19202
818.497	19179
818.638	18958
818.778	19099
818.919	18954
819.06	18985
819.2	19046
819.341	19282
819.481	19217
819.622	19426
819.762	19559
819.903	19518
820.043	19495
820.184	19369
820.324	19464
820.465	19491
820.605	19316
820.746	19175
820.886	19133
821.026	19320
821.167	19289
821.307	19438
821.447	19236
821.588	19228
821.728	19091
821.868	18951
822.008	18772
822.149	18658
822.289	18700
822.429	18395
822.569	18304
822.709	18429
822.849	18251
822.99	18178
823.13	18243
823.27	18178
823.41	18163
823.55	18038
823.69	17999
823.83	17980
823.97	17946
824.11	17840
824.25	17813
824.389	17779
824.529	17771
824.669	17790
824.809	17931
824.949	17904
825.089	17847
825.228	17817
825.368	17551
825.508	17554
825.648	17505
825.787	17634
825.927	17691
826.067	17642
826.206	17539
826.346	17649
826.485	17596
826.625	17566
826.765	17646
826.904	17528
827.044	17459
827.183	17273
827.323	17296
827.462	17261
827.601	17360
827.741	17223
827.88	17269
828.02	17193
828.159	17231
828.298	17414
828.437	17280
828.577	17322
828.716	17356
828.855	17242
828.994	16972
829.134	17113
829.273	17060
829.412	16889
829.551	16946
829.69	17025
829.829	17140
829.968	17178
830.107	17143
830.246	17075
830.385	17060
830.524	16987
830.663	16843
830.802	16702
830.941	16687
831.08	16626
831.219	16733
831.357	16729
831.496	16908
831.635	16664
831.774	16550
831.913	16603
832.051	16451
832.19	16417
832.329	16447
832.467	16348
832.606	16287
832.744	16352
832.883	16344
833.022	16257
833.16	16421
833.299	16409
833.437	16375
833.576	16436
833.714	16379
833.852	16363
833.991	16405
834.129	16466
834.267	16443
834.406	16440
834.544	16375
834.682	16451
834.821	16344
834.959	16599
835.097	16459
835.235	16428
835.373	16390
835.511	16440
835.65	16394
835.788	16337
835.926	16284
836.064	16200
836.202	16162
836.34	16348
836.478	16538
836.615	16295
836.753	16306
836.891	16291
837.029	16310
837.167	16299
837.305	16169
837.443	16207
837.58	16226
837.718	16299
837.856	16257
837.993	16207
838.131	16238
838.269	16082
838.406	16215
838.544	16200
838.681	15918
838.819	15812
838.956	15724
839.094	15717
839.231	15778
839.369	15899
839.506	16200
839.643	16013
839.781	15812
839.918	15637
840.055	15793
840.193	15850
840.33	15781
840.467	15743
840.604	15804
840.742	16040
840.879	15633
841.016	15724
841.153	15694
841.29	15884
841.427	15720
841.564	15774
841.701	15842
841.838	15549
841.975	15625
842.112	15694
842.249	15515
842.385	15519
842.522	15762
842.659	15553
842.796	15549
842.933	15538
843.069	15408
843.206	15504
843.343	15633
843.479	15618
843.616	15606
843.752	15294
843.889	15336
844.025	15443
844.162	15351
844.298	15397
844.435	15351
844.571	15340
844.708	15416
844.844	15473
844.98	15496
845.117	15450
845.253	15351
845.389	15268
845.525	15241
845.661	15184
845.798	15081
845.934	15081
846.07	15100
846.206	15032
846.342	15275
846.478	15138
846.614	15062
846.75	14876
846.886	14887
847.022	15017
847.158	14872
847.294	14929
847.429	14883
847.565	14845
847.701	15165
847.837	14739
847.972	14667
848.108	14773
848.244	14670
848.379	14495
848.515	14530
848.65	14427
848.786	14484
848.921	14476
849.057	14579
849.192	14590
849.328	14571
849.463	14522
849.598	14499
849.734	14457
849.869	14347
850.004	14336
850.14	14298
850.275	14267
850.41	14115
850.545	14187
850.68	14233
850.815	14229
850.95	14294
851.085	14454
851.22	14446
851.355	14290
851.49	14244
851.625	14294
851.76	14290
851.895	14180
852.03	14180
852.165	14294
852.299	14309
852.434	14313
852.569	14336
852.703	14286
852.838	14336
852.973	14446
853.107	14393
853.242	14240
853.376	14210
853.511	13997
853.645	14092
853.78	14202
853.914	14172
854.048	14050
854.183	14069
854.317	14130
854.451	14282
854.585	14199
854.72	14081
854.854	14229
854.988	14050
855.122	14050
855.256	14065
855.39	14073
855.524	14233
855.658	14210
855.792	14111
855.926	14176
856.06	14164
856.194	14180
856.327	14065
856.461	14058
856.595	13986
856.729	14103
856.862	14214
856.996	14244
857.13	14263
857.263	14271
857.397	14168
857.53	14145
857.664	14221
857.797	14240
857.931	14233
858.064	14161
858.197	14195
858.331	14111
858.464	14149
858.597	14123
858.731	14195
858.864	14142
858.997	14191
859.13	14218
859.263	14046
859.396	14267
859.529	14134
859.662	14062
859.795	14103
859.928	14199
860.061	14271
860.194	14320
860.327	14107
860.46	14153
860.592	14259
860.725	14278
860.858	14332
860.99	14111
861.123	14054
861.256	14145
861.388	14153
861.521	14963
861.653	13909
861.786	13947
861.918	14062
862.05	14073
862.183	14058
862.315	14130
862.447	14157
862.58	14111
862.712	13951
862.844	13875
862.976	14046
863.108	13947
863.24	14351
863.372	13784
863.504	13909
863.636	13925
863.768	14096
863.9	13921
864.032	13849
864.164	13849
864.296	14043
864.428	13997
864.559	14115
864.691	13970
864.823	14035
864.954	13974
865.086	13989
865.217	13871
865.349	13830
865.48	13970
865.612	13898
865.743	14115
865.875	13959
866.006	13902
866.137	13890
866.269	13864
866.4	13879
866.531	13841
866.662	13898
866.793	13864
866.924	13837
867.055	13890
867.186	13856
867.317	13811
867.448	13742
867.579	13917
867.71	13856
867.841	13818
867.972	13932
868.103	13921
868.233	13864
868.364	14001
868.495	13944
868.625	14039
868.756	14252
868.886	14073
869.017	14195
869.147	14286
869.278	14149
869.408	14180
869.539	14130
869.669	14259
869.799	14191
869.929	14305
870.06	14271
870.19	14514
870.32	14434
870.45	14434
870.58	14617
870.71	14564
870.84	14708
870.97	14606
871.1	14583
871.23	14754
871.36	14617
871.489	14625
871.619	14686
871.749	14788
871.879	14857
872.008	14918
872.138	14758
872.267	14735
872.397	14663
872.526	14583
872.656	14571
872.785	14571
872.915	14872
873.044	14944
873.173	14842
873.303	14864
873.432	14834
873.561	14842
873.69	14819
873.819	14895
873.948	14899
874.077	14899
874.206	14754
874.335	14853
874.464	14944
874.593	15108
874.722	15070
874.851	15214
874.979	15218
875.108	15245
875.237	15070
875.365	15165
875.494	15047
875.623	15169
875.751	15142
875.88	15241
876.008	15306
876.136	15401
876.265	15534
876.393	15709
876.521	15660
876.65	15580
876.778	15625
876.906	15587
877.034	15466
877.162	15584
877.29	15504
877.418	15511
877.546	15561
877.674	15534
877.802	15549
877.93	15538
878.058	15496
878.185	15378
878.313	15515
878.441	15530
878.568	15481
878.696	15610
878.824	15519
878.951	15633
879.079	15762
879.206	15907
879.333	15793
879.461	15523
879.588	15679
879.715	15793
879.842	15812
879.97	15701
880.097	15443
880.224	15389
880.351	15481
880.478	15435
880.605	15420
880.732	15447
880.859	15599
880.986	15443
881.112	15405
881.239	15378
881.366	15207
881.493	15077
881.619	14990
881.746	15032
881.872	15123
881.999	14956
882.125	14944
882.252	15188
882.378	14975
882.505	15123
882.631	14941
882.757	14830
882.883	14975
883.01	14891
883.136	14811
883.262	14807
883.388	14800
883.514	14891
883.64	14998
883.766	14864
883.892	14606
884.018	14781
884.143	14876
884.269	14990
884.395	14625
884.52	14583
884.646	14625
884.772	14598
884.897	14636
885.023	14587
885.148	14663
885.274	14765
885.399	14667
885.524	14689
885.65	14579
885.775	14602
885.9	14606
886.025	14670
886.15	14689
886.275	14507
886.4	14514
886.525	14537
886.65	14545
886.775	14587
886.9	14617
887.025	14800
887.149	14590
887.274	14511
887.399	14393
887.523	14286
887.648	14343
887.773	14347
887.897	14396
888.021	14438
888.146	14381
888.27	14419
888.395	14556
888.519	14473
888.643	14503
888.767	14457
888.891	14336
889.015	14214
889.139	14199
889.263	14263
889.387	14377
889.511	14419
889.635	14450
889.759	14282
889.883	14206
890.006	14298
890.13	14427
890.254	14168
890.377	14214
890.501	14103
890.624	14054
890.748	14161
890.871	14054
890.995	13894
891.118	13852
891.241	14008
891.364	14088
891.488	14073
891.611	13963
891.734	14020
891.857	14016
891.98	14050
892.103	14111
892.226	14050
892.349	13967
892.471	13845
892.594	13925
892.717	14012
892.839	13955
892.962	14008
893.085	13959
893.207	13909
893.33	13833
893.452	13849
893.575	13986
893.697	14001
893.819	14153
893.941	14183
894.064	14183
894.186	13898
894.308	13947
894.43	14123
894.552	14252
894.674	14138
894.796	13997
894.918	14020
895.04	14005
895.161	14073
895.283	14065
895.405	14035
895.526	14024
895.648	14145
895.769	14149
895.891	14191
896.012	14214
896.134	14225
896.255	14126
896.376	14119
896.498	14145
896.619	14248
896.74	14180
896.861	14248
896.982	14434
897.103	14579
897.224	14404
897.345	14408
897.466	14358
897.587	14427
897.708	14583
897.828	14473
897.949	14499
898.07	14317
898.19	14370
898.311	14518
898.431	14427
898.552	14473
898.672	14575
898.792	14621
898.913	14503
899.033	14438
899.153	14370
899.273	14336
899.393	14244
899.513	14427
899.633	14355
899.753	14457
899.873	14358
899.993	14499
900.113	14313
900.232	14377
900.352	14355
900.472	14244
900.591	14218
900.711	14164
900.83	14130
900.95	14351
901.069	14381
901.189	14142
901.308	13875
901.427	13875
901.546	13917
901.665	13963
901.784	14058
901.904	13906
902.023	13670
902.141	13700
902.26	13460
902.379	13487
902.498	13491
902.617	13415
902.735	13510
902.854	13514
902.973	13365
903.091	13217
903.21	13183
903.328	13194
903.446	13217
903.565	12951
903.683	13042
903.801	12958
903.919	13065
904.038	12954
904.156	12840
904.274	12932
904.392	12901
904.51	12829
904.627	12863
904.745	12935
904.863	12829
904.981	12620
905.098	12578
905.216	12559
905.334	12563
905.451	12563
905.569	12479
905.686	12570
905.803	12642
905.921	12365
906.038	12547
906.155	12441
906.272	12247
906.389	12327
906.506	12144
906.623	12175
906.74	12068
906.857	12091
906.974	12079
907.091	12144
907.208	12289
907.324	12152
907.441	12091
907.557	11889
907.674	11927
907.79	11809
907.907	11752
908.023	11923
908.139	11923
908.256	11897
908.372	11885
908.488	11802
908.604	11657
908.72	11680
908.836	11767
908.952	11604
909.068	11653
909.184	11756
909.3	11668
909.415	11710
909.531	11745
909.647	11463
909.762	11417
909.878	11360
909.993	11452
910.108	11360
910.224	11360
910.339	11387
910.454	11395
910.57	11220
910.685	11250
910.8	11501
910.915	11429
911.03	11318
911.145	11151
911.259	11132
911.374	11231
911.489	11117
911.604	10946
911.718	10900
911.833	10957
911.947	10797
912.062	10790
912.176	10824
912.291	10858
912.405	10801
912.519	11090
912.633	11086
912.748	10965
912.862	10896
912.976	10740
913.09	10656
913.204	10717
913.318	10824
913.431	10881
913.545	10850
913.659	10930
913.772	10801
913.886	10596
914	10618
914.113	10763
914.226	10866
914.34	10714
914.453	10641
914.566	10763
914.68	10599
914.793	10554
914.906	10447
915.019	10478
915.132	10318
915.245	10348
915.358	10443
915.47	10413
915.583	10367
915.696	10398
915.809	10592
915.921	10558
916.034	10390
916.146	10261
916.259	10341
916.371	10428
916.483	10402
916.595	10287
916.708	10367
916.82	10341
916.932	10303
917.044	10287
917.156	10333
917.268	10261
917.38	10227
917.491	10177
917.603	10223
917.715	10318
917.826	10341
917.938	10211
918.049	10112
918.161	10242
918.272	10398
918.384	10432
918.495	10242
918.606	10242
918.717	10082
918.828	10135
918.939	10120
919.05	9991
919.161	10128
919.272	9972
919.383	9964
919.494	10158
919.604	10329
919.715	10131
919.826	10021
919.936	10116
920.047	10097
920.157	10215
920.267	10291
920.378	10207
920.488	10093
920.598	10417
920.708	10485
920.818	10367
920.928	10329
921.038	10535
921.148	10405
921.258	10215
921.368	10090
921.477	10013
921.587	9907
921.697	9884
921.806	9987
921.916	9857
922.025	9690
922.134	9705
922.244	9572
922.353	9747
922.462	9481
922.571	9549
922.68	9408
922.789	9351
922.898	9420
923.007	9321
923.116	9428
923.224	9458
923.333	9332
923.442	9313
923.55	9203
923.659	9272
923.767	9367
923.876	9279
923.984	9355
924.092	9154
924.201	9279
924.309	9268
924.417	9279
924.525	9249
924.633	9150
924.741	10177
924.849	9058
924.956	9218
925.064	9013
925.172	8952
925.279	8986
925.387	9032
925.494	9005
925.602	9222
925.709	9127
925.816	8990
925.924	9116
926.031	9077
926.138	9051
926.245	9146
926.352	8971
926.459	9116
926.566	9184
926.673	9032
926.779	8921
926.886	8826
926.993	8773
927.099	8727
927.206	8785
927.312	8750
927.419	8819
927.525	8811
927.631	8823
927.737	8697
927.843	8693
927.95	8575
928.056	8583
928.162	8644
928.267	8739
928.373	9428
928.479	8705
928.585	8530
928.69	8682
928.796	8667
928.901	8465
929.007	8492
929.112	8621
929.218	8587
929.323	8511
929.428	8442
929.533	8629
929.638	8396
929.743	8488
929.848	8518
929.953	8454
930.058	8461
930.163	8271
930.267	8252
930.372	8427
930.477	8218
930.581	8465
930.685	8328
930.79	8221
930.894	8252
930.998	8199
931.103	8377
931.207	7940
931.311	7887
931.415	7883
931.519	7666
931.623	7715
