Data from test_V78500241_786.txt Node
Date: Fri Mar 25 14:39:11 CST 2022
User: usil
Spectrometer: V785-0024
Trigger mode: 0
Integration Time (sec): 4.000000E-1
Scans to average: 1
Nonlinearity correction enabled: false
Boxcar width: 0
Storing dark spectrum: false
XAxis mode: Wavelengths
Number of Pixels in Spectrum: 1024
>>>>>Begin Spectral Data<<<<<
801.071	26674
801.214	26511
801.356	26400
801.499	26263
801.641	26172
801.783	26077
801.926	26050
802.068	25833
802.211	25830
802.353	25830
802.496	25696
802.638	25620
802.78	25556
802.923	25578
803.065	25324
803.208	25419
803.35	25472
803.492	25525
803.635	25609
803.777	25506
803.919	25674
804.061	26100
804.204	25757
804.346	25746
804.488	25624
804.63	25715
804.773	25521
804.915	25769
805.057	25909
805.199	26005
805.341	26020
805.483	26005
805.626	26065
805.768	26035
805.91	26275
806.052	26412
806.194	26488
806.336	26845
806.478	26750
806.62	27043
806.762	27313
806.904	27538
807.046	28253
807.188	28211
807.33	28702
807.472	29311
807.614	29790
807.756	30479
807.898	31483
808.04	32861
808.182	34717
808.324	37031
808.465	39701
808.607	42410
808.749	45093
808.891	46729
809.033	46938
809.174	45169
809.316	42817
809.458	39698
809.6	36734
809.741	34367
809.883	32370
810.025	31259
810.166	30174
810.308	29429
810.45	28710
810.591	28325
810.733	27975
810.875	27682
811.016	27344
811.158	26906
811.299	26998
811.441	26842
811.582	26826
811.724	26602
811.865	26377
812.007	26419
812.148	26396
812.29	26332
812.431	26336
812.573	26434
812.714	26598
812.855	26514
812.997	26476
813.138	26716
813.279	26651
813.421	26503
813.562	26461
813.703	26024
813.845	25974
813.986	25693
814.127	25540
814.268	25373
814.41	25266
814.551	25148
814.692	25377
814.833	25179
814.974	25126
815.115	25206
815.256	24943
815.397	24890
815.539	24833
815.68	24882
815.821	24589
815.962	24795
816.103	24764
816.244	24551
816.385	24525
816.526	24471
816.666	24247
816.807	24030
816.948	24167
817.089	24262
817.23	24152
817.371	24030
817.512	24076
817.653	24007
817.793	24038
817.934	24060
818.075	24007
818.216	24064
818.356	23920
818.497	23821
818.638	23718
818.778	23672
818.919	23627
819.06	23775
819.2	23695
819.341	23889
819.481	23954
819.622	24049
819.762	24106
819.903	24060
820.043	23965
820.184	23874
820.324	23923
820.465	24068
820.605	23893
820.746	23817
820.886	23695
821.026	23809
821.167	23646
821.307	23805
821.447	23665
821.588	23520
821.728	23482
821.868	23391
822.008	23151
822.149	23113
822.289	23075
822.429	22835
822.569	22744
822.709	22763
822.849	22565
822.99	22497
823.13	22489
823.27	22497
823.41	22402
823.55	22299
823.69	22440
823.83	22303
823.97	22318
824.11	22158
824.25	22147
824.389	22207
824.529	22078
824.669	22169
824.809	22177
824.949	22226
825.089	22242
825.228	22158
825.368	22006
825.508	21789
825.648	21880
825.787	21941
825.927	21945
826.067	21747
826.206	21797
826.346	21911
826.485	21953
826.625	21797
826.765	22067
826.904	21911
827.044	21648
827.183	21656
827.323	21507
827.462	21667
827.601	21538
827.741	21545
827.88	21545
828.02	21458
828.159	21572
828.298	21701
828.437	21515
828.577	21408
828.716	21633
828.855	21458
828.994	21150
829.134	21272
829.273	21382
829.412	21214
829.551	21195
829.69	21199
829.829	21294
829.968	21294
830.107	21344
830.246	21211
830.385	21123
830.524	21085
830.663	20956
830.802	20933
830.941	20826
831.08	20773
831.219	20967
831.357	20941
831.496	21081
831.635	20857
831.774	20811
831.913	20777
832.051	20701
832.19	20697
832.329	20777
832.467	20560
832.606	20564
832.744	20583
832.883	20750
833.022	20853
833.16	20891
833.299	20929
833.437	21066
833.576	21275
833.714	21355
833.852	21523
833.991	21557
834.129	21701
834.267	21709
834.406	21545
834.544	21523
834.682	21526
834.821	21291
834.959	21393
835.097	21077
835.235	21039
835.373	20902
835.511	20853
835.65	20823
835.788	20674
835.926	20503
836.064	20278
836.202	20431
836.34	20484
836.478	20476
836.615	20396
836.753	20473
836.891	20377
837.029	20434
837.167	20301
837.305	20221
837.443	20168
837.58	20202
837.718	20134
837.856	20199
837.993	20096
838.131	20176
838.269	20195
838.406	20138
838.544	20077
838.681	19776
838.819	19772
838.956	19655
839.094	19590
839.231	19674
839.369	19719
839.506	20008
839.643	19875
839.781	19605
839.918	19540
840.055	19643
840.193	19563
840.33	19643
840.467	19487
840.604	19582
840.742	19826
840.879	19449
841.016	19552
841.153	19521
841.29	19677
841.427	19712
841.564	19712
841.701	19552
841.838	19472
841.975	19571
842.112	19563
842.249	19476
842.385	19362
842.522	19559
842.659	19415
842.796	19324
842.933	19460
843.069	19434
843.206	19403
843.343	19597
843.479	19480
843.616	19632
843.752	19460
843.889	19362
844.025	19586
844.162	19537
844.298	19605
844.435	19791
844.571	19852
844.708	20180
844.844	20526
844.98	20887
845.117	21469
845.253	22306
845.389	23832
845.525	27036
845.661	32012
845.798	37978
845.934	42833
846.07	44381
846.206	43232
846.342	39165
846.478	33245
846.614	28032
846.75	24513
846.886	22546
847.022	21340
847.158	20488
847.294	20043
847.429	19731
847.565	19369
847.701	19525
847.837	18894
847.972	18837
848.108	18878
848.244	18776
848.379	18589
848.515	18517
848.65	18304
848.786	18452
848.921	18319
849.057	18460
849.192	18429
849.328	18410
849.463	18338
849.598	18235
849.734	18205
849.869	18273
850.004	18129
850.14	18064
850.275	18026
850.41	17973
850.545	17996
850.68	18007
850.815	18049
850.95	18072
851.085	18251
851.22	18106
851.355	17973
851.49	18053
851.625	18007
851.76	17946
851.895	17737
852.03	17954
852.165	17999
852.299	17935
852.434	18087
852.569	18087
852.703	18087
852.838	18258
852.973	18319
853.107	18262
853.242	18136
853.376	18144
853.511	17999
853.645	18114
853.78	18159
853.914	18194
854.048	18140
854.183	18163
854.317	18239
854.451	18407
854.585	18209
854.72	18338
854.854	18216
854.988	18034
855.122	18133
855.256	17927
855.39	18076
855.524	18194
855.658	17977
855.792	17969
855.926	17931
856.06	17946
856.194	17999
856.327	18038
856.461	17794
856.595	17794
856.729	17897
856.862	17908
856.996	17912
857.13	17882
857.263	17958
857.397	17988
857.53	17764
857.664	17923
857.797	17908
857.931	17912
858.064	17859
858.197	17866
858.331	17764
858.464	17710
858.597	17764
858.731	17824
858.864	17703
858.997	17653
859.13	17859
859.263	17657
859.396	17901
859.529	17657
859.662	17703
859.795	17665
859.928	17596
860.061	17840
860.194	17923
860.327	17707
860.46	17718
860.592	17836
860.725	17771
860.858	17695
860.99	17722
861.123	17634
861.256	17615
861.388	17703
861.521	18140
861.653	17562
861.786	17505
861.918	17596
862.05	17577
862.183	17676
862.315	17691
862.447	17745
862.58	17573
862.712	17425
862.844	17444
862.976	17436
863.108	17524
863.24	17863
863.372	17261
863.504	17189
863.636	17452
863.768	17356
863.9	17501
864.032	17223
864.164	17235
864.296	17471
864.428	17463
864.559	17463
864.691	17387
864.823	17364
864.954	17356
865.086	17261
865.217	17284
865.349	17083
865.48	17273
865.612	17330
865.743	17421
865.875	17280
866.006	17254
866.137	17242
866.269	17337
866.4	17269
866.531	17235
866.662	17208
866.793	17265
866.924	17208
867.055	17258
867.186	17330
867.317	17181
867.448	17128
867.579	17193
867.71	17128
867.841	17242
867.972	17349
868.103	17303
868.233	17372
868.364	17223
868.495	17395
868.625	17554
868.756	17646
868.886	17402
869.017	17646
869.147	17729
869.278	17551
869.408	17577
869.539	17509
869.669	17703
869.799	17551
869.929	17786
870.06	17790
870.19	17916
870.32	17828
870.45	17912
870.58	17954
870.71	18015
870.84	17996
870.97	18079
871.1	17958
871.23	18270
871.36	18220
871.489	18007
871.619	18201
871.749	18213
871.879	18239
872.008	18429
872.138	18334
872.267	18136
872.397	18114
872.526	18228
872.656	18178
872.785	18205
872.915	18418
873.044	18517
873.173	18410
873.303	18403
873.432	18426
873.561	18585
873.69	18536
873.819	18486
873.948	18593
874.077	18532
874.206	18540
874.335	18566
874.464	18886
874.593	18798
874.722	18905
874.851	19103
874.979	19046
875.108	19156
875.237	19015
875.365	18882
875.494	19076
875.623	19221
875.751	19194
875.88	19247
876.008	19316
876.136	19544
876.265	19753
876.393	19761
876.521	19871
876.65	19921
876.778	19959
876.906	19947
877.034	20039
877.162	20164
877.29	20043
877.418	20172
877.546	20305
877.674	20282
877.802	20480
877.93	20503
878.058	20758
878.185	20804
878.313	21123
878.441	21431
878.568	21739
878.696	22280
878.824	22908
878.951	24057
879.079	25373
879.206	27310
879.333	29067
879.461	30544
879.588	31582
879.715	31632
879.842	30821
879.97	29166
880.097	27199
880.224	25753
880.351	24658
880.478	23843
880.605	23246
880.732	22999
880.859	23010
880.986	22691
881.112	22565
881.239	22421
881.366	22185
881.493	22188
881.619	22109
881.746	22188
881.872	22310
881.999	22192
882.125	22139
882.252	22371
882.378	22333
882.505	22478
882.631	22242
882.757	22124
882.883	22215
883.01	22299
883.136	22082
883.262	21926
883.388	22059
883.514	22131
883.64	22143
883.766	22101
883.892	21835
884.018	21998
884.143	22219
884.269	22219
884.395	21747
884.52	21880
884.646	21888
884.772	21960
884.897	21778
885.023	21873
885.148	21930
885.274	21865
885.399	21835
885.524	21679
885.65	21557
885.775	21500
885.9	21207
886.025	21302
886.15	21127
886.275	20842
886.4	20735
886.525	20701
886.65	20590
886.775	20568
886.9	20476
887.025	20560
887.149	20161
887.274	19967
887.399	19860
887.523	19849
887.648	19685
887.773	19578
887.897	19704
888.021	19575
888.146	19438
888.27	19430
888.395	19384
888.519	19350
888.643	19308
888.767	19343
888.891	19141
889.015	19053
889.139	19000
889.263	18954
889.387	19046
889.511	19072
889.635	18966
889.759	18829
889.883	18749
890.006	18802
890.13	18867
890.254	18509
890.377	18570
890.501	18490
890.624	18350
890.748	18498
890.871	18197
890.995	18152
891.118	18072
891.241	18091
891.364	18140
891.488	18197
891.611	18030
891.734	18026
891.857	18034
891.98	18011
892.103	17996
892.226	17935
892.349	17885
892.471	17813
892.594	17805
892.717	17851
892.839	17775
892.962	17687
893.085	17942
893.207	17653
893.33	17608
893.452	17623
893.575	17729
893.697	17615
893.819	17703
893.941	17764
894.064	17703
894.186	17459
894.308	17482
894.43	17589
894.552	17649
894.674	17558
894.796	17414
894.918	17459
895.04	17471
895.161	17509
895.283	17543
895.405	17421
895.526	17368
895.648	17284
895.769	17410
895.891	17414
896.012	17455
896.134	17429
896.255	17318
896.376	17254
896.498	17345
896.619	17410
896.74	17326
896.861	17391
896.982	17687
897.103	17843
897.224	17604
897.345	17532
897.466	17524
897.587	17600
897.708	17623
897.828	17611
897.949	17433
898.07	17501
898.19	17486
898.311	17627
898.431	17433
898.552	17505
898.672	17630
898.792	17505
898.913	17646
899.033	17467
899.153	17334
899.273	17368
899.393	17216
899.513	17452
899.633	17417
899.753	17334
899.873	17265
899.993	17425
900.113	17322
900.232	17345
900.352	17353
900.472	17261
900.591	17197
900.711	17250
900.83	17181
900.95	17311
901.069	17322
901.189	17037
901.308	16885
901.427	16721
901.546	16816
901.665	16736
901.784	16843
901.904	16565
902.023	16573
902.141	16329
902.26	16314
902.379	16322
902.498	16192
902.617	16090
902.735	16219
902.854	16219
902.973	16090
903.091	15865
903.21	15857
903.328	15884
903.446	15770
903.565	15717
903.683	15793
903.801	15523
903.919	15663
904.038	15618
904.156	15447
904.274	15473
904.392	15469
904.51	15401
904.627	15393
904.745	15321
904.863	15439
904.981	15214
905.098	15089
905.216	15039
905.334	15093
905.451	15142
905.569	14925
905.686	14956
905.803	15051
905.921	14830
906.038	14918
906.155	14845
906.272	14758
906.389	14792
906.506	14648
906.623	14507
906.74	14571
906.857	14434
906.974	14454
907.091	14636
907.208	14678
907.324	14625
907.441	14461
907.557	14355
907.674	14309
907.79	14252
907.907	14259
908.023	14396
908.139	14343
908.256	14233
908.372	14142
908.488	14202
908.604	14100
908.72	14058
908.836	14069
908.952	13963
909.068	14035
909.184	14069
909.3	14016
909.415	14050
909.531	13989
909.647	13757
909.762	13791
909.878	13616
909.993	13727
910.108	13738
910.224	13742
910.339	13822
910.454	13613
910.57	13578
910.685	13552
910.8	13883
910.915	13727
911.03	13556
911.145	13491
911.259	13434
911.374	13445
911.489	13339
911.604	13297
911.718	13244
911.833	13099
911.947	13053
912.062	12962
912.176	13103
912.291	13206
912.405	13160
912.519	13415
912.633	13362
912.748	13335
912.862	13118
912.976	13053
913.09	12932
913.204	12935
913.318	13065
913.431	13126
913.545	13072
913.659	13122
913.772	12973
913.886	12798
914	12817
914.113	12856
914.226	12954
914.34	12973
914.453	12814
914.566	12970
914.68	12856
914.793	12802
914.906	12551
915.019	12506
915.132	12528
915.245	12688
915.358	12639
915.47	12703
915.583	12547
915.696	12616
915.809	12719
915.921	12757
916.034	12627
916.146	12559
916.259	12452
916.371	12753
916.483	12559
916.595	12486
916.708	12601
916.82	12490
916.932	12566
917.044	12566
917.156	12452
917.268	12384
917.38	12376
917.491	12311
917.603	12289
917.715	12528
917.826	12494
917.938	12220
918.049	12167
918.161	12304
918.272	12391
918.384	12464
918.495	12224
918.606	12266
918.717	12045
918.828	12194
918.939	12117
919.05	12129
919.161	12125
919.272	11916
919.383	12064
919.494	12121
919.604	12178
919.715	12087
919.826	11931
919.936	12114
920.047	12220
920.157	12121
920.267	12228
920.378	12171
920.488	12114
920.598	12296
920.708	12350
920.818	12247
920.928	12235
921.038	12426
921.148	12410
921.258	12049
921.368	11984
921.477	11916
921.587	11847
921.697	11821
921.806	11885
921.916	11726
922.025	11539
922.134	11615
922.244	11459
922.353	11589
922.462	11417
922.571	11379
922.68	11155
922.789	11208
922.898	11242
923.007	11212
923.116	11208
923.224	11170
923.333	11204
923.442	11075
923.55	11113
923.659	11071
923.767	11185
923.876	11056
923.984	11231
924.092	10934
924.201	11124
924.309	11083
924.417	10938
924.525	10976
924.633	10927
924.741	11882
924.849	10763
924.956	10999
925.064	10801
925.172	10630
925.279	10767
925.387	10793
925.494	10755
925.602	10881
925.709	10873
925.816	10656
925.924	10778
926.031	10828
926.138	10679
926.245	10725
926.352	10599
926.459	10752
926.566	10839
926.673	10706
926.779	10626
926.886	10580
926.993	10440
927.099	10413
927.206	10386
927.312	10356
927.419	10413
927.525	10447
927.631	10481
927.737	10261
927.843	10318
927.95	10143
928.056	10230
928.162	10249
928.267	10333
928.373	10949
928.479	10360
928.585	10063
928.69	10242
928.796	10299
928.901	10143
929.007	10063
929.112	10215
929.218	10135
929.323	10112
929.428	10036
929.533	10253
929.638	9941
929.743	10010
929.848	10097
929.953	10048
930.058	10002
930.163	9797
930.267	9755
930.372	9994
930.477	9701
930.581	9968
930.685	9907
930.79	9724
930.894	9751
930.998	9701
931.103	9895
931.207	9511
931.311	9408
931.415	9325
931.519	9245
931.623	9138
