Data from test_V78500241_2218.txt Node
Date: Fri Mar 25 14:49:09 CST 2022
User: usil
Spectrometer: V785-0024
Trigger mode: 0
Integration Time (sec): 4.000000E-1
Scans to average: 1
Nonlinearity correction enabled: false
Boxcar width: 0
Storing dark spectrum: false
XAxis mode: Wavelengths
Number of Pixels in Spectrum: 1024
>>>>>Begin Spectral Data<<<<<
801.071	22128
801.214	22055
801.356	21728
801.499	21804
801.641	21530
801.783	21534
801.926	21412
802.068	21485
802.211	21397
802.353	21252
802.496	21058
802.638	20971
802.78	21024
802.923	20804
803.065	20807
803.208	20838
803.35	20769
803.492	20986
803.635	20948
803.777	20902
803.919	20876
804.061	21203
804.204	20994
804.346	20765
804.488	20697
804.63	20765
804.773	20697
804.915	20762
805.057	20876
805.199	20708
805.341	20807
805.483	20823
805.626	20834
805.768	20758
805.91	20781
806.052	20811
806.194	20735
806.336	20842
806.478	20716
806.62	20621
806.762	20838
806.904	20929
807.046	21039
807.188	21108
807.33	21104
807.472	21108
807.614	20937
807.756	21142
807.898	20849
808.04	20750
808.182	20781
808.324	20750
808.465	20925
808.607	21146
808.749	21264
808.891	21131
809.033	21310
809.174	21203
809.316	21077
809.458	21135
809.6	21180
809.741	21249
809.883	21169
810.025	21272
810.166	21325
810.308	21207
810.45	21306
810.591	21047
810.733	21013
810.875	20906
811.016	20986
811.158	20853
811.299	21013
811.441	21058
811.582	21100
811.724	20948
811.865	20960
812.007	20796
812.148	20765
812.29	21024
812.431	21062
812.573	21165
812.714	21325
812.855	21241
812.997	21682
813.138	21652
813.279	21538
813.421	21447
813.562	21272
813.703	21146
813.845	21070
813.986	20758
814.127	20743
814.268	20492
814.41	20530
814.551	20522
814.692	20636
814.833	20351
814.974	20385
815.115	20408
815.256	20412
815.397	20404
815.539	20431
815.68	20153
815.821	20153
815.962	20233
816.103	20077
816.244	20062
816.385	19932
816.526	19909
816.666	19780
816.807	19655
816.948	19689
817.089	19700
817.23	19651
817.371	19681
817.512	19575
817.653	19556
817.793	19521
817.934	19613
818.075	19559
818.216	19639
818.356	19510
818.497	19308
818.638	19194
818.778	19206
818.919	19304
819.06	19266
819.2	19362
819.341	19422
819.481	19411
819.622	19674
819.762	19788
819.903	19719
820.043	19742
820.184	19514
820.324	19537
820.465	19639
820.605	19620
820.746	19540
820.886	19411
821.026	19548
821.167	19453
821.307	19556
821.447	19449
821.588	19297
821.728	19289
821.868	19198
822.008	18932
822.149	19000
822.289	18947
822.429	18703
822.569	18593
822.709	18806
822.849	18521
822.99	18467
823.13	18433
823.27	18407
823.41	18338
823.55	18243
823.69	18296
823.83	18296
823.97	18319
824.11	18140
824.25	17996
824.389	18095
824.529	18117
824.669	18072
824.809	18136
824.949	18205
825.089	18114
825.228	18129
825.368	17851
825.508	17916
825.648	17828
825.787	17863
825.927	17969
826.067	17729
826.206	17786
826.346	17779
826.485	17904
826.625	17767
826.765	17882
826.904	17752
827.044	17509
827.183	17600
827.323	17463
827.462	17596
827.601	17512
827.741	17543
827.88	17417
828.02	17383
828.159	17482
828.298	17524
828.437	17596
828.577	17505
828.716	17638
828.855	17528
828.994	17227
829.134	17379
829.273	17246
829.412	17231
829.551	17010
829.69	17239
829.829	17299
829.968	17334
830.107	17292
830.246	17318
830.385	17212
830.524	17216
830.663	16999
830.802	16999
830.941	16972
831.08	16850
831.219	16889
831.357	16965
831.496	17132
831.635	16923
831.774	16740
831.913	16710
832.051	16691
832.19	16694
832.329	16850
832.467	16588
832.606	16493
832.744	16527
832.883	16523
833.022	16470
833.16	16538
833.299	16588
833.437	16481
833.576	16645
833.714	16531
833.852	16664
833.991	16672
834.129	16706
834.267	16569
834.406	16607
834.544	16592
834.682	16622
834.821	16660
834.959	16744
835.097	16573
835.235	16767
835.373	16550
835.511	16519
835.65	16451
835.788	16584
835.926	16394
836.064	16295
836.202	16390
836.34	16561
836.478	16634
836.615	16565
836.753	16523
836.891	16512
837.029	16565
837.167	16497
837.305	16466
837.443	16455
837.58	16405
837.718	16428
837.856	16413
837.993	16303
838.131	16363
838.269	16455
838.406	16314
838.544	16215
838.681	16074
838.819	16040
838.956	15880
839.094	15956
839.231	16044
839.369	15968
839.506	16394
839.643	16135
839.781	15911
839.918	15907
840.055	15983
840.193	15915
840.33	15888
840.467	15926
840.604	15926
840.742	16166
840.879	15812
841.016	15819
841.153	15816
841.29	16040
841.427	15842
841.564	15949
841.701	15850
841.838	15892
841.975	15785
842.112	15755
842.249	15694
842.385	15698
842.522	15876
842.659	15739
842.796	15675
842.933	15614
843.069	15610
843.206	15568
843.343	15819
843.479	15736
843.616	15675
843.752	15534
843.889	15450
844.025	15694
844.162	15321
844.298	15637
844.435	15526
844.571	15504
844.708	15545
844.844	15682
844.98	15580
845.117	15530
845.253	15416
845.389	15374
845.525	15458
845.661	15393
845.798	15222
845.934	15279
846.07	15260
846.206	15336
846.342	15378
846.478	15237
846.614	15214
846.75	14975
846.886	15036
847.022	15077
847.158	15058
847.294	15028
847.429	15104
847.565	15028
847.701	15310
847.837	14823
847.972	14735
848.108	14872
848.244	14785
848.379	14670
848.515	14610
848.65	14606
848.786	14640
848.921	14686
849.057	14682
849.192	14731
849.328	14705
849.463	14731
849.598	14526
849.734	14625
849.869	14579
850.004	14381
850.14	14473
850.275	14484
850.41	14351
850.545	14347
850.68	14457
850.815	14419
850.95	14442
851.085	14712
851.22	14530
851.355	14431
851.49	14473
851.625	14370
851.76	14336
851.895	14332
852.03	14191
852.165	14358
852.299	14408
852.434	14450
852.569	14438
852.703	14476
852.838	14541
852.973	14526
853.107	14579
853.242	14377
853.376	14278
853.511	14202
853.645	14347
853.78	14484
853.914	14309
854.048	14320
854.183	14229
854.317	14278
854.451	14469
854.585	14259
854.72	14358
854.854	14393
854.988	14229
855.122	14286
855.256	14176
855.39	14301
855.524	14320
855.658	14389
855.792	14377
855.926	14412
856.06	14320
856.194	14336
856.327	14320
856.461	14301
856.595	14339
856.729	14248
856.862	14431
856.996	14294
857.13	14396
857.263	14541
857.397	14332
857.53	14290
857.664	14339
857.797	14400
857.931	14499
858.064	14317
858.197	14400
858.331	14286
858.464	14320
858.597	14290
858.731	14248
858.864	14389
858.997	14317
859.13	14438
859.263	14294
859.396	14419
859.529	14286
859.662	14218
859.795	14172
859.928	14355
860.061	14556
860.194	14495
860.327	14396
860.46	14347
860.592	14404
860.725	14355
860.858	14499
860.99	14317
861.123	14233
861.256	14252
861.388	14286
861.521	14872
861.653	14206
861.786	14142
861.918	14111
862.05	14244
862.183	14221
862.315	14419
862.447	14389
862.58	14317
862.712	14001
862.844	14115
862.976	14145
863.108	14130
863.24	14495
863.372	13989
863.504	14088
863.636	14115
863.768	14119
863.9	14126
864.032	14050
864.164	14043
864.296	14172
864.428	14214
864.559	14157
864.691	14180
864.823	14187
864.954	14161
865.086	14103
865.217	14058
865.349	14016
865.48	14088
865.612	14103
865.743	14237
865.875	14096
866.006	14069
866.137	14077
866.269	14046
866.4	14119
866.531	14008
866.662	14001
866.793	14020
866.924	14020
867.055	13982
867.186	14043
867.317	14069
867.448	14039
867.579	14058
867.71	13928
867.841	13932
867.972	14012
868.103	14062
868.233	14081
868.364	14073
868.495	14176
868.625	14343
868.756	14507
868.886	14183
869.017	14225
869.147	14427
869.278	14461
869.408	14351
869.539	14400
869.669	14362
869.799	14347
869.929	14457
870.06	14499
870.19	14716
870.32	14594
870.45	14663
870.58	14735
870.71	14804
870.84	14876
870.97	14720
871.1	14735
871.23	14826
871.36	14937
871.489	14876
871.619	14979
871.749	14975
871.879	14864
872.008	15055
872.138	14971
872.267	14876
872.397	14746
872.526	14712
872.656	14701
872.785	14697
872.915	14975
873.044	15005
873.173	14952
873.303	14849
873.432	14967
873.561	15009
873.69	15138
873.819	15074
873.948	14990
874.077	14998
874.206	14933
874.335	15039
874.464	15211
874.593	15199
874.722	15264
874.851	15317
874.979	15256
875.108	15416
875.237	15325
875.365	15184
875.494	15222
875.623	15268
875.751	15313
875.88	15374
876.008	15526
876.136	15447
876.265	15743
876.393	15838
876.521	15785
876.65	15762
876.778	15804
876.906	15759
877.034	15705
877.162	15766
877.29	15679
877.418	15625
877.546	15781
877.674	15789
877.802	15660
877.93	15770
878.058	15675
878.185	15622
878.313	15698
878.441	15663
878.568	15564
878.696	15637
878.824	15732
878.951	15778
879.079	15888
879.206	16063
879.333	15922
879.461	15892
879.588	15835
879.715	15907
879.842	16006
879.97	15732
880.097	15568
880.224	15576
880.351	15568
880.478	15622
880.605	15515
880.732	15545
880.859	15671
880.986	15439
881.112	15511
881.239	15469
881.366	15291
881.493	15226
881.619	15154
881.746	15241
881.872	15138
881.999	15222
882.125	15249
882.252	15260
882.378	15195
882.505	15325
882.631	15157
882.757	15077
882.883	15077
883.01	14994
883.136	15062
883.262	14963
883.388	14838
883.514	15032
883.64	15009
883.766	15024
883.892	14804
884.018	14887
884.143	14963
884.269	15211
884.395	14804
884.52	14777
884.646	14689
884.772	14705
884.897	14606
885.023	14697
885.148	14842
885.274	14830
885.399	14689
885.524	14777
885.65	14708
885.775	14754
885.9	14716
886.025	14876
886.15	14769
886.275	14708
886.4	14629
886.525	14720
886.65	14705
886.775	14621
886.9	14929
887.025	14914
887.149	14731
887.274	14629
887.399	14587
887.523	14590
887.648	14503
887.773	14374
887.897	14716
888.021	14613
888.146	14503
888.27	14705
888.395	14705
888.519	14556
888.643	14590
888.767	14598
888.891	14560
889.015	14393
889.139	14385
889.263	14347
889.387	14484
889.511	14617
889.635	14564
889.759	14423
889.883	14412
890.006	14492
890.13	14488
890.254	14328
890.377	14396
890.501	14191
890.624	14195
890.748	14263
890.871	14103
890.995	14161
891.118	14050
891.241	14103
891.364	14187
891.488	14187
891.611	14027
891.734	14149
891.857	14176
891.98	14195
892.103	14187
892.226	14161
892.349	14073
892.471	13944
892.594	14126
892.717	14214
892.839	14065
892.962	14248
893.085	14149
893.207	14119
893.33	14062
893.452	14096
893.575	14229
893.697	14077
893.819	14244
893.941	14317
894.064	14244
894.186	14088
894.308	14111
894.43	14267
894.552	14328
894.674	14240
894.796	14145
894.918	14164
895.04	14214
895.161	14240
895.283	14240
895.405	14161
895.526	14256
895.648	14259
895.769	14225
895.891	14343
896.012	14309
896.134	14263
896.255	14320
896.376	14218
896.498	14240
896.619	14317
896.74	14351
896.861	14332
896.982	14621
897.103	14754
897.224	14537
897.345	14522
897.466	14564
897.587	14530
897.708	14701
897.828	14606
897.949	14556
898.07	14454
898.19	14556
898.311	14644
898.431	14514
898.552	14708
898.672	14667
898.792	14758
898.913	14739
899.033	14568
899.153	14594
899.273	14298
899.393	14549
899.513	14530
899.633	14484
899.753	14579
899.873	14473
899.993	14556
900.113	14415
900.232	14530
900.352	14488
900.472	14446
900.591	14339
900.711	14355
900.83	14278
900.95	14469
901.069	14537
901.189	14298
901.308	14073
901.427	14035
901.546	14058
901.665	14024
901.784	14058
901.904	13986
902.023	13852
902.141	13776
902.26	13712
902.379	13616
902.498	13616
902.617	13613
902.735	13651
902.854	13578
902.973	13559
903.091	13373
903.21	13324
903.328	13339
903.446	13289
903.565	13198
903.683	13171
903.801	13129
903.919	13091
904.038	13141
904.156	12951
904.274	13042
904.392	13034
904.51	13129
904.627	12996
904.745	13008
904.863	13084
904.981	12745
905.098	12635
905.216	12760
905.334	12768
905.451	12817
905.569	12719
905.686	12764
905.803	12741
905.921	12429
906.038	12627
906.155	12433
906.272	12475
906.389	12433
906.506	12292
906.623	12311
906.74	12330
906.857	12148
906.974	12129
907.091	12304
907.208	12422
907.324	12308
907.441	12273
907.557	11965
907.674	12038
907.79	11999
907.907	12034
908.023	11999
908.139	12091
908.256	11923
908.372	11923
908.488	11939
908.604	11729
908.72	11805
908.836	11745
908.952	11760
909.068	11767
909.184	11828
909.3	11798
909.415	11817
909.531	11805
909.647	11570
909.762	11562
909.878	11528
909.993	11570
910.108	11497
910.224	11528
910.339	11501
910.454	11589
910.57	11425
910.685	11349
910.8	11570
910.915	11547
911.03	11497
911.145	11246
911.259	11265
911.374	11227
911.489	11155
911.604	11128
911.718	10972
911.833	10984
911.947	10889
912.062	10774
912.176	10938
912.291	11045
912.405	11018
912.519	11277
912.633	11208
912.748	11048
912.862	11060
912.976	10961
913.09	10748
913.204	10873
913.318	10866
913.431	11003
913.545	10949
913.659	11060
913.772	10869
913.886	10774
914	10691
914.113	10896
914.226	10896
914.34	10828
914.453	10618
914.566	10809
914.68	10683
914.793	10679
914.906	10580
915.019	10466
915.132	10413
915.245	10485
915.358	10493
915.47	10531
915.583	10561
915.696	10485
915.809	10542
915.921	10702
916.034	10531
916.146	10542
916.259	10443
916.371	10573
916.483	10523
916.595	10443
916.708	10421
916.82	10379
916.932	10382
917.044	10432
917.156	10436
917.268	10325
917.38	10360
917.491	10287
917.603	10398
917.715	10413
917.826	10405
917.938	10375
918.049	10234
918.161	10363
918.272	10493
918.384	10493
918.495	10436
918.606	10181
918.717	10101
918.828	10246
918.939	10211
919.05	10116
919.161	10204
919.272	10021
919.383	10135
919.494	10265
919.604	10402
919.715	10177
919.826	10135
919.936	10154
920.047	10253
920.157	10215
920.267	10470
920.378	10215
920.488	10207
920.598	10421
920.708	10683
920.818	10447
920.928	10531
921.038	10645
921.148	10622
921.258	10246
921.368	10158
921.477	10078
921.587	10059
921.697	9956
921.806	10067
921.916	9991
922.025	9819
922.134	9694
922.244	9732
922.353	9816
922.462	9610
922.571	9675
922.68	9511
922.789	9515
922.898	9507
923.007	9431
923.116	9557
923.224	9511
923.333	9511
923.442	9412
923.55	9378
923.659	9416
923.767	9447
923.876	9363
923.984	9450
924.092	9386
924.201	9386
924.309	9355
924.417	9378
924.525	9374
924.633	9397
924.741	10238
924.849	9119
924.956	9275
925.064	9161
925.172	9142
925.279	9093
925.387	9104
925.494	9195
925.602	9249
925.709	9249
925.816	9108
925.924	9180
926.031	9245
926.138	9176
926.245	9241
926.352	9154
926.459	9264
926.566	9226
926.673	9173
926.779	9085
926.886	9005
926.993	8876
927.099	8914
927.206	8895
927.312	8883
927.419	8899
927.525	8899
927.631	8929
927.737	8804
927.843	8766
927.95	8655
928.056	8785
928.162	8750
928.267	8815
928.373	9492
928.479	8895
928.585	8701
928.69	8842
928.796	8849
928.901	8644
929.007	8552
929.112	8724
929.218	8682
929.323	8636
929.428	8575
929.533	8788
929.638	8541
929.743	8659
929.848	8629
929.953	8625
930.058	8537
930.163	8381
930.267	8393
930.372	8530
930.477	8305
930.581	8560
930.685	8476
930.79	8290
930.894	8332
930.998	8267
931.103	8389
931.207	8027
931.311	8073
931.415	8012
931.519	7837
931.623	7795
