Data from test_V78500241_3091.txt Node
Date: Fri Mar 25 14:55:14 CST 2022
User: usil
Spectrometer: V785-0024
Trigger mode: 0
Integration Time (sec): 4.000000E-1
Scans to average: 1
Nonlinearity correction enabled: false
Boxcar width: 0
Storing dark spectrum: false
XAxis mode: Wavelengths
Number of Pixels in Spectrum: 1024
>>>>>Begin Spectral Data<<<<<
801.071	22017
801.214	21934
801.356	21637
801.499	21561
801.641	21420
801.783	21466
801.926	21424
802.068	21416
802.211	21294
802.353	21192
802.496	20929
802.638	20864
802.78	20902
802.923	20845
803.065	20693
803.208	20739
803.35	20731
803.492	20811
803.635	20963
803.777	20765
803.919	20921
804.061	20971
804.204	20868
804.346	20720
804.488	20568
804.63	20743
804.773	20518
804.915	20621
805.057	20792
805.199	20606
805.341	20746
805.483	20765
805.626	20739
805.768	20636
805.91	20750
806.052	20769
806.194	20465
806.336	20815
806.478	20648
806.62	20617
806.762	20804
806.904	20876
807.046	21188
807.188	21005
807.33	20975
807.472	20986
807.614	20880
807.756	20944
807.898	20705
808.04	20785
808.182	20815
808.324	20834
808.465	20948
808.607	21001
808.749	21081
808.891	21249
809.033	21218
809.174	21188
809.316	21093
809.458	21032
809.6	21081
809.741	21081
809.883	21157
810.025	21275
810.166	21161
810.308	21211
810.45	21214
810.591	21020
810.733	20899
810.875	20880
811.016	20724
811.158	20735
811.299	20902
811.441	20925
811.582	21085
811.724	20845
811.865	20811
812.007	20838
812.148	20849
812.29	20758
812.431	20967
812.573	21260
812.714	21119
812.855	21287
812.997	21458
813.138	21614
813.279	21515
813.421	21207
813.562	21245
813.703	21127
813.845	20941
813.986	20625
814.127	20545
814.268	20427
814.41	20355
814.551	20404
814.692	20431
814.833	20259
814.974	20362
815.115	20332
815.256	20259
815.397	20180
815.539	20248
815.68	20084
815.821	20058
815.962	20164
816.103	20058
816.244	19982
816.385	19879
816.526	19822
816.666	19708
816.807	19441
816.948	19620
817.089	19662
817.23	19575
817.371	19487
817.512	19556
817.653	19438
817.793	19483
817.934	19525
818.075	19529
818.216	19426
818.356	19457
818.497	19312
818.638	19194
818.778	19202
818.919	19259
819.06	19331
819.2	19304
819.341	19438
819.481	19308
819.622	19601
819.762	19727
819.903	19677
820.043	19635
820.184	19373
820.324	19491
820.465	19483
820.605	19510
820.746	19411
820.886	19255
821.026	19392
821.167	19392
821.307	19464
821.447	19369
821.588	19266
821.728	19122
821.868	18970
822.008	18958
822.149	18924
822.289	18901
822.429	18817
822.569	18551
822.709	18582
822.849	18399
822.99	18384
823.13	18273
823.27	18239
823.41	18163
823.55	18026
823.69	18194
823.83	18205
823.97	18144
824.11	17908
824.25	17923
824.389	18057
824.529	17912
824.669	17908
824.809	17988
824.949	17942
825.089	17996
825.228	17977
825.368	17878
825.508	17741
825.648	17790
825.787	17779
825.927	17726
826.067	17756
826.206	17680
826.346	17752
826.485	17695
826.625	17790
826.765	17771
826.904	17821
827.044	17554
827.183	17444
827.323	17372
827.462	17493
827.601	17421
827.741	17353
827.88	17356
828.02	17334
828.159	17379
828.298	17448
828.437	17372
828.577	17395
828.716	17520
828.855	17421
828.994	17102
829.134	17124
829.273	17292
829.412	17136
829.551	17174
829.69	17178
829.829	17166
829.968	17296
830.107	17098
830.246	17170
830.385	17102
830.524	17067
830.663	16942
830.802	16858
830.941	16812
831.08	16664
831.219	16736
831.357	16828
831.496	17010
831.635	16877
831.774	16713
831.913	16664
832.051	16599
832.19	16531
832.329	16573
832.467	16341
832.606	16371
832.744	16500
832.883	16485
833.022	16356
833.16	16447
833.299	16382
833.437	16519
833.576	16516
833.714	16432
833.852	16493
833.991	16481
834.129	16527
834.267	16607
834.406	16550
834.544	16447
834.682	16474
834.821	16504
834.959	16615
835.097	16455
835.235	16672
835.373	16645
835.511	16558
835.65	16436
835.788	16451
835.926	16280
836.064	16207
836.202	16154
836.34	16440
836.478	16508
836.615	16265
836.753	16325
836.891	16516
837.029	16386
837.167	16295
837.305	16379
837.443	16306
837.58	16238
837.718	16169
837.856	16249
837.993	16192
838.131	16242
838.269	16169
838.406	16196
838.544	16067
838.681	16010
838.819	15972
838.956	15819
839.094	15835
839.231	15888
839.369	16051
839.506	16249
839.643	15998
839.781	15808
839.918	15789
840.055	15781
840.193	15861
840.33	15827
840.467	15781
840.604	15842
840.742	16006
840.879	15629
841.016	15762
841.153	15720
841.29	15907
841.427	15873
841.564	15854
841.701	15846
841.838	15701
841.975	15766
842.112	15705
842.249	15622
842.385	15545
842.522	15778
842.659	15587
842.796	15656
842.933	15660
843.069	15557
843.206	15561
843.343	15671
843.479	15625
843.616	15595
843.752	15340
843.889	15389
844.025	15591
844.162	15306
844.298	15454
844.435	15420
844.571	15298
844.708	15325
844.844	15553
844.98	15466
845.117	15534
845.253	15378
845.389	15306
845.525	15287
845.661	15241
845.798	15154
845.934	15283
846.07	15150
846.206	15203
846.342	15252
846.478	15222
846.614	15112
846.75	14933
846.886	14944
847.022	15043
847.158	14990
847.294	15039
847.429	15055
847.565	14986
847.701	15081
847.837	14712
847.972	14663
848.108	14769
848.244	14819
848.379	14621
848.515	14587
848.65	14488
848.786	14537
848.921	14579
849.057	14610
849.192	14625
849.328	14598
849.463	14537
849.598	14480
849.734	14454
849.869	14427
850.004	14434
850.14	14393
850.275	14301
850.41	14176
850.545	14256
850.68	14351
850.815	14214
850.95	14385
851.085	14556
851.22	14396
851.355	14294
851.49	14256
851.625	14244
851.76	14278
851.895	14202
852.03	14298
852.165	14282
852.299	14309
852.434	14332
852.569	14366
852.703	14374
852.838	14370
852.973	14438
853.107	14423
853.242	14347
853.376	14214
853.511	14180
853.645	14157
853.78	14343
853.914	14252
854.048	14092
854.183	14214
854.317	14153
854.451	14298
854.585	14221
854.72	14153
854.854	14237
854.988	14176
855.122	14206
855.256	14016
855.39	14298
855.524	14233
855.658	14168
855.792	14256
855.926	14358
856.06	14298
856.194	14240
856.327	14195
856.461	14145
856.595	14069
856.729	14180
856.862	14396
856.996	14282
857.13	14263
857.263	14286
857.397	14244
857.53	14298
857.664	14286
857.797	14324
857.931	14343
858.064	14172
858.197	14298
858.331	14077
858.464	14149
858.597	14164
858.731	14183
858.864	14092
858.997	14077
859.13	14191
859.263	14176
859.396	14328
859.529	14043
859.662	14176
859.795	14149
859.928	14256
860.061	14320
860.194	14343
860.327	14187
860.46	14221
860.592	14294
860.725	14278
860.858	14332
860.99	14233
861.123	14100
861.256	14161
861.388	14195
861.521	14880
861.653	14046
861.786	14054
861.918	14084
862.05	14096
862.183	14153
862.315	14138
862.447	14328
862.58	14088
862.712	14016
862.844	13928
862.976	14050
863.108	14065
863.24	14324
863.372	13955
863.504	13982
863.636	13944
863.768	14107
863.9	13986
864.032	13959
864.164	14012
864.296	14039
864.428	13974
864.559	14096
864.691	14084
864.823	13974
864.954	13997
865.086	13963
865.217	14016
865.349	13921
865.48	13974
865.612	14012
865.743	14043
865.875	14039
866.006	14001
866.137	13951
866.269	13955
866.4	13970
866.531	13818
866.662	13852
866.793	13928
866.924	13963
867.055	14012
867.186	13955
867.317	13967
867.448	13837
867.579	13830
867.71	13833
867.841	13833
867.972	13970
868.103	13928
868.233	14005
868.364	13940
868.495	13997
868.625	14195
868.756	14244
868.886	14073
869.017	14199
869.147	14271
869.278	14248
869.408	14069
869.539	14263
869.669	14210
869.799	14271
869.929	14286
870.06	14191
870.19	14575
870.32	14476
870.45	14495
870.58	14785
870.71	14724
870.84	14686
870.97	14564
871.1	14632
871.23	14785
871.36	14857
871.489	14693
871.619	14777
871.749	14686
871.879	14868
872.008	14910
872.138	14743
872.267	14811
872.397	14701
872.526	14579
872.656	14610
872.785	14670
872.915	14883
873.044	14845
873.173	14777
873.303	14960
873.432	14975
873.561	14941
873.69	14842
873.819	14868
873.948	15001
874.077	14823
874.206	14864
874.335	14883
874.464	14994
874.593	15241
874.722	15123
874.851	15112
874.979	15089
875.108	15245
875.237	15161
875.365	15058
875.494	15135
875.623	15199
875.751	15085
875.88	15233
876.008	15386
876.136	15370
876.265	15553
876.393	15739
876.521	15564
876.65	15660
876.778	15591
876.906	15500
877.034	15587
877.162	15507
877.29	15504
877.418	15496
877.546	15584
877.674	15481
877.802	15656
877.93	15469
878.058	15584
878.185	15424
878.313	15538
878.441	15614
878.568	15412
878.696	15545
878.824	15576
878.951	15572
879.079	15682
879.206	15789
879.333	15751
879.461	15637
879.588	15781
879.715	15732
879.842	15865
879.97	15656
880.097	15481
880.224	15416
880.351	15587
880.478	15488
880.605	15332
880.732	15405
880.859	15629
880.986	15519
881.112	15462
881.239	15378
881.366	15161
881.493	15127
881.619	15108
881.746	15207
881.872	15116
881.999	15074
882.125	15043
882.252	15020
882.378	15108
882.505	15218
882.631	15039
882.757	14914
882.883	14963
883.01	14883
883.136	14773
883.262	14819
883.388	14750
883.514	14925
883.64	14941
883.766	14842
883.892	14712
884.018	14792
884.143	14857
884.269	15017
884.395	14686
884.52	14640
884.646	14693
884.772	14507
884.897	14522
885.023	14651
885.148	14655
885.274	14807
885.399	14727
885.524	14670
885.65	14701
885.775	14552
885.9	14689
886.025	14716
886.15	14731
886.275	14598
886.4	14492
886.525	14598
886.65	14613
886.775	14518
886.9	14621
887.025	14876
887.149	14602
887.274	14465
887.399	14480
887.523	14514
887.648	14461
887.773	14336
887.897	14583
888.021	14427
888.146	14457
888.27	14571
888.395	14469
888.519	14617
888.643	14473
888.767	14571
888.891	14339
889.015	14225
889.139	14362
889.263	14275
889.387	14396
889.511	14560
889.635	14526
889.759	14263
889.883	14317
890.006	14324
890.13	14412
890.254	14343
890.377	14244
890.501	14161
890.624	14115
890.748	14130
890.871	13978
890.995	13978
891.118	13925
891.241	14043
891.364	13974
891.488	14149
891.611	14081
891.734	14062
891.857	13970
891.98	14103
892.103	14092
892.226	14065
892.349	14073
892.471	13940
892.594	13959
892.717	14092
892.839	13986
892.962	13925
893.085	14016
893.207	14012
893.33	13852
893.452	13982
893.575	14012
893.697	13959
893.819	14180
893.941	14107
894.064	14183
894.186	14005
894.308	13997
894.43	14092
894.552	14161
894.674	14123
894.796	13947
894.918	14012
895.04	13970
895.161	14252
895.283	14088
895.405	14043
895.526	14149
895.648	14107
895.769	14096
895.891	14183
896.012	14218
896.134	14244
896.255	14088
896.376	14161
896.498	14172
896.619	14202
896.74	14214
896.861	14221
896.982	14587
897.103	14640
897.224	14450
897.345	14465
897.466	14431
897.587	14400
897.708	14556
897.828	14476
897.949	14396
898.07	14286
898.19	14438
898.311	14594
898.431	14400
898.552	14476
898.672	14617
898.792	14533
898.913	14629
899.033	14419
899.153	14313
899.273	14309
899.393	14278
899.513	14385
899.633	14457
899.753	14408
899.873	14389
899.993	14473
900.113	14305
900.232	14423
900.352	14450
900.472	14298
900.591	14221
900.711	14351
900.83	14183
900.95	14351
901.069	14328
901.189	14161
901.308	13978
901.427	13967
901.546	13917
901.665	13932
901.784	13894
901.904	13837
902.023	13784
902.141	13597
902.26	13537
902.379	13590
902.498	13480
902.617	13472
902.735	13518
902.854	13514
902.973	13518
903.091	13244
903.21	13259
903.328	13263
903.446	13187
903.565	13050
903.683	13118
903.801	12947
903.919	12905
904.038	13065
904.156	12951
904.274	13031
904.392	12856
904.51	12867
904.627	12894
904.745	12871
904.863	12916
904.981	12692
905.098	12604
905.216	12604
905.334	12593
905.451	12574
905.569	12547
905.686	12639
905.803	12551
905.921	12380
906.038	12456
906.155	12395
906.272	12346
906.389	12262
906.506	12136
906.623	12235
906.74	12091
906.857	12068
906.974	12095
907.091	12186
907.208	12350
907.324	12190
907.441	12102
907.557	11866
907.674	11843
907.79	11783
907.907	11805
908.023	11935
908.139	11912
908.256	11809
908.372	11874
908.488	11821
908.604	11676
908.72	11630
908.836	11707
908.952	11608
909.068	11672
909.184	11828
909.3	11718
909.415	11665
909.531	11722
909.647	11493
909.762	11448
909.878	11387
909.993	11505
910.108	11433
910.224	11383
910.339	11463
910.454	11368
910.57	11273
910.685	11212
910.8	11493
910.915	11497
911.03	11258
911.145	11181
911.259	11117
911.374	11181
911.489	11079
911.604	11003
911.718	10934
911.833	10980
911.947	10831
912.062	10744
912.176	10953
912.291	10881
912.405	10908
912.519	11048
912.633	11185
912.748	10995
912.862	10938
912.976	10793
913.09	10672
913.204	10820
913.318	10744
913.431	10812
913.545	10892
913.659	10869
913.772	10767
913.886	10626
914	10653
914.113	10793
914.226	10812
914.34	10885
914.453	10584
914.566	10759
914.68	10656
914.793	10588
914.906	10409
915.019	10356
915.132	10432
915.245	10375
915.358	10402
915.47	10443
915.583	10398
915.696	10500
915.809	10634
915.921	10577
916.034	10421
916.146	10363
916.259	10348
916.371	10527
916.483	10443
916.595	10322
916.708	10402
916.82	10363
916.932	10360
917.044	10348
917.156	10306
917.268	10211
917.38	10249
917.491	10207
917.603	10200
917.715	10379
917.826	10306
917.938	10223
918.049	10158
918.161	10314
918.272	10409
918.384	10398
918.495	10261
918.606	10082
918.717	10097
918.828	10135
918.939	10120
919.05	10074
919.161	10112
919.272	9949
919.383	9983
919.494	10169
919.604	10382
919.715	10204
919.826	10109
919.936	10086
920.047	10268
920.157	10185
920.267	10394
920.378	10169
920.488	10207
920.598	10318
920.708	10535
920.818	10352
920.928	10333
921.038	10447
921.148	10466
921.258	10162
921.368	10082
921.477	10063
921.587	9907
921.697	9922
921.806	10029
921.916	9960
922.025	9793
922.134	9759
922.244	9622
922.353	9816
922.462	9606
922.571	9504
922.68	9374
922.789	9420
922.898	9458
923.007	9348
923.116	9405
923.224	9450
923.333	9363
923.442	9329
923.55	9241
923.659	9310
923.767	9359
923.876	9325
923.984	9348
924.092	9188
924.201	9230
924.309	9211
924.417	9245
924.525	9237
924.633	9214
924.741	10211
924.849	9066
924.956	9222
925.064	9020
925.172	8982
925.279	9051
925.387	9028
925.494	8998
925.602	9169
925.709	9214
925.816	8994
925.924	9047
926.031	9154
926.138	9081
926.245	9131
926.352	8998
926.459	9108
926.566	9131
926.673	9081
926.779	8944
926.886	8899
926.993	8792
927.099	8739
927.206	8777
927.312	8766
927.419	8830
927.525	8891
927.631	8769
927.737	8689
927.843	8724
927.95	8549
928.056	8651
928.162	8670
928.267	8792
928.373	9321
928.479	8773
928.585	8564
928.69	8655
928.796	8716
928.901	8571
929.007	8446
929.112	8655
929.218	8606
929.323	8503
929.428	8511
929.533	8571
929.638	8457
929.743	8457
929.848	8552
929.953	8461
930.058	8374
930.163	8294
930.267	8252
930.372	8393
930.477	8214
930.581	8511
930.685	8427
930.79	8248
930.894	8214
930.998	8248
931.103	8377
931.207	8035
931.311	7951
931.415	7852
931.519	7704
931.623	7693
