Data from test_V78500241_1547.txt Node
Date: Fri Mar 25 14:44:29 CST 2022
User: usil
Spectrometer: V785-0024
Trigger mode: 0
Integration Time (sec): 4.000000E-1
Scans to average: 1
Nonlinearity correction enabled: false
Boxcar width: 0
Storing dark spectrum: false
XAxis mode: Wavelengths
Number of Pixels in Spectrum: 1024
>>>>>Begin Spectral Data<<<<<
801.071	22512
801.214	22325
801.356	22059
801.499	21895
801.641	21762
801.783	21709
801.926	21770
802.068	21816
802.211	21641
802.353	21724
802.496	21412
802.638	21416
802.78	21302
802.923	21150
803.065	21055
803.208	21036
803.35	21230
803.492	21199
803.635	21252
803.777	21013
803.919	21275
804.061	21614
804.204	21256
804.346	21081
804.488	21066
804.63	21070
804.773	21013
804.915	21070
805.057	21184
805.199	21138
805.341	21081
805.483	21195
805.626	21127
805.768	20956
805.91	21058
806.052	20998
806.194	21032
806.336	21184
806.478	21024
806.62	20929
806.762	21043
806.904	21233
807.046	21443
807.188	21351
807.33	21378
807.472	21408
807.614	21382
807.756	21526
807.898	21332
808.04	21218
808.182	21382
808.324	21169
808.465	21176
808.607	21549
808.749	21519
808.891	21736
809.033	21793
809.174	21660
809.316	21591
809.458	21469
809.6	21485
809.741	21641
809.883	21633
810.025	21675
810.166	21675
810.308	21724
810.45	21534
810.591	21553
810.733	21264
810.875	21241
811.016	21252
811.158	21249
811.299	21275
811.441	21435
811.582	21389
811.724	21256
811.865	21211
812.007	21214
812.148	21222
812.29	21283
812.431	21454
812.573	21511
812.714	21572
812.855	21759
812.997	21876
813.138	21831
813.279	21850
813.421	21766
813.562	21686
813.703	21625
813.845	21344
813.986	21039
814.127	20925
814.268	20952
814.41	20765
814.551	20743
814.692	20777
814.833	20583
814.974	20716
815.115	20788
815.256	20571
815.397	20625
815.539	20590
815.68	20549
815.821	20423
815.962	20579
816.103	20518
816.244	20400
816.385	20271
816.526	20157
816.666	20153
816.807	20081
816.948	20115
817.089	20046
817.23	20077
817.371	19841
817.512	19887
817.653	19997
817.793	19947
817.934	19894
818.075	19955
818.216	19978
818.356	19875
818.497	19738
818.638	19582
818.778	19510
818.919	19567
819.06	19670
819.2	19723
819.341	19734
819.481	19788
819.622	19875
819.762	19986
819.903	20058
820.043	19932
820.184	19959
820.324	19807
820.465	19871
820.605	19967
820.746	19818
820.886	19769
821.026	19849
821.167	19799
821.307	19890
821.447	19913
821.588	19704
821.728	19605
821.868	19392
822.008	19263
822.149	19266
822.289	19232
822.429	19004
822.569	19019
822.709	19008
822.849	18977
822.99	18817
823.13	18859
823.27	18677
823.41	18661
823.55	18578
823.69	18639
823.83	18551
823.97	18563
824.11	18365
824.25	18334
824.389	18350
824.529	18547
824.669	18372
824.809	18574
824.949	18414
825.089	18479
825.228	18361
825.368	18205
825.508	18102
825.648	18163
825.787	18277
825.927	18190
826.067	18182
826.206	18152
826.346	18182
826.485	18133
826.625	18110
826.765	18262
826.904	18117
827.044	17901
827.183	17920
827.323	17866
827.462	17897
827.601	17874
827.741	17767
827.88	17878
828.02	17684
828.159	17809
828.298	17840
828.437	17908
828.577	17783
828.716	17916
828.855	17729
828.994	17581
829.134	17566
829.273	17672
829.412	17467
829.551	17543
829.69	17509
829.829	17649
829.968	17714
830.107	17642
830.246	17661
830.385	17425
830.524	17471
830.663	17417
830.802	17318
830.941	17235
831.08	17143
831.219	17277
831.357	17273
831.496	17376
831.635	17235
831.774	17185
831.913	17064
832.051	16999
832.19	16915
832.329	16995
832.467	16820
832.606	16942
832.744	16847
832.883	16790
833.022	16858
833.16	16946
833.299	16843
833.437	16896
833.576	16923
833.714	16915
833.852	16854
833.991	16972
834.129	16866
834.267	16946
834.406	16946
834.544	16900
834.682	16831
834.821	16908
834.959	17064
835.097	16835
835.235	16968
835.373	17003
835.511	16915
835.65	16744
835.788	16812
835.926	16645
836.064	16596
836.202	16580
836.34	16889
836.478	16900
836.615	16885
836.753	16831
836.891	16885
837.029	16790
837.167	16767
837.305	16805
837.443	16672
837.58	16656
837.718	16706
837.856	16713
837.993	16668
838.131	16725
838.269	16653
838.406	16615
838.544	16565
838.681	16337
838.819	16375
838.956	16181
839.094	16147
839.231	16284
839.369	16306
839.506	16588
839.643	16318
839.781	16303
839.918	16150
840.055	16234
840.193	16185
840.33	16139
840.467	16200
840.604	16246
840.742	16500
840.879	16150
841.016	16139
841.153	16124
841.29	16265
841.427	16211
841.564	16196
841.701	16230
841.838	16169
841.975	16109
842.112	16124
842.249	16051
842.385	15930
842.522	16196
842.659	15956
842.796	16017
842.933	16158
843.069	15922
843.206	15850
843.343	15983
843.479	16059
843.616	16048
843.752	15717
843.889	15747
844.025	15953
844.162	15759
844.298	15838
844.435	15770
844.571	15728
844.708	15804
844.844	15922
844.98	15865
845.117	15831
845.253	15732
845.389	15671
845.525	15690
845.661	15663
845.798	15728
845.934	15781
846.07	15637
846.206	15838
846.342	15930
846.478	15618
846.614	15485
846.75	15310
846.886	15306
847.022	15416
847.158	15382
847.294	15344
847.429	15389
847.565	15291
847.701	15523
847.837	15074
847.972	15108
848.108	15157
848.244	15142
848.379	14937
848.515	14971
848.65	14975
848.786	14937
848.921	14910
849.057	15089
849.192	14994
849.328	14975
849.463	14876
849.598	14880
849.734	14845
849.869	14899
850.004	14773
850.14	14769
850.275	14731
850.41	14651
850.545	14571
850.68	14564
850.815	14602
850.95	14644
851.085	14861
851.22	14800
851.355	14640
851.49	14689
851.625	14587
851.76	14587
851.895	14564
852.03	14602
852.165	14602
852.299	14739
852.434	14823
852.569	14667
852.703	14663
852.838	14807
852.973	14857
853.107	14895
853.242	14739
853.376	14518
853.511	14419
853.645	14590
853.78	14613
853.914	14571
854.048	14541
854.183	14522
854.317	14484
854.451	14792
854.585	14507
854.72	14556
854.854	14705
854.988	14389
855.122	14526
855.256	14446
855.39	14511
855.524	14522
855.658	14632
855.792	14583
855.926	14602
856.06	14617
856.194	14648
856.327	14522
856.461	14469
856.595	14480
856.729	14480
856.862	14632
856.996	14480
857.13	14648
857.263	14659
857.397	14727
857.53	14465
857.664	14655
857.797	14610
857.931	14663
858.064	14564
858.197	14651
858.331	14518
858.464	14541
858.597	14408
858.731	14408
858.864	14560
858.997	14541
859.13	14644
859.263	14640
859.396	14579
859.529	14461
859.662	14564
859.795	14526
859.928	14514
860.061	14682
860.194	14754
860.327	14674
860.46	14640
860.592	14629
860.725	14648
860.858	14754
860.99	14617
861.123	14492
861.256	14499
861.388	14575
861.521	15226
861.653	14438
861.786	14336
861.918	14488
862.05	14469
862.183	14495
862.315	14484
862.447	14629
862.58	14465
862.712	14332
862.844	14229
862.976	14381
863.108	14355
863.24	14762
863.372	14183
863.504	14298
863.636	14343
863.768	14366
863.9	14374
864.032	14225
864.164	14275
864.296	14351
864.428	14442
864.559	14473
864.691	14457
864.823	14412
864.954	14332
865.086	14309
865.217	14317
865.349	14385
865.48	14298
865.612	14301
865.743	14434
865.875	14351
866.006	14347
866.137	14229
866.269	14244
866.4	14309
866.531	14221
866.662	14256
866.793	14271
866.924	14233
867.055	14286
867.186	14377
867.317	14252
867.448	14214
867.579	14233
867.71	14145
867.841	14157
867.972	14267
868.103	14301
868.233	14298
868.364	14233
868.495	14381
868.625	14530
868.756	14598
868.886	14415
869.017	14583
869.147	14735
869.278	14708
869.408	14541
869.539	14579
869.669	14663
869.799	14617
869.929	14678
870.06	14587
870.19	14963
870.32	14838
870.45	14891
870.58	14902
870.71	15074
870.84	15070
870.97	14960
871.1	14933
871.23	15100
871.36	15116
871.489	15013
871.619	15116
871.749	15165
871.879	15116
872.008	15226
872.138	15108
872.267	15089
872.397	15039
872.526	15005
872.656	14994
872.785	14979
872.915	15230
873.044	15264
873.173	15108
873.303	15287
873.432	15249
873.561	15249
873.69	15138
873.819	15268
873.948	15264
874.077	15146
874.206	15142
874.335	15173
874.464	15386
874.593	15458
874.722	15462
874.851	15481
874.979	15485
875.108	15523
875.237	15538
875.365	15382
875.494	15469
875.623	15633
875.751	15389
875.88	15568
876.008	15701
876.136	15774
876.265	15964
876.393	16078
876.521	15956
876.65	16036
876.778	16032
876.906	15838
877.034	15819
877.162	15873
877.29	15846
877.418	15930
877.546	16002
877.674	15892
877.802	15835
877.93	15861
878.058	15903
878.185	15873
878.313	15892
878.441	15892
878.568	15739
878.696	15816
878.824	15941
878.951	16097
879.079	16105
879.206	16322
879.333	16177
879.461	16086
879.588	16051
879.715	16204
879.842	16242
879.97	15895
880.097	15785
880.224	15789
880.351	15838
880.478	15831
880.605	15793
880.732	15846
880.859	16040
880.986	15766
881.112	15880
881.239	15660
881.366	15549
881.493	15530
881.619	15412
881.746	15359
881.872	15488
881.999	15481
882.125	15355
882.252	15504
882.378	15412
882.505	15542
882.631	15272
882.757	15291
882.883	15405
883.01	15291
883.136	15112
883.262	15150
883.388	15089
883.514	15165
883.64	15287
883.766	15222
883.892	15058
884.018	15131
884.143	15226
884.269	15230
884.395	14979
884.52	14929
884.646	14960
884.772	14906
884.897	14811
885.023	15024
885.148	15039
885.274	15131
885.399	15005
885.524	14933
885.65	14891
885.775	14990
885.9	15013
886.025	15188
886.15	14944
886.275	14986
886.4	14800
886.525	14986
886.65	14868
886.775	14868
886.9	14990
887.025	15203
887.149	14937
887.274	14773
887.399	14701
887.523	14804
887.648	14708
887.773	14674
887.897	14804
888.021	14773
888.146	14758
888.27	14967
888.395	14872
888.519	14887
888.643	14830
888.767	14887
888.891	14769
889.015	14629
889.139	14682
889.263	14575
889.387	14724
889.511	14864
889.635	14800
889.759	14629
889.883	14651
890.006	14686
890.13	14629
890.254	14499
890.377	14514
890.501	14457
890.624	14434
890.748	14446
890.871	14396
890.995	14187
891.118	14218
891.241	14389
891.364	14256
891.488	14419
891.611	14389
891.734	14412
891.857	14339
891.98	14358
892.103	14408
892.226	14374
892.349	14362
892.471	14172
892.594	14355
892.717	14336
892.839	14343
892.962	14358
893.085	14400
893.207	14362
893.33	14145
893.452	14233
893.575	14434
893.697	14301
893.819	14511
893.941	14556
894.064	14355
894.186	14267
894.308	14244
894.43	14590
894.552	14499
894.674	14507
894.796	14275
894.918	14419
895.04	14332
895.161	14518
895.283	14434
895.405	14396
895.526	14366
895.648	14374
895.769	14469
895.891	14488
896.012	14571
896.134	14537
896.255	14499
896.376	14454
896.498	14552
896.619	14511
896.74	14541
896.861	14564
896.982	14861
897.103	14914
897.224	14800
897.345	14720
897.466	14659
897.587	14815
897.708	14815
897.828	14815
897.949	14746
898.07	14663
898.19	14754
898.311	14902
898.431	14830
898.552	14899
898.672	14952
898.792	14941
898.913	14785
899.033	14857
899.153	14583
899.273	14648
899.393	14651
899.513	14792
899.633	14750
899.753	14693
899.873	14648
899.993	14785
900.113	14655
900.232	14598
900.352	14644
900.472	14632
900.591	14537
900.711	14667
900.83	14522
900.95	14686
901.069	14651
901.189	14442
901.308	14278
901.427	14275
901.546	14248
901.665	14138
901.784	14298
901.904	14176
902.023	14035
902.141	13852
902.26	13772
902.379	13928
902.498	13742
902.617	13769
902.735	13837
902.854	13765
902.973	13772
903.091	13487
903.21	13502
903.328	13506
903.446	13457
903.565	13331
903.683	13343
903.801	13213
903.919	13331
904.038	13270
904.156	13187
904.274	13175
904.392	13247
904.51	13171
904.627	13179
904.745	13171
904.863	13190
904.981	13053
905.098	12901
905.216	12791
905.334	12871
905.451	12829
905.569	12829
905.686	12829
905.803	12878
905.921	12730
906.038	12745
906.155	12681
906.272	12517
906.389	12513
906.506	12506
906.623	12452
906.74	12384
906.857	12361
906.974	12403
907.091	12517
907.208	12631
907.324	12479
907.441	12304
907.557	12148
907.674	12167
907.79	12102
907.907	12125
908.023	12117
908.139	12190
908.256	12117
908.372	12095
908.488	12038
908.604	11954
908.72	11927
908.836	11969
908.952	11904
909.068	11851
909.184	11946
909.3	12011
909.415	11996
909.531	11889
909.647	11653
909.762	11699
909.878	11707
909.993	11680
910.108	11676
910.224	11722
910.339	11676
910.454	11665
910.57	11596
910.685	11505
910.8	11718
910.915	11832
911.03	11596
911.145	11429
911.259	11414
911.374	11334
911.489	11284
911.604	11181
911.718	11197
911.833	11269
911.947	11075
912.062	10915
912.176	11105
912.291	11246
912.405	11071
912.519	11330
912.633	11364
912.748	11185
912.862	11220
912.976	11071
913.09	10911
913.204	10949
913.318	11056
913.431	11109
913.545	11083
913.659	11090
913.772	10961
913.886	10942
914	10896
914.113	11025
914.226	10999
914.34	11014
914.453	10835
914.566	10930
914.68	10892
914.793	10896
914.906	10675
915.019	10599
915.132	10523
915.245	10596
915.358	10740
915.47	10683
915.583	10683
915.696	10672
915.809	10755
915.921	10896
916.034	10702
916.146	10577
916.259	10596
916.371	10725
916.483	10546
916.595	10561
916.708	10630
916.82	10641
916.932	10478
917.044	10519
917.156	10516
917.268	10421
917.38	10459
917.491	10394
917.603	10580
917.715	10470
917.826	10603
917.938	10432
918.049	10356
918.161	10485
918.272	10596
918.384	10607
918.495	10478
918.606	10303
918.717	10261
918.828	10287
918.939	10360
919.05	10230
919.161	10276
919.272	10143
919.383	10192
919.494	10379
919.604	10550
919.715	10333
919.826	10352
919.936	10344
920.047	10466
920.157	10394
920.267	10592
920.378	10443
920.488	10424
920.598	10565
920.708	10683
920.818	10527
920.928	10546
921.038	10755
921.148	10714
921.258	10390
921.368	10268
921.477	10238
921.587	10261
921.697	10093
921.806	10291
921.916	10120
922.025	10055
922.134	9934
922.244	9937
922.353	9926
922.462	9899
922.571	9774
922.68	9629
922.789	9515
922.898	9641
923.007	9614
923.116	9717
923.224	9618
923.333	9606
923.442	9545
923.55	9507
923.659	9553
923.767	9576
923.876	9488
923.984	9633
924.092	9500
924.201	9595
924.309	9523
924.417	9538
924.525	9416
924.633	9504
924.741	10371
924.849	9264
924.956	9511
925.064	9302
925.172	9146
925.279	9279
925.387	9374
925.494	9336
925.602	9439
925.709	9348
925.816	9340
925.924	9313
926.031	9424
926.138	9287
926.245	9355
926.352	9192
926.459	9363
926.566	9370
926.673	9302
926.779	9211
926.886	9127
926.993	8982
927.099	9036
927.206	8902
927.312	8933
927.419	9005
927.525	9024
927.631	9058
927.737	8880
927.843	8918
927.95	8815
928.056	8910
928.162	8902
928.267	8937
928.373	9431
928.479	8971
928.585	8701
928.69	8899
928.796	8952
928.901	8838
929.007	8667
929.112	8838
929.218	8762
929.323	8804
929.428	8769
929.533	8838
929.638	8754
929.743	8712
929.848	8800
929.953	8693
930.058	8625
930.163	8469
930.267	8507
930.372	8670
930.477	8511
930.581	8659
930.685	8556
930.79	8404
930.894	8476
930.998	8400
931.103	8533
931.207	8210
931.311	8145
931.415	8069
931.519	7951
931.623	7947
