Data from test_V78500241_1059.txt Node
Date: Fri Mar 25 14:41:05 CST 2022
User: usil
Spectrometer: V785-0024
Trigger mode: 0
Integration Time (sec): 4.000000E-1
Scans to average: 1
Nonlinearity correction enabled: false
Boxcar width: 0
Storing dark spectrum: false
XAxis mode: Wavelengths
Number of Pixels in Spectrum: 1024
>>>>>Begin Spectral Data<<<<<
801.071	22824
801.214	22691
801.356	22447
801.499	22409
801.641	22143
801.783	22131
801.926	22291
802.068	22097
802.211	22063
802.353	21857
802.496	21694
802.638	21667
802.78	21648
802.923	21473
803.065	21534
803.208	21477
803.35	21553
803.492	21591
803.635	21603
803.777	21454
803.919	21553
804.061	21892
804.204	21698
804.346	21450
804.488	21279
804.63	21431
804.773	21462
804.915	21481
805.057	21564
805.199	21545
805.341	21386
805.483	21583
805.626	21557
805.768	21420
805.91	21462
806.052	21477
806.194	21370
806.336	21660
806.478	21519
806.62	21447
806.762	21625
806.904	21747
807.046	21895
807.188	21865
807.33	21880
807.472	21876
807.614	21838
807.756	21857
807.898	21739
808.04	21682
808.182	21819
808.324	21907
808.465	21956
808.607	22405
808.749	22459
808.891	22538
809.033	22683
809.174	22451
809.316	22405
809.458	22356
809.6	22067
809.741	22188
809.883	22120
810.025	22181
810.166	22147
810.308	22112
810.45	22059
810.591	21994
810.733	21838
810.875	21724
811.016	21717
811.158	21838
811.299	21667
811.441	21934
811.582	21675
811.724	21686
811.865	21709
812.007	21739
812.148	21705
812.29	21660
812.431	21846
812.573	21956
812.714	22093
812.855	22215
812.997	22261
813.138	22348
813.279	22379
813.421	22253
813.562	22105
813.703	21937
813.845	21781
813.986	21561
814.127	21370
814.268	21226
814.41	21218
814.551	21180
814.692	21283
814.833	21119
814.974	21192
815.115	21218
815.256	20990
815.397	21028
815.539	21009
815.68	20982
815.821	20823
815.962	21062
816.103	20921
816.244	20815
816.385	20743
816.526	20716
816.666	20503
816.807	20427
816.948	20492
817.089	20381
817.23	20446
817.371	20412
817.512	20396
817.653	20438
817.793	20351
817.934	20233
818.075	20351
818.216	20415
818.356	20267
818.497	20229
818.638	20039
818.778	20008
818.919	20096
819.06	19993
819.2	20176
819.341	20237
819.481	20214
819.622	20313
819.762	20511
819.903	20507
820.043	20419
820.184	20446
820.324	20366
820.465	20404
820.605	20415
820.746	20370
820.886	20122
821.026	20381
821.167	20332
821.307	20317
821.447	20202
821.588	20229
821.728	20145
821.868	19902
822.008	19628
822.149	19769
822.289	19700
822.429	19506
822.569	19422
822.709	19403
822.849	19232
822.99	19095
823.13	19110
823.27	19259
823.41	19004
823.55	19065
823.69	19050
823.83	19008
823.97	18863
824.11	18726
824.25	18924
824.389	18806
824.529	18928
824.669	18817
824.809	18989
824.949	18947
825.089	18894
825.228	18882
825.368	18734
825.508	18627
825.648	18673
825.787	18673
825.927	18719
826.067	18566
826.206	18570
826.346	18589
826.485	18639
826.625	18661
826.765	18673
826.904	18616
827.044	18437
827.183	18342
827.323	18270
827.462	18319
827.601	18330
827.741	18216
827.88	18262
828.02	18087
828.159	18296
828.298	18190
828.437	18361
828.577	18319
828.716	18475
828.855	18327
828.994	18098
829.134	18060
829.273	18114
829.412	18022
829.551	18011
829.69	18011
829.829	18022
829.968	18182
830.107	18133
830.246	18152
830.385	17954
830.524	17889
830.663	17836
830.802	17729
830.941	17737
831.08	17532
831.219	17733
831.357	17726
831.496	17851
831.635	17680
831.774	17558
831.913	17543
832.051	17478
832.19	17433
832.329	17444
832.467	17356
832.606	17277
832.744	17398
832.883	17353
833.022	17239
833.16	17242
833.299	17372
833.437	17353
833.576	17463
833.714	17421
833.852	17406
833.991	17478
834.129	17554
834.267	17547
834.406	17410
834.544	17520
834.682	17455
834.821	17315
834.959	17604
835.097	17463
835.235	17433
835.373	17478
835.511	17490
835.65	17345
835.788	17284
835.926	17189
836.064	17121
836.202	17090
836.34	17379
836.478	17436
836.615	17296
836.753	17220
836.891	17452
837.029	17444
837.167	17204
837.305	17227
837.443	17132
837.58	17258
837.718	17235
837.856	17155
837.993	17261
838.131	17166
838.269	17094
838.406	17124
838.544	16919
838.681	16847
838.819	16797
838.956	16649
839.094	16721
839.231	16710
839.369	16850
839.506	17014
839.643	16934
839.781	16694
839.918	16542
840.055	16774
840.193	16713
840.33	16733
840.467	16736
840.604	16748
840.742	16968
840.879	16626
841.016	16634
841.153	16500
841.29	16847
841.427	16713
841.564	16660
841.701	16691
841.838	16721
841.975	16565
842.112	16626
842.249	16569
842.385	16481
842.522	16691
842.659	16398
842.796	16443
842.933	16535
843.069	16440
843.206	16436
843.343	16538
843.479	16527
843.616	16478
843.752	16226
843.889	16246
844.025	16402
844.162	16284
844.298	16356
844.435	16147
844.571	16375
844.708	16428
844.844	16485
844.98	16485
845.117	16421
845.253	16306
845.389	16329
845.525	16386
845.661	16554
845.798	16618
845.934	16710
846.07	16744
846.206	16816
846.342	16736
846.478	16535
846.614	16112
846.75	15949
846.886	15937
847.022	15994
847.158	16021
847.294	15842
847.429	15876
847.565	15797
847.701	15998
847.837	15553
847.972	15477
848.108	15686
848.244	15633
848.379	15435
848.515	15439
848.65	15332
848.786	15298
848.921	15443
849.057	15496
849.192	15538
849.328	15431
849.463	15351
849.598	15458
849.734	15389
849.869	15310
850.004	15146
850.14	15275
850.275	15070
850.41	15085
850.545	15112
850.68	15135
850.815	15108
850.95	15100
851.085	15313
851.22	15272
851.355	15043
851.49	15135
851.625	15165
851.76	15176
851.895	15108
852.03	15089
852.165	15142
852.299	15161
852.434	15188
852.569	15150
852.703	15123
852.838	15275
852.973	15355
853.107	15344
853.242	15150
853.376	15104
853.511	14906
853.645	14861
853.78	15119
853.914	14971
854.048	15005
854.183	14921
854.317	15005
854.451	15283
854.585	14994
854.72	15039
854.854	15203
854.988	14906
855.122	15051
855.256	14933
855.39	14853
855.524	15131
855.658	15039
855.792	14971
855.926	15135
856.06	15127
856.194	15108
856.327	14948
856.461	15039
856.595	14975
856.729	14944
856.862	15062
856.996	15051
857.13	15032
857.263	15123
857.397	15184
857.53	15047
857.664	15024
857.797	15085
857.931	15055
858.064	14990
858.197	15085
858.331	15089
858.464	15066
858.597	14868
858.731	15058
858.864	15017
858.997	14952
859.13	15089
859.263	15055
859.396	15131
859.529	14925
859.662	14960
859.795	15017
859.928	15108
860.061	15131
860.194	15222
860.327	15097
860.46	14975
860.592	15127
860.725	15131
860.858	15093
860.99	15047
861.123	14883
861.256	14963
861.388	14994
861.521	15587
861.653	14975
861.786	14811
861.918	14925
862.05	15020
862.183	14921
862.315	15043
862.447	15024
862.58	14956
862.712	14765
862.844	14739
862.976	14807
863.108	14804
863.24	15245
863.372	14705
863.504	14746
863.636	14762
863.768	14925
863.9	14925
864.032	14750
864.164	14823
864.296	14845
864.428	14815
864.559	14834
864.691	14857
864.823	14910
864.954	14819
865.086	14785
865.217	14868
865.349	14693
865.48	14830
865.612	14758
865.743	14769
865.875	14823
866.006	14705
866.137	14708
866.269	14716
866.4	14708
866.531	14712
866.662	14632
866.793	14682
866.924	14716
867.055	14716
867.186	14743
867.317	14727
867.448	14678
867.579	14693
867.71	14682
867.841	14762
867.972	14674
868.103	14788
868.233	14727
868.364	14743
868.495	14864
868.625	15070
868.756	15055
868.886	14902
869.017	14910
869.147	15142
869.278	15093
869.408	14979
869.539	15024
869.669	14975
869.799	15085
869.929	15123
870.06	15108
870.19	15313
870.32	15199
870.45	15310
870.58	15374
870.71	15488
870.84	15397
870.97	15329
871.1	15359
871.23	15587
871.36	15568
871.489	15473
871.619	15545
871.749	15660
871.879	15614
872.008	15720
872.138	15641
872.267	15622
872.397	15496
872.526	15397
872.656	15348
872.785	15496
872.915	15568
873.044	15660
873.173	15713
873.303	15728
873.432	15720
873.561	15747
873.69	15679
873.819	15682
873.948	15751
874.077	15747
874.206	15568
874.335	15671
874.464	15812
874.593	15911
874.722	15934
874.851	16021
874.979	15972
875.108	15949
875.237	15972
875.365	15945
875.494	15983
875.623	15972
875.751	15857
875.88	15998
876.008	16036
876.136	16299
876.265	16371
876.393	16466
876.521	16478
876.65	16538
876.778	16402
876.906	16356
877.034	16360
877.162	16382
877.29	16295
877.418	16428
877.546	16481
877.674	16405
877.802	16405
877.93	16474
878.058	16409
878.185	16344
878.313	16394
878.441	16535
878.568	16246
878.696	16424
878.824	16554
878.951	16569
879.079	16698
879.206	16919
879.333	16797
879.461	16752
879.588	16858
879.715	16915
879.842	16968
879.97	16771
880.097	16478
880.224	16352
880.351	16363
880.478	16265
880.605	16226
880.732	16246
880.859	16584
880.986	16291
881.112	16390
881.239	16181
881.366	16150
881.493	16032
881.619	16006
881.746	16036
881.872	15854
881.999	15895
882.125	15975
882.252	16097
882.378	15915
882.505	16162
882.631	16017
882.757	15785
882.883	15762
883.01	15682
883.136	15759
883.262	15686
883.388	15549
883.514	15778
883.64	15846
883.766	15648
883.892	15606
884.018	15599
884.143	15713
884.269	15945
884.395	15526
884.52	15439
884.646	15580
884.772	15454
884.897	15405
885.023	15488
885.148	15648
885.274	15572
885.399	15622
885.524	15466
885.65	15492
885.775	15500
885.9	15477
886.025	15584
886.15	15511
886.275	15439
886.4	15367
886.525	15310
886.65	15363
886.775	15313
886.9	15530
887.025	15603
887.149	15367
887.274	15268
887.399	15245
887.523	15169
887.648	15275
887.773	15150
887.897	15363
888.021	15363
888.146	15226
888.27	15389
888.395	15447
888.519	15317
888.643	15332
888.767	15351
888.891	15279
889.015	15226
889.139	15119
889.263	15055
889.387	15214
889.511	15211
889.635	15176
889.759	15017
889.883	15051
890.006	15066
890.13	15150
890.254	14963
890.377	15127
890.501	14887
890.624	14807
890.748	14960
890.871	14773
890.995	14708
891.118	14644
891.241	14788
891.364	14724
891.488	14925
891.611	14796
891.734	14804
891.857	14804
891.98	14708
892.103	14781
892.226	14762
892.349	14758
892.471	14632
892.594	14716
892.717	14727
892.839	14750
892.962	14819
893.085	14811
893.207	14697
893.33	14659
893.452	14636
893.575	14826
893.697	14697
893.819	14883
893.941	14918
894.064	14929
894.186	14617
894.308	14640
894.43	14838
894.552	14918
894.674	14861
894.796	14712
894.918	14792
895.04	14689
895.161	14830
895.283	14861
895.405	14663
895.526	14785
895.648	14765
895.769	14861
895.891	14880
896.012	14960
896.134	14952
896.255	14796
896.376	14872
896.498	14918
896.619	14914
896.74	14956
896.861	14948
896.982	15226
897.103	15412
897.224	15222
897.345	15161
897.466	15100
897.587	15138
897.708	15283
897.828	15256
897.949	15142
898.07	14990
898.19	15116
898.311	15306
898.431	15192
898.552	15264
898.672	15332
898.792	15306
898.913	15275
899.033	15161
899.153	15085
899.273	14906
899.393	15119
899.513	15043
899.633	15001
899.753	15104
899.873	14998
899.993	15070
900.113	15009
900.232	15081
900.352	14967
900.472	14982
900.591	14937
900.711	14979
900.83	14849
900.95	15146
901.069	15020
901.189	14883
901.308	14739
901.427	14602
901.546	14579
901.665	14670
901.784	14602
901.904	14442
902.023	14393
902.141	14309
902.26	14157
902.379	14161
902.498	14073
902.617	14043
902.735	14199
902.854	14111
902.973	14103
903.091	13849
903.21	13795
903.328	13928
903.446	13837
903.565	13677
903.683	13731
903.801	13594
903.919	13704
904.038	13818
904.156	13476
904.274	13518
904.392	13525
904.51	13597
904.627	13563
904.745	13616
904.863	13491
904.981	13304
905.098	13156
905.216	13145
905.334	13285
905.451	13263
905.569	13141
905.686	13266
905.803	13388
905.921	13015
906.038	13038
906.155	13012
906.272	12939
906.389	12973
906.506	12783
906.623	12844
906.74	12776
906.857	12688
906.974	12677
907.091	12916
907.208	12924
907.324	12791
907.441	12677
907.557	12429
907.674	12517
907.79	12509
907.907	12498
908.023	12475
908.139	12456
908.256	12475
908.372	12376
908.488	12452
908.604	12342
908.72	12216
908.836	12338
908.952	12308
909.068	12232
909.184	12330
909.3	12273
909.415	12391
909.531	12182
909.647	12083
909.762	12121
909.878	11996
909.993	12068
910.108	12034
910.224	12007
910.339	12087
910.454	11954
910.57	11897
910.685	11760
910.8	12003
910.915	12091
911.03	11920
911.145	11798
911.259	11672
911.374	11764
911.489	11661
911.604	11668
911.718	11417
911.833	11474
911.947	11391
912.062	11318
912.176	11425
912.291	11455
912.405	11478
912.519	11665
912.633	11703
912.748	11562
912.862	11436
912.976	11303
913.09	11132
913.204	11360
913.318	11349
913.431	11505
913.545	11417
913.659	11391
913.772	11284
913.886	11197
914	11170
914.113	11250
914.226	11265
914.34	11292
914.453	11079
914.566	11258
914.68	11201
914.793	11124
914.906	11037
915.019	10869
915.132	10877
915.245	10957
915.358	10904
915.47	10938
915.583	11045
915.696	11033
915.809	11124
915.921	10980
916.034	10946
916.146	10934
916.259	10835
916.371	11022
916.483	10991
916.595	10797
916.708	10889
916.82	10934
916.932	10885
917.044	10869
917.156	10877
917.268	10679
917.38	10767
917.491	10721
917.603	10824
917.715	10839
917.826	10850
917.938	10782
918.049	10675
918.161	10767
918.272	10953
918.384	10904
918.495	10740
918.606	10679
918.717	10565
918.828	10634
918.939	10645
919.05	10538
919.161	10630
919.272	10447
919.383	10508
919.494	10637
919.604	10889
919.715	10622
919.826	10535
919.936	10569
920.047	10771
920.157	10622
920.267	10831
920.378	10714
920.488	10679
920.598	10885
920.708	11003
920.818	10812
920.928	10809
921.038	11018
921.148	10999
921.258	10691
921.368	10584
921.477	10466
921.587	10531
921.697	10462
921.806	10569
921.916	10443
922.025	10147
922.134	10204
922.244	10093
922.353	10242
922.462	10013
922.571	9972
922.68	9854
922.789	9785
922.898	9888
923.007	9774
923.116	9956
923.224	9873
923.333	9903
923.442	9713
923.55	9789
923.659	9751
923.767	9876
923.876	9641
923.984	9717
924.092	9671
924.201	9728
924.309	9728
924.417	9701
924.525	9648
924.633	9705
924.741	10607
924.849	9561
924.956	9637
925.064	9526
925.172	9397
925.279	9428
925.387	9557
925.494	9488
925.602	9637
925.709	9641
925.816	9420
925.924	9511
926.031	9553
926.138	9519
926.245	9580
926.352	9462
926.459	9549
926.566	9568
926.673	9450
926.779	9321
926.886	9298
926.993	9245
927.099	9119
927.206	9199
927.312	9165
927.419	9222
927.525	9226
927.631	9268
927.737	9173
927.843	9100
927.95	8967
928.056	9081
928.162	9013
928.267	9135
928.373	9759
928.479	9161
928.585	8941
928.69	9051
928.796	9108
928.901	9009
929.007	8857
929.112	9028
929.218	8960
929.323	8960
929.428	8861
929.533	9020
929.638	8792
929.743	8887
929.848	8967
929.953	8861
930.058	8838
930.163	8655
930.267	8712
930.372	8777
930.477	8632
930.581	8937
930.685	8716
930.79	8651
930.894	8590
930.998	8602
931.103	8705
931.207	8446
931.311	8328
931.415	8214
931.519	8054
931.623	8100
