Data from test_V78500241_3413.txt Node
Date: Fri Mar 25 14:57:28 CST 2022
User: usil
Spectrometer: V785-0024
Trigger mode: 0
Integration Time (sec): 4.000000E-1
Scans to average: 1
Nonlinearity correction enabled: false
Boxcar width: 0
Storing dark spectrum: false
XAxis mode: Wavelengths
Number of Pixels in Spectrum: 1024
>>>>>Begin Spectral Data<<<<<
801.071	21972
801.214	21759
801.356	21545
801.499	21576
801.641	21313
801.783	21344
801.926	21275
802.068	21256
802.211	21077
802.353	21135
802.496	20876
802.638	20746
802.78	20708
802.923	20701
803.065	20648
803.208	20632
803.35	20537
803.492	20636
803.635	20861
803.777	20568
803.919	20655
804.061	20914
804.204	20693
804.346	20564
804.488	20412
804.63	20644
804.773	20469
804.915	20518
805.057	20651
805.199	20511
805.341	20674
805.483	20644
805.626	20682
805.768	20469
805.91	20533
806.052	20575
806.194	20419
806.336	20686
806.478	20442
806.62	20389
806.762	20450
806.904	20632
807.046	20921
807.188	20861
807.33	20849
807.472	20944
807.614	20621
807.756	20754
807.898	20617
808.04	20587
808.182	20609
808.324	20663
808.465	20697
808.607	20762
808.749	20929
808.891	20963
809.033	20998
809.174	21028
809.316	20838
809.458	20914
809.6	20834
809.741	21013
809.883	20921
810.025	20963
810.166	20902
810.308	21039
810.45	20921
810.591	20720
810.733	20746
810.875	20613
811.016	20552
811.158	20476
811.299	20571
811.441	20807
811.582	20708
811.724	20564
811.865	20564
812.007	20541
812.148	20545
812.29	20785
812.431	20781
812.573	21001
812.714	21085
812.855	21051
812.997	21161
813.138	21287
813.279	21233
813.421	21127
813.562	21096
813.703	20960
813.845	20762
813.986	20522
814.127	20309
814.268	20298
814.41	20233
814.551	20286
814.692	20210
814.833	20134
814.974	20157
815.115	20286
815.256	19989
815.397	19967
815.539	19947
815.68	19936
815.821	19890
815.962	19925
816.103	19830
816.244	19788
816.385	19666
816.526	19677
816.666	19476
816.807	19270
816.948	19392
817.089	19468
817.23	19316
817.371	19171
817.512	19297
817.653	19217
817.793	19346
817.934	19396
818.075	19304
818.216	19244
818.356	19274
818.497	19076
818.638	18966
818.778	19050
818.919	19072
819.06	18996
819.2	19137
819.341	19183
819.481	19179
819.622	19251
819.762	19419
819.903	19426
820.043	19377
820.184	19251
820.324	19304
820.465	19354
820.605	19274
820.746	19320
820.886	19133
821.026	19251
821.167	19270
821.307	19263
821.447	19217
821.588	19122
821.728	19012
821.868	18821
822.008	18722
822.149	18707
822.289	18738
822.429	18460
822.569	18330
822.709	18384
822.849	18224
822.99	18144
823.13	18091
823.27	18117
823.41	18060
823.55	17992
823.69	17965
823.83	18041
823.97	17878
824.11	17760
824.25	17824
824.389	17748
824.529	17832
824.669	17813
824.809	17954
824.949	17893
825.089	17775
825.228	17836
825.368	17615
825.508	17490
825.648	17490
825.787	17623
825.927	17600
826.067	17433
826.206	17486
826.346	17604
826.485	17566
826.625	17520
826.765	17703
826.904	17668
827.044	17459
827.183	17296
827.323	17326
827.462	17398
827.601	17330
827.741	17280
827.88	17303
828.02	17227
828.159	17307
828.298	17406
828.437	17292
828.577	17239
828.716	17356
828.855	17235
828.994	17098
829.134	16984
829.273	17071
829.412	17006
829.551	17018
829.69	17025
829.829	17178
829.968	17197
830.107	17136
830.246	17105
830.385	16938
830.524	17006
830.663	16816
830.802	16721
830.941	16717
831.08	16615
831.219	16797
831.357	16653
831.496	16873
831.635	16702
831.774	16603
831.913	16558
832.051	16398
832.19	16470
832.329	16413
832.467	16413
832.606	16333
832.744	16440
832.883	16405
833.022	16333
833.16	16367
833.299	16402
833.437	16478
833.576	16402
833.714	16462
833.852	16493
833.991	16382
834.129	16508
834.267	16542
834.406	16519
834.544	16413
834.682	16417
834.821	16440
834.959	16538
835.097	16310
835.235	16592
835.373	16523
835.511	16405
835.65	16310
835.788	16360
835.926	16169
836.064	16090
836.202	16223
836.34	16386
836.478	16428
836.615	16382
836.753	16413
836.891	16432
837.029	16348
837.167	16310
837.305	16356
837.443	16261
837.58	16169
837.718	16177
837.856	16272
837.993	16120
838.131	16238
838.269	16139
838.406	16154
838.544	16109
838.681	15888
838.819	15831
838.956	15838
839.094	15808
839.231	15934
839.369	15975
839.506	16158
839.643	15934
839.781	15759
839.918	15766
840.055	15831
840.193	15793
840.33	15778
840.467	15778
840.604	15800
840.742	16051
840.879	15633
841.016	15660
841.153	15652
841.29	15903
841.427	15751
841.564	15827
841.701	15831
841.838	15755
841.975	15671
842.112	15637
842.249	15629
842.385	15519
842.522	15812
842.659	15599
842.796	15523
842.933	15576
843.069	15492
843.206	15492
843.343	15660
843.479	15663
843.616	15561
843.752	15287
843.889	15351
844.025	15599
844.162	15401
844.298	15428
844.435	15272
844.571	15256
844.708	15298
844.844	15473
844.98	15507
845.117	15492
845.253	15302
845.389	15249
845.525	15287
845.661	15104
845.798	15077
845.934	15249
846.07	15127
846.206	15192
846.342	15184
846.478	15116
846.614	15013
846.75	14887
846.886	14914
847.022	14979
847.158	14880
847.294	14914
847.429	15005
847.565	14921
847.701	15135
847.837	14724
847.972	14659
848.108	14697
848.244	14731
848.379	14629
848.515	14427
848.65	14370
848.786	14473
848.921	14499
849.057	14560
849.192	14636
849.328	14568
849.463	14495
849.598	14408
849.734	14465
849.869	14400
850.004	14309
850.14	14328
850.275	14275
850.41	14157
850.545	14145
850.68	14256
850.815	14256
850.95	14237
851.085	14419
851.22	14461
851.355	14237
851.49	14168
851.625	14248
851.76	14290
851.895	14168
852.03	14195
852.165	14282
852.299	14282
852.434	14351
852.569	14237
852.703	14218
852.838	14336
852.973	14415
853.107	14488
853.242	14294
853.376	14164
853.511	14039
853.645	13970
853.78	14233
853.914	14157
854.048	14111
854.183	14172
854.317	14263
854.451	14362
854.585	14153
854.72	14077
854.854	14233
854.988	14138
855.122	14130
855.256	14035
855.39	14176
855.524	14267
855.658	14168
855.792	14233
855.926	14176
856.06	14195
856.194	14210
856.327	14164
856.461	14142
856.595	14180
856.729	14161
856.862	14233
856.996	14138
857.13	14233
857.263	14267
857.397	14218
857.53	14077
857.664	14221
857.797	14294
857.931	14320
858.064	14252
858.197	14320
858.331	14187
858.464	14081
858.597	14012
858.731	14199
858.864	14065
858.997	14107
859.13	14225
859.263	14168
859.396	14259
859.529	14157
859.662	14164
859.795	14027
859.928	14183
860.061	14370
860.194	14275
860.327	14176
860.46	14218
860.592	14157
860.725	14221
860.858	14267
860.99	14206
861.123	14176
861.256	14115
861.388	14229
861.521	14815
861.653	14012
861.786	13921
861.918	14027
862.05	14187
862.183	14081
862.315	14088
862.447	14134
862.58	14092
862.712	13864
862.844	13826
862.976	14016
863.108	13917
863.24	14495
863.372	13807
863.504	13989
863.636	13928
863.768	13947
863.9	13864
864.032	13822
864.164	13959
864.296	13997
864.428	14058
864.559	13932
864.691	14020
864.823	14024
864.954	14008
865.086	13978
865.217	13993
865.349	13784
865.48	13868
865.612	13868
865.743	14088
865.875	13974
866.006	13913
866.137	13879
866.269	13822
866.4	13913
866.531	13894
866.662	13959
866.793	13951
866.924	13947
867.055	13963
867.186	13925
867.317	13936
867.448	13811
867.579	13906
867.71	13803
867.841	13909
867.972	13906
868.103	13906
868.233	13928
868.364	13959
868.495	14012
868.625	14134
868.756	14233
868.886	14119
869.017	14107
869.147	14294
869.278	14317
869.408	14164
869.539	14229
869.669	14210
869.799	14225
869.929	14278
870.06	14248
870.19	14438
870.32	14484
870.45	14495
870.58	14560
870.71	14640
870.84	14659
870.97	14606
871.1	14625
871.23	14777
871.36	14682
871.489	14678
871.619	14788
871.749	14697
871.879	14781
872.008	14914
872.138	14773
872.267	14849
872.397	14602
872.526	14682
872.656	14594
872.785	14655
872.915	14842
873.044	14845
873.173	14868
873.303	14796
873.432	14777
873.561	14948
873.69	14861
873.819	14834
873.948	14906
874.077	14933
874.206	14796
874.335	14872
874.464	15001
874.593	15058
874.722	15066
874.851	15142
874.979	15169
875.108	15142
875.237	15058
875.365	14998
875.494	15047
875.623	15112
875.751	15104
875.88	15230
876.008	15313
876.136	15378
876.265	15568
876.393	15667
876.521	15595
876.65	15705
876.778	15591
876.906	15519
877.034	15485
877.162	15511
877.29	15454
877.418	15587
877.546	15538
877.674	15519
877.802	15572
877.93	15538
878.058	15523
878.185	15450
878.313	15500
878.441	15568
878.568	15393
878.696	15473
878.824	15564
878.951	15671
879.079	15743
879.206	15876
879.333	15762
879.461	15637
879.588	15667
879.715	15804
879.842	15865
879.97	15648
880.097	15302
880.224	15370
880.351	15431
880.478	15389
880.605	15367
880.732	15306
880.859	15618
880.986	15595
881.112	15405
881.239	15291
881.366	15207
881.493	15070
881.619	15055
881.746	15070
881.872	15043
881.999	15032
882.125	14982
882.252	15062
882.378	15081
882.505	15116
882.631	15066
882.757	14887
882.883	14883
883.01	14921
883.136	14815
883.262	14735
883.388	14811
883.514	14929
883.64	14868
883.766	14792
883.892	14686
884.018	14746
884.143	14842
884.269	14998
884.395	14667
884.52	14644
884.646	14537
884.772	14522
884.897	14549
885.023	14686
885.148	14674
885.274	14693
885.399	14716
885.524	14625
885.65	14655
885.775	14663
885.9	14705
886.025	14670
886.15	14632
886.275	14552
886.4	14571
886.525	14556
886.65	14522
886.775	14552
886.9	14629
887.025	14823
887.149	14659
887.274	14503
887.399	14385
887.523	14355
887.648	14309
887.773	14366
887.897	14461
888.021	14533
888.146	14305
888.27	14560
888.395	14476
888.519	14431
888.643	14549
888.767	14465
888.891	14434
889.015	14256
889.139	14366
889.263	14142
889.387	14385
889.511	14446
889.635	14408
889.759	14233
889.883	14366
890.006	14244
890.13	14385
890.254	14168
890.377	14267
890.501	14001
890.624	14081
890.748	14176
890.871	14077
890.995	14027
891.118	13925
891.241	13982
891.364	14039
891.488	14119
891.611	14001
891.734	14031
891.857	14142
891.98	14005
892.103	13986
892.226	14073
892.349	13959
892.471	13818
892.594	13940
892.717	13883
892.839	13955
892.962	13970
893.085	14100
893.207	13894
893.33	13894
893.452	13974
893.575	14035
893.697	13940
893.819	14142
893.941	14275
894.064	14168
894.186	13989
894.308	13944
894.43	14024
894.552	14294
894.674	14145
894.796	13974
894.918	14092
895.04	14012
895.161	14096
895.283	14069
895.405	14054
895.526	14073
895.648	14096
895.769	14145
895.891	14027
896.012	14103
896.134	14229
896.255	14123
896.376	14161
896.498	14195
896.619	14161
896.74	14134
896.861	14248
896.982	14503
897.103	14606
897.224	14457
897.345	14396
897.466	14336
897.587	14408
897.708	14530
897.828	14419
897.949	14275
898.07	14271
898.19	14396
898.311	14457
898.431	14488
898.552	14537
898.672	14678
898.792	14655
898.913	14514
899.033	14381
899.153	14412
899.273	14195
899.393	14317
899.513	14404
899.633	14347
899.753	14385
899.873	14370
899.993	14404
900.113	14336
900.232	14358
900.352	14396
900.472	14294
900.591	14180
900.711	14248
900.83	14240
900.95	14419
901.069	14347
901.189	14138
901.308	13944
901.427	13875
901.546	13955
901.665	13906
901.784	13925
901.904	13788
902.023	13643
902.141	13525
902.26	13533
902.379	13624
902.498	13403
902.617	13472
902.735	13514
902.854	13434
902.973	13430
903.091	13175
903.21	13133
903.328	13270
903.446	13149
903.565	13088
903.683	13069
903.801	12939
903.919	13012
904.038	13050
904.156	12814
904.274	13019
904.392	12856
904.51	12798
904.627	12863
904.745	12837
904.863	12913
904.981	12703
905.098	12574
905.216	12608
905.334	12620
905.451	12589
905.569	12574
905.686	12601
905.803	12547
905.921	12388
906.038	12494
906.155	12414
906.272	12304
906.389	12311
906.506	12175
906.623	12239
906.74	12194
906.857	12038
906.974	12163
907.091	12224
907.208	12289
907.324	12171
907.441	12064
907.557	11927
907.674	11859
907.79	11901
907.907	11767
908.023	11999
908.139	11878
908.256	11832
908.372	11851
908.488	11824
908.604	11638
908.72	11680
908.836	11634
908.952	11596
909.068	11630
909.184	11726
909.3	11642
909.415	11684
909.531	11653
909.647	11551
909.762	11429
909.878	11368
909.993	11448
910.108	11391
910.224	11459
910.339	11383
910.454	11254
910.57	11349
910.685	11212
910.8	11459
910.915	11429
911.03	11296
911.145	11113
911.259	11124
911.374	11166
911.489	11075
911.604	11045
911.718	10908
911.833	10946
911.947	10805
912.062	10679
912.176	10854
912.291	10930
912.405	10942
912.519	11151
912.633	11033
912.748	10991
912.862	10892
912.976	10843
913.09	10618
913.204	10736
913.318	10805
913.431	10923
913.545	10866
913.659	10801
913.772	10873
913.886	10630
914	10596
914.113	10710
914.226	10744
914.34	10828
914.453	10550
914.566	10668
914.68	10626
914.793	10634
914.906	10474
915.019	10306
915.132	10329
915.245	10413
915.358	10466
915.47	10344
915.583	10409
915.696	10493
915.809	10478
915.921	10588
916.034	10341
916.146	10371
916.259	10310
916.371	10466
916.483	10386
916.595	10303
916.708	10344
916.82	10310
916.932	10299
917.044	10363
917.156	10314
917.268	10211
917.38	10177
917.491	10227
917.603	10276
917.715	10295
917.826	10295
917.938	10287
918.049	10074
918.161	10166
918.272	10367
918.384	10409
918.495	10325
918.606	10036
918.717	10131
918.828	10090
918.939	10048
919.05	9987
919.161	10093
919.272	9846
919.383	10002
919.494	10109
919.604	10242
919.715	10147
919.826	10025
919.936	10078
920.047	10227
920.157	10147
920.267	10344
920.378	10211
920.488	10139
920.598	10344
920.708	10440
920.818	10341
920.928	10303
921.038	10565
921.148	10489
921.258	10147
921.368	10071
921.477	10006
921.587	9956
921.697	9888
921.806	10006
921.916	9869
922.025	9751
922.134	9694
922.244	9610
922.353	9751
922.462	9564
922.571	9595
922.68	9370
922.789	9351
922.898	9401
923.007	9291
923.116	9477
923.224	9336
923.333	9298
923.442	9317
923.55	9211
923.659	9218
923.767	9393
923.876	9249
923.984	9302
924.092	9256
924.201	9260
924.309	9268
924.417	9298
924.525	9253
924.633	9157
924.741	10131
924.849	9009
924.956	9192
925.064	8906
925.172	8933
925.279	9036
925.387	9043
925.494	9005
925.602	9131
925.709	9077
925.816	9005
925.924	9070
926.031	9184
926.138	9005
926.245	9077
926.352	8929
926.459	9036
926.566	9169
926.673	8971
926.779	8899
926.886	8887
926.993	8834
927.099	8819
927.206	8682
927.312	8762
927.419	8819
927.525	8796
927.631	8849
927.737	8705
927.843	8644
927.95	8583
928.056	8659
928.162	8651
928.267	8758
928.373	9386
928.479	8724
928.585	8507
928.69	8686
928.796	8697
928.901	8568
929.007	8442
929.112	8598
929.218	8571
929.323	8533
929.428	8492
929.533	8606
929.638	8415
929.743	8450
929.848	8488
929.953	8442
930.058	8377
930.163	8336
930.267	8309
930.372	8374
930.477	8145
930.581	8450
930.685	8301
930.79	8233
930.894	8126
930.998	8191
931.103	8328
931.207	8005
931.311	7936
931.415	7902
931.519	7723
931.623	7738
