Data from test_V78500241_1261.txt Node
Date: Fri Mar 25 14:42:29 CST 2022
User: usil
Spectrometer: V785-0024
Trigger mode: 0
Integration Time (sec): 4.000000E-1
Scans to average: 1
Nonlinearity correction enabled: false
Boxcar width: 0
Storing dark spectrum: false
XAxis mode: Wavelengths
Number of Pixels in Spectrum: 1024
>>>>>Begin Spectral Data<<<<<
801.071	22500
801.214	22402
801.356	22154
801.499	21880
801.641	21812
801.783	21816
801.926	21785
802.068	21682
802.211	21717
802.353	21526
802.496	21351
802.638	21363
802.78	21256
802.923	21188
803.065	21096
803.208	21066
803.35	21135
803.492	21176
803.635	21249
803.777	21195
803.919	21222
804.061	21450
804.204	21245
804.346	21131
804.488	20956
804.63	20986
804.773	20921
804.915	21135
805.057	21237
805.199	21123
805.341	21085
805.483	21089
805.626	21089
805.768	21020
805.91	21013
806.052	20990
806.194	20944
806.336	21165
806.478	21127
806.62	21001
806.762	21017
806.904	21176
807.046	21382
807.188	21397
807.33	21511
807.472	21420
807.614	21325
807.756	21462
807.898	21230
808.04	21074
808.182	21245
808.324	21237
808.465	21264
808.607	21412
808.749	21572
808.891	21526
809.033	21652
809.174	21545
809.316	21572
809.458	21473
809.6	21553
809.741	21523
809.883	21511
810.025	21576
810.166	21633
810.308	21591
810.45	21610
810.591	21439
810.733	21340
810.875	21287
811.016	21195
811.158	21195
811.299	21184
811.441	21348
811.582	21298
811.724	21173
811.865	21077
812.007	21252
812.148	21264
812.29	21184
812.431	21329
812.573	21545
812.714	21526
812.855	21576
812.997	21724
813.138	21956
813.279	21789
813.421	21614
813.562	21583
813.703	21416
813.845	21306
813.986	21081
814.127	20929
814.268	20910
814.41	20834
814.551	20830
814.692	20887
814.833	20644
814.974	20670
815.115	20712
815.256	20590
815.397	20552
815.539	20686
815.68	20560
815.821	20419
815.962	20503
816.103	20393
816.244	20366
816.385	20233
816.526	20221
816.666	20115
816.807	19997
816.948	20084
817.089	19997
817.23	20046
817.371	19890
817.512	19936
817.653	19970
817.793	19845
817.934	19875
818.075	19989
818.216	19849
818.356	19963
818.497	19666
818.638	19556
818.778	19609
818.919	19609
819.06	19651
819.2	19742
819.341	19689
819.481	19761
819.622	20012
819.762	20005
819.903	20039
820.043	19944
820.184	19852
820.324	19849
820.465	20016
820.605	19947
820.746	19868
820.886	19651
821.026	19772
821.167	19662
821.307	19959
821.447	19856
821.588	19655
821.728	19613
821.868	19422
822.008	19225
822.149	19289
822.289	19343
822.429	18943
822.569	18989
822.709	18985
822.849	18821
822.99	18817
823.13	18760
823.27	18798
823.41	18650
823.55	18547
823.69	18623
823.83	18703
823.97	18559
824.11	18475
824.25	18410
824.389	18414
824.529	18361
824.669	18311
824.809	18429
824.949	18456
825.089	18479
825.228	18422
825.368	18315
825.508	18125
825.648	18163
825.787	18323
825.927	18194
826.067	18098
826.206	18114
826.346	18292
826.485	18270
826.625	18258
826.765	18311
826.904	18171
827.044	17946
827.183	17874
827.323	17760
827.462	17912
827.601	17863
827.741	17828
827.88	17863
828.02	17707
828.159	17828
828.298	17783
828.437	17939
828.577	17824
828.716	17965
828.855	17748
828.994	17668
829.134	17680
829.273	17676
829.412	17608
829.551	17524
829.69	17570
829.829	17596
829.968	17684
830.107	17668
830.246	17585
830.385	17657
830.524	17627
830.663	17379
830.802	17326
830.941	17159
831.08	17208
831.219	17280
831.357	17296
831.496	17482
831.635	17200
831.774	17162
831.913	17174
832.051	17067
832.19	16999
832.329	17079
832.467	16942
832.606	16896
832.744	16831
832.883	16873
833.022	16854
833.16	16934
833.299	17022
833.437	16923
833.576	17041
833.714	17052
833.852	17037
833.991	17025
834.129	16968
834.267	17166
834.406	16949
834.544	16961
834.682	16980
834.821	17025
834.959	17045
835.097	16984
835.235	17166
835.373	16976
835.511	16972
835.65	16885
835.788	16854
835.926	16713
836.064	16645
836.202	16630
836.34	16850
836.478	16987
836.615	16858
836.753	16820
836.891	16942
837.029	16885
837.167	16896
837.305	16831
837.443	16755
837.58	16729
837.718	16930
837.856	16717
837.993	16831
838.131	16717
838.269	16710
838.406	16782
838.544	16634
838.681	16470
838.819	16424
838.956	16219
839.094	16348
839.231	16303
839.369	16462
839.506	16725
839.643	16519
839.781	16291
839.918	16314
840.055	16451
840.193	16379
840.33	16318
840.467	16352
840.604	16375
840.742	16565
840.879	16223
841.016	16257
841.153	16230
841.29	16459
841.427	16219
841.564	16295
841.701	16341
841.838	16219
841.975	16215
842.112	16257
842.249	16242
842.385	16010
842.522	16314
842.659	16036
842.796	15979
842.933	16055
843.069	15968
843.206	16059
843.343	16215
843.479	16116
843.616	16044
843.752	15873
843.889	15911
844.025	16059
844.162	15899
844.298	16029
844.435	15797
844.571	15838
844.708	15949
844.844	16040
844.98	16002
845.117	15930
845.253	15880
845.389	15842
845.525	15823
845.661	15812
845.798	15808
845.934	15808
846.07	15846
846.206	15869
846.342	15945
846.478	15785
846.614	15671
846.75	15367
846.886	15378
847.022	15656
847.158	15420
847.294	15359
847.429	15386
847.565	15462
847.701	15705
847.837	15180
847.972	15100
848.108	15260
848.244	15260
848.379	15089
848.515	15195
848.65	15081
848.786	15020
848.921	15009
849.057	15138
849.192	15074
849.328	15051
849.463	15161
849.598	15024
849.734	14914
849.869	14937
850.004	14864
850.14	14754
850.275	14883
850.41	14746
850.545	14659
850.68	14853
850.815	14800
850.95	14727
851.085	14963
851.22	14864
851.355	14826
851.49	14792
851.625	14716
851.76	14739
851.895	14750
852.03	14712
852.165	14769
852.299	14883
852.434	14933
852.569	14807
852.703	14785
852.838	14910
852.973	14971
853.107	15009
853.242	14746
853.376	14731
853.511	14613
853.645	14769
853.78	14739
853.914	14769
854.048	14678
854.183	14670
854.317	14727
854.451	14849
854.585	14731
854.72	14708
854.854	14724
854.988	14556
855.122	14712
855.256	14537
855.39	14735
855.524	14800
855.658	14735
855.792	14708
855.926	14735
856.06	14758
856.194	14804
856.327	14705
856.461	14602
856.595	14655
856.729	14689
856.862	14781
856.996	14701
857.13	14716
857.263	14746
857.397	14796
857.53	14792
857.664	14735
857.797	14826
857.931	14910
858.064	14678
858.197	14792
858.331	14773
858.464	14613
858.597	14670
858.731	14625
858.864	14693
858.997	14716
859.13	14735
859.263	14785
859.396	14758
859.529	14735
859.662	14720
859.795	14659
859.928	14769
860.061	14937
860.194	14819
860.327	14720
860.46	14686
860.592	14830
860.725	14883
860.858	14739
860.99	14670
861.123	14655
861.256	14640
861.388	14834
861.521	15374
861.653	14674
861.786	14518
861.918	14575
862.05	14571
862.183	14693
862.315	14735
862.447	14720
862.58	14632
862.712	14465
862.844	14446
862.976	14522
863.108	14636
863.24	14963
863.372	14381
863.504	14442
863.636	14469
863.768	14602
863.9	14457
864.032	14412
864.164	14465
864.296	14442
864.428	14549
864.559	14533
864.691	14526
864.823	14571
864.954	14522
865.086	14465
865.217	14480
865.349	14469
865.48	14366
865.612	14492
865.743	14568
865.875	14484
866.006	14454
866.137	14514
866.269	14358
866.4	14495
866.531	14404
866.662	14385
866.793	14434
866.924	14431
867.055	14476
867.186	14507
867.317	14377
867.448	14377
867.579	14324
867.71	14339
867.841	14320
867.972	14415
868.103	14415
868.233	14434
868.364	14454
868.495	14552
868.625	14720
868.756	14762
868.886	14625
869.017	14579
869.147	14754
869.278	14842
869.408	14655
869.539	14830
869.669	14708
869.799	14807
869.929	14845
870.06	14743
870.19	15005
870.32	14960
870.45	14971
870.58	15055
870.71	15138
870.84	15192
870.97	15051
871.1	15119
871.23	15249
871.36	15367
871.489	15173
871.619	15241
871.749	15351
871.879	15207
872.008	15439
872.138	15283
872.267	15264
872.397	15135
872.526	15161
872.656	15161
872.785	15119
872.915	15367
873.044	15382
873.173	15226
873.303	15382
873.432	15431
873.561	15348
873.69	15329
873.819	15462
873.948	15447
874.077	15283
874.206	15268
874.335	15351
874.464	15412
874.593	15728
874.722	15625
874.851	15629
874.979	15755
875.108	15671
875.237	15511
875.365	15443
875.494	15618
875.623	15736
875.751	15656
875.88	15671
876.008	15819
876.136	15800
876.265	16078
876.393	16211
876.521	16169
876.65	16162
876.778	16120
876.906	16059
877.034	15979
877.162	16097
877.29	16006
877.418	16116
877.546	16147
877.674	16078
877.802	16006
877.93	16158
878.058	16021
878.185	15983
878.313	15998
878.441	15979
878.568	15975
878.696	15903
878.824	16074
878.951	16154
879.079	16272
879.206	16360
879.333	16287
879.461	16131
879.588	16139
879.715	16337
879.842	16390
879.97	16211
880.097	15819
880.224	15888
880.351	15949
880.478	16006
880.605	15861
880.732	15960
880.859	16173
880.986	15994
881.112	15934
881.239	15800
881.366	15819
881.493	15603
881.619	15610
881.746	15576
881.872	15584
881.999	15553
882.125	15515
882.252	15549
882.378	15610
882.505	15648
882.631	15485
882.757	15462
882.883	15450
883.01	15351
883.136	15431
883.262	15256
883.388	15291
883.514	15408
883.64	15466
883.766	15450
883.892	15176
884.018	15222
884.143	15420
884.269	15382
884.395	15165
884.52	15058
884.646	15097
884.772	15032
884.897	14910
885.023	15036
885.148	15245
885.274	15264
885.399	15192
885.524	15066
885.65	15043
885.775	15097
885.9	15036
886.025	15211
886.15	15154
886.275	15051
886.4	14918
886.525	15020
886.65	15013
886.775	15009
886.9	15237
887.025	15416
887.149	15074
887.274	14937
887.399	14944
887.523	14868
887.648	14838
887.773	14868
887.897	15001
888.021	14963
888.146	14785
888.27	15051
888.395	15017
888.519	14998
888.643	15055
888.767	14963
888.891	14876
889.015	14727
889.139	14762
889.263	14735
889.387	14902
889.511	14967
889.635	14948
889.759	14724
889.883	14769
890.006	14887
890.13	14800
890.254	14785
890.377	14735
890.501	14522
890.624	14598
890.748	14587
890.871	14488
890.995	14431
891.118	14374
891.241	14476
891.364	14374
891.488	14469
891.611	14396
891.734	14473
891.857	14556
891.98	14469
892.103	14602
892.226	14415
892.349	14454
892.471	14290
892.594	14396
892.717	14408
892.839	14377
892.962	14400
893.085	14396
893.207	14473
893.33	14336
893.452	14434
893.575	14446
893.697	14438
893.819	14583
893.941	14674
894.064	14541
894.186	14434
894.308	14415
894.43	14590
894.552	14606
894.674	14541
894.796	14313
894.918	14434
895.04	14442
895.161	14659
895.283	14651
895.405	14526
895.526	14495
895.648	14560
895.769	14590
895.891	14625
896.012	14571
896.134	14701
896.255	14686
896.376	14545
896.498	14625
896.619	14670
896.74	14587
896.861	14697
896.982	14853
897.103	15074
897.224	14857
897.345	14876
897.466	14845
897.587	14785
897.708	15055
897.828	14921
897.949	14876
898.07	14758
898.19	14823
898.311	15005
898.431	14845
898.552	14933
898.672	15032
898.792	15020
898.913	15032
899.033	14868
899.153	14765
899.273	14617
899.393	14880
899.513	14785
899.633	14792
899.753	14891
899.873	14674
899.993	14838
900.113	14857
900.232	14773
900.352	14750
900.472	14739
900.591	14644
900.711	14735
900.83	14629
900.95	14773
901.069	14785
901.189	14564
901.308	14438
901.427	14336
901.546	14278
901.665	14347
901.784	14282
901.904	14172
902.023	14126
902.141	13864
902.26	13928
902.379	14008
902.498	13879
902.617	13887
902.735	14005
902.854	13845
902.973	13852
903.091	13632
903.21	13518
903.328	13609
903.446	13487
903.565	13453
903.683	13540
903.801	13304
903.919	13308
904.038	13343
904.156	13297
904.274	13350
904.392	13266
904.51	13266
904.627	13187
904.745	13297
904.863	13346
904.981	13027
905.098	12901
905.216	12909
905.334	12966
905.451	13069
905.569	12935
905.686	13065
905.803	12958
905.921	12817
906.038	12886
906.155	12764
906.272	12662
906.389	12677
906.506	12601
906.623	12597
906.74	12563
906.857	12403
906.974	12502
907.091	12570
907.208	12669
907.324	12525
907.441	12525
907.557	12361
907.674	12346
907.79	12175
907.907	12285
908.023	12239
908.139	12247
908.256	12178
908.372	12220
908.488	12178
908.604	12049
908.72	12049
908.836	12087
908.952	12068
909.068	11999
909.184	12072
909.3	12057
909.415	12064
909.531	12136
909.647	11798
909.762	11809
909.878	11737
909.993	11809
910.108	11771
910.224	11794
910.339	11809
910.454	11783
910.57	11661
910.685	11592
910.8	11863
910.915	11824
911.03	11589
911.145	11566
911.259	11459
911.374	11471
911.489	11395
911.604	11376
911.718	11204
911.833	11170
911.947	11159
912.062	11124
912.176	11178
912.291	11246
912.405	11181
912.519	11436
912.633	11455
912.748	11307
912.862	11280
912.976	11117
913.09	10999
913.204	11071
913.318	11105
913.431	11227
913.545	11216
913.659	11235
913.772	11105
913.886	11045
914	10961
914.113	11048
914.226	11166
914.34	11090
914.453	10919
914.566	11155
914.68	10949
914.793	10991
914.906	10767
915.019	10694
915.132	10698
915.245	10816
915.358	10717
915.47	10786
915.583	10835
915.696	10797
915.809	10885
915.921	10942
916.034	10687
916.146	10740
916.259	10691
916.371	10812
916.483	10771
916.595	10721
916.708	10588
916.82	10714
916.932	10538
917.044	10554
917.156	10622
917.268	10535
917.38	10573
917.491	10542
917.603	10558
917.715	10679
917.826	10603
917.938	10466
918.049	10497
918.161	10599
918.272	10626
918.384	10687
918.495	10660
918.606	10462
918.717	10455
918.828	10519
918.939	10481
919.05	10303
919.161	10398
919.272	10143
919.383	10314
919.494	10363
919.604	10626
919.715	10516
919.826	10333
919.936	10428
920.047	10599
920.157	10455
920.267	10615
920.378	10462
920.488	10455
920.598	10721
920.708	10797
920.818	10649
920.928	10607
921.038	10816
921.148	10733
921.258	10497
921.368	10432
921.477	10314
921.587	10367
921.697	10219
921.806	10314
921.916	10200
922.025	10010
922.134	9998
922.244	9895
922.353	10006
922.462	9934
922.571	9831
922.68	9755
922.789	9675
922.898	9667
923.007	9633
923.116	9724
923.224	9690
923.333	9656
923.442	9545
923.55	9557
923.659	9614
923.767	9629
923.876	9507
923.984	9622
924.092	9515
924.201	9561
924.309	9557
924.417	9618
924.525	9462
924.633	9538
924.741	10268
924.849	9313
924.956	9443
925.064	9241
925.172	9245
925.279	9249
925.387	9325
925.494	9382
925.602	9462
925.709	9363
925.816	9321
925.924	9310
926.031	9389
926.138	9329
926.245	9359
926.352	9321
926.459	9367
926.566	9431
926.673	9287
926.779	9180
926.886	9207
926.993	9032
927.099	9074
927.206	8952
927.312	9066
927.419	9066
927.525	9062
927.631	9001
927.737	8929
927.843	8956
927.95	8811
928.056	8929
928.162	8899
928.267	9020
928.373	9644
928.479	8998
928.585	8826
928.69	8883
928.796	8937
928.901	8842
929.007	8606
929.112	8807
929.218	8845
929.323	8758
929.428	8708
929.533	8895
929.638	8724
929.743	8670
929.848	8800
929.953	8785
930.058	8659
930.163	8518
930.267	8552
930.372	8617
930.477	8469
930.581	8701
930.685	8590
930.79	8404
930.894	8358
930.998	8423
931.103	8659
931.207	8237
931.311	8229
931.415	8084
931.519	8005
931.623	7944
