Data from test_V78500241_1007.txt Node
Date: Fri Mar 25 14:40:43 CST 2022
User: usil
Spectrometer: V785-0024
Trigger mode: 0
Integration Time (sec): 4.000000E-1
Scans to average: 1
Nonlinearity correction enabled: false
Boxcar width: 0
Storing dark spectrum: false
XAxis mode: Wavelengths
Number of Pixels in Spectrum: 1024
>>>>>Begin Spectral Data<<<<<
801.071	23140
801.214	22957
801.356	22729
801.499	22596
801.641	22527
801.783	22322
801.926	22379
802.068	22348
802.211	22196
802.353	22090
802.496	21960
802.638	21850
802.78	21846
802.923	21762
803.065	21671
803.208	21838
803.35	21797
803.492	21903
803.635	21854
803.777	21755
803.919	21865
804.061	22109
804.204	21861
804.346	21747
804.488	21618
804.63	21789
804.773	21633
804.915	21644
805.057	21850
805.199	21629
805.341	21606
805.483	21934
805.626	21781
805.768	21633
805.91	21671
806.052	21755
806.194	21720
806.336	21975
806.478	21899
806.62	21732
806.762	21838
806.904	22082
807.046	22169
807.188	22226
807.33	22280
807.472	22356
807.614	22162
807.756	22447
807.898	22188
808.04	22200
808.182	22382
808.324	22451
808.465	22668
808.607	22942
808.749	23197
808.891	23315
809.033	23516
809.174	23143
809.316	23010
809.458	22869
809.6	22641
809.741	22675
809.883	22504
810.025	22455
810.166	22481
810.308	22436
810.45	22432
810.591	22360
810.733	22124
810.875	22063
811.016	21918
811.158	21998
811.299	22040
811.441	22120
811.582	22074
811.724	22067
811.865	21956
812.007	21953
812.148	22040
812.29	21911
812.431	22082
812.573	22341
812.714	22314
812.855	22417
812.997	22466
813.138	22615
813.279	22531
813.421	22424
813.562	22318
813.703	22284
813.845	22067
813.986	21816
814.127	21591
814.268	21610
814.41	21576
814.551	21663
814.692	21477
814.833	21462
814.974	21294
815.115	21466
815.256	21420
815.397	21336
815.539	21192
815.68	21359
815.821	21157
815.962	21195
816.103	21203
816.244	21112
816.385	20941
816.526	20941
816.666	20781
816.807	20765
816.948	20781
817.089	20807
817.23	20663
817.371	20613
817.512	20530
817.653	20648
817.793	20545
817.934	20636
818.075	20602
818.216	20537
818.356	20537
818.497	20454
818.638	20309
818.778	20332
818.919	20294
819.06	20347
819.2	20446
819.341	20438
819.481	20495
819.622	20446
819.762	20849
819.903	20739
820.043	20735
820.184	20533
820.324	20644
820.465	20678
820.605	20564
820.746	20446
820.886	20431
821.026	20541
821.167	20537
821.307	20598
821.447	20568
821.588	20366
821.728	20278
821.868	20187
822.008	19989
822.149	20065
822.289	19936
822.429	19830
822.569	19620
822.709	19571
822.849	19491
822.99	19483
823.13	19434
823.27	19350
823.41	19266
823.55	19206
823.69	19240
823.83	19263
823.97	19247
824.11	18996
824.25	19080
824.389	19004
824.529	19091
824.669	19118
824.809	19145
824.949	19175
825.089	19107
825.228	19008
825.368	18913
825.508	18878
825.648	18882
825.787	18920
825.927	18798
826.067	18802
826.206	18806
826.346	18878
826.485	18833
826.625	18825
826.765	18989
826.904	18863
827.044	18551
827.183	18612
827.323	18547
827.462	18639
827.601	18646
827.741	18483
827.88	18441
828.02	18426
828.159	18532
828.298	18585
828.437	18486
828.577	18410
828.716	18642
828.855	18460
828.994	18300
829.134	18216
829.273	18365
829.412	18213
829.551	18235
829.69	18144
829.829	18243
829.968	18403
830.107	18262
830.246	18296
830.385	18178
830.524	18110
830.663	18140
830.802	17980
830.941	17908
831.08	17878
831.219	17988
831.357	17988
831.496	18144
831.635	17809
831.774	17802
831.913	17786
832.051	17676
832.19	17649
832.329	17745
832.467	17547
832.606	17608
832.744	17547
832.883	17558
833.022	17581
833.16	17646
833.299	17646
833.437	17676
833.576	17630
833.714	17710
833.852	17722
833.991	17638
834.129	17707
834.267	17714
834.406	17627
834.544	17783
834.682	17764
834.821	17592
834.959	17878
835.097	17619
835.235	17665
835.373	17608
835.511	17752
835.65	17505
835.788	17581
835.926	17395
836.064	17376
836.202	17334
836.34	17585
836.478	17543
836.615	17501
836.753	17592
836.891	17592
837.029	17570
837.167	17383
837.305	17455
837.443	17349
837.58	17440
837.718	17425
837.856	17425
837.993	17322
838.131	17429
838.269	17273
838.406	17178
838.544	17174
838.681	17113
838.819	16965
838.956	16904
839.094	16919
839.231	16850
839.369	17022
839.506	17250
839.643	17121
839.781	16835
839.918	16847
840.055	16972
840.193	16793
840.33	16877
840.467	16919
840.604	16904
840.742	17014
840.879	16694
841.016	16824
841.153	16767
841.29	16942
841.427	16885
841.564	16869
841.701	16873
841.838	16767
841.975	16782
842.112	16725
842.249	16683
842.385	16706
842.522	16843
842.659	16660
842.796	16618
842.933	16679
843.069	16672
843.206	16664
843.343	16618
843.479	16656
843.616	16672
843.752	16497
843.889	16447
844.025	16637
844.162	16443
844.298	16500
844.435	16462
844.571	16478
844.708	16519
844.844	16679
844.98	16649
845.117	16618
845.253	16546
845.389	16478
845.525	16698
845.661	17064
845.798	17117
845.934	17539
846.07	17589
846.206	17543
846.342	17440
846.478	16995
846.614	16664
846.75	16276
846.886	16238
847.022	16200
847.158	16040
847.294	16006
847.429	16139
847.565	15998
847.701	16207
847.837	15781
847.972	15679
848.108	15698
848.244	15789
848.379	15625
848.515	15443
848.65	15614
848.786	15629
848.921	15656
849.057	15648
849.192	15660
849.328	15545
849.463	15557
849.598	15519
849.734	15542
849.869	15492
850.004	15363
850.14	15447
850.275	15348
850.41	15317
850.545	15237
850.68	15374
850.815	15359
850.95	15416
851.085	15538
851.22	15439
851.355	15374
851.49	15321
851.625	15329
851.76	15272
851.895	15211
852.03	15291
852.165	15249
852.299	15382
852.434	15473
852.569	15408
852.703	15348
852.838	15485
852.973	15568
853.107	15500
853.242	15336
853.376	15207
853.511	15100
853.645	15188
853.78	15321
853.914	15306
854.048	15203
854.183	15245
854.317	15249
854.451	15469
854.585	15222
854.72	15230
854.854	15325
854.988	15188
855.122	15180
855.256	15119
855.39	15169
855.524	15291
855.658	15272
855.792	15272
855.926	15332
856.06	15256
856.194	15313
856.327	15180
856.461	15123
856.595	15116
856.729	15233
856.862	15329
856.996	15287
857.13	15329
857.263	15351
857.397	15272
857.53	15203
857.664	15245
857.797	15313
857.931	15359
858.064	15344
858.197	15199
858.331	15146
858.464	15127
858.597	15123
858.731	15081
858.864	15165
858.997	15173
859.13	15127
859.263	15169
859.396	15260
859.529	15154
859.662	15222
859.795	15097
859.928	15184
860.061	15245
860.194	15439
860.327	15245
860.46	15252
860.592	15272
860.725	15321
860.858	15325
860.99	15192
861.123	15165
861.256	15066
861.388	15283
861.521	15926
861.653	15142
861.786	14971
861.918	15020
862.05	15142
862.183	15142
862.315	15192
862.447	15119
862.58	15157
862.712	14933
862.844	14918
862.976	15070
863.108	15024
863.24	15241
863.372	14876
863.504	15001
863.636	14963
863.768	15039
863.9	14967
864.032	14960
864.164	14982
864.296	14914
864.428	15009
864.559	15032
864.691	14948
864.823	15024
864.954	14956
865.086	14963
865.217	14944
865.349	14899
865.48	14941
865.612	14971
865.743	15131
865.875	14929
866.006	14937
866.137	14982
866.269	14902
866.4	14960
866.531	14876
866.662	14872
866.793	14986
866.924	14921
867.055	14933
867.186	14910
867.317	14864
867.448	14758
867.579	14834
867.71	14811
867.841	14777
867.972	14952
868.103	14933
868.233	14887
868.364	14963
868.495	14986
868.625	15180
868.756	15211
868.886	15036
869.017	15135
869.147	15233
869.278	15260
869.408	15230
869.539	15119
869.669	15283
869.799	15283
869.929	15241
870.06	15260
870.19	15485
870.32	15523
870.45	15473
870.58	15507
870.71	15557
870.84	15568
870.97	15561
871.1	15477
871.23	15698
871.36	15766
871.489	15663
871.619	15694
871.749	15625
871.879	15835
872.008	15903
872.138	15816
872.267	15812
872.397	15743
872.526	15690
872.656	15648
872.785	15587
872.915	15846
873.044	15899
873.173	15743
873.303	15781
873.432	15880
873.561	15934
873.69	15831
873.819	15873
873.948	15831
874.077	15846
874.206	15823
874.335	15911
874.464	15899
874.593	15998
874.722	16071
874.851	16090
874.979	16154
875.108	16162
875.237	16078
875.365	16082
875.494	16131
875.623	16211
875.751	16135
875.88	16310
876.008	16242
876.136	16314
876.265	16527
876.393	16645
876.521	16622
876.65	16679
876.778	16527
876.906	16519
877.034	16485
877.162	16527
877.29	16554
877.418	16535
877.546	16573
877.674	16561
877.802	16474
877.93	16622
878.058	16550
878.185	16550
878.313	16611
878.441	16668
878.568	16569
878.696	16569
878.824	16740
878.951	16828
879.079	17048
879.206	17200
879.333	17155
879.461	17143
879.588	17414
879.715	17395
879.842	17356
879.97	17128
880.097	16828
880.224	16748
880.351	16721
880.478	16656
880.605	16611
880.732	16630
880.859	16740
880.986	16519
881.112	16497
881.239	16447
881.366	16219
881.493	16386
881.619	16185
881.746	16150
881.872	16230
881.999	16162
882.125	16230
882.252	16226
882.378	16246
882.505	16341
882.631	16177
882.757	16013
882.883	16143
883.01	15979
883.136	15991
883.262	15930
883.388	15911
883.514	16044
883.64	16120
883.766	16029
883.892	15747
884.018	15819
884.143	16025
884.269	16086
884.395	15728
884.52	15561
884.646	15850
884.772	15625
884.897	15557
885.023	15766
885.148	15804
885.274	15804
885.399	15747
885.524	15614
885.65	15720
885.775	15766
885.9	15629
886.025	15720
886.15	15694
886.275	15728
886.4	15526
886.525	15694
886.65	15629
886.775	15534
886.9	15709
887.025	15823
887.149	15648
887.274	15557
887.399	15401
887.523	15447
887.648	15450
887.773	15336
887.897	15526
888.021	15450
888.146	15340
888.27	15515
888.395	15595
888.519	15526
888.643	15454
888.767	15435
888.891	15359
889.015	15245
889.139	15184
889.263	15237
889.387	15351
889.511	15492
889.635	15416
889.759	15161
889.883	15260
890.006	15195
890.13	15359
890.254	15211
890.377	15180
890.501	14963
890.624	15062
890.748	15077
890.871	15013
890.995	14941
891.118	14921
891.241	14849
891.364	14937
891.488	14986
891.611	14929
891.734	14861
891.857	15013
891.98	14853
892.103	15005
892.226	14910
892.349	14956
892.471	14689
892.594	14902
892.717	14986
892.839	14845
892.962	14872
893.085	14990
893.207	14929
893.33	14788
893.452	14777
893.575	14948
893.697	14792
893.819	15104
893.941	15055
894.064	15097
894.186	14800
894.308	14910
894.43	14982
894.552	15100
894.674	14941
894.796	14914
894.918	14849
895.04	14876
895.161	14990
895.283	14963
895.405	14880
895.526	14921
895.648	14937
895.769	14971
895.891	15070
896.012	15157
896.134	15119
896.255	15009
896.376	15051
896.498	14998
896.619	15036
896.74	15116
896.861	15116
896.982	15321
897.103	15523
897.224	15393
897.345	15306
897.466	15211
897.587	15241
897.708	15401
897.828	15321
897.949	15275
898.07	15245
898.19	15332
898.311	15424
898.431	15176
898.552	15355
898.672	15408
898.792	15477
898.913	15473
899.033	15222
899.153	15116
899.273	15176
899.393	15150
899.513	15241
899.633	15214
899.753	15207
899.873	15226
899.993	15184
900.113	15237
900.232	15211
900.352	15192
900.472	15131
900.591	15058
900.711	15062
900.83	15017
900.95	15199
901.069	15085
901.189	14944
901.308	14857
901.427	14716
901.546	14804
901.665	14792
901.784	14686
901.904	14640
902.023	14507
902.141	14309
902.26	14324
902.379	14393
902.498	14290
902.617	14210
902.735	14286
902.854	14286
902.973	14237
903.091	13951
903.21	13967
903.328	13940
903.446	13871
903.565	13887
903.683	13871
903.801	13746
903.919	13761
904.038	13761
904.156	13666
904.274	13871
904.392	13537
904.51	13651
904.627	13609
904.745	13696
904.863	13723
904.981	13384
905.098	13297
905.216	13411
905.334	13419
905.451	13362
905.569	13282
905.686	13251
905.803	13400
905.921	13133
906.038	13228
906.155	13183
906.272	13122
906.389	13065
906.506	12977
906.623	13012
906.74	12787
906.857	12787
906.974	12894
907.091	12924
907.208	13072
907.324	12882
907.441	12848
907.557	12734
907.674	12753
907.79	12696
907.907	12669
908.023	12711
908.139	12722
908.256	12620
908.372	12517
908.488	12582
908.604	12460
908.72	12452
908.836	12460
908.952	12365
909.068	12418
909.184	12490
909.3	12372
909.415	12407
909.531	12323
909.647	12159
909.762	12216
909.878	12140
909.993	12064
910.108	12270
910.224	12159
910.339	12076
910.454	12140
910.57	12007
910.685	11958
910.8	12281
910.915	12098
911.03	12030
911.145	11904
911.259	11794
911.374	11786
911.489	11760
911.604	11767
911.718	11657
911.833	11581
911.947	11474
912.062	11379
912.176	11554
912.291	11596
912.405	11520
912.519	11760
912.633	11832
912.748	11600
912.862	11653
912.976	11402
913.09	11395
913.204	11478
913.318	11395
913.431	11554
913.545	11509
913.659	11570
913.772	11368
913.886	11337
914	11322
914.113	11497
914.226	11528
914.34	11326
914.453	11269
914.566	11341
914.68	11307
914.793	11246
914.906	11105
915.019	11010
915.132	11033
915.245	10984
915.358	11041
915.47	11018
915.583	11109
915.696	11060
915.809	11212
915.921	11155
916.034	10999
916.146	10980
916.259	10957
916.371	11090
916.483	11094
916.595	11003
916.708	11022
916.82	10934
916.932	10984
917.044	10892
917.156	10984
917.268	10767
917.38	10896
917.491	10873
917.603	10862
917.715	10976
917.826	10877
917.938	10824
918.049	10698
918.161	10862
918.272	10976
918.384	11022
918.495	10881
918.606	10664
918.717	10691
918.828	10721
918.939	10744
919.05	10599
919.161	10714
919.272	10489
919.383	10664
919.494	10801
919.604	10900
919.715	10767
919.826	10668
919.936	10656
920.047	10793
920.157	10733
920.267	10930
920.378	10854
920.488	10717
920.598	10991
920.708	11117
920.818	10946
920.928	10908
921.038	11143
921.148	11025
921.258	10763
921.368	10679
921.477	10546
921.587	10596
921.697	10508
921.806	10698
921.916	10485
922.025	10333
922.134	10234
922.244	10242
922.353	10375
922.462	10162
922.571	10196
922.68	9945
922.789	9975
922.898	9983
923.007	9991
923.116	10040
923.224	9941
923.333	9884
923.442	9945
923.55	9800
923.659	9861
923.767	9934
923.876	9812
923.984	9880
924.092	9774
924.201	9873
924.309	9770
924.417	9827
924.525	9812
924.633	9854
924.741	10656
924.849	9515
924.956	9755
925.064	9549
925.172	9523
925.279	9618
925.387	9629
925.494	9549
925.602	9774
925.709	9667
925.816	9584
925.924	9652
926.031	9690
926.138	9618
926.245	9652
926.352	9580
926.459	9625
926.566	9625
926.673	9492
926.779	9504
926.886	9401
926.993	9302
927.099	9325
927.206	9260
927.312	9272
927.419	9336
927.525	9279
927.631	9332
927.737	9199
927.843	9176
927.95	9058
928.056	9142
928.162	9256
928.267	9237
928.373	9637
928.479	9298
928.585	8975
928.69	9150
928.796	9176
928.901	9089
929.007	8906
929.112	9116
929.218	9100
929.323	8986
929.428	8975
929.533	9176
929.638	8921
929.743	8921
929.848	9017
929.953	8944
930.058	8891
930.163	8727
930.267	8697
930.372	8990
930.477	8678
930.581	9047
930.685	8754
930.79	8625
930.894	8735
930.998	8727
931.103	8777
931.207	8476
931.311	8385
931.415	8434
931.519	8107
931.623	8176
