Data from test_V78500241_2069.txt Node
Date: Fri Mar 25 14:48:07 CST 2022
User: usil
Spectrometer: V785-0024
Trigger mode: 0
Integration Time (sec): 4.000000E-1
Scans to average: 1
Nonlinearity correction enabled: false
Boxcar width: 0
Storing dark spectrum: false
XAxis mode: Wavelengths
Number of Pixels in Spectrum: 1024
>>>>>Begin Spectral Data<<<<<
801.071	22097
801.214	21979
801.356	21781
801.499	21610
801.641	21542
801.783	21507
801.926	21492
802.068	21447
802.211	21386
802.353	21279
802.496	21192
802.638	21009
802.78	20960
802.923	20868
803.065	20697
803.208	20792
803.35	20883
803.492	20876
803.635	20906
803.777	20758
803.919	20883
804.061	21112
804.204	20796
804.346	20845
804.488	20716
804.63	20724
804.773	20609
804.915	20758
805.057	20727
805.199	20689
805.341	20670
805.483	20815
805.626	20838
805.768	20777
805.91	20796
806.052	20746
806.194	20564
806.336	20773
806.478	20705
806.62	20667
806.762	20769
806.904	20906
807.046	21176
807.188	20979
807.33	21062
807.472	20963
807.614	20952
807.756	21051
807.898	20792
808.04	20697
808.182	20697
808.324	20819
808.465	20773
808.607	20956
808.749	21055
808.891	21214
809.033	21272
809.174	21161
809.316	21184
809.458	21085
809.6	21009
809.741	21176
809.883	21058
810.025	21268
810.166	21340
810.308	21268
810.45	21119
810.591	21119
810.733	20971
810.875	20990
811.016	20807
811.158	20788
811.299	20891
811.441	20883
811.582	20952
811.724	20910
811.865	20788
812.007	20735
812.148	20826
812.29	20804
812.431	21100
812.573	21226
812.714	21332
812.855	21374
812.997	21302
813.138	21515
813.279	21443
813.421	21294
813.562	21393
813.703	21146
813.845	20876
813.986	20663
814.127	20609
814.268	20404
814.41	20552
814.551	20511
814.692	20507
814.833	20343
814.974	20332
815.115	20400
815.256	20221
815.397	20286
815.539	20332
815.68	20202
815.821	20096
815.962	20084
816.103	20073
816.244	20035
816.385	19917
816.526	19830
816.666	19742
816.807	19677
816.948	19613
817.089	19658
817.23	19662
817.371	19571
817.512	19540
817.653	19590
817.793	19419
817.934	19552
818.075	19628
818.216	19578
818.356	19426
818.497	19346
818.638	19122
818.778	19304
818.919	19301
819.06	19183
819.2	19324
819.341	19373
819.481	19426
819.622	19597
819.762	19826
819.903	19742
820.043	19666
820.184	19460
820.324	19487
820.465	19677
820.605	19540
820.746	19578
820.886	19453
821.026	19510
821.167	19487
821.307	19556
821.447	19544
821.588	19453
821.728	19270
821.868	19084
822.008	18916
822.149	18947
822.289	18844
822.429	18798
822.569	18570
822.709	18608
822.849	18410
822.99	18479
823.13	18399
823.27	18456
823.41	18304
823.55	18243
823.69	18388
823.83	18239
823.97	18224
824.11	18072
824.25	17984
824.389	18019
824.529	18136
824.669	18106
824.809	18213
824.949	18117
825.089	18140
825.228	18167
825.368	17836
825.508	17809
825.648	17809
825.787	17847
825.927	17904
826.067	17802
826.206	17866
826.346	17965
826.485	17885
826.625	17722
826.765	17958
826.904	18045
827.044	17718
827.183	17634
827.323	17528
827.462	17570
827.601	17543
827.741	17535
827.88	17604
828.02	17425
828.159	17505
828.298	17524
828.437	17665
828.577	17528
828.716	17619
828.855	17573
828.994	17330
829.134	17311
829.273	17288
829.412	17239
829.551	17277
829.69	17147
829.829	17322
829.968	17311
830.107	17440
830.246	17383
830.385	17284
830.524	17258
830.663	17094
830.802	17006
830.941	17006
831.08	16831
831.219	17003
831.357	16987
831.496	17102
831.635	16843
831.774	16748
831.913	16850
832.051	16713
832.19	16630
832.329	16725
832.467	16580
832.606	16584
832.744	16481
832.883	16493
833.022	16577
833.16	16550
833.299	16763
833.437	16558
833.576	16634
833.714	16675
833.852	16687
833.991	16691
834.129	16763
834.267	16771
834.406	16641
834.544	16691
834.682	16721
834.821	16649
834.959	16782
835.097	16656
835.235	16717
835.373	16748
835.511	16634
835.65	16538
835.788	16504
835.926	16417
836.064	16363
836.202	16421
836.34	16584
836.478	16615
836.615	16546
836.753	16504
836.891	16531
837.029	16630
837.167	16538
837.305	16485
837.443	16424
837.58	16367
837.718	16531
837.856	16356
837.993	16341
838.131	16443
838.269	16356
838.406	16265
838.544	16295
838.681	16169
838.819	16048
838.956	15816
839.094	15915
839.231	16002
839.369	16147
839.506	16284
839.643	16234
839.781	15994
839.918	15888
840.055	15964
840.193	15926
840.33	15922
840.467	15983
840.604	15873
840.742	16314
840.879	15800
841.016	15804
841.153	15812
841.29	16067
841.427	16025
841.564	16048
841.701	15934
841.838	15953
841.975	15857
842.112	16017
842.249	15728
842.385	15705
842.522	15922
842.659	15648
842.796	15641
842.933	15679
843.069	15675
843.206	15736
843.343	15816
843.479	15759
843.616	15724
843.752	15561
843.889	15564
844.025	15614
844.162	15557
844.298	15739
844.435	15538
844.571	15511
844.708	15538
844.844	15709
844.98	15660
845.117	15762
845.253	15553
845.389	15397
845.525	15496
845.661	15412
845.798	15351
845.934	15538
846.07	15321
846.206	15408
846.342	15538
846.478	15287
846.614	15180
846.75	15112
846.886	15093
847.022	15119
847.158	15066
847.294	15055
847.429	15089
847.565	15169
847.701	15374
847.837	14750
847.972	14887
848.108	14929
848.244	14925
848.379	14746
848.515	14697
848.65	14636
848.786	14724
848.921	14625
849.057	14868
849.192	14883
849.328	14724
849.463	14655
849.598	14632
849.734	14632
849.869	14541
850.004	14511
850.14	14571
850.275	14480
850.41	14419
850.545	14366
850.68	14412
850.815	14450
850.95	14446
851.085	14659
851.22	14629
851.355	14473
851.49	14568
851.625	14427
851.76	14492
851.895	14412
852.03	14362
852.165	14408
852.299	14518
852.434	14610
852.569	14450
852.703	14431
852.838	14518
852.973	14545
853.107	14701
853.242	14503
853.376	14358
853.511	14263
853.645	14267
853.78	14423
853.914	14366
854.048	14309
854.183	14324
854.317	14336
854.451	14556
854.585	14404
854.72	14278
854.854	14400
854.988	14191
855.122	14347
855.256	14126
855.39	14377
855.524	14446
855.658	14320
855.792	14412
855.926	14381
856.06	14381
856.194	14465
856.327	14282
856.461	14267
856.595	14324
856.729	14362
856.862	14499
856.996	14408
857.13	14404
857.263	14404
857.397	14389
857.53	14324
857.664	14469
857.797	14412
857.931	14400
858.064	14389
858.197	14419
858.331	14320
858.464	14278
858.597	14221
858.731	14309
858.864	14339
858.997	14305
859.13	14317
859.263	14393
859.396	14374
859.529	14263
859.662	14343
859.795	14309
859.928	14317
860.061	14438
860.194	14511
860.327	14339
860.46	14355
860.592	14366
860.725	14465
860.858	14442
860.99	14347
861.123	14237
861.256	14263
861.388	14332
861.521	14948
861.653	14275
861.786	14282
861.918	14138
862.05	14328
862.183	14294
862.315	14275
862.447	14298
862.58	14320
862.712	14069
862.844	14035
862.976	14172
863.108	14183
863.24	14514
863.372	14008
863.504	14046
863.636	14138
863.768	14145
863.9	14107
864.032	13993
864.164	14157
864.296	14096
864.428	14214
864.559	14176
864.691	14180
864.823	14259
864.954	14115
865.086	14199
865.217	14134
865.349	13997
865.48	14103
865.612	14088
865.743	14172
865.875	14149
866.006	14100
866.137	14077
866.269	14183
866.4	14035
866.531	13986
866.662	13951
866.793	14145
866.924	14081
867.055	14050
867.186	14035
867.317	14031
867.448	14054
867.579	14008
867.71	14100
867.841	14039
867.972	14126
868.103	14084
868.233	14077
868.364	14096
868.495	14180
868.625	14423
868.756	14301
868.886	14252
869.017	14305
869.147	14450
869.278	14419
869.408	14454
869.539	14305
869.669	14450
869.799	14419
869.929	14431
870.06	14549
870.19	14621
870.32	14583
870.45	14712
870.58	14785
870.71	14906
870.84	14891
870.97	14667
871.1	14804
871.23	14868
871.36	14967
871.489	14834
871.619	14937
871.749	14944
871.879	15017
872.008	15108
872.138	15043
872.267	14834
872.397	14838
872.526	14830
872.656	14727
872.785	14754
872.915	14979
873.044	15127
873.173	14994
873.303	15032
873.432	14982
873.561	15116
873.69	15051
873.819	14929
873.948	15081
874.077	15009
874.206	14941
874.335	15047
874.464	15138
874.593	15249
874.722	15184
874.851	15447
874.979	15397
875.108	15283
875.237	15226
875.365	15207
875.494	15317
875.623	15389
875.751	15340
875.88	15382
876.008	15420
876.136	15511
876.265	15728
876.393	15888
876.521	15922
876.65	15888
876.778	15785
876.906	15842
877.034	15656
877.162	15705
877.29	15629
877.418	15648
877.546	15686
877.674	15663
877.802	15701
877.93	15606
878.058	15641
878.185	15652
878.313	15774
878.441	15660
878.568	15545
878.696	15610
878.824	15675
878.951	15732
879.079	15983
879.206	16044
879.333	15937
879.461	15759
879.588	15819
879.715	15899
879.842	16040
879.97	15755
880.097	15561
880.224	15561
880.351	15637
880.478	15477
880.605	15439
880.732	15568
880.859	15797
880.986	15496
881.112	15564
881.239	15496
881.366	15355
881.493	15157
881.619	15108
881.746	15184
881.872	15135
881.999	15142
882.125	15218
882.252	15325
882.378	15268
882.505	15447
882.631	15173
882.757	15047
882.883	15131
883.01	15085
883.136	15020
883.262	14929
883.388	14925
883.514	15020
883.64	15085
883.766	14944
883.892	14864
884.018	14891
884.143	14994
884.269	15142
884.395	14861
884.52	14720
884.646	14807
884.772	14693
884.897	14678
885.023	14739
885.148	14880
885.274	14925
885.399	14743
885.524	14701
885.65	14735
885.775	14765
885.9	14788
886.025	14902
886.15	14807
886.275	14689
886.4	14762
886.525	14724
886.65	14727
886.775	14594
886.9	14887
887.025	14994
887.149	14705
887.274	14556
887.399	14503
887.523	14549
887.648	14522
887.773	14454
887.897	14579
888.021	14682
888.146	14568
888.27	14651
888.395	14716
888.519	14667
888.643	14590
888.767	14670
888.891	14530
889.015	14473
889.139	14465
889.263	14377
889.387	14480
889.511	14583
889.635	14541
889.759	14385
889.883	14408
890.006	14427
890.13	14503
890.254	14328
890.377	14480
890.501	14347
890.624	14187
890.748	14358
890.871	14199
890.995	14088
891.118	14043
891.241	14172
891.364	14088
891.488	14240
891.611	14046
891.734	14081
891.857	14145
891.98	14161
892.103	14229
892.226	14206
892.349	14153
892.471	14031
892.594	14180
892.717	14100
892.839	14142
892.962	14073
893.085	14180
893.207	14134
893.33	14084
893.452	14035
893.575	14229
893.697	14214
893.819	14267
893.941	14290
894.064	14324
894.186	14214
894.308	14134
894.43	14187
894.552	14332
894.674	14187
894.796	14164
894.918	14168
895.04	14225
895.161	14286
895.283	14305
895.405	14111
895.526	14168
895.648	14278
895.769	14377
895.891	14305
896.012	14263
896.134	14370
896.255	14400
896.376	14210
896.498	14275
896.619	14389
896.74	14320
896.861	14431
896.982	14689
897.103	14777
897.224	14625
897.345	14537
897.466	14434
897.587	14552
897.708	14682
897.828	14621
897.949	14545
898.07	14488
898.19	14594
898.311	14750
898.431	14473
898.552	14575
898.672	14625
898.792	14746
898.913	14731
899.033	14526
899.153	14469
899.273	14511
899.393	14457
899.513	14469
899.633	14492
899.753	14598
899.873	14427
899.993	14514
900.113	14541
900.232	14579
900.352	14541
900.472	14484
900.591	14336
900.711	14290
900.83	14362
900.95	14419
901.069	14446
901.189	14320
901.308	14081
901.427	13978
901.546	14062
901.665	14050
901.784	14001
901.904	13951
902.023	13826
902.141	13670
902.26	13643
902.379	13689
902.498	13529
902.617	13605
902.735	13632
902.854	13636
902.973	13480
903.091	13301
903.21	13266
903.328	13244
903.446	13316
903.565	13103
903.683	13187
903.801	13053
903.919	13190
904.038	13118
904.156	12977
904.274	13031
904.392	13031
904.51	12977
904.627	13050
904.745	13046
904.863	12993
904.981	12806
905.098	12734
905.216	12673
905.334	12749
905.451	12738
905.569	12639
905.686	12741
905.803	12757
905.921	12517
906.038	12521
906.155	12578
906.272	12540
906.389	12365
906.506	12285
906.623	12281
906.74	12300
906.857	12152
906.974	12178
907.091	12327
907.208	12391
907.324	12388
907.441	12258
907.557	12049
907.674	12038
907.79	11977
907.907	12068
908.023	12057
908.139	12064
908.256	11996
908.372	11889
908.488	11984
908.604	11874
908.72	11821
908.836	11805
908.952	11745
909.068	11756
909.184	11851
909.3	11821
909.415	11832
909.531	11863
909.647	11649
909.762	11558
909.878	11554
909.993	11547
910.108	11516
910.224	11524
910.339	11554
910.454	11459
910.57	11402
910.685	11395
910.8	11623
910.915	11649
911.03	11471
911.145	11292
911.259	11288
911.374	11189
911.489	11231
911.604	11113
911.718	11003
911.833	10949
911.947	10980
912.062	10771
912.176	10976
912.291	11033
912.405	11018
912.519	11227
912.633	11307
912.748	11151
912.862	11022
912.976	10847
913.09	10786
913.204	10869
913.318	10896
913.431	10987
913.545	10991
913.659	11083
913.772	10877
913.886	10778
914	10809
914.113	10828
914.226	10839
914.34	10847
914.453	10736
914.566	10858
914.68	10759
914.793	10733
914.906	10618
915.019	10538
915.132	10470
915.245	10497
915.358	10538
915.47	10470
915.583	10565
915.696	10618
915.809	10664
915.921	10607
916.034	10516
916.146	10462
916.259	10356
916.371	10542
916.483	10535
916.595	10382
916.708	10440
916.82	10360
916.932	10451
917.044	10417
917.156	10352
917.268	10276
917.38	10322
917.491	10360
917.603	10375
917.715	10417
917.826	10489
917.938	10329
918.049	10265
918.161	10390
918.272	10485
918.384	10466
918.495	10371
918.606	10219
918.717	10192
918.828	10299
918.939	10280
919.05	10097
919.161	10204
919.272	10006
919.383	10150
919.494	10318
919.604	10459
919.715	10211
919.826	10128
919.936	10173
920.047	10310
920.157	10246
920.267	10459
920.378	10322
920.488	10276
920.598	10459
920.708	10637
920.818	10382
920.928	10436
921.038	10649
921.148	10618
921.258	10280
921.368	10177
921.477	10040
921.587	10166
921.697	10010
921.806	10131
921.916	9987
922.025	9823
922.134	9747
922.244	9778
922.353	9884
922.462	9682
922.571	9580
922.68	9462
922.789	9351
922.898	9485
923.007	9458
923.116	9500
923.224	9466
923.333	9447
923.442	9428
923.55	9317
923.659	9450
923.767	9469
923.876	9386
923.984	9416
924.092	9272
924.201	9386
924.309	9332
924.417	9359
924.525	9275
924.633	9374
924.741	10287
924.849	9089
924.956	9233
925.064	9131
925.172	8994
925.279	9077
925.387	9218
925.494	9116
925.602	9344
925.709	9195
925.816	9074
925.924	9142
926.031	9222
926.138	9081
926.245	9203
926.352	9070
926.459	9233
926.566	9245
926.673	9093
926.779	9009
926.886	9028
926.993	8902
927.099	8838
927.206	8826
927.312	8796
927.419	8891
927.525	8826
927.631	8895
927.737	8785
927.843	8743
927.95	8621
928.056	8746
928.162	8849
928.267	8826
928.373	9466
928.479	8906
928.585	8602
928.69	8705
928.796	8754
928.901	8655
929.007	8526
929.112	8720
929.218	8667
929.323	8537
929.428	8568
929.533	8735
929.638	8552
929.743	8610
929.848	8549
929.953	8533
930.058	8499
930.163	8305
930.267	8328
930.372	8438
930.477	8328
930.581	8549
930.685	8423
930.79	8271
930.894	8358
930.998	8282
931.103	8434
931.207	8096
931.311	8073
931.415	7982
931.519	7799
931.623	7818
