Data from test_V78500241_2569.txt Node
Date: Fri Mar 25 14:51:36 CST 2022
User: usil
Spectrometer: V785-0024
Trigger mode: 0
Integration Time (sec): 4.000000E-1
Scans to average: 1
Nonlinearity correction enabled: false
Boxcar width: 0
Storing dark spectrum: false
XAxis mode: Wavelengths
Number of Pixels in Spectrum: 1024
>>>>>Begin Spectral Data<<<<<
801.071	21968
801.214	21964
801.356	21587
801.499	21618
801.641	21462
801.783	21408
801.926	21458
802.068	21302
802.211	21287
802.353	21173
802.496	20819
802.638	20769
802.78	20857
802.923	20735
803.065	20735
803.208	20632
803.35	20800
803.492	20731
803.635	20834
803.777	20705
803.919	20861
804.061	20944
804.204	20804
804.346	20560
804.488	20488
804.63	20804
804.773	20587
804.915	20613
805.057	20746
805.199	20606
805.341	20724
805.483	20731
805.626	20689
805.768	20640
805.91	20609
806.052	20667
806.194	20537
806.336	20773
806.478	20590
806.62	20590
806.762	20674
806.904	20838
807.046	21051
807.188	21039
807.33	21020
807.472	21062
807.614	20929
807.756	20944
807.898	20716
808.04	20594
808.182	20632
808.324	20693
808.465	20819
808.607	20872
808.749	21135
808.891	21116
809.033	21207
809.174	21051
809.316	21005
809.458	20990
809.6	20990
809.741	21096
809.883	21127
810.025	21241
810.166	21127
810.308	21116
810.45	21100
810.591	21119
810.733	20792
810.875	20906
811.016	20754
811.158	20579
811.299	20724
811.441	20918
811.582	20902
811.724	20804
811.865	20693
812.007	20754
812.148	20727
812.29	20819
812.431	20941
812.573	21112
812.714	21241
812.855	21226
812.997	21488
813.138	21412
813.279	21363
813.421	21237
813.562	21119
813.703	21013
813.845	20929
813.986	20629
814.127	20507
814.268	20419
814.41	20446
814.551	20347
814.692	20343
814.833	20324
814.974	20389
815.115	20309
815.256	20202
815.397	20240
815.539	20202
815.68	20153
815.821	19997
815.962	20119
816.103	19928
816.244	19833
816.385	19788
816.526	19841
816.666	19548
816.807	19537
816.948	19438
817.089	19594
817.23	19540
817.371	19483
817.512	19491
817.653	19392
817.793	19426
817.934	19358
818.075	19445
818.216	19346
818.356	19453
818.497	19228
818.638	19175
818.778	19114
818.919	19057
819.06	19168
819.2	19301
819.341	19346
819.481	19339
819.622	19419
819.762	19784
819.903	19609
820.043	19396
820.184	19540
820.324	19362
820.465	19533
820.605	19426
820.746	19468
820.886	19346
821.026	19320
821.167	19331
821.307	19510
821.447	19362
821.588	19255
821.728	19110
821.868	18958
822.008	18897
822.149	18882
822.289	18738
822.429	18525
822.569	18513
822.709	18525
822.849	18304
822.99	18391
823.13	18346
823.27	18235
823.41	18167
823.55	18140
823.69	18239
823.83	18144
823.97	18068
824.11	17935
824.25	17923
824.389	17923
824.529	17999
824.669	17965
824.809	17973
824.949	17939
825.089	17992
825.228	17851
825.368	17741
825.508	17623
825.648	17756
825.787	17779
825.927	17707
826.067	17596
826.206	17676
826.346	17680
826.485	17551
826.625	17589
826.765	17767
826.904	17649
827.044	17532
827.183	17459
827.323	17376
827.462	17524
827.601	17349
827.741	17360
827.88	17417
828.02	17220
828.159	17315
828.298	17391
828.437	17455
828.577	17387
828.716	17452
828.855	17391
828.994	17109
829.134	17178
829.273	17162
829.412	17067
829.551	17014
829.69	17113
829.829	17162
829.968	17417
830.107	17170
830.246	17159
830.385	17155
830.524	17071
830.663	16957
830.802	16831
830.941	16786
831.08	16698
831.219	16980
831.357	16801
831.496	17052
831.635	16793
831.774	16656
831.913	16698
832.051	16577
832.19	16542
832.329	16588
832.467	16447
832.606	16405
832.744	16421
832.883	16405
833.022	16455
833.16	16554
833.299	16558
833.437	16470
833.576	16485
833.714	16485
833.852	16485
833.991	16573
834.129	16599
834.267	16531
834.406	16577
834.544	16535
834.682	16599
834.821	16497
834.959	16603
835.097	16493
835.235	16508
835.373	16634
835.511	16451
835.65	16310
835.788	16417
835.926	16238
836.064	16238
836.202	16185
836.34	16451
836.478	16481
836.615	16421
836.753	16474
836.891	16405
837.029	16436
837.167	16402
837.305	16398
837.443	16268
837.58	16265
837.718	16436
837.856	16337
837.993	16211
838.131	16280
838.269	16200
838.406	16246
838.544	16177
838.681	16059
838.819	15945
838.956	15869
839.094	15915
839.231	15804
839.369	16017
839.506	16196
839.643	16124
839.781	15835
839.918	15751
840.055	15854
840.193	15854
840.33	15732
840.467	15850
840.604	15861
840.742	16067
840.879	15698
841.016	15774
841.153	15793
841.29	15953
841.427	15934
841.564	15827
841.701	15789
841.838	15865
841.975	15831
842.112	15751
842.249	15671
842.385	15595
842.522	15785
842.659	15747
842.796	15534
842.933	15568
843.069	15595
843.206	15561
843.343	15717
843.479	15808
843.616	15671
843.752	15382
843.889	15450
844.025	15538
844.162	15424
844.298	15519
844.435	15374
844.571	15344
844.708	15336
844.844	15568
844.98	15584
845.117	15526
845.253	15374
845.389	15268
845.525	15237
845.661	15332
845.798	15214
845.934	15298
846.07	15146
846.206	15268
846.342	15279
846.478	15161
846.614	15085
846.75	15005
846.886	14963
847.022	15032
847.158	14918
847.294	14994
847.429	15028
847.565	15009
847.701	15199
847.837	14815
847.972	14674
848.108	14739
848.244	14769
848.379	14625
848.515	14632
848.65	14575
848.786	14636
848.921	14541
849.057	14739
849.192	14613
849.328	14594
849.463	14549
849.598	14564
849.734	14530
849.869	14454
850.004	14434
850.14	14533
850.275	14465
850.41	14298
850.545	14328
850.68	14351
850.815	14374
850.95	14301
851.085	14568
851.22	14423
851.355	14389
851.49	14317
851.625	14320
851.76	14362
851.895	14278
852.03	14320
852.165	14415
852.299	14256
852.434	14461
852.569	14431
852.703	14355
852.838	14476
852.973	14545
853.107	14393
853.242	14275
853.376	14317
853.511	14115
853.645	14221
853.78	14309
853.914	14176
854.048	14092
854.183	14267
854.317	14237
854.451	14415
854.585	14237
854.72	14290
854.854	14244
854.988	14149
855.122	14191
855.256	14035
855.39	14145
855.524	14385
855.658	14305
855.792	14248
855.926	14259
856.06	14271
856.194	14328
856.327	14263
856.461	14134
856.595	14210
856.729	14275
856.862	14271
856.996	14221
857.13	14237
857.263	14370
857.397	14286
857.53	14290
857.664	14172
857.797	14362
857.931	14286
858.064	14206
858.197	14328
858.331	14229
858.464	14233
858.597	14096
858.731	14237
858.864	14233
858.997	14237
859.13	14225
859.263	14290
859.396	14282
859.529	14210
859.662	14275
859.795	14240
859.928	14176
860.061	14339
860.194	14305
860.327	14244
860.46	14313
860.592	14339
860.725	14271
860.858	14400
860.99	14237
861.123	14172
861.256	14161
861.388	14252
861.521	14864
861.653	14145
861.786	14039
861.918	14138
862.05	14115
862.183	14103
862.315	14233
862.447	14294
862.58	14172
862.712	13993
862.844	13940
862.976	14126
863.108	14138
863.24	14469
863.372	13906
863.504	14054
863.636	14001
863.768	14012
863.9	14058
864.032	13955
864.164	13906
864.296	14100
864.428	14149
864.559	14142
864.691	14096
864.823	14001
864.954	14016
865.086	13959
865.217	13997
865.349	13928
865.48	13993
865.612	14054
865.743	14161
865.875	13906
866.006	13986
866.137	13925
866.269	13909
866.4	13974
866.531	14020
866.662	13826
866.793	13978
866.924	13940
867.055	14020
867.186	13947
867.317	13887
867.448	13978
867.579	13928
867.71	13963
867.841	13894
867.972	13974
868.103	14024
868.233	13967
868.364	14020
868.495	14073
868.625	14259
868.756	14317
868.886	14183
869.017	14191
869.147	14366
869.278	14404
869.408	14313
869.539	14180
869.669	14290
869.799	14290
869.929	14229
870.06	14336
870.19	14507
870.32	14511
870.45	14552
870.58	14689
870.71	14686
870.84	14781
870.97	14579
871.1	14693
871.23	14857
871.36	14845
871.489	14781
871.619	14880
871.749	14800
871.879	14826
872.008	14971
872.138	14765
872.267	14788
872.397	14739
872.526	14689
872.656	14564
872.785	14663
872.915	14933
873.044	14929
873.173	14880
873.303	14998
873.432	14952
873.561	14979
873.69	14887
873.819	14941
873.948	15005
874.077	14925
874.206	14887
874.335	14883
874.464	15070
874.593	15135
874.722	15108
874.851	15203
874.979	15283
875.108	15226
875.237	15184
875.365	15077
875.494	15233
875.623	15249
875.751	15138
875.88	15268
876.008	15336
876.136	15397
876.265	15618
876.393	15766
876.521	15667
876.65	15686
876.778	15686
876.906	15667
877.034	15542
877.162	15515
877.29	15420
877.418	15606
877.546	15614
877.674	15663
877.802	15534
877.93	15587
878.058	15652
878.185	15553
878.313	15629
878.441	15557
878.568	15496
878.696	15580
878.824	15644
878.951	15690
879.079	15743
879.206	15934
879.333	15827
879.461	15641
879.588	15808
879.715	15861
879.842	15888
879.97	15717
880.097	15576
880.224	15519
880.351	15488
880.478	15572
880.605	15412
880.732	15507
880.859	15717
880.986	15511
881.112	15469
881.239	15310
881.366	15260
881.493	15176
881.619	15176
881.746	15055
881.872	15154
881.999	15085
882.125	15043
882.252	15237
882.378	15203
882.505	15283
882.631	15062
882.757	14872
882.883	15047
883.01	14967
883.136	14830
883.262	14811
883.388	14746
883.514	14895
883.64	14960
883.766	14902
883.892	14727
884.018	14823
884.143	14830
884.269	15112
884.395	14750
884.52	14689
884.646	14632
884.772	14507
884.897	14526
885.023	14560
885.148	14792
885.274	14887
885.399	14906
885.524	14667
885.65	14674
885.775	14636
885.9	14701
886.025	14727
886.15	14689
886.275	14617
886.4	14579
886.525	14659
886.65	14594
886.775	14537
886.9	14750
887.025	14887
887.149	14667
887.274	14503
887.399	14434
887.523	14438
887.648	14442
887.773	14290
887.897	14568
888.021	14564
888.146	14484
888.27	14530
888.395	14518
888.519	14549
888.643	14594
888.767	14533
888.891	14393
889.015	14317
889.139	14355
889.263	14286
889.387	14404
889.511	14568
889.635	14389
889.759	14259
889.883	14320
890.006	14328
890.13	14514
890.254	14305
890.377	14324
890.501	14142
890.624	14164
890.748	14290
890.871	14062
890.995	13947
891.118	14043
891.241	14096
891.364	14103
891.488	14153
891.611	14062
891.734	14103
891.857	14134
891.98	14103
892.103	14103
892.226	14176
892.349	14012
892.471	13898
892.594	13986
892.717	14115
892.839	13982
892.962	14020
893.085	14195
893.207	14054
893.33	13928
893.452	13925
893.575	14180
893.697	14008
893.819	14225
893.941	14332
894.064	14218
894.186	13974
894.308	14084
894.43	14123
894.552	14214
894.674	14142
894.796	14012
894.918	14069
895.04	14096
895.161	14195
895.283	14119
895.405	14126
895.526	14183
895.648	14187
895.769	14199
895.891	14183
896.012	14343
896.134	14317
896.255	14271
896.376	14202
896.498	14286
896.619	14221
896.74	14183
896.861	14290
896.982	14583
897.103	14617
897.224	14617
897.345	14488
897.466	14381
897.587	14533
897.708	14632
897.828	14537
897.949	14434
898.07	14370
898.19	14446
898.311	14632
898.431	14579
898.552	14629
898.672	14701
898.792	14701
898.913	14621
899.033	14461
899.153	14537
899.273	14461
899.393	14385
899.513	14450
899.633	14389
899.753	14514
899.873	14393
899.993	14438
900.113	14499
900.232	14480
900.352	14457
900.472	14351
900.591	14233
900.711	14332
900.83	14180
900.95	14431
901.069	14396
901.189	14282
901.308	14005
901.427	13947
901.546	13982
901.665	14058
901.784	13978
901.904	13890
902.023	13757
902.141	13537
902.26	13552
902.379	13601
902.498	13514
902.617	13476
902.735	13483
902.854	13502
902.973	13480
903.091	13308
903.21	13247
903.328	13312
903.446	13164
903.565	13133
903.683	13080
903.801	12970
903.919	13133
904.038	13126
904.156	12913
904.274	13061
904.392	12901
904.51	12890
904.627	12973
904.745	12996
904.863	12996
904.981	12715
905.098	12608
905.216	12555
905.334	12654
905.451	12547
905.569	12578
905.686	12597
905.803	12616
905.921	12410
906.038	12525
906.155	12494
906.272	12281
906.389	12327
906.506	12095
906.623	12136
906.74	12186
906.857	12106
906.974	12095
907.091	12334
907.208	12273
907.324	12251
907.441	12171
907.557	12060
907.674	11885
907.79	11904
907.907	11904
908.023	12003
908.139	12007
908.256	11885
908.372	11912
908.488	11866
908.604	11729
908.72	11703
908.836	11726
908.952	11737
909.068	11680
909.184	11813
909.3	11764
909.415	11752
909.531	11668
909.647	11520
909.762	11570
909.878	11497
909.993	11535
910.108	11501
910.224	11402
910.339	11490
910.454	11341
910.57	11330
910.685	11284
910.8	11608
910.915	11482
911.03	11284
911.145	11166
911.259	11136
911.374	11181
911.489	11064
911.604	11071
911.718	10911
911.833	10915
911.947	10820
912.062	10744
912.176	10946
912.291	10927
912.405	10972
912.519	11136
912.633	11113
912.748	10984
912.862	10908
912.976	10839
913.09	10717
913.204	10782
913.318	10896
913.431	10961
913.545	10923
913.659	10957
913.772	10812
913.886	10759
914	10706
914.113	10828
914.226	10828
914.34	10854
914.453	10664
914.566	10835
914.68	10588
914.793	10649
914.906	10508
915.019	10485
915.132	10348
915.245	10516
915.358	10554
915.47	10523
915.583	10432
915.696	10523
915.809	10649
915.921	10615
916.034	10398
916.146	10455
916.259	10360
916.371	10592
916.483	10466
916.595	10428
916.708	10428
916.82	10348
916.932	10360
917.044	10428
917.156	10379
917.268	10246
917.38	10227
917.491	10249
917.603	10299
917.715	10371
917.826	10428
917.938	10215
918.049	10128
918.161	10261
918.272	10371
918.384	10523
918.495	10284
918.606	10253
918.717	10048
918.828	10158
918.939	10207
919.05	10112
919.161	10124
919.272	9987
919.383	10021
919.494	10219
919.604	10394
919.715	10135
919.826	10097
919.936	10086
920.047	10318
920.157	10181
920.267	10344
920.378	10207
920.488	10162
920.598	10360
920.708	10474
920.818	10356
920.928	10356
921.038	10573
921.148	10440
921.258	10204
921.368	10173
921.477	10093
921.587	10059
921.697	9945
921.806	10051
921.916	9911
922.025	9835
922.134	9751
922.244	9709
922.353	9812
922.462	9679
922.571	9629
922.68	9466
922.789	9492
922.898	9428
923.007	9359
923.116	9370
923.224	9466
923.333	9431
923.442	9336
923.55	9294
923.659	9401
923.767	9405
923.876	9332
923.984	9332
924.092	9256
924.201	9348
924.309	9306
924.417	9321
924.525	9237
924.633	9275
924.741	10044
924.849	9100
924.956	9207
925.064	9085
925.172	9009
925.279	9070
925.387	9009
925.494	9055
925.602	9207
925.709	9138
925.816	9062
925.924	9066
926.031	9157
926.138	9055
926.245	9157
926.352	9043
926.459	9089
926.566	9214
926.673	9039
926.779	8918
926.886	8887
926.993	8902
927.099	8800
927.206	8750
927.312	8724
927.419	8864
927.525	8792
927.631	8872
927.737	8701
927.843	8693
927.95	8541
928.056	8632
928.162	8705
928.267	8716
928.373	9382
928.479	8830
928.585	8594
928.69	8697
928.796	8766
928.901	8594
929.007	8549
929.112	8682
929.218	8655
929.323	8541
929.428	8545
929.533	8663
929.638	8526
929.743	8579
929.848	8564
929.953	8518
930.058	8396
930.163	8336
930.267	8336
930.372	8499
930.477	8195
930.581	8492
930.685	8400
930.79	8233
930.894	8240
930.998	8248
931.103	8294
931.207	7974
931.311	7978
931.415	7909
931.519	7765
931.623	7799
