Data from test_V78500241_1854.txt Node
Date: Fri Mar 25 14:46:37 CST 2022
User: usil
Spectrometer: V785-0024
Trigger mode: 0
Integration Time (sec): 4.000000E-1
Scans to average: 1
Nonlinearity correction enabled: false
Boxcar width: 0
Storing dark spectrum: false
XAxis mode: Wavelengths
Number of Pixels in Spectrum: 1024
>>>>>Begin Spectral Data<<<<<
801.071	22109
801.214	22051
801.356	21842
801.499	21743
801.641	21542
801.783	21439
801.926	21500
802.068	21401
802.211	21378
802.353	21416
802.496	21100
802.638	20941
802.78	20933
802.923	20967
803.065	20819
803.208	20823
803.35	20845
803.492	20937
803.635	20956
803.777	20849
803.919	21020
804.061	21184
804.204	20868
804.346	20895
804.488	20678
804.63	20788
804.773	20739
804.915	20674
805.057	20975
805.199	20743
805.341	20807
805.483	20914
805.626	20804
805.768	20769
805.91	20849
806.052	20807
806.194	20651
806.336	20876
806.478	20743
806.62	20667
806.762	20902
806.904	21017
807.046	21169
807.188	21020
807.33	21081
807.472	21093
807.614	20891
807.756	20941
807.898	20785
808.04	20785
808.182	20925
808.324	20842
808.465	20891
808.607	21013
808.749	21142
808.891	21275
809.033	21230
809.174	21180
809.316	21165
809.458	21142
809.6	21188
809.741	21089
809.883	21291
810.025	21348
810.166	21401
810.308	21306
810.45	21268
810.591	21173
810.733	20986
810.875	20929
811.016	20777
811.158	20712
811.299	20986
811.441	21119
811.582	20906
811.724	20979
811.865	20819
812.007	20876
812.148	20823
812.29	20906
812.431	21047
812.573	21218
812.714	21401
812.855	21431
812.997	21538
813.138	21644
813.279	21416
813.421	21359
813.562	21294
813.703	21146
813.845	21058
813.986	20853
814.127	20621
814.268	20560
814.41	20602
814.551	20617
814.692	20583
814.833	20450
814.974	20317
815.115	20400
815.256	20313
815.397	20313
815.539	20275
815.68	20225
815.821	20157
815.962	20164
816.103	20145
816.244	20001
816.385	19928
816.526	19970
816.666	19715
816.807	19712
816.948	19689
817.089	19647
817.23	19597
817.371	19674
817.512	19559
817.653	19468
817.793	19620
817.934	19525
818.075	19651
818.216	19582
818.356	19460
818.497	19434
818.638	19160
818.778	19198
818.919	19247
819.06	19270
819.2	19354
819.341	19445
819.481	19464
819.622	19620
819.762	19696
819.903	19601
820.043	19601
820.184	19681
820.324	19544
820.465	19635
820.605	19597
820.746	19480
820.886	19316
821.026	19613
821.167	19556
821.307	19693
821.447	19571
821.588	19377
821.728	19137
821.868	19187
822.008	18947
822.149	19027
822.289	19004
822.429	18673
822.569	18582
822.709	18578
822.849	18422
822.99	18467
823.13	18582
823.27	18467
823.41	18232
823.55	18163
823.69	18235
823.83	18270
823.97	18190
824.11	18117
824.25	17912
824.389	18038
824.529	18136
824.669	18102
824.809	18110
824.949	18136
825.089	18030
825.228	17980
825.368	17855
825.508	17863
825.648	17920
825.787	17969
825.927	17901
826.067	17790
826.206	17878
826.346	17798
826.485	17828
826.625	17817
826.765	17927
826.904	17821
827.044	17589
827.183	17592
827.323	17463
827.462	17668
827.601	17558
827.741	17448
827.88	17410
828.02	17463
828.159	17520
828.298	17566
828.437	17638
828.577	17573
828.716	17653
828.855	17455
828.994	17284
829.134	17303
829.273	17258
829.412	17117
829.551	17185
829.69	17197
829.829	17334
829.968	17398
830.107	17345
830.246	17280
830.385	17299
830.524	17022
830.663	17181
830.802	16961
830.941	16835
831.08	16877
831.219	16980
831.357	16919
831.496	17136
831.635	16900
831.774	16790
831.913	16725
832.051	16656
832.19	16550
832.329	16691
832.467	16580
832.606	16554
832.744	16592
832.883	16580
833.022	16596
833.16	16618
833.299	16649
833.437	16664
833.576	16706
833.714	16588
833.852	16790
833.991	16755
834.129	16797
834.267	16736
834.406	16592
834.544	16679
834.682	16622
834.821	16615
834.959	16831
835.097	16596
835.235	16736
835.373	16691
835.511	16664
835.65	16611
835.788	16580
835.926	16390
836.064	16291
836.202	16455
836.34	16561
836.478	16455
836.615	16599
836.753	16561
836.891	16596
837.029	16603
837.167	16455
837.305	16542
837.443	16451
837.58	16348
837.718	16485
837.856	16470
837.993	16421
838.131	16291
838.269	16379
838.406	16325
838.544	16306
838.681	16063
838.819	16105
838.956	15968
839.094	15941
839.231	16010
839.369	16169
839.506	16318
839.643	16196
839.781	15994
839.918	15945
840.055	15987
840.193	15956
840.33	15922
840.467	16021
840.604	15987
840.742	16166
840.879	15827
841.016	15911
841.153	15911
841.29	16078
841.427	15968
841.564	16040
841.701	15895
841.838	15953
841.975	15956
842.112	15907
842.249	15759
842.385	15656
842.522	15850
842.659	15880
842.796	15755
842.933	15804
843.069	15625
843.206	15743
843.343	15880
843.479	15709
843.616	15766
843.752	15633
843.889	15561
844.025	15622
844.162	15580
844.298	15542
844.435	15526
844.571	15462
844.708	15481
844.844	15728
844.98	15827
845.117	15580
845.253	15500
845.389	15458
845.525	15500
845.661	15511
845.798	15359
845.934	15420
846.07	15367
846.206	15355
846.342	15405
846.478	15313
846.614	15131
846.75	15184
846.886	15070
847.022	15256
847.158	15135
847.294	15119
847.429	15169
847.565	15138
847.701	15325
847.837	14861
847.972	14876
848.108	15081
848.244	14880
848.379	14708
848.515	14697
848.65	14678
848.786	14693
848.921	14758
849.057	14773
849.192	14807
849.328	14750
849.463	14655
849.598	14785
849.734	14663
849.869	14545
850.004	14511
850.14	14590
850.275	14476
850.41	14370
850.545	14488
850.68	14446
850.815	14450
850.95	14476
851.085	14621
851.22	14587
851.355	14499
851.49	14537
851.625	14351
851.76	14396
851.895	14332
852.03	14351
852.165	14377
852.299	14556
852.434	14583
852.569	14495
852.703	14533
852.838	14533
852.973	14575
853.107	14610
853.242	14457
853.376	14415
853.511	14229
853.645	14225
853.78	14511
853.914	14336
854.048	14301
854.183	14275
854.317	14396
854.451	14499
854.585	14362
854.72	14305
854.854	14358
854.988	14271
855.122	14412
855.256	14168
855.39	14309
855.524	14484
855.658	14427
855.792	14381
855.926	14442
856.06	14408
856.194	14419
856.327	14358
856.461	14339
856.595	14328
856.729	14313
856.862	14374
856.996	14484
857.13	14438
857.263	14530
857.397	14412
857.53	14317
857.664	14434
857.797	14434
857.931	14450
858.064	14385
858.197	14358
858.331	14237
858.464	14343
858.597	14221
858.731	14256
858.864	14317
858.997	14294
859.13	14461
859.263	14374
859.396	14400
859.529	14343
859.662	14267
859.795	14244
859.928	14317
860.061	14412
860.194	14499
860.327	14374
860.46	14336
860.592	14503
860.725	14522
860.858	14488
860.99	14336
861.123	14290
861.256	14320
861.388	14400
861.521	15013
861.653	14259
861.786	14256
861.918	14172
862.05	14263
862.183	14317
862.315	14324
862.447	14427
862.58	14328
862.712	14065
862.844	14065
862.976	14195
863.108	14195
863.24	14530
863.372	14119
863.504	14233
863.636	14088
863.768	14244
863.9	14062
864.032	14077
864.164	14077
864.296	14134
864.428	14259
864.559	14157
864.691	14218
864.823	14161
864.954	14088
865.086	14195
865.217	14153
865.349	14050
865.48	14062
865.612	14157
865.743	14244
865.875	14123
866.006	14058
866.137	14103
866.269	14100
866.4	14164
866.531	14039
866.662	14084
866.793	13967
866.924	14119
867.055	14153
867.186	14115
867.317	14027
867.448	13925
867.579	14035
867.71	14081
867.841	13936
867.972	14202
868.103	14142
868.233	14275
868.364	14096
868.495	14183
868.625	14263
868.756	14465
868.886	14275
869.017	14290
869.147	14522
869.278	14499
869.408	14495
869.539	14324
869.669	14492
869.799	14454
869.929	14530
870.06	14423
870.19	14743
870.32	14689
870.45	14674
870.58	14716
870.71	14895
870.84	14876
870.97	14655
871.1	14712
871.23	14982
871.36	14929
871.489	14956
871.619	14925
871.749	14998
871.879	14967
872.008	15150
872.138	14956
872.267	15043
872.397	14811
872.526	14823
872.656	14743
872.785	14796
872.915	15028
873.044	15058
873.173	15043
873.303	15032
873.432	15077
873.561	15108
873.69	15043
873.819	14967
873.948	15097
874.077	15074
874.206	14925
874.335	15047
874.464	15131
874.593	15325
874.722	15203
874.851	15370
874.979	15481
875.108	15389
875.237	15249
875.365	15268
875.494	15351
875.623	15431
875.751	15241
875.88	15363
876.008	15542
876.136	15618
876.265	15774
876.393	15812
876.521	15808
876.65	15816
876.778	15838
876.906	15584
877.034	15538
877.162	15656
877.29	15656
877.418	15690
877.546	15732
877.674	15682
877.802	15751
877.93	15732
878.058	15644
878.185	15568
878.313	15747
878.441	15789
878.568	15561
878.696	15694
878.824	15759
878.951	15804
879.079	15895
879.206	15991
879.333	15922
879.461	15781
879.588	15911
879.715	15899
879.842	15998
879.97	15816
880.097	15622
880.224	15584
880.351	15656
880.478	15648
880.605	15477
880.732	15641
880.859	15812
880.986	15568
881.112	15587
881.239	15584
881.366	15401
881.493	15355
881.619	15192
881.746	15287
881.872	15264
881.999	15245
882.125	15116
882.252	15294
882.378	15321
882.505	15401
882.631	15275
882.757	15009
882.883	15074
883.01	15097
883.136	15077
883.262	14941
883.388	14895
883.514	15036
883.64	15127
883.766	15093
883.892	14876
884.018	14895
884.143	15131
884.269	15169
884.395	14864
884.52	14785
884.646	14792
884.772	14625
884.897	14727
885.023	14781
885.148	14838
885.274	15005
885.399	14914
885.524	14826
885.65	14826
885.775	14724
885.9	14674
886.025	14933
886.15	14842
886.275	14800
886.4	14765
886.525	14765
886.65	14674
886.775	14750
886.9	14864
887.025	15055
887.149	14693
887.274	14492
887.399	14552
887.523	14461
887.648	14499
887.773	14374
887.897	14667
888.021	14720
888.146	14541
888.27	14682
888.395	14701
888.519	14758
888.643	14705
888.767	14693
888.891	14514
889.015	14465
889.139	14412
889.263	14423
889.387	14552
889.511	14720
889.635	14636
889.759	14465
889.883	14446
890.006	14438
890.13	14556
890.254	14404
890.377	14473
890.501	14275
890.624	14301
890.748	14282
890.871	14229
890.995	14123
891.118	14153
891.241	14187
891.364	14206
891.488	14286
891.611	14229
891.734	14191
891.857	14290
891.98	14233
892.103	14123
892.226	14214
892.349	14126
892.471	14084
892.594	14073
892.717	14161
892.839	14096
892.962	14218
893.085	14294
893.207	14187
893.33	14092
893.452	14084
893.575	14256
893.697	14138
893.819	14339
893.941	14298
894.064	14271
894.186	14157
894.308	14073
894.43	14263
894.552	14362
894.674	14244
894.796	14149
894.918	14183
895.04	14256
895.161	14183
895.283	14195
895.405	14229
895.526	14267
895.648	14229
895.769	14366
895.891	14347
896.012	14431
896.134	14370
896.255	14259
896.376	14271
896.498	14282
896.619	14431
896.74	14393
896.861	14396
896.982	14598
897.103	14754
897.224	14598
897.345	14530
897.466	14480
897.587	14590
897.708	14708
897.828	14735
897.949	14613
898.07	14454
898.19	14526
898.311	14750
898.431	14663
898.552	14762
898.672	14800
898.792	14663
898.913	14648
899.033	14632
899.153	14579
899.273	14408
899.393	14484
899.513	14549
899.633	14522
899.753	14644
899.873	14492
899.993	14621
900.113	14442
900.232	14594
900.352	14560
900.472	14393
900.591	14317
900.711	14469
900.83	14412
900.95	14454
901.069	14366
901.189	14301
901.308	13997
901.427	14016
901.546	14043
901.665	14130
901.784	14077
901.904	13963
902.023	13898
902.141	13693
902.26	13571
902.379	13780
902.498	13559
902.617	13594
902.735	13647
902.854	13605
902.973	13575
903.091	13304
903.21	13327
903.328	13331
903.446	13354
903.565	13221
903.683	13168
903.801	13065
903.919	13225
904.038	13164
904.156	13023
904.274	13099
904.392	12901
904.51	13072
904.627	12962
904.745	13050
904.863	13099
904.981	12913
905.098	12703
905.216	12711
905.334	12707
905.451	12684
905.569	12635
905.686	12760
905.803	12749
905.921	12502
906.038	12654
906.155	12563
906.272	12475
906.389	12410
906.506	12304
906.623	12304
906.74	12300
906.857	12235
906.974	12239
907.091	12308
907.208	12403
907.324	12327
907.441	12148
907.557	12057
907.674	11961
907.79	12110
907.907	12011
908.023	12106
908.139	12095
908.256	12041
908.372	11977
908.488	11961
908.604	11832
908.72	11699
908.836	11809
908.952	11794
909.068	11809
909.184	11843
909.3	11866
909.415	11748
909.531	11874
909.647	11653
909.762	11551
909.878	11482
909.993	11646
910.108	11509
910.224	11512
910.339	11615
910.454	11471
910.57	11410
910.685	11345
910.8	11619
910.915	11535
911.03	11520
911.145	11288
911.259	11235
911.374	11242
911.489	11170
911.604	11155
911.718	11170
911.833	11071
911.947	10946
912.062	10854
912.176	10965
912.291	10953
912.405	11056
912.519	11265
912.633	11296
912.748	11121
912.862	11060
912.976	10953
913.09	10656
913.204	10877
913.318	10946
913.431	10965
913.545	10980
913.659	11041
913.772	10843
913.886	10790
914	10774
914.113	10869
914.226	10862
914.34	10900
914.453	10626
914.566	10953
914.68	10759
914.793	10694
914.906	10500
915.019	10603
915.132	10508
915.245	10535
915.358	10584
915.47	10626
915.583	10554
915.696	10535
915.809	10706
915.921	10710
916.034	10592
916.146	10443
916.259	10561
916.371	10599
916.483	10527
916.595	10470
916.708	10504
916.82	10447
916.932	10398
917.044	10474
917.156	10375
917.268	10299
917.38	10390
917.491	10341
917.603	10379
917.715	10432
917.826	10474
917.938	10341
918.049	10207
918.161	10333
918.272	10459
918.384	10478
918.495	10341
918.606	10272
918.717	10131
918.828	10280
918.939	10242
919.05	10158
919.161	10185
919.272	10071
919.383	10131
919.494	10303
919.604	10497
919.715	10284
919.826	10177
919.936	10215
920.047	10268
920.157	10192
920.267	10424
920.378	10280
920.488	10310
920.598	10402
920.708	10588
920.818	10409
920.928	10402
921.038	10672
921.148	10615
921.258	10325
921.368	10192
921.477	10090
921.587	10063
921.697	9964
921.806	10135
921.916	10013
922.025	9880
922.134	9797
922.244	9800
922.353	9865
922.462	9713
922.571	9625
922.68	9504
922.789	9519
922.898	9473
923.007	9428
923.116	9603
923.224	9523
923.333	9496
923.442	9435
923.55	9382
923.659	9408
923.767	9443
923.876	9401
923.984	9435
924.092	9310
924.201	9325
924.309	9412
924.417	9382
924.525	9272
924.633	9336
924.741	10367
924.849	9157
924.956	9283
925.064	9241
925.172	8986
925.279	9074
925.387	9157
925.494	9123
925.602	9351
925.709	9260
925.816	9066
925.924	9169
926.031	9268
926.138	9135
926.245	9237
926.352	9081
926.459	9081
926.566	9154
926.673	9058
926.779	8956
926.886	9036
926.993	8952
927.099	8906
927.206	8868
927.312	8834
927.419	8902
927.525	8929
927.631	8937
927.737	8830
927.843	8712
927.95	8644
928.056	8731
928.162	8838
928.267	8861
928.373	9302
928.479	8842
928.585	8629
928.69	8754
928.796	8766
928.901	8621
929.007	8575
929.112	8636
929.218	8663
929.323	8583
929.428	8610
929.533	8720
929.638	8549
929.743	8533
929.848	8598
929.953	8545
930.058	8507
930.163	8339
930.267	8404
930.372	8473
930.477	8370
930.581	8594
930.685	8385
930.79	8256
930.894	8282
930.998	8301
931.103	8465
931.207	8088
931.311	8046
931.415	7997
931.519	7856
931.623	7868
