Data from test_V78500241_2174.txt Node
Date: Fri Mar 25 14:48:51 CST 2022
User: usil
Spectrometer: V785-0024
Trigger mode: 0
Integration Time (sec): 4.000000E-1
Scans to average: 1
Nonlinearity correction enabled: false
Boxcar width: 0
Storing dark spectrum: false
XAxis mode: Wavelengths
Number of Pixels in Spectrum: 1024
>>>>>Begin Spectral Data<<<<<
801.071	22090
801.214	22051
801.356	21831
801.499	21739
801.641	21599
801.783	21488
801.926	21545
802.068	21420
802.211	21405
802.353	21268
802.496	21165
802.638	20956
802.78	21108
802.923	20830
803.065	20823
803.208	20872
803.35	20796
803.492	20891
803.635	21093
803.777	20994
803.919	20941
804.061	21146
804.204	20902
804.346	20724
804.488	20659
804.63	20796
804.773	20746
804.915	20765
805.057	20807
805.199	20655
805.341	20887
805.483	20948
805.626	20758
805.768	20819
805.91	20804
806.052	20819
806.194	20716
806.336	20868
806.478	20648
806.62	20727
806.762	20971
806.904	20845
807.046	21275
807.188	21154
807.33	21058
807.472	21127
807.614	21013
807.756	21020
807.898	20819
808.04	20807
808.182	20781
808.324	20994
808.465	20960
808.607	21058
808.749	21157
808.891	21279
809.033	21344
809.174	21222
809.316	21226
809.458	21157
809.6	21070
809.741	21291
809.883	21222
810.025	21500
810.166	21317
810.308	21378
810.45	21173
810.591	21382
810.733	21081
810.875	20982
811.016	20872
811.158	20830
811.299	20899
811.441	21146
811.582	21017
811.724	20853
811.865	20887
812.007	20910
812.148	20952
812.29	21051
812.431	21195
812.573	21268
812.714	21340
812.855	21458
812.997	21519
813.138	21583
813.279	21587
813.421	21481
813.562	21306
813.703	21275
813.845	21039
813.986	20769
814.127	20590
814.268	20674
814.41	20583
814.551	20457
814.692	20617
814.833	20488
814.974	20336
815.115	20427
815.256	20415
815.397	20358
815.539	20347
815.68	20138
815.821	20157
815.962	20233
816.103	20221
816.244	20111
816.385	19997
816.526	19936
816.666	19811
816.807	19655
816.948	19776
817.089	19868
817.23	19753
817.371	19628
817.512	19670
817.653	19601
817.793	19643
817.934	19635
818.075	19704
818.216	19605
818.356	19582
818.497	19544
818.638	19289
818.778	19335
818.919	19320
819.06	19297
819.2	19419
819.341	19559
819.481	19441
819.622	19647
819.762	19803
819.903	19784
820.043	19609
820.184	19662
820.324	19632
820.465	19712
820.605	19708
820.746	19575
820.886	19407
821.026	19502
821.167	19434
821.307	19662
821.447	19601
821.588	19468
821.728	19354
821.868	19160
822.008	18958
822.149	19008
822.289	18916
822.429	18631
822.569	18684
822.709	18692
822.849	18426
822.99	18391
823.13	18422
823.27	18422
823.41	18235
823.55	18327
823.69	18380
823.83	18224
823.97	18148
824.11	18133
824.25	17969
824.389	18129
824.529	18133
824.669	18034
824.809	18098
824.949	18106
825.089	18213
825.228	18034
825.368	17870
825.508	17859
825.648	17942
825.787	17908
825.927	17912
826.067	17798
826.206	17722
826.346	17897
826.485	17863
826.625	17916
826.765	17916
826.904	17920
827.044	17539
827.183	17592
827.323	17558
827.462	17680
827.601	17493
827.741	17509
827.88	17573
828.02	17463
828.159	17577
828.298	17680
828.437	17630
828.577	17608
828.716	17729
828.855	17444
828.994	17322
829.134	17356
829.273	17414
829.412	17277
829.551	17204
829.69	17330
829.829	17288
829.968	17414
830.107	17497
830.246	17372
830.385	17368
830.524	17299
830.663	17064
830.802	17037
830.941	16900
831.08	16809
831.219	16949
831.357	17064
831.496	17204
831.635	16911
831.774	16927
831.913	16797
832.051	16721
832.19	16664
832.329	16790
832.467	16588
832.606	16615
832.744	16634
832.883	16603
833.022	16622
833.16	16588
833.299	16641
833.437	16664
833.576	16679
833.714	16706
833.852	16653
833.991	16767
834.129	16698
834.267	16649
834.406	16687
834.544	16683
834.682	16577
834.821	16683
834.959	16835
835.097	16611
835.235	16694
835.373	16736
835.511	16675
835.65	16679
835.788	16436
835.926	16375
836.064	16318
836.202	16527
836.34	16523
836.478	16592
836.615	16508
836.753	16516
836.891	16691
837.029	16725
837.167	16599
837.305	16550
837.443	16489
837.58	16424
837.718	16550
837.856	16531
837.993	16474
838.131	16417
838.269	16306
838.406	16363
838.544	16280
838.681	16101
838.819	16219
838.956	15991
839.094	16006
839.231	16029
839.369	16055
839.506	16386
839.643	16272
839.781	15964
839.918	15907
840.055	16010
840.193	16040
840.33	15979
840.467	16063
840.604	15994
840.742	16207
840.879	15774
841.016	15857
841.153	15770
841.29	16078
841.427	16105
841.564	15945
841.701	15888
841.838	15865
841.975	15937
842.112	15838
842.249	15785
842.385	15835
842.522	15956
842.659	15690
842.796	15713
842.933	15789
843.069	15705
843.206	15709
843.343	15812
843.479	15842
843.616	15785
843.752	15629
843.889	15595
844.025	15652
844.162	15572
844.298	15622
844.435	15629
844.571	15561
844.708	15523
844.844	15663
844.98	15667
845.117	15652
845.253	15526
845.389	15428
845.525	15485
845.661	15526
845.798	15336
845.934	15298
846.07	15321
846.206	15325
846.342	15469
846.478	15412
846.614	15154
846.75	15032
846.886	15089
847.022	15203
847.158	15157
847.294	15032
847.429	15161
847.565	15119
847.701	15329
847.837	14868
847.972	14788
848.108	14963
848.244	14948
848.379	14804
848.515	14735
848.65	14648
848.786	14655
848.921	14750
849.057	14796
849.192	14815
849.328	14819
849.463	14834
849.598	14648
849.734	14587
849.869	14579
850.004	14457
850.14	14412
850.275	14610
850.41	14423
850.545	14370
850.68	14446
850.815	14412
850.95	14495
851.085	14629
851.22	14537
851.355	14629
851.49	14507
851.625	14526
851.76	14419
851.895	14374
852.03	14355
852.165	14461
852.299	14575
852.434	14602
852.569	14492
852.703	14568
852.838	14442
852.973	14663
853.107	14613
853.242	14499
853.376	14377
853.511	14237
853.645	14244
853.78	14457
853.914	14328
854.048	14336
854.183	14324
854.317	14343
854.451	14511
854.585	14328
854.72	14263
854.854	14404
854.988	14218
855.122	14389
855.256	14168
855.39	14328
855.524	14476
855.658	14511
855.792	14351
855.926	14370
856.06	14400
856.194	14396
856.327	14358
856.461	14218
856.595	14237
856.729	14328
856.862	14522
856.996	14431
857.13	14476
857.263	14377
857.397	14556
857.53	14419
857.664	14438
857.797	14366
857.931	14450
858.064	14278
858.197	14381
858.331	14286
858.464	14317
858.597	14206
858.731	14343
858.864	14317
858.997	14286
859.13	14377
859.263	14385
859.396	14434
859.529	14374
859.662	14202
859.795	14324
859.928	14301
860.061	14431
860.194	14465
860.327	14480
860.46	14259
860.592	14533
860.725	14461
860.858	14480
860.99	14298
861.123	14305
861.256	14317
861.388	14370
861.521	14998
861.653	14290
861.786	14149
861.918	14138
862.05	14229
862.183	14263
862.315	14366
862.447	14415
862.58	14244
862.712	14145
862.844	14062
862.976	14195
863.108	14142
863.24	14473
863.372	14039
863.504	14031
863.636	14130
863.768	14195
863.9	14111
864.032	14073
864.164	14084
864.296	14199
864.428	14077
864.559	14237
864.691	14214
864.823	14237
864.954	14157
865.086	14172
865.217	14187
865.349	14100
865.48	14069
865.612	14115
865.743	14221
865.875	14119
866.006	14084
866.137	14062
866.269	14123
866.4	14138
866.531	14092
866.662	14111
866.793	14073
866.924	14054
867.055	14142
867.186	14123
867.317	13967
867.448	13982
867.579	14069
867.71	14050
867.841	13993
867.972	14107
868.103	14043
868.233	14206
868.364	14100
868.495	14092
868.625	14275
868.756	14438
868.886	14176
869.017	14256
869.147	14404
869.278	14476
869.408	14385
869.539	14275
869.669	14355
869.799	14434
869.929	14507
870.06	14446
870.19	14594
870.32	14686
870.45	14720
870.58	14769
870.71	14792
870.84	14830
870.97	14705
871.1	14785
871.23	14948
871.36	14921
871.489	14796
871.619	14971
871.749	15024
871.879	15032
872.008	15097
872.138	14925
872.267	14929
872.397	14838
872.526	14769
872.656	14731
872.785	14769
872.915	14910
873.044	15043
873.173	14952
873.303	15013
873.432	15020
873.561	15089
873.69	15020
873.819	14971
873.948	15085
874.077	14910
874.206	14941
874.335	15001
874.464	15070
874.593	15241
874.722	15256
874.851	15397
874.979	15389
875.108	15401
875.237	15306
875.365	15188
875.494	15230
875.623	15412
875.751	15359
875.88	15393
876.008	15469
876.136	15515
876.265	15785
876.393	15888
876.521	15835
876.65	15819
876.778	15766
876.906	15656
877.034	15603
877.162	15679
877.29	15694
877.418	15793
877.546	15770
877.674	15713
877.802	15679
877.93	15644
878.058	15644
878.185	15606
878.313	15747
878.441	15755
878.568	15618
878.696	15519
878.824	15778
878.951	15831
879.079	15857
879.206	16029
879.333	15838
879.461	15736
879.588	15915
879.715	15937
879.842	16097
879.97	15774
880.097	15690
880.224	15557
880.351	15587
880.478	15534
880.605	15572
880.732	15629
880.859	15876
880.986	15614
881.112	15599
881.239	15545
881.366	15351
881.493	15279
881.619	15222
881.746	15249
881.872	15161
881.999	15245
882.125	15173
882.252	15279
882.378	15340
882.505	15450
882.631	15119
882.757	15028
882.883	15100
883.01	15036
883.136	15070
883.262	14880
883.388	14838
883.514	15024
883.64	15062
883.766	14971
883.892	14838
884.018	14990
884.143	14941
884.269	15009
884.395	14834
884.52	14720
884.646	14712
884.772	14640
884.897	14701
885.023	14678
885.148	14895
885.274	14853
885.399	14899
885.524	14796
885.65	14796
885.775	14826
885.9	14731
886.025	14830
886.15	14765
886.275	14701
886.4	14724
886.525	14613
886.65	14636
886.775	14625
886.9	15001
887.025	14910
887.149	14754
887.274	14556
887.399	14617
887.523	14514
887.648	14514
887.773	14476
887.897	14617
888.021	14594
888.146	14507
888.27	14655
888.395	14686
888.519	14689
888.643	14701
888.767	14663
888.891	14469
889.015	14343
889.139	14408
889.263	14396
889.387	14587
889.511	14663
889.635	14522
889.759	14434
889.883	14385
890.006	14476
890.13	14579
890.254	14427
890.377	14389
890.501	14210
890.624	14256
890.748	14317
890.871	14229
890.995	14119
891.118	14050
891.241	14206
891.364	14069
891.488	14240
891.611	14103
891.734	14214
891.857	14206
891.98	14134
892.103	14046
892.226	14202
892.349	14142
892.471	13978
892.594	14115
892.717	14183
892.839	14107
892.962	14107
893.085	14202
893.207	14107
893.33	13978
893.452	14100
893.575	14202
893.697	14168
893.819	14290
893.941	14278
894.064	14259
894.186	14039
894.308	14157
894.43	14206
894.552	14374
894.674	14301
894.796	14069
894.918	14157
895.04	14130
895.161	14153
895.283	14290
895.405	14199
895.526	14130
895.648	14301
895.769	14305
895.891	14305
896.012	14351
896.134	14400
896.255	14221
896.376	14294
896.498	14244
896.619	14347
896.74	14343
896.861	14347
896.982	14545
897.103	14781
897.224	14648
897.345	14625
897.466	14476
897.587	14518
897.708	14735
897.828	14697
897.949	14556
898.07	14518
898.19	14564
898.311	14686
898.431	14492
898.552	14632
898.672	14785
898.792	14705
898.913	14693
899.033	14606
899.153	14495
899.273	14381
899.393	14552
899.513	14503
899.633	14514
899.753	14541
899.873	14423
899.993	14499
900.113	14427
900.232	14476
900.352	14400
900.472	14370
900.591	14370
900.711	14362
900.83	14343
900.95	14404
901.069	14457
901.189	14221
901.308	14107
901.427	13928
901.546	14084
901.665	14008
901.784	14035
901.904	13955
902.023	13890
902.141	13712
902.26	13636
902.379	13704
902.498	13620
902.617	13613
902.735	13662
902.854	13529
902.973	13495
903.091	13422
903.21	13396
903.328	13255
903.446	13263
903.565	13164
903.683	13316
903.801	13072
903.919	13160
904.038	13137
904.156	13027
904.274	13069
904.392	12932
904.51	13015
904.627	13012
904.745	13133
904.863	13107
904.981	12825
905.098	12547
905.216	12654
905.334	12692
905.451	12722
905.569	12715
905.686	12806
905.803	12650
905.921	12464
906.038	12570
906.155	12426
906.272	12403
906.389	12388
906.506	12338
906.623	12353
906.74	12197
906.857	12194
906.974	12140
907.091	12239
907.208	12376
907.324	12270
907.441	12152
907.557	12102
907.674	12034
907.79	11965
907.907	11954
908.023	12053
908.139	12114
908.256	11958
908.372	11889
908.488	11958
908.604	11767
908.72	11760
908.836	11798
908.952	11775
909.068	11783
909.184	11908
909.3	11733
909.415	11904
909.531	11809
909.647	11581
909.762	11558
909.878	11509
909.993	11638
910.108	11547
910.224	11516
910.339	11566
910.454	11455
910.57	11417
910.685	11326
910.8	11566
910.915	11512
911.03	11421
911.145	11216
911.259	11242
911.374	11223
911.489	11265
911.604	11136
911.718	11067
911.833	11048
911.947	10946
912.062	10866
912.176	11052
912.291	11006
912.405	10961
912.519	11235
912.633	11204
912.748	11102
912.862	11181
912.976	10801
913.09	10820
913.204	10847
913.318	10938
913.431	10984
913.545	10980
913.659	11014
913.772	10908
913.886	10740
914	10820
914.113	10953
914.226	10934
914.34	10824
914.453	10729
914.566	10850
914.68	10660
914.793	10729
914.906	10645
915.019	10558
915.132	10466
915.245	10474
915.358	10550
915.47	10573
915.583	10561
915.696	10519
915.809	10649
915.921	10645
916.034	10531
916.146	10451
916.259	10512
916.371	10474
916.483	10554
916.595	10398
916.708	10474
916.82	10459
916.932	10440
917.044	10447
917.156	10447
917.268	10314
917.38	10363
917.491	10287
917.603	10356
917.715	10402
917.826	10405
917.938	10318
918.049	10246
918.161	10295
918.272	10459
918.384	10489
918.495	10424
918.606	10188
918.717	10162
918.828	10162
918.939	10200
919.05	10090
919.161	10158
919.272	10017
919.383	9998
919.494	10352
919.604	10481
919.715	10207
919.826	10093
919.936	10261
920.047	10299
920.157	10238
920.267	10428
920.378	10261
920.488	10287
920.598	10436
920.708	10611
920.818	10508
920.928	10428
921.038	10615
921.148	10485
921.258	10219
921.368	10219
921.477	10185
921.587	10090
921.697	10040
921.806	10162
921.916	10010
922.025	9804
922.134	9766
922.244	9762
922.353	9838
922.462	9648
922.571	9625
922.68	9519
922.789	9477
922.898	9477
923.007	9408
923.116	9553
923.224	9454
923.333	9492
923.442	9351
923.55	9302
923.659	9389
923.767	9393
923.876	9443
923.984	9389
924.092	9325
924.201	9412
924.309	9401
924.417	9287
924.525	9291
924.633	9329
924.741	10021
924.849	9108
924.956	9294
925.064	9165
925.172	9077
925.279	9043
925.387	9214
925.494	9173
925.602	9237
925.709	9272
925.816	9100
925.924	9207
926.031	9188
926.138	9123
926.245	9192
926.352	9085
926.459	9230
926.566	9218
926.673	9131
926.779	9024
926.886	8979
926.993	8948
927.099	8883
927.206	8739
927.312	8777
927.419	8918
927.525	8906
927.631	8941
927.737	8807
927.843	8716
927.95	8571
928.056	8773
928.162	8712
928.267	8788
928.373	9401
928.479	8819
928.585	8587
928.69	8693
928.796	8804
928.901	8701
929.007	8545
929.112	8655
929.218	8655
929.323	8549
929.428	8583
929.533	8773
929.638	8518
929.743	8621
929.848	8594
929.953	8530
930.058	8450
930.163	8366
930.267	8244
930.372	8530
930.477	8400
930.581	8617
930.685	8446
930.79	8343
930.894	8366
930.998	8294
931.103	8492
931.207	8092
931.311	8054
931.415	7951
931.519	7719
931.623	7792
