Data from test_V78500241_2619.txt Node
Date: Fri Mar 25 14:51:57 CST 2022
User: usil
Spectrometer: V785-0024
Trigger mode: 0
Integration Time (sec): 4.000000E-1
Scans to average: 1
Nonlinearity correction enabled: false
Boxcar width: 0
Storing dark spectrum: false
XAxis mode: Wavelengths
Number of Pixels in Spectrum: 1024
>>>>>Begin Spectral Data<<<<<
801.071	21991
801.214	21922
801.356	21595
801.499	21576
801.641	21340
801.783	21222
801.926	21355
802.068	21287
802.211	21081
802.353	21104
802.496	20979
802.638	20933
802.78	20933
802.923	20644
803.065	20712
803.208	20716
803.35	20670
803.492	20804
803.635	20796
803.777	20724
803.919	20708
804.061	20960
804.204	20823
804.346	20571
804.488	20632
804.63	20670
804.773	20602
804.915	20583
805.057	20693
805.199	20549
805.341	20689
805.483	20659
805.626	20716
805.768	20587
805.91	20522
806.052	20674
806.194	20533
806.336	20720
806.478	20492
806.62	20609
806.762	20609
806.904	20765
807.046	20933
807.188	20883
807.33	20880
807.472	20982
807.614	20872
807.756	20857
807.898	20648
808.04	20655
808.182	20724
808.324	20792
808.465	20625
808.607	20861
808.749	20929
808.891	21138
809.033	21039
809.174	21036
809.316	20830
809.458	20925
809.6	20998
809.741	21005
809.883	20956
810.025	21150
810.166	21036
810.308	21093
810.45	21043
810.591	20986
810.733	20864
810.875	20842
811.016	20678
811.158	20621
811.299	20876
811.441	20834
811.582	20857
811.724	20731
811.865	20735
812.007	20667
812.148	20792
812.29	20606
812.431	20868
812.573	20998
812.714	21169
812.855	21184
812.997	21329
813.138	21386
813.279	21344
813.421	21287
813.562	21119
813.703	20933
813.845	20906
813.986	20602
814.127	20442
814.268	20374
814.41	20256
814.551	20256
814.692	20305
814.833	20172
814.974	20191
815.115	20233
815.256	20107
815.397	20180
815.539	20100
815.68	19951
815.821	19989
815.962	19963
816.103	19974
816.244	19906
816.385	19731
816.526	19677
816.666	19483
816.807	19548
816.948	19491
817.089	19544
817.23	19514
817.371	19396
817.512	19400
817.653	19400
817.793	19312
817.934	19407
818.075	19407
818.216	19434
818.356	19521
818.497	19270
818.638	19084
818.778	19015
818.919	19198
819.06	19221
819.2	19225
819.341	19278
819.481	19213
819.622	19449
819.762	19464
819.903	19658
820.043	19453
820.184	19384
820.324	19369
820.465	19422
820.605	19343
820.746	19263
820.886	19255
821.026	19441
821.167	19266
821.307	19426
821.447	19244
821.588	19232
821.728	19118
821.868	18905
822.008	18833
822.149	18840
822.289	18738
822.429	18464
822.569	18540
822.709	18536
822.849	18247
822.99	18243
823.13	18213
823.27	18251
823.41	18110
823.55	18015
823.69	18072
823.83	17988
823.97	17878
824.11	17901
824.25	17832
824.389	17859
824.529	17901
824.669	17843
824.809	18019
824.949	17961
825.089	17897
825.228	18045
825.368	17745
825.508	17638
825.648	17665
825.787	17722
825.927	17638
826.067	17653
826.206	17573
826.346	17703
826.485	17653
826.625	17672
826.765	17771
826.904	17665
827.044	17455
827.183	17356
827.323	17315
827.462	17315
827.601	17467
827.741	17410
827.88	17398
828.02	17216
828.159	17311
828.298	17448
828.437	17425
828.577	17402
828.716	17395
828.855	17376
828.994	17200
829.134	17185
829.273	17174
829.412	17033
829.551	17090
829.69	17037
829.829	17124
829.968	17185
830.107	17170
830.246	17155
830.385	17086
830.524	16999
830.663	16923
830.802	16858
830.941	16748
831.08	16615
831.219	16816
831.357	16843
831.496	16911
831.635	16812
831.774	16611
831.913	16527
832.051	16519
832.19	16497
832.329	16675
832.467	16451
832.606	16329
832.744	16424
832.883	16348
833.022	16363
833.16	16409
833.299	16493
833.437	16516
833.576	16573
833.714	16466
833.852	16542
833.991	16527
834.129	16550
834.267	16519
834.406	16504
834.544	16470
834.682	16561
834.821	16481
834.959	16637
835.097	16436
835.235	16546
835.373	16500
835.511	16497
835.65	16497
835.788	16459
835.926	16265
836.064	16192
836.202	16226
836.34	16436
836.478	16531
836.615	16310
836.753	16390
836.891	16497
837.029	16462
837.167	16451
837.305	16352
837.443	16344
837.58	16238
837.718	16329
837.856	16284
837.993	16363
838.131	16284
838.269	16261
838.406	16265
838.544	16082
838.681	16139
838.819	15979
838.956	15827
839.094	15762
839.231	15850
839.369	16051
839.506	16192
839.643	16090
839.781	15876
839.918	15724
840.055	15797
840.193	15907
840.33	15842
840.467	15739
840.604	15842
840.742	16078
840.879	15675
841.016	15728
841.153	15751
841.29	15926
841.427	15797
841.564	15876
841.701	15869
841.838	15728
841.975	15762
842.112	15778
842.249	15679
842.385	15526
842.522	15713
842.659	15614
842.796	15595
842.933	15523
843.069	15584
843.206	15545
843.343	15720
843.479	15675
843.616	15667
843.752	15420
843.889	15481
844.025	15515
844.162	15481
844.298	15587
844.435	15367
844.571	15348
844.708	15481
844.844	15523
844.98	15481
845.117	15557
845.253	15416
845.389	15374
845.525	15359
845.661	15313
845.798	15294
845.934	15256
846.07	15112
846.206	15222
846.342	15275
846.478	15135
846.614	14990
846.75	15039
846.886	14826
847.022	15036
847.158	15017
847.294	15047
847.429	15013
847.565	14895
847.701	15272
847.837	14720
847.972	14583
848.108	14697
848.244	14876
848.379	14621
848.515	14594
848.65	14465
848.786	14533
848.921	14594
849.057	14617
849.192	14746
849.328	14545
849.463	14560
849.598	14552
849.734	14450
849.869	14518
850.004	14351
850.14	14389
850.275	14396
850.41	14191
850.545	14286
850.68	14332
850.815	14324
850.95	14351
851.085	14545
851.22	14438
851.355	14396
851.49	14309
851.625	14320
851.76	14256
851.895	14180
852.03	14286
852.165	14404
852.299	14370
852.434	14488
852.569	14389
852.703	14358
852.838	14412
852.973	14495
853.107	14476
853.242	14400
853.376	14263
853.511	14149
853.645	14107
853.78	14290
853.914	14187
854.048	14195
854.183	14210
854.317	14214
854.451	14419
854.585	14233
854.72	14191
854.854	14252
854.988	14164
855.122	14183
855.256	14001
855.39	14176
855.524	14267
855.658	14183
855.792	14263
855.926	14328
856.06	14305
856.194	14267
856.327	14286
856.461	14157
856.595	14142
856.729	14199
856.862	14347
856.996	14229
857.13	14263
857.263	14332
857.397	14404
857.53	14138
857.664	14202
857.797	14355
857.931	14301
858.064	14278
858.197	14305
858.331	14278
858.464	14115
858.597	14027
858.731	14202
858.864	14054
858.997	14202
859.13	14263
859.263	14214
859.396	14362
859.529	14252
859.662	14180
859.795	14134
859.928	14237
860.061	14461
860.194	14263
860.327	14229
860.46	14199
860.592	14309
860.725	14309
860.858	14385
860.99	14195
861.123	14157
861.256	14180
861.388	14145
861.521	14765
861.653	14016
861.786	14039
861.918	14138
862.05	14043
862.183	14183
862.315	14145
862.447	14244
862.58	14180
862.712	13906
862.844	13883
862.976	13993
863.108	14054
863.24	14473
863.372	14012
863.504	13963
863.636	13986
863.768	14031
863.9	14107
864.032	13967
864.164	13997
864.296	14069
864.428	14077
864.559	14103
864.691	14081
864.823	14084
864.954	13978
865.086	13989
865.217	14005
865.349	13982
865.48	13997
865.612	14027
865.743	14130
865.875	13970
866.006	13959
866.137	14012
866.269	14088
866.4	13936
866.531	13989
866.662	13909
866.793	13955
866.924	13928
867.055	14024
867.186	13921
867.317	13921
867.448	13967
867.579	13936
867.71	13936
867.841	13879
867.972	14027
868.103	13963
868.233	14065
868.364	14065
868.495	14119
868.625	14248
868.756	14176
868.886	14183
869.017	14248
869.147	14298
869.278	14290
869.408	14351
869.539	14320
869.669	14282
869.799	14218
869.929	14366
870.06	14298
870.19	14587
870.32	14533
870.45	14461
870.58	14682
870.71	14663
870.84	14823
870.97	14590
871.1	14629
871.23	14769
871.36	14838
871.489	14781
871.619	14804
871.749	14864
871.879	14876
872.008	14998
872.138	14944
872.267	14895
872.397	14697
872.526	14667
872.656	14610
872.785	14724
872.915	14872
873.044	14967
873.173	14895
873.303	14918
873.432	14956
873.561	14979
873.69	14910
873.819	14887
873.948	14826
874.077	14910
874.206	14823
874.335	14902
874.464	15020
874.593	15169
874.722	15058
874.851	15233
874.979	15256
875.108	15226
875.237	15119
875.365	15135
875.494	15195
875.623	15260
875.751	15127
875.88	15173
876.008	15424
876.136	15401
876.265	15603
876.393	15774
876.521	15656
876.65	15698
876.778	15717
876.906	15576
877.034	15610
877.162	15545
877.29	15450
877.418	15644
877.546	15644
877.674	15671
877.802	15591
877.93	15561
878.058	15469
878.185	15458
878.313	15614
878.441	15648
878.568	15496
878.696	15549
878.824	15557
878.951	15671
879.079	15804
879.206	15949
879.333	15785
879.461	15622
879.588	15698
879.715	15854
879.842	15941
879.97	15679
880.097	15458
880.224	15473
880.351	15481
880.478	15606
880.605	15378
880.732	15454
880.859	15694
880.986	15504
881.112	15496
881.239	15313
881.366	15222
881.493	15180
881.619	15100
881.746	15089
881.872	15188
881.999	15077
882.125	15203
882.252	15085
882.378	15108
882.505	15272
882.631	15062
882.757	14921
882.883	14956
883.01	14876
883.136	14792
883.262	14743
883.388	14659
883.514	14960
883.64	14963
883.766	14902
883.892	14739
884.018	14796
884.143	14921
884.269	15024
884.395	14701
884.52	14602
884.646	14629
884.772	14590
884.897	14511
885.023	14594
885.148	14743
885.274	14826
885.399	14811
885.524	14648
885.65	14689
885.775	14746
885.9	14663
886.025	14823
886.15	14724
886.275	14644
886.4	14564
886.525	14651
886.65	14594
886.775	14492
886.9	14705
887.025	14921
887.149	14667
887.274	14492
887.399	14503
887.523	14434
887.648	14370
887.773	14374
887.897	14541
888.021	14507
888.146	14362
888.27	14640
888.395	14617
888.519	14575
888.643	14568
888.767	14530
888.891	14412
889.015	14282
889.139	14374
889.263	14294
889.387	14503
889.511	14602
889.635	14423
889.759	14248
889.883	14339
890.006	14389
890.13	14415
890.254	14347
890.377	14358
890.501	14145
890.624	14126
890.748	14221
890.871	14111
890.995	14046
891.118	13871
891.241	14054
891.364	14084
891.488	14161
891.611	14008
891.734	13993
891.857	14115
891.98	14027
892.103	14138
892.226	14115
892.349	14058
892.471	13909
892.594	14001
892.717	13986
892.839	14031
892.962	14062
893.085	14035
893.207	14008
893.33	13986
893.452	14012
893.575	14126
893.697	14046
893.819	14206
893.941	14183
894.064	14214
894.186	14031
894.308	13906
894.43	14157
894.552	14343
894.674	14119
894.796	14054
894.918	14176
895.04	14126
895.161	14161
895.283	14206
895.405	14103
895.526	14115
895.648	14111
895.769	14088
895.891	14180
896.012	14202
896.134	14180
896.255	14317
896.376	14176
896.498	14161
896.619	14244
896.74	14191
896.861	14317
896.982	14556
897.103	14731
897.224	14328
897.345	14530
897.466	14305
897.587	14552
897.708	14575
897.828	14518
897.949	14412
898.07	14301
898.19	14412
898.311	14549
898.431	14469
898.552	14476
898.672	14640
898.792	14682
898.913	14701
899.033	14495
899.153	14408
899.273	14332
899.393	14446
899.513	14492
899.633	14396
899.753	14488
899.873	14415
899.993	14457
900.113	14339
900.232	14442
900.352	14469
900.472	14320
900.591	14202
900.711	14282
900.83	14355
900.95	14358
901.069	14415
901.189	14218
901.308	13989
901.427	13978
901.546	13997
901.665	13970
901.784	14027
901.904	13811
902.023	13772
902.141	13620
902.26	13529
902.379	13575
902.498	13506
902.617	13468
902.735	13578
902.854	13552
902.973	13445
903.091	13213
903.21	13156
903.328	13202
903.446	13217
903.565	13012
903.683	13103
903.801	12909
903.919	13145
904.038	12996
904.156	12901
904.274	12996
904.392	12966
904.51	12875
904.627	12977
904.745	12981
904.863	12985
904.981	12764
905.098	12544
905.216	12639
905.334	12608
905.451	12639
905.569	12559
905.686	12722
905.803	12578
905.921	12467
906.038	12475
906.155	12422
906.272	12350
906.389	12365
906.506	12220
906.623	12110
906.74	12163
906.857	11996
906.974	12110
907.091	12216
907.208	12376
907.324	12178
907.441	12117
907.557	11916
907.674	11977
907.79	11950
907.907	11920
908.023	11961
908.139	11988
908.256	11843
908.372	11866
908.488	11851
908.604	11767
908.72	11634
908.836	11748
908.952	11733
909.068	11748
909.184	11855
909.3	11688
909.415	11817
909.531	11688
909.647	11478
909.762	11505
909.878	11455
909.993	11554
910.108	11444
910.224	11478
910.339	11535
910.454	11410
910.57	11299
910.685	11269
910.8	11493
910.915	11532
911.03	11368
911.145	11166
911.259	11204
911.374	11197
911.489	11178
911.604	11105
911.718	10915
911.833	10976
911.947	10828
912.062	10782
912.176	10999
912.291	10968
912.405	10942
912.519	11128
912.633	11216
912.748	11060
912.862	10972
912.976	10793
913.09	10714
913.204	10801
913.318	10877
913.431	10938
913.545	10873
913.659	11003
913.772	10801
913.886	10744
914	10630
914.113	10843
914.226	10862
914.34	10752
914.453	10710
914.566	10710
914.68	10645
914.793	10672
914.906	10466
915.019	10443
915.132	10371
915.245	10409
915.358	10470
915.47	10516
915.583	10451
915.696	10443
915.809	10527
915.921	10618
916.034	10462
916.146	10470
916.259	10371
916.371	10451
916.483	10504
916.595	10344
916.708	10394
916.82	10363
916.932	10295
917.044	10348
917.156	10390
917.268	10253
917.38	10333
917.491	10196
917.603	10386
917.715	10314
917.826	10398
917.938	10268
918.049	10181
918.161	10272
918.272	10363
918.384	10432
918.495	10257
918.606	10261
918.717	10093
918.828	10204
918.939	10211
919.05	10025
919.161	10074
919.272	9983
919.383	10017
919.494	10143
919.604	10382
919.715	10204
919.826	10082
919.936	10086
920.047	10291
920.157	10215
920.267	10436
920.378	10188
920.488	10166
920.598	10417
920.708	10455
920.818	10299
920.928	10394
921.038	10500
921.148	10485
921.258	10192
921.368	10078
921.477	10131
921.587	9975
921.697	9876
921.806	10063
921.916	9960
922.025	9774
922.134	9755
922.244	9717
922.353	9808
922.462	9629
922.571	9568
922.68	9477
922.789	9408
922.898	9435
923.007	9393
923.116	9462
923.224	9469
923.333	9420
923.442	9298
923.55	9283
923.659	9283
923.767	9435
923.876	9310
923.984	9386
924.092	9233
924.201	9317
924.309	9268
924.417	9298
924.525	9279
924.633	9230
924.741	10025
924.849	9123
924.956	9226
925.064	9013
925.172	9055
925.279	9119
925.387	9119
925.494	9150
925.602	9203
925.709	9214
925.816	9051
925.924	9146
926.031	9192
926.138	9062
926.245	9077
926.352	9036
926.459	9097
926.566	9211
926.673	9093
926.779	8982
926.886	9051
926.993	8868
927.099	8811
927.206	8815
927.312	8746
927.419	8826
927.525	8819
927.631	8895
927.737	8758
927.843	8678
927.95	8632
928.056	8621
928.162	8640
928.267	8686
928.373	9329
928.479	8819
928.585	8575
928.69	8693
928.796	8819
928.901	8640
929.007	8457
929.112	8667
929.218	8602
929.323	8533
929.428	8530
929.533	8659
929.638	8473
929.743	8507
929.848	8495
929.953	8469
930.058	8389
930.163	8286
930.267	8286
930.372	8480
930.477	8275
930.581	8518
930.685	8351
930.79	8244
930.894	8263
930.998	8233
931.103	8396
931.207	8031
931.311	7997
931.415	7947
931.519	7792
931.623	7734
