Data from test_V78500241_3336.txt Node
Date: Fri Mar 25 14:56:56 CST 2022
User: usil
Spectrometer: V785-0024
Trigger mode: 0
Integration Time (sec): 4.000000E-1
Scans to average: 1
Nonlinearity correction enabled: false
Boxcar width: 0
Storing dark spectrum: false
XAxis mode: Wavelengths
Number of Pixels in Spectrum: 1024
>>>>>Begin Spectral Data<<<<<
801.071	22010
801.214	21823
801.356	21561
801.499	21515
801.641	21405
801.783	21306
801.926	21283
802.068	21294
802.211	21195
802.353	21058
802.496	20880
802.638	20849
802.78	20720
802.923	20609
803.065	20621
803.208	20560
803.35	20743
803.492	20659
803.635	20834
803.777	20594
803.919	20777
804.061	20990
804.204	20667
804.346	20522
804.488	20488
804.63	20526
804.773	20522
804.915	20545
805.057	20712
805.199	20438
805.341	20518
805.483	20629
805.626	20514
805.768	20571
805.91	20492
806.052	20533
806.194	20412
806.336	20689
806.478	20640
806.62	20488
806.762	20571
806.904	20746
807.046	20880
807.188	20979
807.33	20788
807.472	20902
807.614	20887
807.756	20727
807.898	20636
808.04	20549
808.182	20602
808.324	20636
808.465	20697
808.607	20746
808.749	20986
808.891	21013
809.033	20982
809.174	20887
809.316	20857
809.458	20891
809.6	20849
809.741	20910
809.883	20864
810.025	21070
810.166	21043
810.308	21116
810.45	21051
810.591	20906
810.733	20758
810.875	20697
811.016	20609
811.158	20568
811.299	20648
811.441	20781
811.582	20826
811.724	20667
811.865	20526
812.007	20571
812.148	20594
812.29	20606
812.431	20819
812.573	20979
812.714	20994
812.855	21165
812.997	21325
813.138	21386
813.279	21294
813.421	21165
813.562	21074
813.703	20804
813.845	20762
813.986	20518
814.127	20423
814.268	20275
814.41	20233
814.551	20221
814.692	20248
814.833	20180
814.974	20218
815.115	20202
815.256	20119
815.397	20157
815.539	19970
815.68	19845
815.821	19921
815.962	19921
816.103	19989
816.244	19750
816.385	19685
816.526	19639
816.666	19464
816.807	19346
816.948	19453
817.089	19403
817.23	19449
817.371	19365
817.512	19331
817.653	19278
817.793	19236
817.934	19343
818.075	19415
818.216	19274
818.356	19301
818.497	19137
818.638	19031
818.778	18924
818.919	19057
819.06	19038
819.2	19225
819.341	19061
819.481	19164
819.622	19255
819.762	19445
819.903	19487
820.043	19438
820.184	19350
820.324	19331
820.465	19422
820.605	19312
820.746	19278
820.886	19171
821.026	19301
821.167	19209
821.307	19343
821.447	19350
821.588	19084
821.728	18947
821.868	18871
822.008	18840
822.149	18833
822.289	18768
822.429	18448
822.569	18338
822.709	18418
822.849	18209
822.99	18243
823.13	18174
823.27	18251
823.41	18102
823.55	17973
823.69	18083
823.83	17984
823.97	17954
824.11	17813
824.25	17722
824.389	17722
824.529	17855
824.669	17832
824.809	17901
824.949	17942
825.089	17866
825.228	17977
825.368	17760
825.508	17600
825.648	17611
825.787	17646
825.927	17703
826.067	17509
826.206	17592
826.346	17649
826.485	17585
826.625	17547
826.765	17710
826.904	17657
827.044	17383
827.183	17372
827.323	17315
827.462	17345
827.601	17292
827.741	17322
827.88	17299
828.02	17216
828.159	17174
828.298	17311
828.437	17501
828.577	17269
828.716	17383
828.855	17185
828.994	17025
829.134	17121
829.273	17079
829.412	17029
829.551	16976
829.69	17075
829.829	17098
829.968	17185
830.107	17075
830.246	17200
830.385	17018
830.524	16881
830.663	16904
830.802	16809
830.941	16729
831.08	16660
831.219	16698
831.357	16713
831.496	16987
831.635	16634
831.774	16607
831.913	16653
832.051	16497
832.19	16462
832.329	16500
832.467	16333
832.606	16348
832.744	16352
832.883	16413
833.022	16344
833.16	16394
833.299	16421
833.437	16451
833.576	16413
833.714	16421
833.852	16489
833.991	16516
834.129	16573
834.267	16440
834.406	16436
834.544	16538
834.682	16542
834.821	16436
834.959	16558
835.097	16413
835.235	16672
835.373	16390
835.511	16493
835.65	16382
835.788	16402
835.926	16246
836.064	16169
836.202	16249
836.34	16341
836.478	16333
836.615	16356
836.753	16314
836.891	16424
837.029	16443
837.167	16348
837.305	16276
837.443	16265
837.58	16230
837.718	16348
837.856	16238
837.993	16238
838.131	16200
838.269	16246
838.406	16226
838.544	16124
838.681	15911
838.819	15888
838.956	15903
839.094	15842
839.231	15808
839.369	15911
839.506	16215
839.643	15953
839.781	15854
839.918	15705
840.055	15759
840.193	15819
840.33	15774
840.467	15766
840.604	15808
840.742	16074
840.879	15614
841.016	15732
841.153	15770
841.29	15892
841.427	15675
841.564	15751
841.701	15781
841.838	15713
841.975	15739
842.112	15629
842.249	15671
842.385	15534
842.522	15690
842.659	15584
842.796	15576
842.933	15614
843.069	15515
843.206	15561
843.343	15660
843.479	15603
843.616	15679
843.752	15374
843.889	15351
844.025	15500
844.162	15386
844.298	15481
844.435	15420
844.571	15310
844.708	15355
844.844	15481
844.98	15576
845.117	15450
845.253	15317
845.389	15298
845.525	15370
845.661	15355
845.798	15108
845.934	15214
846.07	15154
846.206	15230
846.342	15291
846.478	15154
846.614	14956
846.75	14899
846.886	14796
847.022	15032
847.158	14963
847.294	14948
847.429	14960
847.565	14823
847.701	15195
847.837	14663
847.972	14602
848.108	14834
848.244	14765
848.379	14587
848.515	14499
848.65	14598
848.786	14530
848.921	14610
849.057	14640
849.192	14648
849.328	14621
849.463	14511
849.598	14518
849.734	14400
849.869	14404
850.004	14275
850.14	14412
850.275	14263
850.41	14214
850.545	14240
850.68	14275
850.815	14336
850.95	14339
851.085	14514
851.22	14351
851.355	14389
851.49	14267
851.625	14362
851.76	14290
851.895	14240
852.03	14050
852.165	14351
852.299	14328
852.434	14267
852.569	14286
852.703	14309
852.838	14381
852.973	14389
853.107	14393
853.242	14267
853.376	14210
853.511	14054
853.645	14172
853.78	14298
853.914	14221
854.048	14202
854.183	14134
854.317	14187
854.451	14324
854.585	14206
854.72	14164
854.854	14214
854.988	14123
855.122	14145
855.256	14107
855.39	14263
855.524	14298
855.658	14237
855.792	14119
855.926	14267
856.06	14225
856.194	14221
856.327	14191
856.461	14161
856.595	14149
856.729	14149
856.862	14275
856.996	14183
857.13	14221
857.263	14294
857.397	14199
857.53	14225
857.664	14218
857.797	14240
857.931	14332
858.064	14309
858.197	14271
858.331	14187
858.464	14050
858.597	14119
858.731	14153
858.864	14183
858.997	14157
859.13	14263
859.263	14248
859.396	14259
859.529	14130
859.662	14062
859.795	14103
859.928	14142
860.061	14339
860.194	14400
860.327	14221
860.46	14153
860.592	14225
860.725	14240
860.858	14275
860.99	14206
861.123	14176
861.256	14065
861.388	14172
861.521	14971
861.653	14092
861.786	13974
861.918	14046
862.05	14123
862.183	14218
862.315	14119
862.447	14225
862.58	14119
862.712	14035
862.844	13852
862.976	13978
863.108	14024
863.24	14313
863.372	13856
863.504	13894
863.636	13982
863.768	14001
863.9	14069
864.032	13811
864.164	13970
864.296	14062
864.428	14027
864.559	14031
864.691	14073
864.823	14062
864.954	14027
865.086	14035
865.217	13925
865.349	13955
865.48	13989
865.612	13928
865.743	14111
865.875	13974
866.006	13967
866.137	13925
866.269	13997
866.4	13982
866.531	13978
866.662	13837
866.793	13909
866.924	13887
867.055	13936
867.186	13890
867.317	13879
867.448	13765
867.579	13890
867.71	13856
867.841	13947
867.972	13959
868.103	13906
868.233	13989
868.364	13944
868.495	13974
868.625	14138
868.756	14301
868.886	14081
869.017	14145
869.147	14259
869.278	14431
869.408	14214
869.539	14176
869.669	14183
869.799	14210
869.929	14229
870.06	14374
870.19	14556
870.32	14358
870.45	14469
870.58	14537
870.71	14682
870.84	14697
870.97	14556
871.1	14606
871.23	14727
871.36	14781
871.489	14720
871.619	14754
871.749	14769
871.879	14891
872.008	14861
872.138	14872
872.267	14838
872.397	14659
872.526	14552
872.656	14598
872.785	14621
872.915	14853
873.044	14960
873.173	14864
873.303	14819
873.432	14864
873.561	14887
873.69	14819
873.819	14899
873.948	14914
874.077	14910
874.206	14781
874.335	14914
874.464	15001
874.593	15131
874.722	15112
874.851	15230
874.979	15249
875.108	15306
875.237	15077
875.365	15024
875.494	15058
875.623	15062
875.751	15161
875.88	15283
876.008	15260
876.136	15454
876.265	15599
876.393	15755
876.521	15660
876.65	15644
876.778	15564
876.906	15507
877.034	15515
877.162	15523
877.29	15542
877.418	15538
877.546	15500
877.674	15557
877.802	15641
877.93	15599
878.058	15576
878.185	15466
878.313	15523
878.441	15488
878.568	15424
878.696	15549
878.824	15576
878.951	15671
879.079	15759
879.206	15823
879.333	15808
879.461	15572
879.588	15694
879.715	15766
879.842	15766
879.97	15713
880.097	15447
880.224	15370
880.351	15447
880.478	15424
880.605	15431
880.732	15382
880.859	15614
880.986	15488
881.112	15428
881.239	15389
881.366	15310
881.493	15131
881.619	15055
881.746	15043
881.872	15043
881.999	15043
882.125	15013
882.252	15100
882.378	15028
882.505	15173
882.631	15009
882.757	14895
882.883	14910
883.01	14963
883.136	14849
883.262	14765
883.388	14739
883.514	14941
883.64	14918
883.766	14864
883.892	14640
884.018	14769
884.143	14944
884.269	15017
884.395	14705
884.52	14598
884.646	14583
884.772	14503
884.897	14480
885.023	14674
885.148	14670
885.274	14720
885.399	14648
885.524	14610
885.65	14537
885.775	14579
885.9	14606
886.025	14727
886.15	14571
886.275	14598
886.4	14537
886.525	14533
886.65	14530
886.775	14381
886.9	14804
887.025	14819
887.149	14583
887.274	14492
887.399	14385
887.523	14465
887.648	14400
887.773	14301
887.897	14461
888.021	14454
888.146	14374
888.27	14480
888.395	14602
888.519	14507
888.643	14511
888.767	14457
888.891	14343
889.015	14298
889.139	14355
889.263	14351
889.387	14442
889.511	14507
889.635	14583
889.759	14180
889.883	14309
890.006	14343
890.13	14347
890.254	14206
890.377	14229
890.501	14168
890.624	14001
890.748	14218
890.871	14077
890.995	13959
891.118	13986
891.241	14016
891.364	14073
891.488	14214
891.611	14031
891.734	14046
891.857	14058
891.98	14035
892.103	14103
892.226	13967
892.349	14012
892.471	13837
892.594	13951
892.717	13902
892.839	13940
892.962	14012
893.085	14134
893.207	14005
893.33	13841
893.452	14008
893.575	14100
893.697	13986
893.819	14126
893.941	14259
894.064	14214
894.186	13989
894.308	14031
894.43	14195
894.552	14237
894.674	14058
894.796	14043
894.918	14096
895.04	14088
895.161	14248
895.283	14161
895.405	14001
895.526	14073
895.648	14134
895.769	14123
895.891	14157
896.012	14187
896.134	14195
896.255	14180
896.376	14123
896.498	14225
896.619	14259
896.74	14157
896.861	14130
896.982	14587
897.103	14648
897.224	14507
897.345	14484
897.466	14355
897.587	14465
897.708	14552
897.828	14545
897.949	14385
898.07	14294
898.19	14465
898.311	14598
898.431	14434
898.552	14514
898.672	14507
898.792	14594
898.913	14488
899.033	14480
899.153	14446
899.273	14328
899.393	14370
899.513	14370
899.633	14339
899.753	14446
899.873	14393
899.993	14484
900.113	14313
900.232	14480
900.352	14389
900.472	14191
900.591	14214
900.711	14347
900.83	14271
900.95	14347
901.069	14328
901.189	14115
901.308	14008
901.427	13925
901.546	13913
901.665	13917
901.784	13906
901.904	13849
902.023	13799
902.141	13529
902.26	13457
902.379	13567
902.498	13434
902.617	13537
902.735	13499
902.854	13502
902.973	13346
903.091	13160
903.21	13194
903.328	13183
903.446	13171
903.565	13015
903.683	13107
903.801	13103
903.919	13091
904.038	13107
904.156	12890
904.274	12924
904.392	12894
904.51	12863
904.627	12962
904.745	12920
904.863	12962
904.981	12741
905.098	12525
905.216	12604
905.334	12623
905.451	12555
905.569	12517
905.686	12547
905.803	12551
905.921	12292
906.038	12486
906.155	12391
906.272	12323
906.389	12209
906.506	12190
906.623	12243
906.74	12106
906.857	12106
906.974	12053
907.091	12235
907.208	12350
907.324	12235
907.441	12121
907.557	11954
907.674	11977
907.79	11863
907.907	11988
908.023	11946
908.139	11969
908.256	11805
908.372	11866
908.488	11798
908.604	11737
908.72	11619
908.836	11657
908.952	11581
909.068	11703
909.184	11840
909.3	11615
909.415	11691
909.531	11642
909.647	11452
909.762	11497
909.878	11421
909.993	11433
910.108	11452
910.224	11318
910.339	11417
910.454	11383
910.57	11299
910.685	11269
910.8	11535
910.915	11463
911.03	11326
911.145	11235
911.259	11193
911.374	11060
911.489	11086
911.604	10995
911.718	10908
911.833	10923
911.947	10778
912.062	10801
912.176	10877
912.291	10972
912.405	10953
912.519	11185
912.633	11060
912.748	10911
912.862	10972
912.976	10763
913.09	10675
913.204	10721
913.318	10778
913.431	10862
913.545	10869
913.659	10885
913.772	10786
913.886	10637
914	10573
914.113	10710
914.226	10767
914.34	10801
914.453	10618
914.566	10812
914.68	10664
914.793	10588
914.906	10367
915.019	10337
915.132	10314
915.245	10466
915.358	10356
915.47	10428
915.583	10432
915.696	10459
915.809	10580
915.921	10580
916.034	10360
916.146	10386
916.259	10459
916.371	10500
916.483	10432
916.595	10341
916.708	10318
916.82	10348
916.932	10306
917.044	10337
917.156	10246
917.268	10238
917.38	10200
917.491	10223
917.603	10348
917.715	10375
917.826	10375
917.938	10268
918.049	10120
918.161	10253
918.272	10386
918.384	10303
918.495	10303
918.606	10139
918.717	10055
918.828	10120
918.939	10135
919.05	9998
919.161	10154
919.272	9934
919.383	10010
919.494	10230
919.604	10363
919.715	10162
919.826	10120
919.936	10105
920.047	10215
920.157	10143
920.267	10318
920.378	10207
920.488	10128
920.598	10287
920.708	10504
920.818	10394
920.928	10352
921.038	10478
921.148	10489
921.258	10181
921.368	10086
921.477	10101
921.587	9998
921.697	9880
921.806	9968
921.916	9937
922.025	9774
922.134	9641
922.244	9686
922.353	9785
922.462	9701
922.571	9515
922.68	9458
922.789	9382
922.898	9408
923.007	9344
923.116	9420
923.224	9355
923.333	9397
923.442	9329
923.55	9241
923.659	9336
923.767	9336
923.876	9287
923.984	9298
924.092	9154
924.201	9222
924.309	9260
924.417	9294
924.525	9108
924.633	9237
924.741	10109
924.849	9058
924.956	9226
925.064	9009
925.172	9009
925.279	8986
925.387	9116
925.494	9020
925.602	9211
925.709	9154
925.816	9009
925.924	9165
926.031	9169
926.138	9127
926.245	9093
926.352	9020
926.459	9199
926.566	9135
926.673	9028
926.779	8914
926.886	8872
926.993	8849
927.099	8807
927.206	8754
927.312	8769
927.419	8853
927.525	8826
927.631	8781
927.737	8792
927.843	8636
927.95	8579
928.056	8629
928.162	8682
928.267	8762
928.373	9355
928.479	8792
928.585	8499
928.69	8686
928.796	8689
928.901	8587
929.007	8393
929.112	8526
929.218	8552
929.323	8545
929.428	8495
929.533	8648
929.638	8362
929.743	8465
929.848	8590
929.953	8511
930.058	8408
930.163	8191
930.267	8229
930.372	8385
930.477	8271
930.581	8480
930.685	8320
930.79	8210
930.894	8244
930.998	8183
931.103	8374
931.207	7944
931.311	8005
931.415	7883
931.519	7662
931.623	7689
