Data from test_V78500241_845.txt Node
Date: Fri Mar 25 14:39:36 CST 2022
User: usil
Spectrometer: V785-0024
Trigger mode: 0
Integration Time (sec): 4.000000E-1
Scans to average: 1
Nonlinearity correction enabled: false
Boxcar width: 0
Storing dark spectrum: false
XAxis mode: Wavelengths
Number of Pixels in Spectrum: 1024
>>>>>Begin Spectral Data<<<<<
801.071	25966
801.214	25753
801.356	25613
801.499	25548
801.641	25415
801.783	25457
801.926	25373
802.068	25114
802.211	25103
802.353	25065
802.496	24833
802.638	24909
802.78	24772
802.923	24711
803.065	24760
803.208	24768
803.35	24719
803.492	24757
803.635	25034
803.777	24802
803.919	24882
804.061	25202
804.204	24973
804.346	24890
804.488	24825
804.63	24882
804.773	24776
804.915	24886
805.057	25080
805.199	24985
805.341	25103
805.483	25259
805.626	25202
805.768	25088
805.91	25190
806.052	25400
806.194	25187
806.336	25689
806.478	25704
806.62	25658
806.762	25837
806.904	26065
807.046	26598
807.188	26754
807.33	26918
807.472	27298
807.614	27545
807.756	28139
807.898	28771
808.04	29566
808.182	30608
808.324	32172
808.465	33831
808.607	35950
808.749	37392
808.891	38434
809.033	38377
809.174	37422
809.316	35752
809.458	33880
809.6	32103
809.741	30601
809.883	29242
810.025	28653
810.166	27922
810.308	27542
810.45	27180
810.591	26834
810.733	26355
810.875	26084
811.016	25966
811.158	25906
811.299	25822
811.441	25856
811.582	25811
811.724	25586
811.865	25346
812.007	25377
812.148	25350
812.29	25438
812.431	25457
812.573	25643
812.714	25738
812.855	25719
812.997	25864
813.138	25868
813.279	25883
813.421	25567
813.562	25537
813.703	25445
813.845	25236
813.986	24802
814.127	24791
814.268	24700
814.41	24612
814.551	24490
814.692	24544
814.833	24311
814.974	24505
815.115	24338
815.256	24262
815.397	24273
815.539	24327
815.68	24102
815.821	24163
815.962	24163
816.103	24270
816.244	23935
816.385	23764
816.526	23817
816.666	23672
816.807	23570
816.948	23611
817.089	23695
817.23	23619
817.371	23531
817.512	23433
817.653	23440
817.793	23444
817.934	23459
818.075	23376
818.216	23490
818.356	23364
818.497	23197
818.638	23185
818.778	22995
818.919	23094
819.06	23254
819.2	23193
819.341	23448
819.481	23280
819.622	23368
819.762	23573
819.903	23638
820.043	23364
820.184	23474
820.324	23334
820.465	23334
820.605	23258
820.746	23254
820.886	23109
821.026	23277
821.167	23326
821.307	23364
821.447	23277
821.588	23037
821.728	22915
821.868	22881
822.008	22675
822.149	22664
822.289	22611
822.429	22371
822.569	22360
822.709	22219
822.849	22044
822.99	22036
823.13	22040
823.27	21964
823.41	21854
823.55	21701
823.69	21937
823.83	21884
823.97	21751
824.11	21637
824.25	21507
824.389	21717
824.529	21759
824.669	21614
824.809	21724
824.949	21720
825.089	21774
825.228	21656
825.368	21504
825.508	21435
825.648	21515
825.787	21507
825.927	21485
826.067	21488
826.206	21408
826.346	21370
826.485	21397
826.625	21344
826.765	21458
826.904	21454
827.044	21127
827.183	21180
827.323	21184
827.462	21116
827.601	21058
827.741	21112
827.88	21165
828.02	20975
828.159	21005
828.298	21077
828.437	21154
828.577	21154
828.716	21211
828.855	20872
828.994	20868
829.134	20842
829.273	20845
829.412	20720
829.551	20712
829.69	20716
829.829	20792
829.968	20781
830.107	20819
830.246	20750
830.385	20743
830.524	20621
830.663	20571
830.802	20434
830.941	20339
831.08	20313
831.219	20450
831.357	20294
831.496	20549
831.635	20313
831.774	20294
831.913	20263
832.051	20138
832.19	20134
832.329	20176
832.467	20134
832.606	20107
832.744	20122
832.883	20126
833.022	20237
833.16	20267
833.299	20358
833.437	20404
833.576	20419
833.714	20556
833.852	20670
833.991	20716
834.129	20830
834.267	20861
834.406	20754
834.544	20735
834.682	20583
834.821	20526
834.959	20613
835.097	20320
835.235	20370
835.373	20317
835.511	20119
835.65	20142
835.788	20027
835.926	19978
836.064	19761
836.202	19765
836.34	19940
836.478	20111
836.615	19856
836.753	19852
836.891	19944
837.029	19868
837.167	19993
837.305	19757
837.443	19734
837.58	19723
837.718	19753
837.856	19635
837.993	19643
838.131	19700
838.269	19590
838.406	19605
838.544	19514
838.681	19301
838.819	19358
838.956	19171
839.094	19088
839.231	19152
839.369	19324
839.506	19605
839.643	19388
839.781	19240
839.918	19099
840.055	19118
840.193	19187
840.33	19091
840.467	19168
840.604	19145
840.742	19449
840.879	18973
841.016	19027
841.153	18985
841.29	19198
841.427	19088
841.564	19126
841.701	19232
841.838	19126
841.975	18844
842.112	19031
842.249	18905
842.385	18852
842.522	19145
842.659	18882
842.796	18875
842.933	18985
843.069	18905
843.206	18882
843.343	19065
843.479	18924
843.616	18977
843.752	18798
843.889	18856
844.025	18962
844.162	18890
844.298	18977
844.435	18993
844.571	19027
844.708	19392
844.844	19670
844.98	19917
845.117	20183
845.253	20473
845.389	21416
845.525	23436
845.661	26492
845.798	30125
845.934	33332
846.07	34732
846.206	34086
846.342	31700
846.478	27762
846.614	24361
846.75	21895
846.886	20667
847.022	19890
847.158	19339
847.294	19076
847.429	18798
847.565	18730
847.701	18703
847.837	18319
847.972	18152
848.108	18232
848.244	18243
848.379	17980
848.515	17821
848.65	17889
848.786	17832
848.921	17855
849.057	17973
849.192	17942
849.328	17794
849.463	17779
849.598	17809
849.734	17653
849.869	17707
850.004	17649
850.14	17478
850.275	17535
850.41	17395
850.545	17455
850.68	17577
850.815	17467
850.95	17505
851.085	17661
851.22	17577
851.355	17535
851.49	17577
851.625	17452
851.76	17440
851.895	17398
852.03	17417
852.165	17520
852.299	17570
852.434	17676
852.569	17573
852.703	17604
852.838	17657
852.973	17729
853.107	17745
853.242	17448
853.376	17459
853.511	17341
853.645	17440
853.78	17653
853.914	17577
854.048	17455
854.183	17592
854.317	17665
854.451	17760
854.585	17535
854.72	17478
854.854	17707
854.988	17581
855.122	17436
855.256	17356
855.39	17421
855.524	17444
855.658	17368
855.792	17459
855.926	17497
856.06	17429
856.194	17535
856.327	17467
856.461	17299
856.595	17402
856.729	17322
856.862	17402
856.996	17349
857.13	17433
857.263	17490
857.397	17414
857.53	17307
857.664	17322
857.797	17391
857.931	17341
858.064	17391
858.197	17349
858.331	17337
858.464	17189
858.597	17235
858.731	17208
858.864	17235
858.997	17189
859.13	17235
859.263	17292
859.396	17353
859.529	17318
859.662	17265
859.795	17189
859.928	17341
860.061	17345
860.194	17474
860.327	17315
860.46	17185
860.592	17307
860.725	17318
860.858	17273
860.99	17166
861.123	17083
861.256	17208
861.388	17227
861.521	17912
861.653	17083
861.786	17056
861.918	17136
862.05	17170
862.183	17113
862.315	17208
862.447	17193
862.58	17170
862.712	16999
862.844	17022
862.976	17098
863.108	17121
863.24	17235
863.372	16896
863.504	16850
863.636	16946
863.768	16987
863.9	16980
864.032	17006
864.164	16824
864.296	17025
864.428	17045
864.559	17109
864.691	17037
864.823	16919
864.954	16938
865.086	16911
865.217	16763
865.349	16862
865.48	16862
865.612	16805
865.743	17052
865.875	16927
866.006	16873
866.137	16911
866.269	16949
866.4	16938
866.531	16782
866.662	16877
866.793	16759
866.924	16885
867.055	16930
867.186	16816
867.317	16793
867.448	16881
867.579	16752
867.71	16710
867.841	16850
867.972	16797
868.103	16786
868.233	16885
868.364	16873
868.495	16987
868.625	17174
868.756	17216
868.886	16949
869.017	17071
869.147	17151
869.278	17159
869.408	17208
869.539	17109
869.669	17261
869.799	17223
869.929	17212
870.06	17280
870.19	17547
870.32	17410
870.45	17497
870.58	17433
870.71	17608
870.84	17524
870.97	17554
871.1	17410
871.23	17828
871.36	17866
871.489	17532
871.619	17718
871.749	17707
871.879	17779
872.008	17965
872.138	17775
872.267	17786
872.397	17623
872.526	17668
872.656	17672
872.785	17646
872.915	17863
873.044	17931
873.173	17874
873.303	17992
873.432	17889
873.561	17984
873.69	17923
873.819	17882
873.948	18083
874.077	17999
874.206	17950
874.335	17950
874.464	18072
874.593	18292
874.722	18186
874.851	18270
874.979	18486
875.108	18346
875.237	18418
875.365	18304
875.494	18399
875.623	18551
875.751	18395
875.88	18559
876.008	18749
876.136	18814
876.265	19053
876.393	19168
876.521	19168
876.65	19141
876.778	19057
876.906	19042
877.034	19107
877.162	19209
877.29	19209
877.418	19282
877.546	19320
877.674	19377
877.802	19445
877.93	19521
878.058	19521
878.185	19635
878.313	19917
878.441	20111
878.568	20172
878.696	20454
878.824	21066
878.951	21713
879.079	22615
879.206	23786
879.333	25000
879.461	25974
879.588	26495
879.715	26720
879.842	26225
879.97	24977
880.097	23585
880.224	22668
880.351	22029
880.478	21542
880.605	21256
880.732	21085
880.859	20990
880.986	20644
881.112	20609
881.239	20507
881.366	20408
881.493	20332
881.619	20336
881.746	20256
881.872	20343
881.999	20309
882.125	20286
882.252	20461
882.378	20484
882.505	20541
882.631	20324
882.757	20278
882.883	20396
883.01	20168
883.136	20111
883.262	20092
883.388	20008
883.514	20370
883.64	20145
883.766	20202
883.892	20001
884.018	20107
884.143	20180
884.269	20157
884.395	20054
884.52	19856
884.646	19913
884.772	19811
884.897	19769
885.023	19963
885.148	20050
885.274	20073
885.399	20005
885.524	19753
885.65	19780
885.775	19731
885.9	19559
886.025	19567
886.15	19460
886.275	19365
886.4	19175
886.525	19168
886.65	19042
886.775	18985
886.9	19129
887.025	19103
887.149	18913
887.274	18688
887.399	18582
887.523	18597
887.648	18532
887.773	18490
887.897	18422
888.021	18414
888.146	18311
888.27	18315
888.395	18448
888.519	18323
888.643	18372
888.767	18365
888.891	18190
889.015	18045
889.139	18007
889.263	17912
889.387	18022
889.511	18159
889.635	18114
889.759	17920
889.883	17756
890.006	17851
890.13	17878
890.254	17737
890.377	17687
890.501	17592
890.624	17436
890.748	17684
890.871	17417
890.995	17307
891.118	17303
891.241	17303
891.364	17261
891.488	17463
891.611	17334
891.734	17239
891.857	17353
891.98	17162
892.103	17254
892.226	17277
892.349	17124
892.471	17010
892.594	17140
892.717	17193
892.839	17037
892.962	17048
893.085	17132
893.207	16999
893.33	17033
893.452	16824
893.575	17151
893.697	16915
893.819	17140
893.941	17143
894.064	17136
894.186	16873
894.308	16927
894.43	17018
894.552	17098
894.674	16980
894.796	16820
894.918	16828
895.04	16930
895.161	17033
895.283	16957
895.405	16862
895.526	16953
895.648	16866
895.769	16892
895.891	16938
896.012	17045
896.134	16915
896.255	16854
896.376	16889
896.498	16923
896.619	16953
896.74	16850
896.861	16972
896.982	17197
897.103	17353
897.224	17212
897.345	17098
897.466	17033
897.587	17121
897.708	17231
897.828	17083
897.949	17086
898.07	16976
898.19	17098
898.311	17246
898.431	17178
898.552	17208
898.672	17178
898.792	17269
898.913	17231
899.033	17067
899.153	17079
899.273	16908
899.393	16976
899.513	17029
899.633	17056
899.753	16957
899.873	16866
899.993	17086
900.113	16946
900.232	17045
900.352	16847
900.472	16854
900.591	16797
900.711	16786
900.83	16839
900.95	16869
901.069	16881
901.189	16793
901.308	16603
901.427	16428
901.546	16413
901.665	16322
901.784	16352
901.904	16196
902.023	16280
902.141	16078
902.26	15850
902.379	15899
902.498	15899
902.617	15911
902.735	15884
902.854	15861
902.973	15876
903.091	15481
903.21	15580
903.328	15466
903.446	15412
903.565	15447
903.683	15458
903.801	15264
903.919	15302
904.038	15351
904.156	15199
904.274	15355
904.392	15119
904.51	15112
904.627	15138
904.745	15173
904.863	15116
904.981	14887
905.098	14720
905.216	14659
905.334	14883
905.451	14815
905.569	14777
905.686	14807
905.803	14659
905.921	14541
906.038	14693
906.155	14640
906.272	14488
906.389	14488
906.506	14362
906.623	14259
906.74	14267
906.857	14206
906.974	14164
907.091	14374
907.208	14347
907.324	14313
907.441	14259
907.557	13986
907.674	14046
907.79	13932
907.907	13928
908.023	14096
908.139	14012
908.256	13894
908.372	13887
908.488	13833
908.604	13750
908.72	13643
908.836	13772
908.952	13685
909.068	13647
909.184	13849
909.3	13837
909.415	13799
909.531	13681
909.647	13540
909.762	13453
909.878	13468
909.993	13510
910.108	13590
910.224	13510
910.339	13464
910.454	13411
910.57	13301
910.685	13206
910.8	13590
910.915	13480
911.03	13266
911.145	13190
911.259	13149
911.374	13179
911.489	13091
911.604	12901
911.718	12894
911.833	12878
911.947	12760
912.062	12642
912.176	12878
912.291	12829
912.405	12829
912.519	13107
912.633	13050
912.748	12943
912.862	12795
912.976	12760
913.09	12585
913.204	12662
913.318	12669
913.431	12810
913.545	12821
913.659	12776
913.772	12673
913.886	12555
914	12498
914.113	12589
914.226	12688
914.34	12753
914.453	12506
914.566	12631
914.68	12460
914.793	12509
914.906	12285
915.019	12171
915.132	12197
915.245	12228
915.358	12285
915.47	12319
915.583	12296
915.696	12300
915.809	12414
915.921	12395
916.034	12254
916.146	12304
916.259	12190
916.371	12266
916.483	12365
916.595	12144
916.708	12197
916.82	12228
916.932	12152
917.044	12270
917.156	12152
917.268	12034
917.38	12171
917.491	12087
917.603	12076
917.715	12083
917.826	12155
917.938	12030
918.049	11973
918.161	11939
918.272	12079
918.384	12144
918.495	12003
918.606	11912
918.717	11897
918.828	11927
918.939	11904
919.05	11821
919.161	11794
919.272	11737
919.383	11748
919.494	11980
919.604	12057
919.715	11798
919.826	11790
919.936	11805
920.047	11961
920.157	11912
920.267	12110
920.378	11882
920.488	11821
920.598	12003
920.708	12152
920.818	11965
920.928	11992
921.038	12235
921.148	12171
921.258	11798
921.368	11779
921.477	11619
921.587	11623
921.697	11478
921.806	11638
921.916	11528
922.025	11349
922.134	11398
922.244	11246
922.353	11398
922.462	11204
922.571	11128
922.68	11041
922.789	10991
922.898	10961
923.007	10953
923.116	11014
923.224	10984
923.333	10976
923.442	10938
923.55	10858
923.659	10911
923.767	10942
923.876	10805
923.984	10904
924.092	10809
924.201	10877
924.309	10771
924.417	10858
924.525	10793
924.633	10820
924.741	11722
924.849	10588
924.956	10687
925.064	10603
925.172	10512
925.279	10580
925.387	10599
925.494	10577
925.602	10729
925.709	10653
925.816	10569
925.924	10618
926.031	10687
926.138	10489
926.245	10615
926.352	10466
926.459	10603
926.566	10759
926.673	10504
926.779	10451
926.886	10459
926.993	10227
927.099	10204
927.206	10238
927.312	10280
927.419	10280
927.525	10272
927.631	10306
927.737	10188
927.843	10101
927.95	10059
928.056	10029
928.162	10223
928.267	10154
928.373	10634
928.479	10223
928.585	9968
928.69	10063
928.796	10150
928.901	10017
929.007	9857
929.112	10013
929.218	9915
929.323	9972
929.428	9949
929.533	10071
929.638	9823
929.743	9892
929.848	10017
929.953	9880
930.058	9816
930.163	9675
930.267	9701
930.372	9705
930.477	9652
930.581	9892
930.685	9709
930.79	9564
930.894	9652
930.998	9530
931.103	9705
931.207	9378
931.311	9264
931.415	9249
931.519	9028
931.623	8899
