Data from test_V78500241_3654.txt Node
Date: Fri Mar 25 14:59:09 CST 2022
User: usil
Spectrometer: V785-0024
Trigger mode: 0
Integration Time (sec): 4.000000E-1
Scans to average: 1
Nonlinearity correction enabled: false
Boxcar width: 0
Storing dark spectrum: false
XAxis mode: Wavelengths
Number of Pixels in Spectrum: 1024
>>>>>Begin Spectral Data<<<<<
801.071	21907
801.214	21884
801.356	21599
801.499	21450
801.641	21310
801.783	21310
801.926	21298
802.068	21226
802.211	21127
802.353	21150
802.496	20800
802.638	20739
802.78	20727
802.923	20674
803.065	20564
803.208	20511
803.35	20686
803.492	20796
803.635	20686
803.777	20541
803.919	20667
804.061	20906
804.204	20701
804.346	20564
804.488	20415
804.63	20621
804.773	20518
804.915	20404
805.057	20484
805.199	20465
805.341	20568
805.483	20667
805.626	20575
805.768	20412
805.91	20556
806.052	20431
806.194	20343
806.336	20602
806.478	20571
806.62	20454
806.762	20602
806.904	20674
807.046	20762
807.188	20743
807.33	20807
807.472	20834
807.614	20777
807.756	20746
807.898	20640
808.04	20492
808.182	20579
808.324	20613
808.465	20686
808.607	20834
808.749	20857
808.891	20994
809.033	21127
809.174	20960
809.316	20830
809.458	20880
809.6	20800
809.741	20853
809.883	20933
810.025	21039
810.166	21051
810.308	21005
810.45	20838
810.591	20941
810.733	20727
810.875	20682
811.016	20541
811.158	20598
811.299	20621
811.441	20788
811.582	20655
811.724	20571
811.865	20575
812.007	20590
812.148	20617
812.29	20697
812.431	20800
812.573	20880
812.714	21055
812.855	21138
812.997	21256
813.138	21226
813.279	21287
813.421	21089
813.562	21127
813.703	20864
813.845	20830
813.986	20533
814.127	20412
814.268	20142
814.41	20271
814.551	20157
814.692	20157
814.833	20031
814.974	20180
815.115	20199
815.256	20039
815.397	20077
815.539	19955
815.68	19841
815.821	19860
815.962	19993
816.103	19890
816.244	19830
816.385	19704
816.526	19738
816.666	19411
816.807	19343
816.948	19312
817.089	19544
817.23	19377
817.371	19400
817.512	19301
817.653	19221
817.793	19225
817.934	19400
818.075	19346
818.216	19297
818.356	19255
818.497	19156
818.638	18943
818.778	18882
818.919	19012
819.06	19069
819.2	19137
819.341	19198
819.481	19137
819.622	19324
819.762	19468
819.903	19377
820.043	19422
820.184	19209
820.324	19308
820.465	19270
820.605	19304
820.746	19350
820.886	19152
821.026	19213
821.167	19232
821.307	19335
821.447	19183
821.588	19069
821.728	18981
821.868	18802
822.008	18692
822.149	18753
822.289	18692
822.429	18319
822.569	18338
822.709	18361
822.849	18167
822.99	18205
823.13	18159
823.27	18243
823.41	18038
823.55	17988
823.69	18019
823.83	17973
823.97	17927
824.11	17870
824.25	17718
824.389	17710
824.529	17866
824.669	17722
824.809	17901
824.949	17805
825.089	17813
825.228	17748
825.368	17528
825.508	17672
825.648	17623
825.787	17608
825.927	17539
826.067	17581
826.206	17577
826.346	17509
826.485	17528
826.625	17535
826.765	17668
826.904	17551
827.044	17452
827.183	17273
827.323	17189
827.462	17326
827.601	17250
827.741	17159
827.88	17299
828.02	17132
828.159	17216
828.298	17223
828.437	17330
828.577	17204
828.716	17349
828.855	17185
828.994	17018
829.134	17018
829.273	17067
829.412	17003
829.551	16965
829.69	16949
829.829	16946
829.968	17124
830.107	17117
830.246	16984
830.385	16930
830.524	16911
830.663	16767
830.802	16710
830.941	16683
831.08	16649
831.219	16763
831.357	16679
831.496	16869
831.635	16611
831.774	16546
831.913	16588
832.051	16440
832.19	16344
832.329	16459
832.467	16341
832.606	16352
832.744	16310
832.883	16310
833.022	16223
833.16	16303
833.299	16413
833.437	16428
833.576	16284
833.714	16356
833.852	16421
833.991	16538
834.129	16367
834.267	16436
834.406	16356
834.544	16375
834.682	16344
834.821	16295
834.959	16558
835.097	16432
835.235	16588
835.373	16516
835.511	16428
835.65	16280
835.788	16375
835.926	16139
836.064	16128
836.202	16131
836.34	16295
836.478	16371
836.615	16318
836.753	16329
836.891	16360
837.029	16291
837.167	16265
837.305	16276
837.443	16219
837.58	16147
837.718	16207
837.856	16154
837.993	16135
838.131	16249
838.269	16105
838.406	16128
838.544	16040
838.681	15865
838.819	15968
838.956	15781
839.094	15835
839.231	15766
839.369	15895
839.506	16131
839.643	15899
839.781	15762
839.918	15739
840.055	15709
840.193	15682
840.33	15819
840.467	15625
840.604	15717
840.742	16006
840.879	15622
841.016	15610
841.153	15644
841.29	15835
841.427	15793
841.564	15717
841.701	15648
841.838	15622
841.975	15690
842.112	15610
842.249	15622
842.385	15519
842.522	15686
842.659	15458
842.796	15466
842.933	15545
843.069	15523
843.206	15496
843.343	15587
843.479	15568
843.616	15481
843.752	15321
843.889	15310
844.025	15526
844.162	15283
844.298	15408
844.435	15252
844.571	15268
844.708	15329
844.844	15424
844.98	15496
845.117	15363
845.253	15260
845.389	15214
845.525	15260
845.661	15176
845.798	15074
845.934	15093
846.07	15093
846.206	15100
846.342	15188
846.478	15138
846.614	14887
846.75	14925
846.886	14880
847.022	14982
847.158	14902
847.294	14864
847.429	14906
847.565	14921
847.701	15116
847.837	14712
847.972	14629
848.108	14720
848.244	14705
848.379	14545
848.515	14507
848.65	14393
848.786	14526
848.921	14552
849.057	14518
849.192	14564
849.328	14499
849.463	14518
849.598	14423
849.734	14396
849.869	14370
850.004	14351
850.14	14240
850.275	14366
850.41	14187
850.545	14229
850.68	14240
850.815	14183
850.95	14301
851.085	14408
851.22	14351
851.355	14237
851.49	14161
851.625	14210
851.76	14214
851.895	14142
852.03	14107
852.165	14278
852.299	14172
852.434	14309
852.569	14275
852.703	14298
852.838	14339
852.973	14332
853.107	14396
853.242	14229
853.376	14199
853.511	13970
853.645	14050
853.78	14278
853.914	14115
854.048	14180
854.183	14050
854.317	14164
854.451	14259
854.585	14058
854.72	14123
854.854	14138
854.988	14031
855.122	14081
855.256	13989
855.39	14084
855.524	14271
855.658	14176
855.792	14073
855.926	14134
856.06	14107
856.194	14229
856.327	14107
856.461	14043
856.595	14103
856.729	14024
856.862	14271
856.996	14138
857.13	14138
857.263	14195
857.397	14271
857.53	14153
857.664	14221
857.797	14240
857.931	14252
858.064	14180
858.197	14233
858.331	14081
858.464	14046
858.597	14069
858.731	14103
858.864	14119
858.997	14149
859.13	14145
859.263	14214
859.396	14161
859.529	14134
859.662	14077
859.795	14081
859.928	14142
860.061	14191
860.194	14259
860.327	14164
860.46	14149
860.592	14218
860.725	14248
860.858	14161
860.99	14138
861.123	14001
861.256	14008
861.388	14096
861.521	14838
861.653	13928
861.786	13902
861.918	13898
862.05	14103
862.183	14107
862.315	14176
862.447	14149
862.58	14115
862.712	13917
862.844	13894
862.976	13951
863.108	13986
863.24	14282
863.372	13852
863.504	13868
863.636	13871
863.768	13928
863.9	13898
864.032	13826
864.164	13883
864.296	13936
864.428	13936
864.559	14073
864.691	14050
864.823	13970
864.954	13947
865.086	13902
865.217	13909
865.349	13868
865.48	13814
865.612	13883
865.743	14050
865.875	13909
866.006	13772
866.137	13727
866.269	13868
866.4	13902
866.531	13807
866.662	13822
866.793	13909
866.924	13818
867.055	13864
867.186	13906
867.317	13826
867.448	13849
867.579	13814
867.71	13875
867.841	13818
867.972	13913
868.103	13928
868.233	13856
868.364	13951
868.495	13963
868.625	14115
868.756	14183
868.886	14062
869.017	14138
869.147	14225
869.278	14351
869.408	14111
869.539	14119
869.669	14153
869.799	14221
869.929	14282
870.06	14248
870.19	14522
870.32	14408
870.45	14507
870.58	14552
870.71	14617
870.84	14712
870.97	14552
871.1	14503
871.23	14686
871.36	14792
871.489	14621
871.619	14689
871.749	14682
871.879	14773
872.008	14834
872.138	14644
872.267	14796
872.397	14689
872.526	14549
872.656	14594
872.785	14617
872.915	14720
873.044	14864
873.173	14830
873.303	14777
873.432	14899
873.561	14792
873.69	14792
873.819	14853
873.948	14872
874.077	14826
874.206	14788
874.335	14781
874.464	14895
874.593	15116
874.722	15036
874.851	15024
874.979	15119
875.108	15154
875.237	15032
875.365	15024
875.494	15024
875.623	15176
875.751	15089
875.88	15116
876.008	15211
876.136	15306
876.265	15481
876.393	15679
876.521	15667
876.65	15538
876.778	15542
876.906	15428
877.034	15458
877.162	15492
877.29	15450
877.418	15603
877.546	15504
877.674	15561
877.802	15568
877.93	15595
878.058	15515
878.185	15367
878.313	15538
878.441	15511
878.568	15428
878.696	15435
878.824	15519
878.951	15622
879.079	15743
879.206	15789
879.333	15709
879.461	15580
879.588	15595
879.715	15713
879.842	15838
879.97	15633
880.097	15275
880.224	15378
880.351	15359
880.478	15359
880.605	15329
880.732	15325
880.859	15538
880.986	15447
881.112	15534
881.239	15275
881.366	15192
881.493	15017
881.619	15104
881.746	15112
881.872	15154
881.999	14925
882.125	14998
882.252	15005
882.378	15074
882.505	15112
882.631	15055
882.757	14800
882.883	14868
883.01	14906
883.136	14819
883.262	14705
883.388	14678
883.514	14963
883.64	14838
883.766	14769
883.892	14629
884.018	14762
884.143	14857
884.269	14914
884.395	14674
884.52	14488
884.646	14648
884.772	14518
884.897	14476
885.023	14564
885.148	14727
885.274	14743
885.399	14613
885.524	14571
885.65	14632
885.775	14632
885.9	14488
886.025	14746
886.15	14617
886.275	14537
886.4	14389
886.525	14442
886.65	14415
886.775	14469
886.9	14754
887.025	14762
887.149	14526
887.274	14370
887.399	14457
887.523	14336
887.648	14309
887.773	14324
887.897	14480
888.021	14427
888.146	14244
888.27	14465
888.395	14552
888.519	14377
888.643	14488
888.767	14461
888.891	14328
889.015	14176
889.139	14412
889.263	14218
889.387	14400
889.511	14374
889.635	14328
889.759	14237
889.883	14195
890.006	14317
890.13	14404
890.254	14214
890.377	14176
890.501	14084
890.624	14119
890.748	14126
890.871	14092
890.995	13913
891.118	13830
891.241	13890
891.364	13993
891.488	14081
891.611	13894
891.734	14020
891.857	14012
891.98	14035
892.103	13978
892.226	13974
892.349	13944
892.471	13894
892.594	14046
892.717	13955
892.839	13887
892.962	14043
893.085	13978
893.207	13902
893.33	13811
893.452	13898
893.575	14077
893.697	13936
893.819	14123
893.941	14161
894.064	14065
894.186	13944
894.308	13887
894.43	14005
894.552	14145
894.674	14103
894.796	14024
894.918	14054
895.04	14050
895.161	14123
895.283	14149
895.405	13963
895.526	14153
895.648	14119
895.769	14012
895.891	14081
896.012	14206
896.134	14164
896.255	14153
896.376	14058
896.498	14149
896.619	14195
896.74	14123
896.861	14259
896.982	14530
897.103	14655
897.224	14438
897.345	14412
897.466	14347
897.587	14408
897.708	14415
897.828	14495
897.949	14385
898.07	14252
898.19	14355
898.311	14480
898.431	14412
898.552	14503
898.672	14610
898.792	14533
898.913	14598
899.033	14480
899.153	14381
899.273	14229
899.393	14328
899.513	14328
899.633	14370
899.753	14408
899.873	14313
899.993	14408
900.113	14351
900.232	14286
900.352	14191
900.472	14195
900.591	14153
900.711	14187
900.83	14206
900.95	14317
901.069	14278
901.189	14149
901.308	13944
901.427	13818
901.546	13845
901.665	13883
901.784	13883
901.904	13772
902.023	13655
902.141	13487
902.26	13419
902.379	13506
902.498	13400
902.617	13346
902.735	13483
902.854	13426
902.973	13320
903.091	13190
903.21	13110
903.328	13103
903.446	13145
903.565	13110
903.683	13053
903.801	12916
903.919	13057
904.038	13000
904.156	12829
904.274	12970
904.392	12779
904.51	12837
904.627	12821
904.745	12886
904.863	12962
904.981	12631
905.098	12532
905.216	12506
905.334	12578
905.451	12593
905.569	12532
905.686	12654
905.803	12570
905.921	12323
906.038	12509
906.155	12414
906.272	12296
906.389	12182
906.506	12178
906.623	12190
906.74	12106
906.857	11999
906.974	11942
907.091	12140
907.208	12327
907.324	12133
907.441	11958
907.557	11920
907.674	11836
907.79	11851
907.907	11783
908.023	11984
908.139	11843
908.256	11942
908.372	11832
908.488	11726
908.604	11718
908.72	11627
908.836	11672
908.952	11623
909.068	11611
909.184	11699
909.3	11710
909.415	11767
909.531	11657
909.647	11398
909.762	11482
909.878	11387
909.993	11353
910.108	11372
910.224	11414
910.339	11467
910.454	11254
910.57	11258
910.685	11193
910.8	11448
910.915	11436
911.03	11284
911.145	11109
911.259	11117
911.374	11189
911.489	11033
911.604	11045
911.718	10812
911.833	10900
911.947	10767
912.062	10729
912.176	10828
912.291	10885
912.405	10885
912.519	11075
912.633	11174
912.748	10892
912.862	10919
912.976	10771
913.09	10573
913.204	10694
913.318	10714
913.431	10866
913.545	10831
913.659	10911
913.772	10729
913.886	10622
914	10618
914.113	10755
914.226	10744
914.34	10645
914.453	10596
914.566	10710
914.68	10630
914.793	10561
914.906	10470
915.019	10402
915.132	10280
915.245	10344
915.358	10382
915.47	10447
915.583	10455
915.696	10470
915.809	10504
915.921	10519
916.034	10405
916.146	10371
916.259	10375
916.371	10432
916.483	10329
916.595	10291
916.708	10303
916.82	10303
916.932	10253
917.044	10333
917.156	10261
917.268	10188
917.38	10249
917.491	10280
917.603	10238
917.715	10268
917.826	10329
917.938	10173
918.049	10120
918.161	10207
918.272	10310
918.384	10413
918.495	10219
918.606	10188
918.717	10059
918.828	10109
918.939	10078
919.05	9991
919.161	10082
919.272	9926
919.383	10002
919.494	10158
919.604	10318
919.715	10116
919.826	10036
919.936	10101
920.047	10192
920.157	10128
920.267	10318
920.378	10124
920.488	10116
920.598	10246
920.708	10394
920.818	10291
920.928	10344
921.038	10527
921.148	10394
921.258	10173
921.368	10150
921.477	10013
921.587	9930
921.697	9823
921.806	10025
921.916	9880
922.025	9686
922.134	9603
922.244	9641
922.353	9720
922.462	9618
922.571	9511
922.68	9382
922.789	9329
922.898	9374
923.007	9287
923.116	9386
923.224	9367
923.333	9382
923.442	9329
923.55	9249
923.659	9241
923.767	9260
923.876	9218
923.984	9336
924.092	9222
924.201	9207
924.309	9283
924.417	9310
924.525	9173
924.633	9272
924.741	9930
924.849	8986
924.956	9146
925.064	9024
925.172	9020
925.279	8967
925.387	8994
925.494	9093
925.602	9070
925.709	9112
925.816	8929
925.924	9028
926.031	9161
926.138	8986
926.245	9055
926.352	8975
926.459	9081
926.566	9157
926.673	8963
926.779	8891
926.886	8899
926.993	8705
927.099	8697
927.206	8724
927.312	8659
927.419	8792
927.525	8769
927.631	8781
927.737	8655
927.843	8670
927.95	8541
928.056	8571
928.162	8648
928.267	8746
928.373	9123
928.479	8804
928.585	8549
928.69	8670
928.796	8621
928.901	8507
929.007	8431
929.112	8613
929.218	8583
929.323	8518
929.428	8454
929.533	8549
929.638	8396
929.743	8446
929.848	8484
929.953	8469
930.058	8347
930.163	8233
930.267	8263
930.372	8366
930.477	8218
930.581	8393
930.685	8351
930.79	8237
930.894	8168
930.998	8145
931.103	8393
931.207	7963
931.311	7993
931.415	7811
931.519	7670
931.623	7651
