Data from test_V78500241_1696.txt Node
Date: Fri Mar 25 14:45:31 CST 2022
User: usil
Spectrometer: V785-0024
Trigger mode: 0
Integration Time (sec): 4.000000E-1
Scans to average: 1
Nonlinearity correction enabled: false
Boxcar width: 0
Storing dark spectrum: false
XAxis mode: Wavelengths
Number of Pixels in Spectrum: 1024
>>>>>Begin Spectral Data<<<<<
801.071	22310
801.214	22162
801.356	21804
801.499	21823
801.641	21644
801.783	21557
801.926	21656
802.068	21507
802.211	21481
802.353	21325
802.496	21184
802.638	21047
802.78	21100
802.923	21138
803.065	21051
803.208	20986
803.35	20963
803.492	21146
803.635	21188
803.777	21032
803.919	21039
804.061	21325
804.204	21039
804.346	20963
804.488	20925
804.63	20975
804.773	20792
804.915	20899
805.057	20986
805.199	20952
805.341	20948
805.483	20967
805.626	20918
805.768	20941
805.91	20754
806.052	20872
806.194	20754
806.336	21089
806.478	20849
806.62	20891
806.762	20899
806.904	21173
807.046	21272
807.188	21287
807.33	21211
807.472	21272
807.614	21165
807.756	21146
807.898	21036
808.04	21066
808.182	20967
808.324	21032
808.465	21005
808.607	21142
808.749	21222
808.891	21344
809.033	21428
809.174	21401
809.316	21245
809.458	21298
809.6	21195
809.741	21226
809.883	21370
810.025	21538
810.166	21435
810.308	21473
810.45	21355
810.591	21302
810.733	21173
810.875	21058
811.016	20963
811.158	20921
811.299	21123
811.441	21283
811.582	21146
811.724	21039
811.865	20929
812.007	21013
812.148	21070
812.29	21100
812.431	21291
812.573	21287
812.714	21367
812.855	21606
812.997	21724
813.138	21762
813.279	21701
813.421	21466
813.562	21450
813.703	21222
813.845	21188
813.986	20982
814.127	20800
814.268	20701
814.41	20697
814.551	20533
814.692	20640
814.833	20564
814.974	20518
815.115	20549
815.256	20530
815.397	20522
815.539	20412
815.68	20400
815.821	20294
815.962	20404
816.103	20434
816.244	20191
816.385	19986
816.526	20001
816.666	19982
816.807	19753
816.948	19788
817.089	19917
817.23	19788
817.371	19712
817.512	19803
817.653	19658
817.793	19639
817.934	19841
818.075	19776
818.216	19742
818.356	19731
818.497	19601
818.638	19487
818.778	19510
818.919	19438
819.06	19514
819.2	19518
819.341	19586
819.481	19575
819.622	19685
819.762	19875
819.903	19928
820.043	19860
820.184	19883
820.324	19696
820.465	19776
820.605	19742
820.746	19731
820.886	19601
821.026	19727
821.167	19830
821.307	19818
821.447	19605
821.588	19537
821.728	19537
821.868	19350
822.008	19088
822.149	19133
822.289	19042
822.429	18871
822.569	18897
822.709	18749
822.849	18559
822.99	18540
823.13	18612
823.27	18623
823.41	18441
823.55	18388
823.69	18517
823.83	18403
823.97	18342
824.11	18163
824.25	18239
824.389	18190
824.529	18251
824.669	18220
824.809	18323
824.949	18258
825.089	18407
825.228	18228
825.368	18022
825.508	18019
825.648	18057
825.787	17885
825.927	18087
826.067	17920
826.206	17977
826.346	17939
826.485	18003
826.625	17961
826.765	18030
826.904	17988
827.044	17779
827.183	17832
827.323	17646
827.462	17687
827.601	17608
827.741	17573
827.88	17710
828.02	17417
828.159	17551
828.298	17615
828.437	17691
828.577	17661
828.716	17737
828.855	17657
828.994	17414
829.134	17425
829.273	17452
829.412	17337
829.551	17334
829.69	17349
829.829	17398
829.968	17463
830.107	17345
830.246	17589
830.385	17414
830.524	17239
830.663	17170
830.802	17117
830.941	17033
831.08	17094
831.219	17102
831.357	17075
831.496	17296
831.635	17060
831.774	16892
831.913	16885
832.051	16717
832.19	16729
832.329	16938
832.467	16763
832.606	16599
832.744	16596
832.883	16752
833.022	16641
833.16	16694
833.299	16679
833.437	16755
833.576	16767
833.714	16641
833.852	16752
833.991	16786
834.129	16755
834.267	16820
834.406	16691
834.544	16828
834.682	16809
834.821	16596
834.959	16923
835.097	16797
835.235	16805
835.373	16812
835.511	16767
835.65	16729
835.788	16698
835.926	16512
836.064	16516
836.202	16500
836.34	16771
836.478	16698
836.615	16516
836.753	16729
836.891	16759
837.029	16683
837.167	16577
837.305	16588
837.443	16478
837.58	16554
837.718	16573
837.856	16447
837.993	16489
838.131	16596
838.269	16470
838.406	16303
838.544	16409
838.681	16139
838.819	16139
838.956	16010
839.094	15994
839.231	16173
839.369	16276
839.506	16455
839.643	16310
839.781	16067
839.918	16063
840.055	16131
840.193	16093
840.33	16048
840.467	16131
840.604	16074
840.742	16284
840.879	15838
841.016	15975
841.153	16010
841.29	16093
841.427	16105
841.564	16082
841.701	16036
841.838	15987
841.975	15975
842.112	15869
842.249	15899
842.385	15774
842.522	16010
842.659	15869
842.796	15975
842.933	15918
843.069	15861
843.206	15922
843.343	15983
843.479	15831
843.616	15873
843.752	15717
843.889	15644
844.025	15819
844.162	15534
844.298	15686
844.435	15663
844.571	15591
844.708	15637
844.844	15835
844.98	15823
845.117	15724
845.253	15629
845.389	15526
845.525	15542
845.661	15584
845.798	15458
845.934	15485
846.07	15462
846.206	15572
846.342	15584
846.478	15382
846.614	15340
846.75	15252
846.886	15241
847.022	15180
847.158	15203
847.294	15195
847.429	15226
847.565	15142
847.701	15469
847.837	14998
847.972	14960
848.108	14994
848.244	14990
848.379	14872
848.515	14800
848.65	14716
848.786	14853
848.921	14804
849.057	14982
849.192	14910
849.328	14842
849.463	14830
849.598	14792
849.734	14693
849.869	14697
850.004	14617
850.14	14697
850.275	14560
850.41	14442
850.545	14499
850.68	14480
850.815	14522
850.95	14518
851.085	14765
851.22	14708
851.355	14602
851.49	14602
851.625	14514
851.76	14480
851.895	14423
852.03	14434
852.165	14571
852.299	14575
852.434	14629
852.569	14571
852.703	14537
852.838	14537
852.973	14655
853.107	14727
853.242	14545
853.376	14408
853.511	14263
853.645	14328
853.78	14583
853.914	14415
854.048	14412
854.183	14431
854.317	14480
854.451	14598
854.585	14358
854.72	14408
854.854	14530
854.988	14332
855.122	14408
855.256	14229
855.39	14476
855.524	14545
855.658	14465
855.792	14473
855.926	14381
856.06	14434
856.194	14480
856.327	14488
856.461	14351
856.595	14339
856.729	14415
856.862	14522
856.996	14377
857.13	14499
857.263	14514
857.397	14522
857.53	14412
857.664	14480
857.797	14476
857.931	14541
858.064	14415
858.197	14552
858.331	14446
858.464	14396
858.597	14339
858.731	14412
858.864	14362
858.997	14431
859.13	14526
859.263	14480
859.396	14457
859.529	14400
859.662	14438
859.795	14370
859.928	14480
860.061	14560
860.194	14587
860.327	14427
860.46	14431
860.592	14537
860.725	14575
860.858	14552
860.99	14415
861.123	14423
861.256	14400
861.388	14355
861.521	14960
861.653	14271
861.786	14282
861.918	14298
862.05	14294
862.183	14389
862.315	14389
862.447	14442
862.58	14370
862.712	14100
862.844	14142
862.976	14278
863.108	14252
863.24	14636
863.372	14062
863.504	14271
863.636	14172
863.768	14218
863.9	14168
864.032	14126
864.164	14206
864.296	14130
864.428	14385
864.559	14332
864.691	14290
864.823	14206
864.954	14259
865.086	14263
865.217	14119
865.349	14172
865.48	14183
865.612	14199
865.743	14415
865.875	14183
866.006	14164
866.137	14195
866.269	14202
866.4	14263
866.531	14237
866.662	14149
866.793	14103
866.924	14149
867.055	14142
867.186	14240
867.317	14119
867.448	14142
867.579	14244
867.71	14103
867.841	14035
867.972	14119
868.103	14126
868.233	14206
868.364	14145
868.495	14301
868.625	14412
868.756	14518
868.886	14366
869.017	14457
869.147	14533
869.278	14545
869.408	14469
869.539	14431
869.669	14465
869.799	14465
869.929	14511
870.06	14587
870.19	14697
870.32	14758
870.45	14689
870.58	14891
870.71	14956
870.84	14925
870.97	14838
871.1	14807
871.23	14998
871.36	15032
871.489	14941
871.619	14933
871.749	14933
871.879	15070
872.008	15214
872.138	15058
872.267	15043
872.397	14864
872.526	14929
872.656	14853
872.785	14914
872.915	15108
873.044	15180
873.173	15047
873.303	15089
873.432	15077
873.561	15169
873.69	15066
873.819	15058
873.948	15142
874.077	15154
874.206	15043
874.335	15154
874.464	15249
874.593	15374
874.722	15344
874.851	15424
874.979	15386
875.108	15424
875.237	15298
875.365	15310
875.494	15416
875.623	15504
875.751	15370
875.88	15393
876.008	15530
876.136	15587
876.265	15785
876.393	15926
876.521	15846
876.65	15812
876.778	15778
876.906	15724
877.034	15747
877.162	15797
877.29	15774
877.418	15808
877.546	15766
877.674	15831
877.802	15759
877.93	15751
878.058	15766
878.185	15789
878.313	15827
878.441	15785
878.568	15641
878.696	15781
878.824	15922
878.951	15854
879.079	16013
879.206	16135
879.333	16010
879.461	15869
879.588	15991
879.715	16006
879.842	16090
879.97	15804
880.097	15694
880.224	15644
880.351	15679
880.478	15690
880.605	15599
880.732	15701
880.859	15842
880.986	15679
881.112	15732
881.239	15622
881.366	15431
881.493	15313
881.619	15237
881.746	15340
881.872	15428
881.999	15336
882.125	15252
882.252	15382
882.378	15386
882.505	15515
882.631	15256
882.757	15039
882.883	15256
883.01	15165
883.136	15135
883.262	14944
883.388	14994
883.514	15218
883.64	15211
883.766	15024
883.892	14929
884.018	15009
884.143	15245
884.269	15100
884.395	14910
884.52	14792
884.646	14849
884.772	14777
884.897	14800
885.023	14830
885.148	14868
885.274	14990
885.399	14952
885.524	14891
885.65	14899
885.775	14826
885.9	14872
886.025	14925
886.15	14933
886.275	14712
886.4	14708
886.525	14788
886.65	14800
886.775	14804
886.9	15024
887.025	15039
887.149	14845
887.274	14621
887.399	14636
887.523	14663
887.648	14617
887.773	14579
887.897	14769
888.021	14731
888.146	14640
888.27	14838
888.395	14815
888.519	14811
888.643	14663
888.767	14754
888.891	14629
889.015	14404
889.139	14552
889.263	14503
889.387	14663
889.511	14663
889.635	14663
889.759	14511
889.883	14537
890.006	14560
890.13	14640
890.254	14446
890.377	14549
890.501	14393
890.624	14317
890.748	14320
890.871	14320
890.995	14237
891.118	14164
891.241	14214
891.364	14164
891.488	14347
891.611	14252
891.734	14301
891.857	14320
891.98	14202
892.103	14278
892.226	14237
892.349	14176
892.471	14100
892.594	14244
892.717	14153
892.839	14138
892.962	14366
893.085	14309
893.207	14202
893.33	14027
893.452	14069
893.575	14339
893.697	14054
893.819	14415
893.941	14450
894.064	14434
894.186	14191
894.308	14145
894.43	14256
894.552	14408
894.674	14275
894.796	14252
894.918	14317
895.04	14278
895.161	14366
895.283	14259
895.405	14347
895.526	14339
895.648	14290
895.769	14286
895.891	14393
896.012	14419
896.134	14446
896.255	14370
896.376	14301
896.498	14370
896.619	14446
896.74	14400
896.861	14549
896.982	14735
897.103	14937
897.224	14746
897.345	14674
897.466	14530
897.587	14537
897.708	14735
897.828	14735
897.949	14579
898.07	14590
898.19	14537
898.311	14765
898.431	14682
898.552	14796
898.672	14754
898.792	14777
898.913	14823
899.033	14670
899.153	14617
899.273	14568
899.393	14625
899.513	14632
899.633	14514
899.753	14590
899.873	14522
899.993	14617
900.113	14598
900.232	14579
900.352	14617
900.472	14545
900.591	14320
900.711	14507
900.83	14446
900.95	14530
901.069	14549
901.189	14431
901.308	14191
901.427	14161
901.546	14065
901.665	14153
901.784	14172
901.904	14008
902.023	13947
902.141	13765
902.26	13780
902.379	13772
902.498	13647
902.617	13616
902.735	13658
902.854	13624
902.973	13571
903.091	13350
903.21	13422
903.328	13438
903.446	13339
903.565	13278
903.683	13308
903.801	13152
903.919	13175
904.038	13285
904.156	13065
904.274	13103
904.392	13042
904.51	13053
904.627	13095
904.745	13183
904.863	13099
904.981	12795
905.098	12722
905.216	12753
905.334	12848
905.451	12757
905.569	12692
905.686	12772
905.803	12696
905.921	12585
906.038	12623
906.155	12589
906.272	12456
906.389	12506
906.506	12407
906.623	12414
906.74	12315
906.857	12228
906.974	12213
907.091	12407
907.208	12544
907.324	12376
907.441	12300
907.557	12060
907.674	12140
907.79	12091
907.907	12095
908.023	12140
908.139	12117
908.256	11988
908.372	11984
908.488	11954
908.604	11916
908.72	11714
908.836	11764
908.952	11802
909.068	11802
909.184	11931
909.3	11908
909.415	11950
909.531	11901
909.647	11646
909.762	11684
909.878	11600
909.993	11653
910.108	11710
910.224	11611
910.339	11592
910.454	11573
910.57	11421
910.685	11391
910.8	11741
910.915	11665
911.03	11532
911.145	11322
911.259	11254
911.374	11303
911.489	11242
911.604	11258
911.718	11083
911.833	11060
911.947	11003
912.062	10919
912.176	11029
912.291	11033
912.405	11075
912.519	11280
912.633	11273
912.748	11166
912.862	11155
912.976	10934
913.09	10820
913.204	10858
913.318	10995
913.431	11094
913.545	10949
913.659	11094
913.772	10968
913.886	10835
914	10812
914.113	11033
914.226	11067
914.34	10885
914.453	10736
914.566	10923
914.68	10733
914.793	10778
914.906	10687
915.019	10565
915.132	10497
915.245	10550
915.358	10653
915.47	10683
915.583	10675
915.696	10584
915.809	10736
915.921	10755
916.034	10523
916.146	10577
916.259	10451
916.371	10645
916.483	10584
916.595	10470
916.708	10634
916.82	10626
916.932	10546
917.044	10436
917.156	10546
917.268	10310
917.38	10436
917.491	10318
917.603	10375
917.715	10447
917.826	10451
917.938	10379
918.049	10318
918.161	10409
918.272	10588
918.384	10561
918.495	10409
918.606	10344
918.717	10207
918.828	10295
918.939	10306
919.05	10215
919.161	10230
919.272	10074
919.383	10105
919.494	10303
919.604	10481
919.715	10382
919.826	10253
919.936	10318
920.047	10363
920.157	10447
920.267	10527
920.378	10390
920.488	10344
920.598	10489
920.708	10656
920.818	10485
920.928	10493
921.038	10698
921.148	10637
921.258	10363
921.368	10287
921.477	10166
921.587	10196
921.697	10025
921.806	10223
921.916	10071
922.025	9949
922.134	9899
922.244	9789
922.353	9934
922.462	9759
922.571	9610
922.68	9504
922.789	9553
922.898	9538
923.007	9507
923.116	9599
923.224	9572
923.333	9542
923.442	9405
923.55	9363
923.659	9386
923.767	9500
923.876	9401
923.984	9507
924.092	9306
924.201	9454
924.309	9439
924.417	9386
924.525	9317
924.633	9435
924.741	10314
924.849	9222
924.956	9321
925.064	9176
925.172	9154
925.279	9112
925.387	9192
925.494	9249
925.602	9393
925.709	9294
925.816	9100
925.924	9165
926.031	9294
926.138	9150
926.245	9260
926.352	9180
926.459	9268
926.566	9294
926.673	9188
926.779	9097
926.886	9039
926.993	8929
927.099	8857
927.206	8910
927.312	8891
927.419	8902
927.525	8979
927.631	8990
927.737	8781
927.843	8815
927.95	8731
928.056	8769
928.162	8830
928.267	8849
928.373	9393
928.479	8887
928.585	8705
928.69	8823
928.796	8796
928.901	8708
929.007	8606
929.112	8701
929.218	8678
929.323	8571
929.428	8575
929.533	8777
929.638	8648
929.743	8629
929.848	8693
929.953	8629
930.058	8476
930.163	8454
930.267	8389
930.372	8598
930.477	8404
930.581	8545
930.685	8488
930.79	8362
930.894	8404
930.998	8313
931.103	8473
931.207	8123
931.311	8024
931.415	7951
931.519	7849
931.623	7898
