Data from test_V78500241_2498.txt Node
Date: Fri Mar 25 14:51:06 CST 2022
User: usil
Spectrometer: V785-0024
Trigger mode: 0
Integration Time (sec): 4.000000E-1
Scans to average: 1
Nonlinearity correction enabled: false
Boxcar width: 0
Storing dark spectrum: false
XAxis mode: Wavelengths
Number of Pixels in Spectrum: 1024
>>>>>Begin Spectral Data<<<<<
801.071	22048
801.214	21949
801.356	21686
801.499	21652
801.641	21408
801.783	21382
801.926	21477
802.068	21378
802.211	21222
802.353	21176
802.496	20921
802.638	20853
802.78	20773
802.923	20815
803.065	20659
803.208	20724
803.35	20811
803.492	20891
803.635	20861
803.777	20705
803.919	20963
804.061	21055
804.204	20819
804.346	20765
804.488	20598
804.63	20655
804.773	20469
804.915	20568
805.057	20754
805.199	20735
805.341	20788
805.483	20739
805.626	20644
805.768	20583
805.91	20701
806.052	20720
806.194	20594
806.336	20785
806.478	20575
806.62	20583
806.762	20670
806.904	20781
807.046	21001
807.188	20944
807.33	20944
807.472	21089
807.614	20906
807.756	20948
807.898	20781
808.04	20796
808.182	20743
808.324	20758
808.465	20731
808.607	20979
808.749	21047
808.891	21085
809.033	21203
809.174	21135
809.316	21100
809.458	21017
809.6	20982
809.741	21093
809.883	21119
810.025	21241
810.166	21203
810.308	21173
810.45	20963
810.591	21066
810.733	20971
810.875	20861
811.016	20796
811.158	20724
811.299	20864
811.441	20876
811.582	20853
811.724	20754
811.865	20716
812.007	20739
812.148	20762
812.29	20792
812.431	20937
812.573	21173
812.714	21294
812.855	21317
812.997	21363
813.138	21504
813.279	21355
813.421	21287
813.562	21287
813.703	21058
813.845	20998
813.986	20735
814.127	20419
814.268	20442
814.41	20351
814.551	20305
814.692	20263
814.833	20248
814.974	20275
815.115	20381
815.256	20119
815.397	20229
815.539	20142
815.68	20020
815.821	20088
815.962	20058
816.103	20027
816.244	19909
816.385	19856
816.526	20001
816.666	19639
816.807	19445
816.948	19491
817.089	19521
817.23	19521
817.371	19510
817.512	19563
817.653	19422
817.793	19529
817.934	19590
818.075	19544
818.216	19449
818.356	19514
818.497	19350
818.638	19179
818.778	19228
818.919	19133
819.06	19160
819.2	19228
819.341	19358
819.481	19266
819.622	19613
819.762	19639
819.903	19624
820.043	19514
820.184	19491
820.324	19449
820.465	19597
820.605	19449
820.746	19441
820.886	19327
821.026	19430
821.167	19392
821.307	19514
821.447	19407
821.588	19278
821.728	19023
821.868	19057
822.008	18867
822.149	18863
822.289	18840
822.429	18627
822.569	18589
822.709	18700
822.849	18441
822.99	18414
823.13	18395
823.27	18334
823.41	18251
823.55	18190
823.69	18182
823.83	18232
823.97	18091
824.11	17851
824.25	17927
824.389	17996
824.529	18030
824.669	17893
824.809	18106
824.949	18007
825.089	17923
825.228	18076
825.368	17748
825.508	17703
825.648	17726
825.787	17764
825.927	17741
826.067	17729
826.206	17695
826.346	17722
826.485	17771
826.625	17707
826.765	17756
826.904	17802
827.044	17589
827.183	17463
827.323	17448
827.462	17395
827.601	17387
827.741	17482
827.88	17429
828.02	17318
828.159	17395
828.298	17417
828.437	17425
828.577	17299
828.716	17615
828.855	17398
828.994	17227
829.134	17189
829.273	17136
829.412	17102
829.551	17045
829.69	17132
829.829	17136
829.968	17216
830.107	17231
830.246	17200
830.385	17124
830.524	17048
830.663	16923
830.802	16881
830.941	16733
831.08	16828
831.219	16771
831.357	16847
831.496	16961
831.635	16710
831.774	16672
831.913	16717
832.051	16668
832.19	16519
832.329	16599
832.467	16497
832.606	16470
832.744	16371
832.883	16417
833.022	16398
833.16	16516
833.299	16474
833.437	16500
833.576	16611
833.714	16424
833.852	16424
833.991	16561
834.129	16470
834.267	16645
834.406	16367
834.544	16481
834.682	16527
834.821	16512
834.959	16691
835.097	16519
835.235	16493
835.373	16531
835.511	16607
835.65	16531
835.788	16432
835.926	16291
836.064	16257
836.202	16246
836.34	16474
836.478	16550
836.615	16352
836.753	16481
836.891	16561
837.029	16481
837.167	16322
837.305	16322
837.443	16421
837.58	16230
837.718	16432
837.856	16268
837.993	16265
838.131	16310
838.269	16116
838.406	16314
838.544	16147
838.681	16002
838.819	15983
838.956	15831
839.094	15854
839.231	15926
839.369	15968
839.506	16219
839.643	16044
839.781	15804
839.918	15812
840.055	15812
840.193	15838
840.33	15869
840.467	15766
840.604	15911
840.742	16166
840.879	15701
841.016	15660
841.153	15751
841.29	15911
841.427	15838
841.564	15880
841.701	15884
841.838	15713
841.975	15739
842.112	15857
842.249	15671
842.385	15724
842.522	15800
842.659	15709
842.796	15686
842.933	15781
843.069	15561
843.206	15534
843.343	15770
843.479	15656
843.616	15641
843.752	15526
843.889	15458
844.025	15644
844.162	15469
844.298	15469
844.435	15329
844.571	15306
844.708	15515
844.844	15595
844.98	15485
845.117	15450
845.253	15466
845.389	15317
845.525	15386
845.661	15325
845.798	15146
845.934	15397
846.07	15252
846.206	15169
846.342	15298
846.478	15230
846.614	15055
846.75	14956
846.886	14979
847.022	15135
847.158	15047
847.294	15001
847.429	14956
847.565	15009
847.701	15195
847.837	14838
847.972	14735
848.108	14792
848.244	14826
848.379	14659
848.515	14655
848.65	14583
848.786	14507
848.921	14575
849.057	14727
849.192	14617
849.328	14724
849.463	14629
849.598	14571
849.734	14499
849.869	14385
850.004	14393
850.14	14503
850.275	14423
850.41	14256
850.545	14298
850.68	14347
850.815	14423
850.95	14320
851.085	14507
851.22	14389
851.355	14442
851.49	14332
851.625	14309
851.76	14351
851.895	14240
852.03	14298
852.165	14355
852.299	14351
852.434	14446
852.569	14419
852.703	14434
852.838	14377
852.973	14476
853.107	14533
853.242	14324
853.376	14229
853.511	14107
853.645	14134
853.78	14328
853.914	14282
854.048	14244
854.183	14259
854.317	14195
854.451	14393
854.585	14233
854.72	14210
854.854	14355
854.988	14199
855.122	14199
855.256	13970
855.39	14271
855.524	14313
855.658	14256
855.792	14309
855.926	14157
856.06	14336
856.194	14423
856.327	14282
856.461	14187
856.595	14180
856.729	14176
856.862	14301
856.996	14309
857.13	14309
857.263	14438
857.397	14309
857.53	14305
857.664	14202
857.797	14225
857.931	14362
858.064	14233
858.197	14434
858.331	14256
858.464	14199
858.597	14130
858.731	14286
858.864	14301
858.997	14157
859.13	14221
859.263	14320
859.396	14298
859.529	14290
859.662	14183
859.795	14206
859.928	14240
860.061	14343
860.194	14400
860.327	14263
860.46	14199
860.592	14336
860.725	14389
860.858	14343
860.99	14119
861.123	14168
861.256	14149
861.388	14237
861.521	14845
861.653	14142
861.786	14024
861.918	14081
862.05	14202
862.183	14225
862.315	14199
862.447	14256
862.58	14138
862.712	14043
862.844	13917
862.976	14046
863.108	14100
863.24	14347
863.372	13947
863.504	14016
863.636	13967
863.768	13951
863.9	14039
864.032	14062
864.164	13967
864.296	14077
864.428	14172
864.559	14111
864.691	14016
864.823	14039
864.954	14084
865.086	14092
865.217	13936
865.349	13947
865.48	13989
865.612	13967
865.743	14046
865.875	14027
866.006	13890
866.137	13970
866.269	13970
866.4	13970
866.531	13970
866.662	13970
866.793	13978
866.924	13837
867.055	14050
867.186	14043
867.317	13917
867.448	13852
867.579	13944
867.71	13902
867.841	13970
867.972	14062
868.103	13997
868.233	14008
868.364	13932
868.495	14103
868.625	14195
868.756	14336
868.886	14199
869.017	14145
869.147	14324
869.278	14419
869.408	14271
869.539	14187
869.669	14317
869.799	14278
869.929	14454
870.06	14381
870.19	14530
870.32	14571
870.45	14629
870.58	14579
870.71	14762
870.84	14762
870.97	14575
871.1	14663
871.23	14758
871.36	14921
871.489	14796
871.619	14800
871.749	14781
871.879	14811
872.008	14910
872.138	14800
872.267	14781
872.397	14636
872.526	14788
872.656	14670
872.785	14724
872.915	14830
873.044	14895
873.173	14826
873.303	14944
873.432	14819
873.561	14921
873.69	15024
873.819	14857
873.948	14921
874.077	14868
874.206	14868
874.335	14868
874.464	15039
874.593	15214
874.722	15157
874.851	15302
874.979	15230
875.108	15192
875.237	15207
875.365	15138
875.494	15195
875.623	15245
875.751	15233
875.88	15272
876.008	15306
876.136	15458
876.265	15713
876.393	15732
876.521	15736
876.65	15705
876.778	15705
876.906	15671
877.034	15488
877.162	15637
877.29	15614
877.418	15587
877.546	15644
877.674	15652
877.802	15622
877.93	15603
878.058	15667
878.185	15545
878.313	15603
878.441	15530
878.568	15500
878.696	15644
878.824	15652
878.951	15732
879.079	15926
879.206	15895
879.333	15823
879.461	15606
879.588	15698
879.715	15884
879.842	15888
879.97	15671
880.097	15511
880.224	15481
880.351	15488
880.478	15450
880.605	15351
880.732	15519
880.859	15675
880.986	15466
881.112	15576
881.239	15462
881.366	15264
881.493	15256
881.619	15203
881.746	15203
881.872	15154
881.999	15116
882.125	15039
882.252	15154
882.378	15169
882.505	15374
882.631	15077
882.757	14956
882.883	15005
883.01	14891
883.136	14868
883.262	14815
883.388	14826
883.514	14918
883.64	14971
883.766	14933
883.892	14769
884.018	14667
884.143	14982
884.269	14880
884.395	14613
884.52	14587
884.646	14697
884.772	14526
884.897	14583
885.023	14663
885.148	14659
885.274	14804
885.399	14735
885.524	14648
885.65	14678
885.775	14712
885.9	14708
886.025	14800
886.15	14758
886.275	14617
886.4	14602
886.525	14735
886.65	14602
886.775	14602
886.9	14849
887.025	14921
887.149	14625
887.274	14473
887.399	14454
887.523	14488
887.648	14415
887.773	14381
887.897	14579
888.021	14663
888.146	14427
888.27	14629
888.395	14610
888.519	14507
888.643	14499
888.767	14579
888.891	14438
889.015	14317
889.139	14366
889.263	14389
889.387	14374
889.511	14507
889.635	14404
889.759	14210
889.883	14332
890.006	14488
890.13	14495
890.254	14298
890.377	14332
890.501	14183
890.624	14142
890.748	14252
890.871	14126
890.995	14012
891.118	13898
891.241	14016
891.364	14027
891.488	14229
891.611	14119
891.734	14134
891.857	14024
891.98	14123
892.103	14180
892.226	14100
892.349	14077
892.471	13955
892.594	13970
892.717	14142
892.839	13993
892.962	13978
893.085	14134
893.207	14065
893.33	14005
893.452	14016
893.575	14126
893.697	14046
893.819	14164
893.941	14237
894.064	14218
894.186	14107
894.308	14062
894.43	14180
894.552	14229
894.674	14199
894.796	14043
894.918	14103
895.04	14145
895.161	14252
895.283	14145
895.405	14039
895.526	14103
895.648	14149
895.769	14134
895.891	14240
896.012	14237
896.134	14252
896.255	14278
896.376	14202
896.498	14263
896.619	14328
896.74	14221
896.861	14301
896.982	14556
897.103	14765
897.224	14526
897.345	14427
897.466	14457
897.587	14552
897.708	14613
897.828	14632
897.949	14457
898.07	14336
898.19	14473
898.311	14670
898.431	14480
898.552	14530
898.672	14769
898.792	14689
898.913	14644
899.033	14454
899.153	14484
899.273	14328
899.393	14423
899.513	14454
899.633	14530
899.753	14556
899.873	14434
899.993	14495
900.113	14404
900.232	14415
900.352	14434
900.472	14374
900.591	14282
900.711	14218
900.83	14180
900.95	14404
901.069	14419
901.189	14191
901.308	13967
901.427	13978
901.546	14024
901.665	14027
901.784	14001
901.904	13841
902.023	13883
902.141	13609
902.26	13540
902.379	13632
902.498	13620
902.617	13491
902.735	13521
902.854	13460
902.973	13457
903.091	13247
903.21	13194
903.328	13316
903.446	13225
903.565	13095
903.683	13099
903.801	13069
903.919	13000
904.038	13122
904.156	12958
904.274	13008
904.392	12939
904.51	12882
904.627	12958
904.745	12954
904.863	13027
904.981	12654
905.098	12665
905.216	12574
905.334	12688
905.451	12593
905.569	12612
905.686	12677
905.803	12563
905.921	12422
906.038	12513
906.155	12414
906.272	12342
906.389	12403
906.506	12224
906.623	12205
906.74	12155
906.857	12087
906.974	12098
907.091	12285
907.208	12319
907.324	12190
907.441	12182
907.557	11984
907.674	11893
907.79	11912
907.907	11878
908.023	12068
908.139	11885
908.256	11980
908.372	11908
908.488	11855
908.604	11737
908.72	11688
908.836	11646
908.952	11691
909.068	11817
909.184	11798
909.3	11764
909.415	11809
909.531	11748
909.647	11433
909.762	11474
909.878	11482
909.993	11490
910.108	11547
910.224	11433
910.339	11467
910.454	11372
910.57	11379
910.685	11280
910.8	11547
910.915	11463
911.03	11402
911.145	11216
911.259	11220
911.374	11155
911.489	11185
911.604	11071
911.718	10892
911.833	10919
911.947	10968
912.062	10805
912.176	10927
912.291	10881
912.405	10900
912.519	11094
912.633	11109
912.748	10980
912.862	10976
912.976	10866
913.09	10736
913.204	10854
913.318	10889
913.431	10908
913.545	10927
913.659	10999
913.772	10869
913.886	10778
914	10626
914.113	10877
914.226	10938
914.34	10771
914.453	10710
914.566	10824
914.68	10592
914.793	10641
914.906	10447
915.019	10466
915.132	10371
915.245	10440
915.358	10493
915.47	10542
915.583	10558
915.696	10573
915.809	10561
915.921	10577
916.034	10440
916.146	10402
916.259	10386
916.371	10561
916.483	10550
916.595	10306
916.708	10405
916.82	10409
916.932	10360
917.044	10394
917.156	10379
917.268	10276
917.38	10291
917.491	10211
917.603	10371
917.715	10398
917.826	10356
917.938	10348
918.049	10185
918.161	10280
918.272	10409
918.384	10432
918.495	10318
918.606	10166
918.717	10139
918.828	10169
918.939	10177
919.05	10124
919.161	10188
919.272	9987
919.383	10074
919.494	10238
919.604	10409
919.715	10230
919.826	10093
919.936	10162
920.047	10230
920.157	10204
920.267	10417
920.378	10242
920.488	10242
920.598	10390
920.708	10512
920.818	10390
920.928	10375
921.038	10516
921.148	10558
921.258	10257
921.368	10200
921.477	10013
921.587	10059
921.697	9949
921.806	10048
921.916	9918
922.025	9732
922.134	9759
922.244	9732
922.353	9740
922.462	9618
922.571	9618
922.68	9481
922.789	9424
922.898	9439
923.007	9428
923.116	9496
923.224	9405
923.333	9431
923.442	9310
923.55	9302
923.659	9405
923.767	9359
923.876	9359
923.984	9458
924.092	9165
924.201	9321
924.309	9340
924.417	9325
924.525	9233
924.633	9268
924.741	10257
924.849	9127
924.956	9268
925.064	9097
925.172	9032
925.279	9058
925.387	9112
925.494	9169
925.602	9184
925.709	9169
925.816	8979
925.924	9074
926.031	9268
926.138	9135
926.245	9165
926.352	9039
926.459	9100
926.566	9188
926.673	9077
926.779	9013
926.886	8921
926.993	8811
927.099	8819
927.206	8838
927.312	8788
927.419	8830
927.525	8826
927.631	8891
927.737	8705
927.843	8693
927.95	8560
928.056	8686
928.162	8708
928.267	8758
928.373	9310
928.479	8781
928.585	8644
928.69	8701
928.796	8743
928.901	8629
929.007	8518
929.112	8621
929.218	8530
929.323	8492
929.428	8518
929.533	8598
929.638	8473
929.743	8530
929.848	8533
929.953	8560
930.058	8526
930.163	8214
930.267	8336
930.372	8423
930.477	8263
930.581	8571
930.685	8355
930.79	8237
930.894	8294
930.998	8240
931.103	8469
931.207	8035
931.311	8046
931.415	7871
931.519	7750
931.623	7677
