Data from test_V78500241_608.txt Node
Date: Fri Mar 25 14:37:57 CST 2022
User: usil
Spectrometer: V785-0024
Trigger mode: 0
Integration Time (sec): 4.000000E-1
Scans to average: 1
Nonlinearity correction enabled: false
Boxcar width: 0
Storing dark spectrum: false
XAxis mode: Wavelengths
Number of Pixels in Spectrum: 1024
>>>>>Begin Spectral Data<<<<<
801.071	27968
801.214	27987
801.356	27656
801.499	27492
801.641	27420
801.783	27344
801.926	27374
802.068	27378
802.211	27298
802.353	27100
802.496	27093
802.638	26933
802.78	27062
802.923	26963
803.065	26864
803.208	26937
803.35	26940
803.492	27093
803.635	27108
803.777	27009
803.919	26994
804.061	27393
804.204	27268
804.346	26914
804.488	27116
804.63	27089
804.773	27043
804.915	27161
805.057	27310
805.199	27226
805.341	27420
805.483	27458
805.626	27466
805.768	27378
805.91	27625
806.052	27766
806.194	27690
806.336	28002
806.478	28032
806.62	28086
806.762	28390
806.904	28702
807.046	29022
807.188	29417
807.33	29707
807.472	30030
807.614	30296
807.756	31175
807.898	31849
808.04	33017
808.182	34531
808.324	36235
808.465	38450
808.607	40653
808.749	42711
808.891	43940
809.033	44081
809.174	42665
809.316	40809
809.458	38229
809.6	35885
809.741	34040
809.883	32511
810.025	31594
810.166	30768
810.308	30319
810.45	29870
810.591	29379
810.733	28923
810.875	28733
811.016	28421
811.158	28268
811.299	28352
811.441	28424
811.582	28166
811.724	28032
811.865	27850
812.007	27720
812.148	27660
812.29	27755
812.431	27812
812.573	27926
812.714	27922
812.855	27987
812.997	27991
813.138	28196
813.279	28086
813.421	27911
813.562	27747
813.703	27736
813.845	27504
813.986	27348
814.127	27024
814.268	26800
814.41	26781
814.551	26868
814.692	26754
814.833	26617
814.974	26693
815.115	26659
815.256	26545
815.397	26328
815.539	26526
815.68	26450
815.821	26317
815.962	26275
816.103	26286
816.244	26214
816.385	26065
816.526	26069
816.666	25807
816.807	25552
816.948	25894
817.089	25769
817.23	25696
817.371	25571
817.512	25658
817.653	25540
817.793	25548
817.934	25597
818.075	25651
818.216	25563
818.356	25525
818.497	25396
818.638	25259
818.778	25278
818.919	25247
819.06	25278
819.2	25419
819.341	25495
819.481	25430
819.622	25567
819.762	25791
819.903	25791
820.043	25567
820.184	25491
820.324	25438
820.465	25575
820.605	25635
820.746	25350
820.886	25331
821.026	25282
821.167	25422
821.307	25586
821.447	25232
821.588	25110
821.728	25042
821.868	24795
822.008	24825
822.149	24886
822.289	24791
822.429	24517
822.569	24391
822.709	24308
822.849	24106
822.99	24174
823.13	24148
823.27	23980
823.41	23923
823.55	23863
823.69	24026
823.83	23878
823.97	23996
824.11	23851
824.25	23729
824.389	23779
824.529	23802
824.669	23676
824.809	23843
824.949	23790
825.089	23802
825.228	23752
825.368	23634
825.508	23627
825.648	23436
825.787	23406
825.927	23467
826.067	23425
826.206	23448
826.346	23566
826.485	23570
826.625	23573
826.765	23642
826.904	23429
827.044	23254
827.183	23227
827.323	23060
827.462	23216
827.601	23067
827.741	23193
827.88	23094
828.02	23006
828.159	23124
828.298	23170
828.437	23151
828.577	23067
828.716	23212
828.855	22927
828.994	22949
829.134	22839
829.273	22683
829.412	22694
829.551	22729
829.69	22759
829.829	22885
829.968	22831
830.107	22904
830.246	22820
830.385	22679
830.524	22653
830.663	22687
830.802	22542
830.941	22478
831.08	22398
831.219	22459
831.357	22519
831.496	22489
831.635	22310
831.774	22329
831.913	22360
832.051	22261
832.19	22105
832.329	22200
832.467	22101
832.606	22112
832.744	22158
832.883	22246
833.022	22219
833.16	22367
833.299	22405
833.437	22519
833.576	22668
833.714	22733
833.852	22736
833.991	22889
834.129	23044
834.267	22984
834.406	22911
834.544	22847
834.682	22774
834.821	22672
834.959	22805
835.097	22584
835.235	22443
835.373	22314
835.511	22371
835.65	22162
835.788	22101
835.926	21945
836.064	21797
836.202	21915
836.34	21964
836.478	21956
836.615	21918
836.753	21922
836.891	22040
837.029	21945
837.167	21884
837.305	21739
837.443	21816
837.58	21762
837.718	21705
837.856	21800
837.993	21679
838.131	21842
838.269	21614
838.406	21610
838.544	21519
838.681	21416
838.819	21298
838.956	21161
839.094	21138
839.231	21146
839.369	21310
839.506	21420
839.643	21302
839.781	21214
839.918	21051
840.055	21180
840.193	21005
840.33	20998
840.467	21184
840.604	21146
840.742	21169
840.879	20887
841.016	20941
841.153	20956
841.29	21180
841.427	21020
841.564	20944
841.701	20998
841.838	21020
841.975	20899
842.112	20925
842.249	20849
842.385	20815
842.522	21043
842.659	20838
842.796	20971
842.933	20895
843.069	20880
843.206	20887
843.343	20956
843.479	20887
843.616	21093
843.752	20724
843.889	20716
844.025	21039
844.162	20990
844.298	21066
844.435	21074
844.571	21127
844.708	21458
844.844	21751
844.98	22044
845.117	22356
845.253	23067
845.389	24285
845.525	26743
845.661	30631
845.798	35512
845.934	39275
846.07	40839
846.206	39869
846.342	36738
846.478	31955
846.614	27739
846.75	24875
846.886	23109
847.022	22314
847.158	21507
847.294	21146
847.429	20823
847.565	20590
847.701	20701
847.837	20237
847.972	20138
848.108	20225
848.244	20183
848.379	19932
848.515	19769
848.65	19849
848.786	19750
848.921	19830
849.057	19845
849.192	19864
849.328	19643
849.463	19685
849.598	19715
849.734	19419
849.869	19460
850.004	19396
850.14	19483
850.275	19464
850.41	19388
850.545	19293
850.68	19240
850.815	19434
850.95	19407
851.085	19597
851.22	19529
851.355	19377
851.49	19331
851.625	19346
851.76	19312
851.895	19301
852.03	19209
852.165	19339
852.299	19426
852.434	19434
852.569	19411
852.703	19388
852.838	19518
852.973	19563
853.107	19571
853.242	19483
853.376	19369
853.511	19327
853.645	19274
853.78	19552
853.914	19491
854.048	19384
854.183	19453
854.317	19487
854.451	19616
854.585	19521
854.72	19472
854.854	19480
854.988	19434
855.122	19369
855.256	19129
855.39	19487
855.524	19297
855.658	19396
855.792	19285
855.926	19339
856.06	19270
856.194	19225
856.327	19255
856.461	19148
856.595	19198
856.729	19221
856.862	19285
856.996	19278
857.13	19278
857.263	19270
857.397	19217
857.53	19164
857.664	19190
857.797	19194
857.931	19202
858.064	19156
858.197	19217
858.331	19084
858.464	19099
858.597	19091
858.731	19133
858.864	19065
858.997	19038
859.13	19126
859.263	19133
859.396	19126
859.529	19114
859.662	19004
859.795	18966
859.928	19072
860.061	19320
860.194	19069
860.327	19012
860.46	19031
860.592	19084
860.725	19137
860.858	19129
860.99	19175
861.123	18970
861.256	18909
861.388	19019
861.521	19780
861.653	18928
861.786	18924
861.918	18897
862.05	18935
862.183	19050
862.315	19126
862.447	19050
862.58	19008
862.712	18856
862.844	18772
862.976	18776
863.108	18821
863.24	19084
863.372	18738
863.504	18749
863.636	18745
863.768	18829
863.9	18677
864.032	18620
864.164	18658
864.296	18764
864.428	18798
864.559	18787
864.691	18734
864.823	18681
864.954	18730
865.086	18658
865.217	18654
865.349	18631
865.48	18684
865.612	18509
865.743	18764
865.875	18692
866.006	18654
866.137	18521
866.269	18757
866.4	18612
866.531	18639
866.662	18513
866.793	18506
866.924	18616
867.055	18604
867.186	18700
867.317	18601
867.448	18445
867.579	18536
867.71	18563
867.841	18639
867.972	18585
868.103	18559
868.233	18612
868.364	18669
868.495	18601
868.625	18848
868.756	18939
868.886	18802
869.017	18844
869.147	18920
869.278	18973
869.408	18840
869.539	18871
869.669	18856
869.799	18844
869.929	19057
870.06	18970
870.19	19198
870.32	19228
870.45	19236
870.58	19209
870.71	19411
870.84	19316
870.97	19304
871.1	19274
871.23	19434
871.36	19457
871.489	19350
871.619	19537
871.749	19480
871.879	19613
872.008	19658
872.138	19658
872.267	19544
872.397	19274
872.526	19362
872.656	19491
872.785	19377
872.915	19643
873.044	19693
873.173	19807
873.303	19681
873.432	19757
873.561	19811
873.69	19826
873.819	19685
873.948	19860
874.077	19799
874.206	19780
874.335	19734
874.464	19951
874.593	20195
874.722	20027
874.851	20324
874.979	20164
875.108	20221
875.237	20142
875.365	20161
875.494	20195
875.623	20533
875.751	20301
875.88	20434
876.008	20450
876.136	20590
876.265	20914
876.393	21020
876.521	20960
876.65	20963
876.778	21062
876.906	20994
877.034	20990
877.162	21096
877.29	21100
877.418	21157
877.546	21386
877.674	21389
877.802	21466
877.93	21656
878.058	21622
878.185	21690
878.313	22029
878.441	22124
878.568	22318
878.696	22869
878.824	23402
878.951	24171
879.079	25419
879.206	26921
879.333	28344
879.461	29600
879.588	30448
879.715	30334
879.842	29767
879.97	28242
880.097	26781
880.224	25499
880.351	24852
880.478	24136
880.605	23634
880.732	23421
880.859	23474
880.986	23124
881.112	23197
881.239	22965
881.366	22877
881.493	22729
881.619	22596
881.746	22622
881.872	22774
881.999	22725
882.125	22618
882.252	22797
882.378	22809
882.505	22949
882.631	22702
882.757	22557
882.883	22618
883.01	22626
883.136	22535
883.262	22447
883.388	22390
883.514	22580
883.64	22577
883.766	22535
883.892	22405
884.018	22409
884.143	22478
884.269	22637
884.395	22314
884.52	22310
884.646	22329
884.772	22325
884.897	22207
885.023	22299
885.148	22352
885.274	22333
885.399	22310
885.524	22051
885.65	22067
885.775	21915
885.9	21793
886.025	21915
886.15	21606
886.275	21504
886.4	21329
886.525	21336
886.65	21222
886.775	21028
886.9	21135
887.025	21176
887.149	20944
887.274	20819
887.399	20594
887.523	20556
887.648	20457
887.773	20324
887.897	20537
888.021	20362
888.146	20180
888.27	20393
888.395	20290
888.519	20309
888.643	20233
888.767	20244
888.891	20058
889.015	19871
889.139	19883
889.263	19753
889.387	19928
889.511	20031
889.635	19936
889.759	19807
889.883	19818
890.006	19643
890.13	19784
890.254	19521
890.377	19613
890.501	19392
890.624	19438
890.748	19430
890.871	19247
890.995	19084
891.118	19110
891.241	19080
891.364	18989
891.488	19202
891.611	19012
891.734	19095
891.857	19156
891.98	19095
892.103	19053
892.226	19000
892.349	18924
892.471	18821
892.594	18852
892.717	18844
892.839	18715
892.962	18840
893.085	18764
893.207	18715
893.33	18631
893.452	18745
893.575	18757
893.697	18734
893.819	18806
893.941	18848
894.064	18757
894.186	18620
894.308	18506
894.43	18738
894.552	18631
894.674	18646
894.796	18486
894.918	18464
895.04	18445
895.161	18445
895.283	18570
895.405	18334
895.526	18464
895.648	18448
895.769	18441
895.891	18479
896.012	18471
896.134	18490
896.255	18517
896.376	18350
896.498	18426
896.619	18445
896.74	18433
896.861	18574
896.982	18806
897.103	18856
897.224	18673
897.345	18570
897.466	18513
897.587	18715
897.708	18757
897.828	18563
897.949	18574
898.07	18426
898.19	18544
898.311	18604
898.431	18642
898.552	18506
898.672	18779
898.792	18650
898.913	18661
899.033	18494
899.153	18426
899.273	18315
899.393	18361
899.513	18376
899.633	18418
899.753	18418
899.873	18319
899.993	18410
900.113	18407
900.232	18357
900.352	18357
900.472	18296
900.591	18239
900.711	18106
900.83	18133
900.95	18311
901.069	18277
901.189	18114
901.308	17870
901.427	17802
901.546	17790
901.665	17748
901.784	17764
901.904	17592
902.023	17402
902.141	17356
902.26	17311
902.379	17318
902.498	17181
902.617	17261
902.735	17242
902.854	17292
902.973	17143
903.091	16987
903.21	16908
903.328	16839
903.446	16801
903.565	16774
903.683	16653
903.801	16497
903.919	16698
904.038	16573
904.156	16443
904.274	16538
904.392	16440
904.51	16447
904.627	16470
904.745	16428
904.863	16360
904.981	16242
905.098	16078
905.216	16048
905.334	16090
905.451	16188
905.569	16090
905.686	16010
905.803	16090
905.921	15865
906.038	15819
906.155	15850
906.272	15762
906.389	15766
906.506	15530
906.623	15549
906.74	15603
906.857	15523
906.974	15496
907.091	15584
907.208	15644
907.324	15682
907.441	15439
907.557	15367
907.674	15226
907.79	15218
907.907	15272
908.023	15370
908.139	15180
908.256	15199
908.372	15157
908.488	15127
908.604	15081
908.72	15017
908.836	14979
908.952	14948
909.068	15051
909.184	15089
909.3	14956
909.415	15051
909.531	15001
909.647	14800
909.762	14640
909.878	14678
909.993	14834
910.108	14758
910.224	14648
910.339	14617
910.454	14587
910.57	14556
910.685	14469
910.8	14777
910.915	14670
911.03	14518
911.145	14324
911.259	14282
911.374	14313
911.489	14214
911.604	14214
911.718	14123
911.833	14035
911.947	13993
912.062	13894
912.176	13936
912.291	14039
912.405	14107
912.519	14240
912.633	14244
912.748	14138
912.862	14054
912.976	13906
913.09	13830
913.204	13818
913.318	13772
913.431	13989
913.545	14031
913.659	14035
913.772	13932
913.886	13750
914	13742
914.113	13795
914.226	13940
914.34	13830
914.453	13693
914.566	13788
914.68	13700
914.793	13567
914.906	13518
915.019	13411
915.132	13449
915.245	13362
915.358	13381
915.47	13411
915.583	13373
915.696	13537
915.809	13502
915.921	13533
916.034	13392
916.146	13331
916.259	13324
916.371	13415
916.483	13365
916.595	13293
916.708	13346
916.82	13426
916.932	13384
917.044	13320
917.156	13274
917.268	13133
917.38	13270
917.491	13046
917.603	13190
917.715	13308
917.826	13304
917.938	13072
918.049	12970
918.161	13080
918.272	13217
918.384	13190
918.495	13133
918.606	12924
918.717	12943
918.828	12913
918.939	12890
919.05	12825
919.161	12932
919.272	12684
919.383	12840
919.494	12863
919.604	13175
919.715	12962
919.826	12757
919.936	12802
920.047	13000
920.157	12859
920.267	13034
920.378	12939
920.488	12798
920.598	13103
920.708	13168
920.818	13038
920.928	12966
921.038	13168
921.148	13152
921.258	12817
921.368	12738
921.477	12601
921.587	12585
921.697	12574
921.806	12601
921.916	12547
922.025	12281
922.134	12266
922.244	12216
922.353	12266
922.462	12171
922.571	12022
922.68	11946
922.789	11836
922.898	11897
923.007	11954
923.116	11935
923.224	11920
923.333	11920
923.442	11828
923.55	11783
923.659	11805
923.767	11802
923.876	11783
923.984	11828
924.092	11665
924.201	11699
924.309	11649
924.417	11676
924.525	11672
924.633	11630
924.741	12429
924.849	11482
924.956	11627
925.064	11455
925.172	11410
925.279	11433
925.387	11577
925.494	11433
925.602	11581
925.709	11509
925.816	11436
925.924	11429
926.031	11577
926.138	11353
926.245	11387
926.352	11288
926.459	11429
926.566	11524
926.673	11280
926.779	11208
926.886	11254
926.993	11037
927.099	11075
927.206	11075
927.312	11006
927.419	11136
927.525	10987
927.631	11136
927.737	10999
927.843	10949
927.95	10820
928.056	10847
928.162	10904
928.267	10961
928.373	11535
928.479	10972
928.585	10801
928.69	10919
928.796	10949
928.901	10740
929.007	10653
929.112	10771
929.218	10721
929.323	10683
929.428	10672
929.533	10793
929.638	10599
929.743	10706
929.848	10584
929.953	10634
930.058	10538
930.163	10371
930.267	10398
930.372	10493
930.477	10363
930.581	10607
930.685	10447
930.79	10325
930.894	10360
930.998	10284
931.103	10413
931.207	10074
931.311	9975
931.415	9941
931.519	9724
931.623	9740
