Data from test_V78500241_2094.txt Node
Date: Fri Mar 25 14:48:17 CST 2022
User: usil
Spectrometer: V785-0024
Trigger mode: 0
Integration Time (sec): 4.000000E-1
Scans to average: 1
Nonlinearity correction enabled: false
Boxcar width: 0
Storing dark spectrum: false
XAxis mode: Wavelengths
Number of Pixels in Spectrum: 1024
>>>>>Begin Spectral Data<<<<<
801.071	22044
801.214	21956
801.356	21759
801.499	21641
801.641	21504
801.783	21572
801.926	21545
802.068	21363
802.211	21370
802.353	21169
802.496	21062
802.638	20929
802.78	20906
802.923	20853
803.065	20758
803.208	20758
803.35	20857
803.492	20986
803.635	20986
803.777	20781
803.919	20887
804.061	21188
804.204	20811
804.346	20613
804.488	20689
804.63	20891
804.773	20739
804.915	20800
805.057	20918
805.199	20682
805.341	20868
805.483	20777
805.626	20868
805.768	20731
805.91	20849
806.052	20674
806.194	20697
806.336	20834
806.478	20765
806.62	20686
806.762	20648
806.904	20902
807.046	21089
807.188	21024
807.33	21024
807.472	21070
807.614	20963
807.756	20864
807.898	20990
808.04	20781
808.182	20826
808.324	20868
808.465	20857
808.607	21116
808.749	21108
808.891	21275
809.033	21184
809.174	21108
809.316	21070
809.458	21131
809.6	21146
809.741	21226
809.883	21135
810.025	21203
810.166	21279
810.308	21283
810.45	21142
810.591	21112
810.733	20880
810.875	20941
811.016	20876
811.158	20773
811.299	21013
811.441	21020
811.582	20960
811.724	20918
811.865	20921
812.007	20857
812.148	20804
812.29	20819
812.431	21096
812.573	21214
812.714	21264
812.855	21424
812.997	21431
813.138	21576
813.279	21462
813.421	21481
813.562	21230
813.703	21108
813.845	21070
813.986	20815
814.127	20602
814.268	20404
814.41	20434
814.551	20461
814.692	20488
814.833	20476
814.974	20427
815.115	20415
815.256	20370
815.397	20286
815.539	20370
815.68	20145
815.821	20126
815.962	20149
816.103	20058
816.244	20073
816.385	19936
816.526	19932
816.666	19788
816.807	19552
816.948	19609
817.089	19681
817.23	19632
817.371	19529
817.512	19472
817.653	19495
817.793	19556
817.934	19582
818.075	19533
818.216	19514
818.356	19689
818.497	19308
818.638	19285
818.778	19244
818.919	19244
819.06	19255
819.2	19430
819.341	19388
819.481	19453
819.622	19525
819.762	19750
819.903	19575
820.043	19544
820.184	19552
820.324	19537
820.465	19651
820.605	19590
820.746	19529
820.886	19426
821.026	19422
821.167	19491
821.307	19594
821.447	19457
821.588	19278
821.728	19217
821.868	19023
822.008	19023
822.149	18977
822.289	18920
822.429	18646
822.569	18658
822.709	18620
822.849	18384
822.99	18433
823.13	18471
823.27	18346
823.41	18292
823.55	18133
823.69	18285
823.83	18205
823.97	18190
824.11	18034
824.25	18045
824.389	18003
824.529	18098
824.669	18015
824.809	18140
824.949	18091
825.089	18152
825.228	18060
825.368	17809
825.508	17760
825.648	17809
825.787	17863
825.927	17824
826.067	17687
826.206	17786
826.346	17752
826.485	17802
826.625	17840
826.765	17904
826.904	17733
827.044	17627
827.183	17501
827.323	17368
827.462	17524
827.601	17493
827.741	17467
827.88	17524
828.02	17376
828.159	17452
828.298	17410
828.437	17440
828.577	17414
828.716	17623
828.855	17414
828.994	17337
829.134	17178
829.273	17284
829.412	17212
829.551	17185
829.69	17223
829.829	17250
829.968	17181
830.107	17284
830.246	17223
830.385	17220
830.524	17121
830.663	17052
830.802	17018
830.941	16892
831.08	16771
831.219	16934
831.357	16904
831.496	17029
831.635	16824
831.774	16736
831.913	16752
832.051	16611
832.19	16691
832.329	16649
832.467	16561
832.606	16622
832.744	16561
832.883	16584
833.022	16497
833.16	16607
833.299	16687
833.437	16660
833.576	16603
833.714	16603
833.852	16481
833.991	16698
834.129	16592
834.267	16634
834.406	16660
834.544	16653
834.682	16637
834.821	16649
834.959	16850
835.097	16607
835.235	16713
835.373	16527
835.511	16664
835.65	16478
835.788	16462
835.926	16443
836.064	16310
836.202	16341
836.34	16523
836.478	16538
836.615	16405
836.753	16504
836.891	16622
837.029	16580
837.167	16542
837.305	16428
837.443	16390
837.58	16390
837.718	16504
837.856	16432
837.993	16405
838.131	16470
838.269	16352
838.406	16318
838.544	16169
838.681	16017
838.819	16044
838.956	15865
839.094	15911
839.231	15983
839.369	16044
839.506	16432
839.643	16162
839.781	16040
839.918	15873
840.055	15918
840.193	15895
840.33	15831
840.467	15945
840.604	15903
840.742	16188
840.879	15682
841.016	15888
841.153	15831
841.29	16055
841.427	15865
841.564	15922
841.701	15918
841.838	15888
841.975	15842
842.112	15869
842.249	15816
842.385	15682
842.522	15979
842.659	15793
842.796	15584
842.933	15789
843.069	15648
843.206	15793
843.343	15842
843.479	15671
843.616	15743
843.752	15572
843.889	15534
844.025	15599
844.162	15473
844.298	15610
844.435	15492
844.571	15538
844.708	15587
844.844	15671
844.98	15717
845.117	15675
845.253	15454
845.389	15428
845.525	15458
845.661	15389
845.798	15275
845.934	15321
846.07	15214
846.206	15310
846.342	15351
846.478	15313
846.614	15135
846.75	14994
846.886	14929
847.022	15112
847.158	15039
847.294	15077
847.429	15138
847.565	15173
847.701	15252
847.837	14811
847.972	14849
848.108	14979
848.244	14933
848.379	14724
848.515	14678
848.65	14590
848.786	14712
848.921	14678
849.057	14838
849.192	14765
849.328	14701
849.463	14746
849.598	14659
849.734	14629
849.869	14492
850.004	14469
850.14	14522
850.275	14503
850.41	14377
850.545	14313
850.68	14518
850.815	14457
850.95	14537
851.085	14613
851.22	14492
851.355	14545
851.49	14366
851.625	14385
851.76	14465
851.895	14351
852.03	14313
852.165	14446
852.299	14488
852.434	14507
852.569	14389
852.703	14564
852.838	14583
852.973	14629
853.107	14522
853.242	14431
853.376	14267
853.511	14153
853.645	14324
853.78	14480
853.914	14355
854.048	14332
854.183	14244
854.317	14290
854.451	14514
854.585	14271
854.72	14244
854.854	14400
854.988	14256
855.122	14301
855.256	14062
855.39	14374
855.524	14404
855.658	14313
855.792	14358
855.926	14336
856.06	14404
856.194	14324
856.327	14282
856.461	14168
856.595	14229
856.729	14271
856.862	14465
856.996	14415
857.13	14385
857.263	14389
857.397	14434
857.53	14298
857.664	14404
857.797	14370
857.931	14431
858.064	14396
858.197	14423
858.331	14336
858.464	14218
858.597	14271
858.731	14240
858.864	14244
858.997	14248
859.13	14263
859.263	14370
859.396	14351
859.529	14214
859.662	14317
859.795	14225
859.928	14343
860.061	14495
860.194	14556
860.327	14358
860.46	14278
860.592	14564
860.725	14465
860.858	14415
860.99	14309
861.123	14187
861.256	14305
861.388	14343
861.521	14868
861.653	14195
861.786	14153
861.918	14153
862.05	14180
862.183	14332
862.315	14355
862.447	14396
862.58	14225
862.712	14031
862.844	14050
862.976	14149
863.108	14077
863.24	14518
863.372	13917
863.504	14046
863.636	14096
863.768	14096
863.9	14073
864.032	14012
864.164	14008
864.296	14031
864.428	14221
864.559	14134
864.691	14233
864.823	14187
864.954	14153
865.086	14126
865.217	14058
865.349	14115
865.48	14115
865.612	14100
865.743	14225
865.875	14065
866.006	14119
866.137	13963
866.269	13993
866.4	14039
866.531	14024
866.662	13967
866.793	14081
866.924	14100
867.055	13993
867.186	14054
867.317	13997
867.448	14005
867.579	13997
867.71	14039
867.841	13955
867.972	14008
868.103	14103
868.233	14077
868.364	14100
868.495	14142
868.625	14237
868.756	14351
868.886	14256
869.017	14328
869.147	14423
869.278	14419
869.408	14275
869.539	14298
869.669	14343
869.799	14286
869.929	14480
870.06	14434
870.19	14689
870.32	14651
870.45	14682
870.58	14651
870.71	14883
870.84	14899
870.97	14655
871.1	14834
871.23	14895
871.36	14834
871.489	14845
871.619	14971
871.749	14864
871.879	14963
872.008	15047
872.138	14849
872.267	14895
872.397	14883
872.526	14670
872.656	14796
872.785	14735
872.915	14960
873.044	14990
873.173	14921
873.303	14925
873.432	14883
873.561	15047
873.69	14952
873.819	15089
873.948	15036
874.077	15047
874.206	14929
874.335	14998
874.464	15104
874.593	15237
874.722	15275
874.851	15336
874.979	15252
875.108	15310
875.237	15214
875.365	15249
875.494	15287
875.623	15363
875.751	15192
875.88	15230
876.008	15348
876.136	15492
876.265	15656
876.393	15846
876.521	15838
876.65	15694
876.778	15720
876.906	15717
877.034	15625
877.162	15759
877.29	15618
877.418	15736
877.546	15789
877.674	15679
877.802	15679
877.93	15652
878.058	15690
878.185	15572
878.313	15629
878.441	15774
878.568	15557
878.696	15694
878.824	15762
878.951	15701
879.079	15823
879.206	16116
879.333	15998
879.461	15812
879.588	15850
879.715	15823
879.842	15968
879.97	15755
880.097	15530
880.224	15466
880.351	15610
880.478	15530
880.605	15458
880.732	15557
880.859	15766
880.986	15641
881.112	15633
881.239	15431
881.366	15378
881.493	15180
881.619	15245
881.746	15192
881.872	15161
881.999	15241
882.125	15188
882.252	15233
882.378	15214
882.505	15389
882.631	15142
882.757	15020
882.883	15036
883.01	15089
883.136	14956
883.262	14883
883.388	14796
883.514	14982
883.64	15108
883.766	14830
883.892	14937
884.018	14895
884.143	15051
884.269	15085
884.395	14674
884.52	14716
884.646	14724
884.772	14667
884.897	14579
885.023	14667
885.148	14800
885.274	14830
885.399	14807
885.524	14754
885.65	14758
885.775	14750
885.9	14556
886.025	14849
886.15	14754
886.275	14743
886.4	14636
886.525	14598
886.65	14632
886.775	14564
886.9	14765
887.025	14956
887.149	14731
887.274	14587
887.399	14518
887.523	14419
887.648	14495
887.773	14533
887.897	14568
888.021	14648
888.146	14537
888.27	14693
888.395	14610
888.519	14564
888.643	14644
888.767	14670
888.891	14511
889.015	14415
889.139	14499
889.263	14415
889.387	14533
889.511	14575
889.635	14583
889.759	14393
889.883	14404
890.006	14484
890.13	14503
890.254	14362
890.377	14480
890.501	14187
890.624	14176
890.748	14206
890.871	14271
890.995	14058
891.118	14024
891.241	14183
891.364	14119
891.488	14221
891.611	14142
891.734	14069
891.857	14081
891.98	14149
892.103	14199
892.226	14149
892.349	14138
892.471	13967
892.594	14065
892.717	14103
892.839	14123
892.962	14111
893.085	14225
893.207	14145
893.33	14016
893.452	13997
893.575	14218
893.697	14119
893.819	14229
893.941	14301
894.064	14358
894.186	14126
894.308	14092
894.43	14180
894.552	14328
894.674	14225
894.796	14176
894.918	14233
895.04	14062
895.161	14214
895.283	14210
895.405	14157
895.526	14134
895.648	14221
895.769	14199
895.891	14290
896.012	14301
896.134	14240
896.255	14275
896.376	14278
896.498	14229
896.619	14294
896.74	14214
896.861	14347
896.982	14629
897.103	14712
897.224	14575
897.345	14530
897.466	14469
897.587	14514
897.708	14632
897.828	14640
897.949	14495
898.07	14385
898.19	14469
898.311	14716
898.431	14514
898.552	14610
898.672	14785
898.792	14674
898.913	14724
899.033	14625
899.153	14473
899.273	14400
899.393	14465
899.513	14507
899.633	14457
899.753	14537
899.873	14549
899.993	14454
900.113	14400
900.232	14579
900.352	14446
900.472	14393
900.591	14343
900.711	14408
900.83	14271
900.95	14450
901.069	14419
901.189	14275
901.308	14134
901.427	14005
901.546	14100
901.665	14134
901.784	14077
901.904	13940
902.023	13841
902.141	13685
902.26	13636
902.379	13597
902.498	13537
902.617	13674
902.735	13594
902.854	13601
902.973	13480
903.091	13358
903.21	13171
903.328	13312
903.446	13198
903.565	13244
903.683	13225
903.801	13175
903.919	13114
904.038	13110
904.156	12970
904.274	13099
904.392	13004
904.51	12928
904.627	13000
904.745	13084
904.863	13057
904.981	12745
905.098	12688
905.216	12631
905.334	12688
905.451	12589
905.569	12620
905.686	12639
905.803	12707
905.921	12528
906.038	12570
906.155	12570
906.272	12410
906.389	12395
906.506	12235
906.623	12247
906.74	12350
906.857	12186
906.974	12232
907.091	12338
907.208	12330
907.324	12334
907.441	12152
907.557	11980
907.674	11977
907.79	11977
907.907	12079
908.023	12060
908.139	11973
908.256	11977
908.372	11965
908.488	11855
908.604	11836
908.72	11665
908.836	11794
908.952	11707
909.068	11794
909.184	11904
909.3	11794
909.415	11783
909.531	11760
909.647	11509
909.762	11543
909.878	11444
909.993	11581
910.108	11493
910.224	11509
910.339	11577
910.454	11433
910.57	11368
910.685	11337
910.8	11547
910.915	11573
911.03	11429
911.145	11277
911.259	11269
911.374	11250
911.489	11170
911.604	11143
911.718	10934
911.833	11014
911.947	10949
912.062	10767
912.176	10961
912.291	11086
912.405	11025
912.519	11242
912.633	11193
912.748	11071
912.862	11048
912.976	10774
913.09	10725
913.204	10831
913.318	10873
913.431	10987
913.545	10984
913.659	11014
913.772	10873
913.886	10759
914	10714
914.113	10793
914.226	10847
914.34	10816
914.453	10649
914.566	10828
914.68	10725
914.793	10733
914.906	10588
915.019	10417
915.132	10474
915.245	10363
915.358	10519
915.47	10508
915.583	10561
915.696	10641
915.809	10664
915.921	10748
916.034	10375
916.146	10432
916.259	10394
916.371	10565
916.483	10474
916.595	10440
916.708	10371
916.82	10443
916.932	10402
917.044	10363
917.156	10341
917.268	10249
917.38	10333
917.491	10265
917.603	10356
917.715	10348
917.826	10375
917.938	10284
918.049	10253
918.161	10382
918.272	10497
918.384	10497
918.495	10344
918.606	10223
918.717	10219
918.828	10287
918.939	10242
919.05	10143
919.161	10219
919.272	9998
919.383	10139
919.494	10291
919.604	10424
919.715	10306
919.826	10192
919.936	10215
920.047	10287
920.157	10246
920.267	10485
920.378	10291
920.488	10276
920.598	10462
920.708	10580
920.818	10466
920.928	10500
921.038	10611
921.148	10596
921.258	10238
921.368	10223
921.477	10154
921.587	10101
921.697	9998
921.806	10101
921.916	9998
922.025	9846
922.134	9835
922.244	9842
922.353	9865
922.462	9671
922.571	9633
922.68	9473
922.789	9580
922.898	9599
923.007	9500
923.116	9523
923.224	9462
923.333	9454
923.442	9313
923.55	9321
923.659	9481
923.767	9477
923.876	9374
923.984	9462
924.092	9363
924.201	9348
924.309	9420
924.417	9420
924.525	9291
924.633	9355
924.741	10318
924.849	9093
924.956	9351
925.064	9108
925.172	9104
925.279	9138
925.387	9199
925.494	9199
925.602	9279
925.709	9230
925.816	9127
925.924	9173
926.031	9329
926.138	9138
926.245	9211
926.352	9142
926.459	9222
926.566	9275
926.673	9161
926.779	9070
926.886	9001
926.993	8910
927.099	8880
927.206	8853
927.312	8925
927.419	8967
927.525	8944
927.631	8948
927.737	8849
927.843	8830
927.95	8708
928.056	8766
928.162	8785
928.267	8925
928.373	9507
928.479	8910
928.585	8689
928.69	8769
928.796	8766
928.901	8693
929.007	8579
929.112	8697
929.218	8640
929.323	8663
929.428	8602
929.533	8735
929.638	8587
929.743	8587
929.848	8602
929.953	8522
930.058	8556
930.163	8313
930.267	8381
930.372	8461
930.477	8320
930.581	8629
930.685	8473
930.79	8298
930.894	8339
930.998	8298
931.103	8530
931.207	8164
931.311	8065
931.415	7993
931.519	7772
931.623	7830
