Data from test_V78500241_131.txt Node
Date: Fri Mar 25 14:34:38 CST 2022
User: usil
Spectrometer: V785-0024
Trigger mode: 0
Integration Time (sec): 4.000000E-1
Scans to average: 1
Nonlinearity correction enabled: false
Boxcar width: 0
Storing dark spectrum: false
XAxis mode: Wavelengths
Number of Pixels in Spectrum: 1024
>>>>>Begin Spectral Data<<<<<
801.071	29737
801.214	29756
801.356	29516
801.499	29364
801.641	29208
801.783	29239
801.926	29273
802.068	29121
802.211	29071
802.353	28976
802.496	28911
802.638	28835
802.78	28896
802.923	28721
803.065	28771
803.208	28843
803.35	28877
803.492	29037
803.635	29136
803.777	28797
803.919	29079
804.061	29448
804.204	29140
804.346	28980
804.488	29010
804.63	28968
804.773	29083
804.915	29109
805.057	29353
805.199	29246
805.341	29463
805.483	29440
805.626	29490
805.768	29421
805.91	29486
806.052	29752
806.194	29680
806.336	30148
806.478	30106
806.62	30079
806.762	30490
806.904	30783
807.046	31072
807.188	31228
807.33	31548
807.472	32187
807.614	32606
807.756	33157
807.898	33911
808.04	34930
808.182	36414
808.324	38351
808.465	40318
808.607	42787
808.749	44549
808.891	45804
809.033	45800
809.174	44651
809.316	42589
809.458	40249
809.6	37909
809.741	36079
809.883	34596
810.025	33485
810.166	32906
810.308	32389
810.45	31822
810.591	31430
810.733	31118
810.875	30798
811.016	30532
811.158	30285
811.299	30372
811.441	30422
811.582	30319
811.724	30030
811.865	29961
812.007	29889
812.148	29897
812.29	29916
812.431	29908
812.573	30015
812.714	30125
812.855	30163
812.997	30144
813.138	30315
813.279	30197
813.421	30018
813.562	29859
813.703	29939
813.845	29707
813.986	29375
814.127	29208
814.268	29136
814.41	29075
814.551	28881
814.692	29018
814.833	28656
814.974	28854
815.115	28968
815.256	28710
815.397	28660
815.539	28641
815.68	28409
815.821	28409
815.962	28382
816.103	28421
816.244	28196
816.385	28226
816.526	28135
816.666	27949
816.807	27812
816.948	27907
817.089	27884
817.23	27793
817.371	27835
817.512	27778
817.653	27648
817.793	27728
817.934	27778
818.075	27770
818.216	27781
818.356	27720
818.497	27580
818.638	27401
818.778	27488
818.919	27583
819.06	27580
819.2	27492
819.341	27823
819.481	27690
819.622	27816
819.762	28074
819.903	27918
820.043	27842
820.184	27713
820.324	27675
820.465	27679
820.605	27671
820.746	27583
820.886	27412
821.026	27511
821.167	27526
821.307	27633
821.447	27485
821.588	27344
821.728	27207
821.868	27100
822.008	26899
822.149	26765
822.289	26819
822.429	26765
822.569	26644
822.709	26579
822.849	26442
822.99	26423
823.13	26423
823.27	26237
823.41	26199
823.55	25997
823.69	26142
823.83	26024
823.97	25989
824.11	25868
824.25	25814
824.389	25852
824.529	25947
824.669	25951
824.809	25925
824.949	25852
825.089	25921
825.228	25757
825.368	25666
825.508	25674
825.648	25674
825.787	25689
825.927	25715
826.067	25712
826.206	25677
826.346	25693
826.485	25757
826.625	25639
826.765	25723
826.904	25590
827.044	25506
827.183	25396
827.323	25426
827.462	25479
827.601	25324
827.741	25232
827.88	25225
828.02	25209
828.159	25217
828.298	25232
828.437	25358
828.577	25225
828.716	25362
828.855	25240
828.994	25072
829.134	25038
829.273	25099
829.412	24920
829.551	24951
829.69	25065
829.829	24977
829.968	25084
830.107	25069
830.246	24989
830.385	24844
830.524	24901
830.663	24844
830.802	24631
830.941	24563
831.08	24616
831.219	24665
831.357	24631
831.496	24772
831.635	24589
831.774	24517
831.913	24407
832.051	24388
832.19	24399
832.329	24433
832.467	24395
832.606	24266
832.744	24498
832.883	24281
833.022	24536
833.16	24505
833.299	24620
833.437	24559
833.576	24745
833.714	24867
833.852	24985
833.991	25076
834.129	25194
834.267	25160
834.406	25053
834.544	25080
834.682	24928
834.821	24620
834.959	24871
835.097	24726
835.235	24677
835.373	24540
835.511	24315
835.65	24342
835.788	24213
835.926	24102
836.064	23904
836.202	23916
836.34	24178
836.478	24342
836.615	24057
836.753	23996
836.891	24163
837.029	23980
837.167	24022
837.305	23908
837.443	23893
837.58	23790
837.718	23870
837.856	23851
837.993	23752
838.131	23684
838.269	23775
838.406	23596
838.544	23592
838.681	23360
838.819	23463
838.956	23265
839.094	23166
839.231	23288
839.369	23364
839.506	23547
839.643	23395
839.781	23189
839.918	23121
840.055	23071
840.193	23094
840.33	23083
840.467	23083
840.604	23052
840.742	23406
840.879	23098
841.016	23052
841.153	22896
841.29	23128
841.427	23098
841.564	23109
841.701	22976
841.838	23025
841.975	22911
842.112	23083
842.249	22923
842.385	22946
842.522	23044
842.659	22900
842.796	22824
842.933	22892
843.069	22831
843.206	22835
843.343	22953
843.479	22904
843.616	22991
843.752	22702
843.889	22843
844.025	23083
844.162	22805
844.298	23140
844.435	23041
844.571	23250
844.708	23360
844.844	23779
844.98	24022
845.117	24502
845.253	24962
845.389	26138
845.525	28694
845.661	32488
845.798	37331
845.934	41132
846.07	42346
846.206	41395
846.342	38423
846.478	33557
846.614	29387
846.75	26762
846.886	25145
847.022	24034
847.158	23414
847.294	23109
847.429	22805
847.565	22702
847.701	22725
847.837	22143
847.972	22032
848.108	22074
848.244	22029
848.379	21895
848.515	21793
848.65	21618
848.786	21774
848.921	21774
849.057	21808
849.192	21709
849.328	21698
849.463	21675
849.598	21633
849.734	21610
849.869	21496
850.004	21321
850.14	21466
850.275	21336
850.41	21298
850.545	21283
850.68	21268
850.815	21382
850.95	21344
851.085	21534
851.22	21408
851.355	21389
851.49	21351
851.625	21355
851.76	21298
851.895	21275
852.03	21211
852.165	21283
852.299	21439
852.434	21279
852.569	21462
852.703	21374
852.838	21443
852.973	21534
853.107	21580
853.242	21336
853.376	21256
853.511	21245
853.645	21355
853.78	21386
853.914	21310
854.048	21329
854.183	21420
854.317	21397
854.451	21534
854.585	21416
854.72	21397
854.854	21492
854.988	21279
855.122	21192
855.256	21184
855.39	21260
855.524	21302
855.658	21325
855.792	21275
855.926	21157
856.06	21264
856.194	21264
856.327	21123
856.461	21039
856.595	20994
856.729	21192
856.862	21165
856.996	21173
857.13	21112
857.263	21146
857.397	21291
857.53	21131
857.664	21173
857.797	21119
857.931	21161
858.064	21150
858.197	20967
858.331	20952
858.464	20872
858.597	20948
858.731	21047
858.864	21020
858.997	21009
859.13	20986
859.263	21123
859.396	21066
859.529	20906
859.662	21074
859.795	20952
859.928	21039
860.061	21207
860.194	21264
860.327	21085
860.46	21028
860.592	21150
860.725	21039
860.858	21100
860.99	21051
861.123	20868
861.256	20845
861.388	20963
861.521	21663
861.653	20918
861.786	20743
861.918	20880
862.05	20921
862.183	20914
862.315	21074
862.447	21020
862.58	21028
862.712	20773
862.844	20746
862.976	20792
863.108	20667
863.24	21112
863.372	20545
863.504	20598
863.636	20575
863.768	20739
863.9	20667
864.032	20621
864.164	20579
864.296	20811
864.428	20716
864.559	20674
864.691	20693
864.823	20545
864.954	20507
865.086	20549
865.217	20480
865.349	20454
865.48	20644
865.612	20545
865.743	20712
865.875	20488
866.006	20533
866.137	20598
866.269	20541
866.4	20636
866.531	20412
866.662	20545
866.793	20389
866.924	20446
867.055	20431
867.186	20526
867.317	20530
867.448	20370
867.579	20446
867.71	20343
867.841	20427
867.972	20617
868.103	20617
868.233	20473
868.364	20457
868.495	20663
868.625	20609
868.756	20902
868.886	20587
869.017	20640
869.147	20845
869.278	20838
869.408	20762
869.539	20629
869.669	20811
869.799	20735
869.929	20895
870.06	20838
870.19	21047
870.32	20941
870.45	21104
870.58	21142
870.71	21306
870.84	21214
870.97	21123
871.1	21089
871.23	21310
871.36	21405
871.489	21306
871.619	21469
871.749	21355
871.879	21454
872.008	21454
872.138	21618
872.267	21431
872.397	21351
872.526	21306
872.656	21454
872.785	21272
872.915	21447
873.044	21538
873.173	21534
873.303	21606
873.432	21572
873.561	21728
873.69	21496
873.819	21637
873.948	21724
874.077	21671
874.206	21545
874.335	21637
874.464	21812
874.593	21964
874.722	21953
874.851	22048
874.979	22082
875.108	22120
875.237	22040
875.365	21991
875.494	21991
875.623	22116
875.751	22097
875.88	22188
876.008	22360
876.136	22485
876.265	22687
876.393	22801
876.521	22835
876.65	22869
876.778	22809
876.906	22820
877.034	22896
877.162	23022
877.29	22930
877.418	23132
877.546	23022
877.674	22999
877.802	23315
877.93	23299
878.058	23436
878.185	23551
878.313	23821
878.441	24015
878.568	24057
878.696	24654
878.824	25274
878.951	26058
879.079	27085
879.206	28691
879.333	29843
879.461	31107
879.588	31974
879.715	32016
879.842	31419
879.97	30114
880.097	28409
880.224	27378
880.351	26476
880.478	25913
880.605	25358
880.732	25274
880.859	25396
880.986	25034
881.112	24932
881.239	24684
881.366	24582
881.493	24486
881.619	24395
881.746	24490
881.872	24448
881.999	24467
882.125	24620
882.252	24517
882.378	24574
882.505	24730
882.631	24471
882.757	24342
882.883	24407
883.01	24304
883.136	24342
883.262	24247
883.388	24136
883.514	24422
883.64	24330
883.766	24171
883.892	24140
884.018	24232
884.143	24182
884.269	24334
884.395	24095
884.52	23973
884.646	23999
884.772	24011
884.897	23897
885.023	23999
885.148	24060
885.274	23977
885.399	23973
885.524	23828
885.65	23802
885.775	23726
885.9	23486
886.025	23596
886.15	23318
886.275	23136
886.4	22987
886.525	22881
886.65	22949
886.775	22755
886.9	22915
887.025	22919
887.149	22721
887.274	22451
887.399	22329
887.523	22249
887.648	22116
887.773	22097
887.897	22204
888.021	22154
888.146	21941
888.27	22097
888.395	22131
888.519	21915
888.643	21827
888.767	21823
888.891	21892
889.015	21538
889.139	21732
889.263	21420
889.387	21614
889.511	21728
889.635	21439
889.759	21344
889.883	21431
890.006	21344
890.13	21412
890.254	21192
890.377	21135
890.501	21024
890.624	20975
890.748	21020
890.871	20834
890.995	20823
891.118	20716
891.241	20697
891.364	20792
891.488	20895
891.611	20792
891.734	20708
891.857	20667
891.98	20648
892.103	20697
892.226	20541
892.349	20579
892.471	20313
892.594	20377
892.717	20507
892.839	20366
892.962	20438
893.085	20434
893.207	20294
893.33	20259
893.452	20233
893.575	20374
893.697	20343
893.819	20358
893.941	20408
894.064	20434
894.186	20142
894.308	20092
894.43	20343
894.552	20309
894.674	20149
894.796	20092
894.918	20107
895.04	20122
895.161	20149
895.283	20096
895.405	20058
895.526	20088
895.648	19989
895.769	19963
895.891	20008
896.012	20012
896.134	20107
896.255	20016
896.376	20008
896.498	20031
896.619	20142
896.74	20031
896.861	19917
896.982	20377
897.103	20503
897.224	20355
897.345	20210
897.466	19982
897.587	20233
897.708	20286
897.828	20206
897.949	20195
898.07	20100
898.19	20100
898.311	20161
898.431	20153
898.552	20100
898.672	20221
898.792	20100
898.913	20115
899.033	19837
899.153	19909
899.273	19864
899.393	19932
899.513	19890
899.633	19807
899.753	19841
899.873	19849
899.993	19849
900.113	19693
900.232	19807
900.352	19818
900.472	19655
900.591	19578
900.711	19594
900.83	19559
900.95	19837
901.069	19814
901.189	19586
901.308	19244
901.427	19278
901.546	19148
901.665	19217
901.784	19183
901.904	19042
902.023	18897
902.141	18791
902.26	18692
902.379	18814
902.498	18620
902.617	18486
902.735	18673
902.854	18578
902.973	18445
903.091	18319
903.21	18239
903.328	18213
903.446	18304
903.565	18201
903.683	18095
903.801	18079
903.919	17980
904.038	18060
904.156	17980
904.274	17859
904.392	17703
904.51	17843
904.627	17676
904.745	17775
904.863	17840
904.981	17604
905.098	17459
905.216	17448
905.334	17395
905.451	17444
905.569	17486
905.686	17372
905.803	17406
905.921	17193
906.038	17315
906.155	17299
906.272	17140
906.389	17033
906.506	16934
906.623	17048
906.74	16934
906.857	16816
906.974	16809
907.091	17010
907.208	16984
907.324	16934
907.441	16869
907.557	16736
907.674	16653
907.79	16592
907.907	16679
908.023	16546
908.139	16702
908.256	16580
908.372	16481
908.488	16466
908.604	16295
908.72	16253
908.836	16329
908.952	16447
909.068	16238
909.184	16375
909.3	16329
909.415	16303
909.531	16265
909.647	16105
909.762	16021
909.878	15998
909.993	16040
910.108	16032
910.224	15956
910.339	15934
910.454	15930
910.57	15831
910.685	15759
910.8	16036
910.915	16025
911.03	15823
911.145	15622
911.259	15591
911.374	15606
911.489	15557
911.604	15587
911.718	15310
911.833	15363
911.947	15222
912.062	15256
912.176	15287
912.291	15374
912.405	15287
912.519	15420
912.633	15462
912.748	15443
912.862	15279
912.976	15093
913.09	15009
913.204	15184
913.318	15119
913.431	15260
913.545	15226
913.659	15233
913.772	15116
913.886	15062
914	15058
914.113	14975
914.226	15032
914.34	15009
914.453	14887
914.566	15104
914.68	14861
914.793	14765
914.906	14693
915.019	14659
915.132	14473
915.245	14674
915.358	14613
915.47	14568
915.583	14705
915.696	14678
915.809	14655
915.921	14743
916.034	14533
916.146	14518
916.259	14484
916.371	14606
916.483	14651
916.595	14476
916.708	14438
916.82	14492
916.932	14488
917.044	14427
917.156	14465
917.268	14309
917.38	14438
917.491	14290
917.603	14358
917.715	14351
917.826	14362
917.938	14282
918.049	14180
918.161	14259
918.272	14301
918.384	14377
918.495	14294
918.606	14084
918.717	13936
918.828	13963
918.939	13997
919.05	13955
919.161	14027
919.272	13791
919.383	13868
919.494	14065
919.604	14157
919.715	14012
919.826	14008
919.936	13917
920.047	14043
920.157	13936
920.267	14161
920.378	14012
920.488	13940
920.598	14164
920.708	14259
920.818	14062
920.928	14050
921.038	14317
921.148	14126
921.258	13811
921.368	13769
921.477	13723
921.587	13723
921.697	13529
921.806	13715
921.916	13529
922.025	13430
922.134	13339
922.244	13327
922.353	13381
922.462	13209
922.571	13202
922.68	12951
922.789	12993
922.898	13004
923.007	12924
923.116	13004
923.224	12951
923.333	12901
923.442	12829
923.55	12757
923.659	12753
923.767	12798
923.876	12810
923.984	12825
924.092	12768
924.201	12749
924.309	12810
924.417	12772
924.525	12620
924.633	12642
924.741	13548
924.849	12486
924.956	12673
925.064	12460
925.172	12292
925.279	12346
925.387	12464
925.494	12437
925.602	12582
925.709	12551
925.816	12327
925.924	12437
926.031	12494
926.138	12372
926.245	12391
926.352	12384
926.459	12437
926.566	12452
926.673	12319
926.779	12220
926.886	12251
926.993	12030
927.099	11946
927.206	12003
927.312	11908
927.419	12053
927.525	11992
927.631	12053
927.737	11870
927.843	11908
927.95	11775
928.056	11824
928.162	11927
928.267	11992
928.373	12464
928.479	11855
928.585	11627
928.69	11866
928.796	11775
928.901	11745
929.007	11581
929.112	11691
929.218	11726
929.323	11623
929.428	11573
929.533	11691
929.638	11558
929.743	11539
929.848	11608
929.953	11562
930.058	11368
930.163	11318
930.267	11376
930.372	11512
930.477	11204
930.581	11421
930.685	11307
930.79	11098
930.894	11185
930.998	11128
931.103	11242
931.207	10923
931.311	10850
931.415	10847
931.519	10519
931.623	10618
