Data from test_V78500241_2592.txt Node
Date: Fri Mar 25 14:51:45 CST 2022
User: usil
Spectrometer: V785-0024
Trigger mode: 0
Integration Time (sec): 4.000000E-1
Scans to average: 1
Nonlinearity correction enabled: false
Boxcar width: 0
Storing dark spectrum: false
XAxis mode: Wavelengths
Number of Pixels in Spectrum: 1024
>>>>>Begin Spectral Data<<<<<
801.071	22013
801.214	22002
801.356	21633
801.499	21561
801.641	21473
801.783	21325
801.926	21469
802.068	21336
802.211	21291
802.353	21123
802.496	21077
802.638	20815
802.78	20853
802.923	20720
803.065	20735
803.208	20697
803.35	20743
803.492	20807
803.635	20857
803.777	20720
803.919	20758
804.061	21184
804.204	20792
804.346	20530
804.488	20621
804.63	20640
804.773	20438
804.915	20606
805.057	20670
805.199	20621
805.341	20686
805.483	20678
805.626	20663
805.768	20571
805.91	20720
806.052	20537
806.194	20609
806.336	20724
806.478	20575
806.62	20511
806.762	20606
806.904	20788
807.046	20925
807.188	20891
807.33	20880
807.472	20990
807.614	20807
807.756	20845
807.898	20781
808.04	20530
808.182	20644
808.324	20541
808.465	20769
808.607	20853
808.749	20941
808.891	20979
809.033	21127
809.174	20963
809.316	20849
809.458	21036
809.6	20929
809.741	20948
809.883	20967
810.025	21119
810.166	21020
810.308	21066
810.45	21138
810.591	20944
810.733	20750
810.875	20788
811.016	20667
811.158	20667
811.299	20849
811.441	20929
811.582	20735
811.724	20762
811.865	20792
812.007	20663
812.148	20640
812.29	20800
812.431	20845
812.573	21077
812.714	21119
812.855	21256
812.997	21226
813.138	21386
813.279	21393
813.421	21245
813.562	21093
813.703	20971
813.845	20944
813.986	20617
814.127	20431
814.268	20313
814.41	20191
814.551	20256
814.692	20324
814.833	20225
814.974	20180
815.115	20252
815.256	20145
815.397	20157
815.539	20161
815.68	19967
815.821	20065
815.962	20103
816.103	20020
816.244	19928
816.385	19780
816.526	19624
816.666	19639
816.807	19434
816.948	19518
817.089	19548
817.23	19453
817.371	19373
817.512	19396
817.653	19449
817.793	19350
817.934	19388
818.075	19377
818.216	19388
818.356	19346
818.497	19331
818.638	19202
818.778	19027
818.919	19278
819.06	19137
819.2	19175
819.341	19297
819.481	19282
819.622	19388
819.762	19525
819.903	19571
820.043	19457
820.184	19499
820.324	19312
820.465	19373
820.605	19457
820.746	19358
820.886	19263
821.026	19289
821.167	19331
821.307	19392
821.447	19396
821.588	19175
821.728	19129
821.868	18913
822.008	18749
822.149	18772
822.289	18779
822.429	18540
822.569	18555
822.709	18464
822.849	18327
822.99	18315
823.13	18266
823.27	18277
823.41	18163
823.55	18178
823.69	18182
823.83	18136
823.97	18125
824.11	17901
824.25	17840
824.389	17783
824.529	17935
824.669	17908
824.809	17973
824.949	18022
825.089	17874
825.228	17992
825.368	17672
825.508	17638
825.648	17665
825.787	17745
825.927	17714
826.067	17646
826.206	17657
826.346	17657
826.485	17684
826.625	17630
826.765	17737
826.904	17642
827.044	17467
827.183	17429
827.323	17398
827.462	17387
827.601	17395
827.741	17330
827.88	17410
828.02	17265
828.159	17284
828.298	17452
828.437	17341
828.577	17444
828.716	17436
828.855	17395
828.994	17166
829.134	17113
829.273	17113
829.412	17109
829.551	17090
829.69	17025
829.829	17174
829.968	17178
830.107	17250
830.246	17117
830.385	17037
830.524	17006
830.663	17041
830.802	16873
830.941	16782
831.08	16702
831.219	16824
831.357	16782
831.496	16949
831.635	16615
831.774	16717
831.913	16675
832.051	16615
832.19	16577
832.329	16584
832.467	16455
832.606	16485
832.744	16409
832.883	16535
833.022	16379
833.16	16432
833.299	16615
833.437	16413
833.576	16508
833.714	16527
833.852	16592
833.991	16504
834.129	16615
834.267	16531
834.406	16531
834.544	16550
834.682	16527
834.821	16424
834.959	16721
835.097	16554
835.235	16641
835.373	16603
835.511	16615
835.65	16481
835.788	16417
835.926	16375
836.064	16078
836.202	16268
836.34	16497
836.478	16546
836.615	16447
836.753	16580
836.891	16489
837.029	16436
837.167	16428
837.305	16424
837.443	16284
837.58	16303
837.718	16417
837.856	16287
837.993	16242
838.131	16287
838.269	16185
838.406	16265
838.544	16169
838.681	15994
838.819	15953
838.956	15876
839.094	15953
839.231	15949
839.369	15972
839.506	16238
839.643	16139
839.781	15880
839.918	15838
840.055	15876
840.193	15888
840.33	15755
840.467	15766
840.604	15892
840.742	16059
840.879	15838
841.016	15835
841.153	15720
841.29	15873
841.427	15888
841.564	15915
841.701	15842
841.838	15774
841.975	15797
842.112	15766
842.249	15584
842.385	15690
842.522	15865
842.659	15633
842.796	15572
842.933	15610
843.069	15660
843.206	15622
843.343	15679
843.479	15663
843.616	15705
843.752	15454
843.889	15401
844.025	15538
844.162	15420
844.298	15553
844.435	15439
844.571	15389
844.708	15500
844.844	15584
844.98	15610
845.117	15538
845.253	15329
845.389	15249
845.525	15428
845.661	15306
845.798	15161
845.934	15245
846.07	15264
846.206	15336
846.342	15291
846.478	15195
846.614	15020
846.75	15055
846.886	14883
847.022	15043
847.158	15070
847.294	15047
847.429	15089
847.565	14937
847.701	15203
847.837	14750
847.972	14667
848.108	14811
848.244	14773
848.379	14541
848.515	14640
848.65	14568
848.786	14556
848.921	14644
849.057	14625
849.192	14632
849.328	14640
849.463	14606
849.598	14602
849.734	14648
849.869	14476
850.004	14446
850.14	14408
850.275	14362
850.41	14366
850.545	14343
850.68	14286
850.815	14389
850.95	14343
851.085	14621
851.22	14522
851.355	14454
851.49	14305
851.625	14355
851.76	14362
851.895	14244
852.03	14214
852.165	14248
852.299	14393
852.434	14514
852.569	14351
852.703	14442
852.838	14434
852.973	14549
853.107	14465
853.242	14309
853.376	14298
853.511	14123
853.645	14199
853.78	14320
853.914	14286
854.048	14229
854.183	14229
854.317	14218
854.451	14366
854.585	14301
854.72	14180
854.854	14347
854.988	14134
855.122	14199
855.256	14107
855.39	14252
855.524	14263
855.658	14278
855.792	14183
855.926	14362
856.06	14206
856.194	14339
856.327	14210
856.461	14142
856.595	14157
856.729	14229
856.862	14366
856.996	14267
857.13	14324
857.263	14248
857.397	14347
857.53	14267
857.664	14355
857.797	14282
857.931	14324
858.064	14271
858.197	14294
858.331	14278
858.464	14210
858.597	14153
858.731	14214
858.864	14233
858.997	14202
859.13	14267
859.263	14317
859.396	14377
859.529	14176
859.662	14210
859.795	14301
859.928	14294
860.061	14389
860.194	14423
860.327	14298
860.46	14301
860.592	14347
860.725	14301
860.858	14381
860.99	14305
861.123	14145
861.256	14180
861.388	14142
861.521	14864
861.653	14206
861.786	14035
861.918	14054
862.05	14282
862.183	14157
862.315	14267
862.447	14244
862.58	14221
862.712	14100
862.844	13989
862.976	14058
863.108	14020
863.24	14415
863.372	13849
863.504	14065
863.636	14001
863.768	14199
863.9	14031
864.032	13936
864.164	13951
864.296	14020
864.428	14138
864.559	14123
864.691	14096
864.823	14039
864.954	14008
865.086	13959
865.217	14024
865.349	13959
865.48	13967
865.612	14024
865.743	14161
865.875	13982
866.006	13860
866.137	13936
866.269	13967
866.4	13879
866.531	13951
866.662	13917
866.793	13989
866.924	13894
867.055	13970
867.186	14005
867.317	13890
867.448	13963
867.579	13959
867.71	13940
867.841	13932
867.972	13906
868.103	14119
868.233	14054
868.364	14016
868.495	14035
868.625	14309
868.756	14374
868.886	14153
869.017	14149
869.147	14374
869.278	14381
869.408	14233
869.539	14252
869.669	14324
869.799	14256
869.929	14385
870.06	14339
870.19	14625
870.32	14579
870.45	14636
870.58	14648
870.71	14724
870.84	14750
870.97	14632
871.1	14670
871.23	14842
871.36	14925
871.489	14773
871.619	14788
871.749	14861
871.879	14788
872.008	14933
872.138	14883
872.267	14807
872.397	14712
872.526	14720
872.656	14697
872.785	14773
872.915	14960
873.044	14880
873.173	14792
873.303	15017
873.432	14864
873.561	14960
873.69	14887
873.819	14910
873.948	15009
874.077	14883
874.206	14834
874.335	14902
874.464	15100
874.593	15272
874.722	15176
874.851	15203
874.979	15226
875.108	15233
875.237	15245
875.365	15184
875.494	15264
875.623	15310
875.751	15211
875.88	15272
876.008	15241
876.136	15428
876.265	15656
876.393	15766
876.521	15789
876.65	15656
876.778	15709
876.906	15542
877.034	15675
877.162	15679
877.29	15515
877.418	15625
877.546	15625
877.674	15637
877.802	15656
877.93	15530
878.058	15504
878.185	15488
878.313	15584
878.441	15637
878.568	15511
878.696	15580
878.824	15675
878.951	15644
879.079	15823
879.206	16048
879.333	15789
879.461	15705
879.588	15774
879.715	15747
879.842	15892
879.97	15690
880.097	15526
880.224	15504
880.351	15572
880.478	15458
880.605	15325
880.732	15397
880.859	15698
880.986	15389
881.112	15606
881.239	15256
881.366	15226
881.493	15077
881.619	15142
881.746	15146
881.872	15108
881.999	15009
882.125	15058
882.252	15119
882.378	15199
882.505	15291
882.631	15074
882.757	14872
882.883	14998
883.01	14906
883.136	14861
883.262	14731
883.388	14807
883.514	14868
883.64	14937
883.766	14880
883.892	14781
884.018	14777
884.143	14899
884.269	15157
884.395	14739
884.52	14636
884.646	14754
884.772	14511
884.897	14613
885.023	14644
885.148	14739
885.274	14765
885.399	14765
885.524	14697
885.65	14697
885.775	14659
885.9	14678
886.025	14727
886.15	14773
886.275	14640
886.4	14514
886.525	14552
886.65	14575
886.775	14590
886.9	14746
887.025	14868
887.149	14644
887.274	14552
887.399	14507
887.523	14400
887.648	14324
887.773	14324
887.897	14552
888.021	14568
888.146	14423
888.27	14514
888.395	14594
888.519	14522
888.643	14537
888.767	14499
888.891	14465
889.015	14305
889.139	14457
889.263	14389
889.387	14518
889.511	14636
889.635	14476
889.759	14385
889.883	14351
890.006	14434
890.13	14495
890.254	14259
890.377	14294
890.501	14164
890.624	14164
890.748	14191
890.871	14062
890.995	13951
891.118	13959
891.241	13989
891.364	14168
891.488	14161
891.611	14035
891.734	14100
891.857	14100
891.98	14020
892.103	14119
892.226	14065
892.349	14020
892.471	13887
892.594	14088
892.717	14077
892.839	13978
892.962	13989
893.085	14161
893.207	14123
893.33	13921
893.452	14001
893.575	14111
893.697	14031
893.819	14221
893.941	14282
894.064	14210
894.186	13978
894.308	13989
894.43	14195
894.552	14229
894.674	14172
894.796	14050
894.918	14172
895.04	14123
895.161	14267
895.283	14164
895.405	14134
895.526	14244
895.648	14282
895.769	14225
895.891	14229
896.012	14180
896.134	14225
896.255	14271
896.376	14149
896.498	14103
896.619	14278
896.74	14225
896.861	14320
896.982	14583
897.103	14735
897.224	14522
897.345	14469
897.466	14324
897.587	14522
897.708	14613
897.828	14602
897.949	14450
898.07	14286
898.19	14473
898.311	14651
898.431	14484
898.552	14564
898.672	14629
898.792	14693
898.913	14552
899.033	14476
899.153	14438
899.273	14328
899.393	14347
899.513	14488
899.633	14377
899.753	14492
899.873	14377
899.993	14431
900.113	14389
900.232	14507
900.352	14427
900.472	14294
900.591	14286
900.711	14294
900.83	14278
900.95	14423
901.069	14404
901.189	14145
901.308	14073
901.427	13936
901.546	14035
901.665	13906
901.784	14054
901.904	13890
902.023	13814
902.141	13582
902.26	13510
902.379	13658
902.498	13483
902.617	13483
902.735	13624
902.854	13460
902.973	13453
903.091	13327
903.21	13335
903.328	13324
903.446	13232
903.565	13103
903.683	13145
903.801	13053
903.919	13141
904.038	13053
904.156	12905
904.274	13004
904.392	12909
904.51	12977
904.627	12897
904.745	12970
904.863	12962
904.981	12703
905.098	12540
905.216	12601
905.334	12646
905.451	12627
905.569	12681
905.686	12696
905.803	12639
905.921	12445
906.038	12589
906.155	12479
906.272	12285
906.389	12369
906.506	12247
906.623	12201
906.74	12228
906.857	11946
906.974	12102
907.091	12270
907.208	12323
907.324	12342
907.441	12159
907.557	11969
907.674	11920
907.79	11939
907.907	11916
908.023	11988
908.139	11988
908.256	11958
908.372	11973
908.488	11950
908.604	11783
908.72	11710
908.836	11748
908.952	11642
909.068	11748
909.184	11760
909.3	11714
909.415	11771
909.531	11714
909.647	11509
909.762	11554
909.878	11410
909.993	11509
910.108	11516
910.224	11398
910.339	11520
910.454	11436
910.57	11280
910.685	11246
910.8	11566
910.915	11501
911.03	11307
911.145	11231
911.259	11231
911.374	11258
911.489	11109
911.604	11086
911.718	10930
911.833	10942
911.947	10858
912.062	10706
912.176	10911
912.291	10911
912.405	10930
912.519	11136
912.633	11162
912.748	11052
912.862	10965
912.976	10847
913.09	10664
913.204	10797
913.318	10850
913.431	10908
913.545	10923
913.659	10984
913.772	10911
913.886	10733
914	10710
914.113	10702
914.226	10828
914.34	10763
914.453	10626
914.566	10809
914.68	10649
914.793	10653
914.906	10573
915.019	10523
915.132	10379
915.245	10348
915.358	10504
915.47	10367
915.583	10443
915.696	10481
915.809	10584
915.921	10603
916.034	10348
916.146	10432
916.259	10394
916.371	10466
916.483	10379
916.595	10371
916.708	10386
916.82	10329
916.932	10352
917.044	10455
917.156	10337
917.268	10246
917.38	10242
917.491	10280
917.603	10253
917.715	10394
917.826	10424
917.938	10215
918.049	10158
918.161	10405
918.272	10405
918.384	10360
918.495	10276
918.606	10128
918.717	10120
918.828	10204
918.939	10238
919.05	10040
919.161	10131
919.272	9964
919.383	10078
919.494	10185
919.604	10356
919.715	10143
919.826	10010
919.936	10154
920.047	10227
920.157	10200
920.267	10352
920.378	10242
920.488	10150
920.598	10348
920.708	10508
920.818	10329
920.928	10333
921.038	10512
921.148	10481
921.258	10192
921.368	10135
921.477	10059
921.587	10002
921.697	9899
921.806	10150
921.916	9922
922.025	9724
922.134	9740
922.244	9656
922.353	9743
922.462	9584
922.571	9599
922.68	9393
922.789	9454
922.898	9469
923.007	9397
923.116	9458
923.224	9469
923.333	9507
923.442	9393
923.55	9275
923.659	9302
923.767	9386
923.876	9283
923.984	9355
924.092	9249
924.201	9287
924.309	9249
924.417	9313
924.525	9150
924.633	9218
924.741	10044
924.849	9161
924.956	9237
925.064	9089
925.172	9020
925.279	8998
925.387	9097
925.494	9047
925.602	9279
925.709	9104
925.816	9043
925.924	9097
926.031	9165
926.138	9001
926.245	9165
926.352	9077
926.459	9157
926.566	9146
926.673	9032
926.779	8933
926.886	8937
926.993	8807
927.099	8792
927.206	8781
927.312	8735
927.419	8785
927.525	8842
927.631	8842
927.737	8708
927.843	8701
927.95	8571
928.056	8659
928.162	8693
928.267	8689
928.373	9378
928.479	8921
928.585	8590
928.69	8743
928.796	8769
928.901	8568
929.007	8438
929.112	8579
929.218	8541
929.323	8530
929.428	8518
929.533	8621
929.638	8518
929.743	8545
929.848	8495
929.953	8514
930.058	8476
930.163	8240
930.267	8301
930.372	8362
930.477	8320
930.581	8541
930.685	8343
930.79	8233
930.894	8221
930.998	8221
931.103	8427
931.207	8050
931.311	7986
931.415	7909
931.519	7738
931.623	7731
