Data from test_V78500241_1717.txt Node
Date: Fri Mar 25 14:45:40 CST 2022
User: usil
Spectrometer: V785-0024
Trigger mode: 0
Integration Time (sec): 4.000000E-1
Scans to average: 1
Nonlinearity correction enabled: false
Boxcar width: 0
Storing dark spectrum: false
XAxis mode: Wavelengths
Number of Pixels in Spectrum: 1024
>>>>>Begin Spectral Data<<<<<
801.071	22360
801.214	22207
801.356	21857
801.499	21739
801.641	21682
801.783	21622
801.926	21526
802.068	21606
802.211	21473
802.353	21405
802.496	21173
802.638	21127
802.78	21009
802.923	20994
803.065	20880
803.208	20830
803.35	20967
803.492	21081
803.635	21020
803.777	20960
803.919	21017
804.061	21428
804.204	21112
804.346	20998
804.488	20944
804.63	20960
804.773	20845
804.915	20838
805.057	21020
805.199	20887
805.341	20918
805.483	21077
805.626	21058
805.768	20880
805.91	20929
806.052	20937
806.194	20804
806.336	21024
806.478	20876
806.62	20785
806.762	20880
806.904	21058
807.046	21355
807.188	21222
807.33	21249
807.472	21192
807.614	21192
807.756	21051
807.898	21157
808.04	21081
808.182	21017
808.324	20971
808.465	20944
808.607	21207
808.749	21321
808.891	21340
809.033	21477
809.174	21370
809.316	21348
809.458	21348
809.6	21226
809.741	21416
809.883	21298
810.025	21370
810.166	21488
810.308	21458
810.45	21408
810.591	21233
810.733	21214
810.875	21112
811.016	21017
811.158	20952
811.299	21028
811.441	21116
811.582	21252
811.724	21009
811.865	20998
812.007	21039
812.148	20952
812.29	21108
812.431	21127
812.573	21428
812.714	21469
812.855	21439
812.997	21660
813.138	21705
813.279	21637
813.421	21519
813.562	21542
813.703	21367
813.845	21157
813.986	21070
814.127	20788
814.268	20640
814.41	20659
814.551	20488
814.692	20750
814.833	20511
814.974	20587
815.115	20602
815.256	20541
815.397	20480
815.539	20393
815.68	20199
815.821	20278
815.962	20377
816.103	20336
816.244	20054
816.385	20233
816.526	20008
816.666	19932
816.807	19784
816.948	19784
817.089	19894
817.23	19860
817.371	19727
817.512	19662
817.653	19757
817.793	19696
817.934	19696
818.075	19799
818.216	19727
818.356	19639
818.497	19537
818.638	19381
818.778	19434
818.919	19552
819.06	19609
819.2	19620
819.341	19609
819.481	19685
819.622	19753
819.762	19921
819.903	19932
820.043	19799
820.184	19719
820.324	19628
820.465	19761
820.605	19811
820.746	19704
820.886	19544
821.026	19719
821.167	19670
821.307	19715
821.447	19700
821.588	19506
821.728	19434
821.868	19297
822.008	19228
822.149	19160
822.289	19110
822.429	18924
822.569	18783
822.709	18798
822.849	18772
822.99	18654
823.13	18623
823.27	18589
823.41	18483
823.55	18452
823.69	18403
823.83	18418
823.97	18498
824.11	18357
824.25	18136
824.389	18300
824.529	18277
824.669	18216
824.809	18365
824.949	18311
825.089	18273
825.228	18235
825.368	17973
825.508	17912
825.648	18019
825.787	18030
825.927	18057
826.067	17920
826.206	17977
826.346	17973
826.485	17904
826.625	18038
826.765	18087
826.904	18060
827.044	17771
827.183	17760
827.323	17661
827.462	17748
827.601	17653
827.741	17543
827.88	17619
828.02	17581
828.159	17714
828.298	17695
828.437	17775
828.577	17539
828.716	17779
828.855	17611
828.994	17318
829.134	17330
829.273	17509
829.412	17410
829.551	17425
829.69	17406
829.829	17433
829.968	17433
830.107	17478
830.246	17520
830.385	17341
830.524	17402
830.663	17242
830.802	17121
830.941	17041
831.08	16987
831.219	17064
831.357	17102
831.496	17326
831.635	16995
831.774	16991
831.913	16968
832.051	16805
832.19	16854
832.329	16923
832.467	16744
832.606	16675
832.744	16664
832.883	16656
833.022	16683
833.16	16771
833.299	16771
833.437	16645
833.576	16831
833.714	16797
833.852	16809
833.991	16824
834.129	16900
834.267	16908
834.406	16835
834.544	16892
834.682	16721
834.821	16778
834.959	16942
835.097	16729
835.235	16824
835.373	16774
835.511	16805
835.65	16656
835.788	16679
835.926	16542
836.064	16508
836.202	16508
836.34	16717
836.478	16790
836.615	16725
836.753	16694
836.891	16869
837.029	16725
837.167	16634
837.305	16615
837.443	16554
837.58	16447
837.718	16645
837.856	16523
837.993	16489
838.131	16599
838.269	16523
838.406	16356
838.544	16367
838.681	16219
838.819	16109
838.956	16090
839.094	16044
839.231	16063
839.369	16363
839.506	16504
839.643	16325
839.781	16109
839.918	16036
840.055	16215
840.193	16093
840.33	15991
840.467	16048
840.604	16017
840.742	16337
840.879	15869
841.016	15945
841.153	15998
841.29	16234
841.427	16097
841.564	16082
841.701	16074
841.838	15975
841.975	15956
842.112	16051
842.249	15892
842.385	15774
842.522	16143
842.659	15907
842.796	15747
842.933	15816
843.069	15842
843.206	15800
843.343	15926
843.479	15842
843.616	15857
843.752	15663
843.889	15614
844.025	15755
844.162	15606
844.298	15720
844.435	15629
844.571	15580
844.708	15709
844.844	15823
844.98	15816
845.117	15667
845.253	15580
845.389	15572
845.525	15694
845.661	15580
845.798	15549
845.934	15481
846.07	15408
846.206	15538
846.342	15644
846.478	15389
846.614	15283
846.75	15192
846.886	15199
847.022	15294
847.158	15237
847.294	15157
847.429	15233
847.565	15161
847.701	15424
847.837	14941
847.972	14933
848.108	15051
848.244	15062
848.379	14925
848.515	14758
848.65	14804
848.786	14857
848.921	14762
849.057	14895
849.192	14872
849.328	14845
849.463	14834
849.598	14720
849.734	14750
849.869	14602
850.004	14613
850.14	14590
850.275	14632
850.41	14499
850.545	14419
850.68	14625
850.815	14670
850.95	14484
851.085	14746
851.22	14727
851.355	14495
851.49	14621
851.625	14518
851.76	14564
851.895	14518
852.03	14454
852.165	14644
852.299	14556
852.434	14632
852.569	14697
852.703	14568
852.838	14663
852.973	14765
853.107	14636
853.242	14499
853.376	14465
853.511	14305
853.645	14423
853.78	14552
853.914	14434
854.048	14347
854.183	14366
854.317	14552
854.451	14610
854.585	14606
854.72	14450
854.854	14537
854.988	14366
855.122	14438
855.256	14339
855.39	14518
855.524	14514
855.658	14518
855.792	14495
855.926	14446
856.06	14480
856.194	14590
856.327	14480
856.461	14400
856.595	14419
856.729	14343
856.862	14568
856.996	14446
857.13	14499
857.263	14518
857.397	14575
857.53	14488
857.664	14545
857.797	14518
857.931	14480
858.064	14438
858.197	14511
858.331	14442
858.464	14408
858.597	14351
858.731	14473
858.864	14389
858.997	14434
859.13	14507
859.263	14507
859.396	14488
859.529	14461
859.662	14393
859.795	14427
859.928	14552
860.061	14606
860.194	14571
860.327	14396
860.46	14339
860.592	14575
860.725	14568
860.858	14514
860.99	14450
861.123	14381
861.256	14404
861.388	14427
861.521	14937
861.653	14309
861.786	14320
861.918	14252
862.05	14446
862.183	14473
862.315	14419
862.447	14514
862.58	14347
862.712	14180
862.844	14142
862.976	14161
863.108	14290
863.24	14598
863.372	14115
863.504	14096
863.636	14225
863.768	14339
863.9	14263
864.032	14183
864.164	14218
864.296	14305
864.428	14377
864.559	14343
864.691	14370
864.823	14377
864.954	14290
865.086	14305
865.217	14210
865.349	14199
865.48	14259
865.612	14206
865.743	14377
865.875	14240
866.006	14062
866.137	14199
866.269	14248
866.4	14157
866.531	14168
866.662	14103
866.793	14252
866.924	14138
867.055	14221
867.186	14256
867.317	14164
867.448	14069
867.579	14103
867.71	13989
867.841	14096
867.972	14199
868.103	14191
868.233	14183
868.364	14149
868.495	14233
868.625	14408
868.756	14492
868.886	14332
869.017	14480
869.147	14560
869.278	14495
869.408	14492
869.539	14450
869.669	14488
869.799	14541
869.929	14522
870.06	14613
870.19	14788
870.32	14792
870.45	14834
870.58	14796
870.71	14941
870.84	14975
870.97	14883
871.1	14815
871.23	15116
871.36	14979
871.489	14975
871.619	14944
871.749	15055
871.879	15032
872.008	15173
872.138	15097
872.267	15017
872.397	14880
872.526	14857
872.656	14823
872.785	14948
872.915	15097
873.044	15070
873.173	15043
873.303	15123
873.432	15154
873.561	15230
873.69	15028
873.819	15097
873.948	15180
874.077	15154
874.206	15055
874.335	15100
874.464	15279
874.593	15336
874.722	15329
874.851	15473
874.979	15500
875.108	15405
875.237	15252
875.365	15351
875.494	15397
875.623	15454
875.751	15359
875.88	15477
876.008	15542
876.136	15667
876.265	15831
876.393	15949
876.521	15907
876.65	15895
876.778	15797
876.906	15835
877.034	15793
877.162	15781
877.29	15766
877.418	15686
877.546	15759
877.674	15816
877.802	15880
877.93	15827
878.058	15785
878.185	15641
878.313	15785
878.441	15732
878.568	15641
878.696	15686
878.824	15865
878.951	15865
879.079	15975
879.206	16128
879.333	15953
879.461	15911
879.588	15979
879.715	15998
879.842	16131
879.97	15994
880.097	15656
880.224	15690
880.351	15701
880.478	15667
880.605	15663
880.732	15720
880.859	15903
880.986	15728
881.112	15686
881.239	15530
881.366	15485
881.493	15332
881.619	15367
881.746	15294
881.872	15252
881.999	15313
882.125	15351
882.252	15359
882.378	15424
882.505	15473
882.631	15283
882.757	15089
882.883	15222
883.01	15131
883.136	15108
883.262	15020
883.388	14994
883.514	15214
883.64	15287
883.766	15089
883.892	14937
884.018	14963
884.143	15097
884.269	15237
884.395	14918
884.52	14762
884.646	14868
884.772	14815
884.897	14785
885.023	14883
885.148	14937
885.274	14994
885.399	14941
885.524	14773
885.65	14876
885.775	14762
885.9	14724
886.025	14948
886.15	14899
886.275	14773
886.4	14720
886.525	14838
886.65	14861
886.775	14785
886.9	14956
887.025	15085
887.149	14807
887.274	14667
887.399	14583
887.523	14686
887.648	14659
887.773	14533
887.897	14655
888.021	14785
888.146	14610
888.27	14769
888.395	14800
888.519	14727
888.643	14750
888.767	14727
888.891	14522
889.015	14625
889.139	14587
889.263	14434
889.387	14648
889.511	14746
889.635	14682
889.759	14454
889.883	14511
890.006	14560
890.13	14613
890.254	14511
890.377	14415
890.501	14290
890.624	14298
890.748	14393
890.871	14225
890.995	14123
891.118	14180
891.241	14164
891.364	14347
891.488	14244
891.611	14153
891.734	14206
891.857	14339
891.98	14259
892.103	14366
892.226	14233
892.349	14256
892.471	13951
892.594	14206
892.717	14256
892.839	14187
892.962	14218
893.085	14332
893.207	14298
893.33	14191
893.452	14168
893.575	14328
893.697	14134
893.819	14404
893.941	14488
894.064	14275
894.186	14191
894.308	14225
894.43	14358
894.552	14434
894.674	14377
894.796	14180
894.918	14275
895.04	14290
895.161	14347
895.283	14305
895.405	14275
895.526	14256
895.648	14328
895.769	14290
895.891	14347
896.012	14431
896.134	14457
896.255	14339
896.376	14324
896.498	14404
896.619	14457
896.74	14434
896.861	14461
896.982	14689
897.103	14834
897.224	14667
897.345	14678
897.466	14541
897.587	14693
897.708	14792
897.828	14697
897.949	14667
898.07	14499
898.19	14655
898.311	14796
898.431	14762
898.552	14754
898.672	14785
898.792	14883
898.913	14727
899.033	14648
899.153	14560
899.273	14503
899.393	14602
899.513	14587
899.633	14499
899.753	14629
899.873	14469
899.993	14610
900.113	14530
900.232	14678
900.352	14678
900.472	14610
900.591	14362
900.711	14480
900.83	14484
900.95	14537
901.069	14560
901.189	14454
901.308	14263
901.427	14035
901.546	14062
901.665	14164
901.784	14161
901.904	14100
902.023	13982
902.141	13788
902.26	13750
902.379	13765
902.498	13693
902.617	13601
902.735	13700
902.854	13651
902.973	13590
903.091	13415
903.21	13346
903.328	13426
903.446	13335
903.565	13259
903.683	13282
903.801	13190
903.919	13263
904.038	13236
904.156	13126
904.274	13190
904.392	13152
904.51	13023
904.627	13072
904.745	13152
904.863	13050
904.981	12924
905.098	12776
905.216	12764
905.334	12768
905.451	12779
905.569	12760
905.686	12814
905.803	12779
905.921	12639
906.038	12650
906.155	12578
906.272	12509
906.389	12604
906.506	12285
906.623	12342
906.74	12395
906.857	12228
906.974	12281
907.091	12376
907.208	12422
907.324	12300
907.441	12323
907.557	12155
907.674	12159
907.79	11965
907.907	12011
908.023	12095
908.139	12068
908.256	12087
908.372	12060
908.488	12003
908.604	11855
908.72	11840
908.836	11836
908.952	11779
909.068	11802
909.184	11843
909.3	11920
909.415	11901
909.531	11863
909.647	11638
909.762	11604
909.878	11490
909.993	11695
910.108	11608
910.224	11627
910.339	11592
910.454	11543
910.57	11474
910.685	11383
910.8	11729
910.915	11737
911.03	11512
911.145	11356
911.259	11337
911.374	11280
911.489	11189
911.604	11231
911.718	11109
911.833	11124
911.947	11022
912.062	10881
912.176	10980
912.291	11147
912.405	11086
912.519	11292
912.633	11326
912.748	11204
912.862	11029
912.976	10999
913.09	10915
913.204	10896
913.318	10972
913.431	11083
913.545	11155
913.659	10980
913.772	11037
913.886	10812
914	10793
914.113	10968
914.226	11037
914.34	10854
914.453	10790
914.566	10892
914.68	10854
914.793	10767
914.906	10634
915.019	10508
915.132	10512
915.245	10535
915.358	10634
915.47	10554
915.583	10630
915.696	10626
915.809	10698
915.921	10702
916.034	10508
916.146	10592
916.259	10519
916.371	10664
916.483	10596
916.595	10497
916.708	10466
916.82	10508
916.932	10500
917.044	10523
917.156	10398
917.268	10257
917.38	10459
917.491	10299
917.603	10474
917.715	10508
917.826	10565
917.938	10443
918.049	10284
918.161	10421
918.272	10550
918.384	10538
918.495	10409
918.606	10299
918.717	10249
918.828	10276
918.939	10306
919.05	10196
919.161	10234
919.272	10093
919.383	10162
919.494	10375
919.604	10462
919.715	10276
919.826	10249
919.936	10246
920.047	10360
920.157	10249
920.267	10489
920.378	10303
920.488	10318
920.598	10542
920.708	10622
920.818	10485
920.928	10478
921.038	10645
921.148	10660
921.258	10382
921.368	10261
921.477	10120
921.587	10090
921.697	10021
921.806	10154
921.916	10013
922.025	9926
922.134	9823
922.244	9812
922.353	9907
922.462	9759
922.571	9743
922.68	9576
922.789	9538
922.898	9515
923.007	9416
923.116	9564
923.224	9549
923.333	9553
923.442	9450
923.55	9435
923.659	9462
923.767	9466
923.876	9389
923.984	9469
924.092	9363
924.201	9511
924.309	9431
924.417	9431
924.525	9363
924.633	9374
924.741	10306
924.849	9180
924.956	9363
925.064	9142
925.172	9157
925.279	9146
925.387	9188
925.494	9211
925.602	9249
925.709	9264
925.816	9184
925.924	9230
926.031	9313
926.138	9211
926.245	9237
926.352	9192
926.459	9211
926.566	9313
926.673	9207
926.779	9077
926.886	9081
926.993	8891
927.099	8861
927.206	8868
927.312	8929
927.419	8941
927.525	8849
927.631	8998
927.737	8823
927.843	8838
927.95	8663
928.056	8762
928.162	8796
928.267	8849
928.373	9405
928.479	8868
928.585	8629
928.69	8743
928.796	8868
928.901	8743
929.007	8621
929.112	8758
929.218	8697
929.323	8667
929.428	8549
929.533	8697
929.638	8511
929.743	8587
929.848	8625
929.953	8560
930.058	8503
930.163	8358
930.267	8415
930.372	8526
930.477	8370
930.581	8648
930.685	8484
930.79	8328
930.894	8343
930.998	8336
931.103	8518
931.207	8107
931.311	8065
931.415	8020
931.519	7860
931.623	7925
