Data from test_V78500241_3684.txt Node
Date: Fri Mar 25 14:59:22 CST 2022
User: usil
Spectrometer: V785-0024
Trigger mode: 0
Integration Time (sec): 4.000000E-1
Scans to average: 1
Nonlinearity correction enabled: false
Boxcar width: 0
Storing dark spectrum: false
XAxis mode: Wavelengths
Number of Pixels in Spectrum: 1024
>>>>>Begin Spectral Data<<<<<
801.071	21865
801.214	21827
801.356	21443
801.499	21367
801.641	21374
801.783	21317
801.926	21283
802.068	21218
802.211	21184
802.353	21165
802.496	20963
802.638	20785
802.78	20743
802.923	20625
803.065	20518
803.208	20636
803.35	20606
803.492	20796
803.635	20758
803.777	20568
803.919	20727
804.061	20975
804.204	20693
804.346	20533
804.488	20465
804.63	20625
804.773	20503
804.915	20560
805.057	20587
805.199	20480
805.341	20571
805.483	20678
805.626	20590
805.768	20438
805.91	20503
806.052	20670
806.194	20412
806.336	20689
806.478	20393
806.62	20347
806.762	20560
806.904	20682
807.046	20979
807.188	20777
807.33	20842
807.472	20830
807.614	20701
807.756	20735
807.898	20686
808.04	20503
808.182	20488
808.324	20541
808.465	20632
808.607	20807
808.749	20902
808.891	20990
809.033	21062
809.174	20895
809.316	20796
809.458	20952
809.6	20849
809.741	20914
809.883	21058
810.025	20998
810.166	20998
810.308	20990
810.45	20986
810.591	20815
810.733	20891
810.875	20708
811.016	20594
811.158	20606
811.299	20659
811.441	20701
811.582	20777
811.724	20583
811.865	20594
812.007	20625
812.148	20488
812.29	20609
812.431	20716
812.573	21036
812.714	20979
812.855	21138
812.997	21199
813.138	21420
813.279	21184
813.421	21161
813.562	21032
813.703	20830
813.845	20731
813.986	20431
814.127	20381
814.268	20218
814.41	20176
814.551	20111
814.692	20324
814.833	20069
814.974	20157
815.115	20081
815.256	19928
815.397	20050
815.539	19989
815.68	19894
815.821	19841
815.962	19898
816.103	19913
816.244	19719
816.385	19666
816.526	19552
816.666	19510
816.807	19228
816.948	19415
817.089	19350
817.23	19316
817.371	19339
817.512	19346
817.653	19392
817.793	19228
817.934	19278
818.075	19285
818.216	19236
818.356	19122
818.497	19042
818.638	18890
818.778	19019
818.919	19053
819.06	19027
819.2	19012
819.341	19304
819.481	19107
819.622	19388
819.762	19476
819.903	19346
820.043	19369
820.184	19362
820.324	19331
820.465	19327
820.605	19346
820.746	19232
820.886	19171
821.026	19240
821.167	19259
821.307	19293
821.447	19202
821.588	19107
821.728	18901
821.868	18875
822.008	18635
822.149	18642
822.289	18741
822.429	18528
822.569	18334
822.709	18350
822.849	18186
822.99	18205
823.13	18072
823.27	18152
823.41	17980
823.55	17904
823.69	17950
823.83	17863
823.97	17939
824.11	17764
824.25	17668
824.389	17714
824.529	17821
824.669	17779
824.809	17893
824.949	17783
825.089	17973
825.228	17756
825.368	17543
825.508	17535
825.648	17581
825.787	17566
825.927	17596
826.067	17501
826.206	17402
826.346	17604
826.485	17551
826.625	17600
826.765	17604
826.904	17532
827.044	17356
827.183	17277
827.323	17227
827.462	17292
827.601	17246
827.741	17151
827.88	17345
828.02	17083
828.159	17261
828.298	17239
828.437	17391
828.577	17235
828.716	17433
828.855	17185
828.994	17003
829.134	17003
829.273	17105
829.412	16984
829.551	16995
829.69	16980
829.829	17022
829.968	17151
830.107	16987
830.246	17041
830.385	16942
830.524	16957
830.663	16786
830.802	16748
830.941	16611
831.08	16592
831.219	16611
831.357	16634
831.496	16816
831.635	16573
831.774	16611
831.913	16565
832.051	16371
832.19	16565
832.329	16504
832.467	16196
832.606	16219
832.744	16318
832.883	16367
833.022	16322
833.16	16325
833.299	16386
833.437	16287
833.576	16379
833.714	16325
833.852	16504
833.991	16455
834.129	16512
834.267	16440
834.406	16413
834.544	16432
834.682	16363
834.821	16360
834.959	16417
835.097	16375
835.235	16303
835.373	16421
835.511	16390
835.65	16253
835.788	16249
835.926	16207
836.064	16051
836.202	16059
836.34	16253
836.478	16405
836.615	16287
836.753	16360
836.891	16421
837.029	16382
837.167	16272
837.305	16211
837.443	16139
837.58	16166
837.718	16204
837.856	16249
837.993	16143
838.131	16150
838.269	16112
838.406	16166
838.544	15991
838.681	15884
838.819	15899
838.956	15694
839.094	15781
839.231	15846
839.369	15876
839.506	16131
839.643	15934
839.781	15644
839.918	15701
840.055	15724
840.193	15778
840.33	15755
840.467	15770
840.604	15720
840.742	16021
840.879	15610
841.016	15637
841.153	15633
841.29	15831
841.427	15705
841.564	15751
841.701	15728
841.838	15713
841.975	15515
842.112	15633
842.249	15644
842.385	15599
842.522	15644
842.659	15504
842.796	15492
842.933	15618
843.069	15576
843.206	15439
843.343	15625
843.479	15496
843.616	15507
843.752	15287
843.889	15321
844.025	15473
844.162	15336
844.298	15397
844.435	15355
844.571	15321
844.708	15291
844.844	15454
844.98	15416
845.117	15401
845.253	15093
845.389	15188
845.525	15214
845.661	15169
845.798	15104
845.934	15241
846.07	15089
846.206	15154
846.342	15180
846.478	15116
846.614	14986
846.75	14693
846.886	14899
847.022	15085
847.158	14861
847.294	14975
847.429	14895
847.565	14895
847.701	15146
847.837	14575
847.972	14697
848.108	14731
848.244	14583
848.379	14621
848.515	14564
848.65	14507
848.786	14454
848.921	14507
849.057	14602
849.192	14594
849.328	14480
849.463	14541
849.598	14362
849.734	14282
849.869	14358
850.004	14282
850.14	14381
850.275	14309
850.41	14123
850.545	14259
850.68	14164
850.815	14286
850.95	14214
851.085	14423
851.22	14396
851.355	14199
851.49	14199
851.625	14206
851.76	14183
851.895	14130
852.03	14142
852.165	14161
852.299	14347
852.434	14328
852.569	14298
852.703	14358
852.838	14332
852.973	14408
853.107	14275
853.242	14332
853.376	14164
853.511	14069
853.645	14107
853.78	14286
853.914	14240
854.048	14096
854.183	14077
854.317	14062
854.451	14317
854.585	14092
854.72	14100
854.854	14202
854.988	14081
855.122	14123
855.256	13986
855.39	14084
855.524	14259
855.658	14115
855.792	14191
855.926	14237
856.06	14115
856.194	14103
856.327	14123
856.461	13970
856.595	14138
856.729	14069
856.862	14256
856.996	14210
857.13	14161
857.263	14252
857.397	14263
857.53	14214
857.664	14240
857.797	14275
857.931	14256
858.064	14176
858.197	14324
858.331	14240
858.464	14084
858.597	13982
858.731	14157
858.864	14305
858.997	14145
859.13	14301
859.263	14275
859.396	14229
859.529	14218
859.662	14115
859.795	14096
859.928	14183
860.061	14278
860.194	14336
860.327	14206
860.46	14123
860.592	14320
860.725	14286
860.858	14282
860.99	14164
861.123	14111
861.256	14119
861.388	14111
861.521	14914
861.653	13982
861.786	13967
861.918	14016
862.05	14077
862.183	14027
862.315	14115
862.447	14142
862.58	14103
862.712	13906
862.844	13868
862.976	14012
863.108	13955
863.24	14461
863.372	13909
863.504	13974
863.636	13906
863.768	13921
863.9	13936
864.032	13902
864.164	13913
864.296	13967
864.428	14001
864.559	14119
864.691	14012
864.823	13955
864.954	14005
865.086	14008
865.217	13833
865.349	13833
865.48	13921
865.612	13955
865.743	14046
865.875	13974
866.006	13906
866.137	13909
866.269	13936
866.4	13955
866.531	13894
866.662	13826
866.793	13856
866.924	13913
867.055	13917
867.186	13940
867.317	13902
867.448	13894
867.579	13917
867.71	13845
867.841	13959
867.972	13894
868.103	13883
868.233	13894
868.364	13967
868.495	14084
868.625	14058
868.756	14309
868.886	14020
869.017	14180
869.147	14290
869.278	14237
869.408	14145
869.539	14176
869.669	14218
869.799	14149
869.929	14256
870.06	14214
870.19	14473
870.32	14495
870.45	14518
870.58	14648
870.71	14625
870.84	14788
870.97	14507
871.1	14530
871.23	14727
871.36	14845
871.489	14705
871.619	14693
871.749	14785
871.879	14842
872.008	14921
872.138	14845
872.267	14720
872.397	14640
872.526	14537
872.656	14636
872.785	14594
872.915	14804
873.044	14849
873.173	14800
873.303	14887
873.432	14868
873.561	14872
873.69	14838
873.819	14857
873.948	14899
874.077	14853
874.206	14716
874.335	14807
874.464	14944
874.593	15112
874.722	14998
874.851	15154
874.979	15154
875.108	15142
875.237	15093
875.365	15077
875.494	15100
875.623	15272
875.751	15154
875.88	15230
876.008	15287
876.136	15386
876.265	15542
876.393	15808
876.521	15652
876.65	15637
876.778	15606
876.906	15584
877.034	15481
877.162	15549
877.29	15473
877.418	15542
877.546	15488
877.674	15584
877.802	15458
877.93	15587
878.058	15435
878.185	15507
878.313	15587
878.441	15545
878.568	15439
878.696	15538
878.824	15599
878.951	15675
879.079	15709
879.206	15922
879.333	15671
879.461	15606
879.588	15698
879.715	15774
879.842	15774
879.97	15591
880.097	15401
880.224	15443
880.351	15412
880.478	15473
880.605	15325
880.732	15408
880.859	15698
880.986	15405
881.112	15496
881.239	15317
881.366	15195
881.493	15188
881.619	14979
881.746	15081
881.872	15081
881.999	15043
882.125	14914
882.252	15146
882.378	15112
882.505	15173
882.631	14982
882.757	14941
882.883	14975
883.01	15001
883.136	14804
883.262	14796
883.388	14762
883.514	14963
883.64	14998
883.766	14796
883.892	14739
884.018	14693
884.143	14895
884.269	14861
884.395	14648
884.52	14594
884.646	14613
884.772	14537
884.897	14469
885.023	14564
885.148	14625
885.274	14781
885.399	14689
885.524	14568
885.65	14530
885.775	14629
885.9	14575
886.025	14724
886.15	14705
886.275	14560
886.4	14465
886.525	14552
886.65	14492
886.775	14507
886.9	14792
887.025	14693
887.149	14560
887.274	14469
887.399	14339
887.523	14438
887.648	14343
887.773	14358
887.897	14530
888.021	14511
888.146	14389
888.27	14484
888.395	14617
888.519	14511
888.643	14549
888.767	14469
888.891	14412
889.015	14298
889.139	14332
889.263	14290
889.387	14351
889.511	14526
889.635	14389
889.759	14195
889.883	14358
890.006	14332
890.13	14427
890.254	14366
890.377	14183
890.501	14134
890.624	14012
890.748	14088
890.871	14073
890.995	13879
891.118	13913
891.241	14005
891.364	14016
891.488	14031
891.611	13913
891.734	13963
891.857	14084
891.98	14050
892.103	14054
892.226	14035
892.349	13906
892.471	13864
892.594	14027
892.717	13993
892.839	13921
892.962	14031
893.085	14062
893.207	13989
893.33	13788
893.452	13928
893.575	13982
893.697	13940
893.819	14153
893.941	14267
894.064	14073
894.186	13917
894.308	14039
894.43	14062
894.552	14244
894.674	14107
894.796	13974
894.918	14039
895.04	14035
895.161	14183
895.283	14039
895.405	14065
895.526	14149
895.648	14107
895.769	14100
895.891	14164
896.012	14172
896.134	14210
896.255	14233
896.376	14107
896.498	14126
896.619	14164
896.74	14069
896.861	14248
896.982	14457
897.103	14678
897.224	14438
897.345	14415
897.466	14320
897.587	14419
897.708	14533
897.828	14457
897.949	14377
898.07	14286
898.19	14465
898.311	14492
898.431	14480
898.552	14549
898.672	14579
898.792	14568
898.913	14492
899.033	14396
899.153	14381
899.273	14248
899.393	14389
899.513	14317
899.633	14362
899.753	14393
899.873	14400
899.993	14351
900.113	14298
900.232	14336
900.352	14393
900.472	14210
900.591	14233
900.711	14218
900.83	14111
900.95	14290
901.069	14267
901.189	14111
901.308	14016
901.427	13925
901.546	13833
901.665	13963
901.784	13883
901.904	13814
902.023	13670
902.141	13468
902.26	13483
902.379	13590
902.498	13381
902.617	13457
902.735	13445
902.854	13525
902.973	13525
903.091	13244
903.21	13221
903.328	13145
903.446	13145
903.565	13099
903.683	12996
903.801	12977
903.919	12989
904.038	13099
904.156	12897
904.274	12966
904.392	12913
904.51	12913
904.627	12875
904.745	12905
904.863	12928
904.981	12669
905.098	12532
905.216	12502
905.334	12623
905.451	12627
905.569	12525
905.686	12589
905.803	12582
905.921	12422
906.038	12502
906.155	12410
906.272	12304
906.389	12376
906.506	12159
906.623	12190
906.74	12163
906.857	12030
906.974	12136
907.091	12289
907.208	12243
907.324	12201
907.441	12019
907.557	11946
907.674	11920
907.79	11870
907.907	11916
908.023	11897
908.139	11874
908.256	11882
908.372	11870
908.488	11821
908.604	11756
908.72	11661
908.836	11703
908.952	11718
909.068	11676
909.184	11805
909.3	11638
909.415	11722
909.531	11665
909.647	11455
909.762	11398
909.878	11425
909.993	11417
910.108	11387
910.224	11474
910.339	11398
910.454	11395
910.57	11288
910.685	11181
910.8	11436
910.915	11444
911.03	11277
911.145	11231
911.259	11159
911.374	11083
911.489	11143
911.604	11022
911.718	10889
911.833	10961
911.947	10790
912.062	10694
912.176	10889
912.291	10930
912.405	10881
912.519	11022
912.633	11090
912.748	10934
912.862	10881
912.976	10805
913.09	10641
913.204	10706
913.318	10740
913.431	10850
913.545	10862
913.659	10866
913.772	10771
913.886	10618
914	10653
914.113	10816
914.226	10797
914.34	10752
914.453	10603
914.566	10733
914.68	10687
914.793	10645
914.906	10481
915.019	10466
915.132	10306
915.245	10440
915.358	10432
915.47	10443
915.583	10398
915.696	10462
915.809	10550
915.921	10569
916.034	10367
916.146	10379
916.259	10249
916.371	10436
916.483	10462
916.595	10276
916.708	10360
916.82	10390
916.932	10360
917.044	10303
917.156	10246
917.268	10188
917.38	10234
917.491	10287
917.603	10227
917.715	10303
917.826	10402
917.938	10219
918.049	10109
918.161	10227
918.272	10375
918.384	10318
918.495	10219
918.606	10131
918.717	10036
918.828	10192
918.939	10135
919.05	10055
919.161	10166
919.272	9918
919.383	9987
919.494	10249
919.604	10280
919.715	10162
919.826	10044
919.936	10150
920.047	10188
920.157	10234
920.267	10333
920.378	10177
920.488	10105
920.598	10318
920.708	10516
920.818	10314
920.928	10295
921.038	10504
921.148	10432
921.258	10246
921.368	10078
921.477	10067
921.587	9975
921.697	9918
921.806	9991
921.916	9854
922.025	9789
922.134	9785
922.244	9698
922.353	9778
922.462	9561
922.571	9553
922.68	9405
922.789	9344
922.898	9424
923.007	9355
923.116	9462
923.224	9393
923.333	9336
923.442	9256
923.55	9382
923.659	9321
923.767	9351
923.876	9279
923.984	9279
924.092	9237
924.201	9237
924.309	9249
924.417	9294
924.525	9272
924.633	9294
924.741	10040
924.849	9047
924.956	9218
925.064	9062
925.172	9009
925.279	9039
925.387	9093
925.494	9070
925.602	9195
925.709	9146
925.816	9047
925.924	9127
926.031	9199
926.138	9226
926.245	9089
926.352	9028
926.459	9230
926.566	9108
926.673	9066
926.779	8982
926.886	8971
926.993	8826
927.099	8796
927.206	8796
927.312	8743
927.419	8826
927.525	8857
927.631	8880
927.737	8811
927.843	8636
927.95	8610
928.056	8674
928.162	8693
928.267	8724
928.373	9199
928.479	8823
928.585	8613
928.69	8655
928.796	8773
928.901	8598
929.007	8514
929.112	8587
929.218	8556
929.323	8564
929.428	8499
929.533	8663
929.638	8419
929.743	8480
929.848	8568
929.953	8514
930.058	8370
930.163	8282
930.267	8282
930.372	8442
930.477	8263
930.581	8522
930.685	8370
930.79	8214
930.894	8248
930.998	8218
931.103	8324
931.207	8001
931.311	7868
931.415	7921
931.519	7723
931.623	7780
