Data from test_V78500241_3643.txt Node
Date: Fri Mar 25 14:59:05 CST 2022
User: usil
Spectrometer: V785-0024
Trigger mode: 0
Integration Time (sec): 4.000000E-1
Scans to average: 1
Nonlinearity correction enabled: false
Boxcar width: 0
Storing dark spectrum: false
XAxis mode: Wavelengths
Number of Pixels in Spectrum: 1024
>>>>>Begin Spectral Data<<<<<
801.071	21972
801.214	21823
801.356	21637
801.499	21485
801.641	21233
801.783	21374
801.926	21298
802.068	21180
802.211	21157
802.353	21074
802.496	20838
802.638	20705
802.78	20769
802.923	20655
803.065	20476
803.208	20583
803.35	20648
803.492	20670
803.635	20731
803.777	20598
803.919	20701
804.061	20925
804.204	20735
804.346	20427
804.488	20560
804.63	20492
804.773	20457
804.915	20499
805.057	20648
805.199	20571
805.341	20537
805.483	20613
805.626	20606
805.768	20518
805.91	20598
806.052	20492
806.194	20393
806.336	20541
806.478	20556
806.62	20461
806.762	20488
806.904	20678
807.046	20868
807.188	20887
807.33	20883
807.472	20941
807.614	20823
807.756	20754
807.898	20678
808.04	20651
808.182	20450
808.324	20533
808.465	20533
808.607	20842
808.749	20876
808.891	20895
809.033	21001
809.174	20986
809.316	20902
809.458	20914
809.6	20868
809.741	20872
809.883	20986
810.025	21032
810.166	21005
810.308	21047
810.45	21051
810.591	20895
810.733	20682
810.875	20663
811.016	20636
811.158	20450
811.299	20743
811.441	20697
811.582	20762
811.724	20579
811.865	20575
812.007	20705
812.148	20484
812.29	20670
812.431	20746
812.573	20910
812.714	21077
812.855	21108
812.997	21195
813.138	21329
813.279	21264
813.421	21184
813.562	21020
813.703	20826
813.845	20758
813.986	20457
814.127	20252
814.268	20256
814.41	20275
814.551	20153
814.692	20206
814.833	20073
814.974	20088
815.115	20191
815.256	19936
815.397	20016
815.539	20016
815.68	19925
815.821	19860
815.962	19883
816.103	19887
816.244	19723
816.385	19582
816.526	19586
816.666	19339
816.807	19247
816.948	19335
817.089	19415
817.23	19343
817.371	19259
817.512	19255
817.653	19198
817.793	19213
817.934	19202
818.075	19266
818.216	19263
818.356	19217
818.497	19129
818.638	18951
818.778	18909
818.919	18909
819.06	18962
819.2	19202
819.341	19145
819.481	19168
819.622	19301
819.762	19476
819.903	19346
820.043	19384
820.184	19362
820.324	19354
820.465	19400
820.605	19293
820.746	19324
820.886	19129
821.026	19312
821.167	19320
821.307	19362
821.447	19164
821.588	19240
821.728	18935
821.868	18844
822.008	18684
822.149	18654
822.289	18623
822.429	18532
822.569	18353
822.709	18395
822.849	18102
822.99	18152
823.13	18171
823.27	18148
823.41	18011
823.55	17999
823.69	18022
823.83	18053
823.97	17912
824.11	17779
824.25	17752
824.389	17703
824.529	17809
824.669	17794
824.809	17885
824.949	17840
825.089	17786
825.228	17863
825.368	17592
825.508	17657
825.648	17665
825.787	17535
825.927	17581
826.067	17577
826.206	17604
826.346	17577
826.485	17558
826.625	17539
826.765	17680
826.904	17619
827.044	17417
827.183	17372
827.323	17303
827.462	17307
827.601	17223
827.741	17311
827.88	17334
828.02	17143
828.159	17345
828.298	17250
828.437	17383
828.577	17288
828.716	17444
828.855	17204
828.994	17045
829.134	17064
829.273	17075
829.412	16980
829.551	16915
829.69	17045
829.829	16991
829.968	17029
830.107	17105
830.246	17094
830.385	16946
830.524	16915
830.663	16858
830.802	16660
830.941	16645
831.08	16622
831.219	16649
831.357	16660
831.496	16873
831.635	16679
831.774	16649
831.913	16512
832.051	16459
832.19	16462
832.329	16512
832.467	16325
832.606	16329
832.744	16272
832.883	16280
833.022	16322
833.16	16421
833.299	16322
833.437	16367
833.576	16333
833.714	16402
833.852	16398
833.991	16451
834.129	16443
834.267	16379
834.406	16409
834.544	16489
834.682	16367
834.821	16424
834.959	16561
835.097	16360
835.235	16432
835.373	16462
835.511	16462
835.65	16440
835.788	16371
835.926	16246
836.064	16059
836.202	16063
836.34	16287
836.478	16436
836.615	16344
836.753	16337
836.891	16462
837.029	16215
837.167	16268
837.305	16234
837.443	16169
837.58	16166
837.718	16188
837.856	16246
837.993	16124
838.131	16238
838.269	16109
838.406	16158
838.544	16067
838.681	15899
838.819	15888
838.956	15736
839.094	15698
839.231	15778
839.369	15884
839.506	16147
839.643	16010
839.781	15713
839.918	15660
840.055	15774
840.193	15682
840.33	15637
840.467	15720
840.604	15755
840.742	15991
840.879	15606
841.016	15606
841.153	15530
841.29	15850
841.427	15724
841.564	15823
841.701	15709
841.838	15778
841.975	15679
842.112	15671
842.249	15526
842.385	15469
842.522	15671
842.659	15572
842.796	15462
842.933	15568
843.069	15526
843.206	15523
843.343	15576
843.479	15469
843.616	15591
843.752	15340
843.889	15340
844.025	15504
844.162	15310
844.298	15450
844.435	15317
844.571	15268
844.708	15420
844.844	15549
844.98	15530
845.117	15458
845.253	15264
845.389	15116
845.525	15226
845.661	15150
845.798	15127
845.934	15104
846.07	15051
846.206	15226
846.342	15302
846.478	15074
846.614	14910
846.75	14994
846.886	14792
847.022	15024
847.158	14876
847.294	14941
847.429	14971
847.565	14925
847.701	15097
847.837	14632
847.972	14575
848.108	14804
848.244	14815
848.379	14476
848.515	14499
848.65	14431
848.786	14526
848.921	14541
849.057	14564
849.192	14556
849.328	14461
849.463	14530
849.598	14434
849.734	14457
849.869	14393
850.004	14244
850.14	14301
850.275	14294
850.41	14221
850.545	14259
850.68	14164
850.815	14282
850.95	14256
851.085	14457
851.22	14355
851.355	14309
851.49	14229
851.625	14210
851.76	14187
851.895	14119
852.03	14134
852.165	14282
852.299	14290
852.434	14370
852.569	14381
852.703	14252
852.838	14324
852.973	14499
853.107	14473
853.242	14214
853.376	14191
853.511	14100
853.645	14092
853.78	14248
853.914	14187
854.048	14130
854.183	14103
854.317	14225
854.451	14229
854.585	14111
854.72	14058
854.854	14168
854.988	13993
855.122	14187
855.256	14024
855.39	14119
855.524	14206
855.658	14176
855.792	14176
855.926	14210
856.06	14168
856.194	14237
856.327	14183
856.461	14130
856.595	14107
856.729	14142
856.862	14240
856.996	14100
857.13	14161
857.263	14237
857.397	14317
857.53	14214
857.664	14138
857.797	14259
857.931	14305
858.064	14225
858.197	14214
858.331	14233
858.464	14084
858.597	14096
858.731	14073
858.864	14138
858.997	13986
859.13	14176
859.263	14119
859.396	14298
859.529	14187
859.662	14130
859.795	14031
859.928	14073
860.061	14271
860.194	14374
860.327	14164
860.46	14142
860.592	14187
860.725	14320
860.858	14263
860.99	14168
861.123	14142
861.256	14043
861.388	14103
861.521	14906
861.653	13921
861.786	14008
861.918	14043
862.05	14084
862.183	13982
862.315	14092
862.447	14187
862.58	14054
862.712	13913
862.844	13868
862.976	14024
863.108	13989
863.24	14233
863.372	13871
863.504	13879
863.636	13837
863.768	14005
863.9	13940
864.032	13879
864.164	13890
864.296	13978
864.428	13974
864.559	13951
864.691	14058
864.823	13993
864.954	13951
865.086	13944
865.217	13932
865.349	13887
865.48	13955
865.612	13997
865.743	13978
865.875	13970
866.006	13921
866.137	13894
866.269	13940
866.4	13902
866.531	13925
866.662	13791
866.793	13837
866.924	13902
867.055	13986
867.186	13868
867.317	13890
867.448	13685
867.579	13811
867.71	13860
867.841	13887
867.972	13921
868.103	13841
868.233	13936
868.364	13868
868.495	14035
868.625	14111
868.756	14130
868.886	14103
869.017	14138
869.147	14267
869.278	14313
869.408	14126
869.539	14237
869.669	14218
869.799	14172
869.929	14298
870.06	14240
870.19	14446
870.32	14423
870.45	14571
870.58	14587
870.71	14689
870.84	14705
870.97	14545
871.1	14522
871.23	14758
871.36	14731
871.489	14522
871.619	14693
871.749	14765
871.879	14724
872.008	14830
872.138	14758
872.267	14792
872.397	14629
872.526	14560
872.656	14610
872.785	14613
872.915	14823
873.044	14925
873.173	14739
873.303	14861
873.432	14811
873.561	14819
873.69	14720
873.819	14750
873.948	14830
874.077	14861
874.206	14701
874.335	14777
874.464	14914
874.593	15119
874.722	15127
874.851	15123
874.979	15184
875.108	15150
875.237	15104
875.365	15097
875.494	15066
875.623	15157
875.751	15043
875.88	15104
876.008	15218
876.136	15428
876.265	15530
876.393	15717
876.521	15633
876.65	15618
876.778	15580
876.906	15443
877.034	15469
877.162	15511
877.29	15466
877.418	15603
877.546	15485
877.674	15519
877.802	15606
877.93	15610
878.058	15515
878.185	15397
878.313	15492
878.441	15519
878.568	15340
878.696	15439
878.824	15572
878.951	15606
879.079	15831
879.206	15915
879.333	15599
879.461	15507
879.588	15663
879.715	15686
879.842	15800
879.97	15545
880.097	15435
880.224	15355
880.351	15454
880.478	15336
880.605	15340
880.732	15329
880.859	15523
880.986	15291
881.112	15492
881.239	15199
881.366	15176
881.493	15104
881.619	15043
881.746	15032
881.872	15138
881.999	15017
882.125	14906
882.252	15066
882.378	15013
882.505	15230
882.631	15005
882.757	14819
882.883	14910
883.01	14830
883.136	14667
883.262	14663
883.388	14613
883.514	14910
883.64	15009
883.766	14781
883.892	14705
884.018	14769
884.143	14952
884.269	14918
884.395	14651
884.52	14545
884.646	14606
884.772	14541
884.897	14503
885.023	14556
885.148	14674
885.274	14758
885.399	14636
885.524	14590
885.65	14568
885.775	14617
885.9	14651
886.025	14720
886.15	14674
886.275	14480
886.4	14473
886.525	14503
886.65	14507
886.775	14438
886.9	14689
887.025	14708
887.149	14476
887.274	14355
887.399	14347
887.523	14366
887.648	14305
887.773	14225
887.897	14389
888.021	14514
888.146	14374
888.27	14480
888.395	14533
888.519	14461
888.643	14533
888.767	14431
888.891	14294
889.015	14214
889.139	14339
889.263	14237
889.387	14362
889.511	14545
889.635	14442
889.759	14271
889.883	14309
890.006	14183
890.13	14396
890.254	14187
890.377	14218
890.501	14168
890.624	13997
890.748	14202
890.871	13982
890.995	13955
891.118	13890
891.241	13944
891.364	13970
891.488	14088
891.611	13947
891.734	14012
891.857	13955
891.98	14088
892.103	14016
892.226	13997
892.349	13940
892.471	13799
892.594	14031
892.717	14005
892.839	13940
892.962	13890
893.085	13947
893.207	14012
893.33	13890
893.452	13849
893.575	13997
893.697	13982
893.819	14092
893.941	14271
894.064	14103
894.186	13932
894.308	13890
894.43	14054
894.552	14275
894.674	14043
894.796	13974
894.918	13967
895.04	14008
895.161	14157
895.283	14046
895.405	14005
895.526	14084
895.648	14119
895.769	14142
895.891	14206
896.012	14271
896.134	14233
896.255	14111
896.376	14058
896.498	14176
896.619	14199
896.74	14103
896.861	14233
896.982	14434
897.103	14640
897.224	14492
897.345	14408
897.466	14298
897.587	14370
897.708	14427
897.828	14419
897.949	14317
898.07	14290
898.19	14377
898.311	14457
898.431	14480
898.552	14583
898.672	14587
898.792	14625
898.913	14594
899.033	14415
899.153	14362
899.273	14259
899.393	14248
899.513	14393
899.633	14370
899.753	14389
899.873	14263
899.993	14385
900.113	14294
900.232	14393
900.352	14301
900.472	14218
900.591	14138
900.711	14271
900.83	14077
900.95	14305
901.069	14290
901.189	14172
901.308	13909
901.427	13841
901.546	13955
901.665	13887
901.784	13890
901.904	13674
902.023	13727
902.141	13514
902.26	13472
902.379	13464
902.498	13453
902.617	13445
902.735	13525
902.854	13415
902.973	13381
903.091	13202
903.21	13122
903.328	13164
903.446	13031
903.565	13042
903.683	13061
903.801	12970
903.919	13050
904.038	13038
904.156	12894
904.274	12924
904.392	12817
904.51	12810
904.627	12795
904.745	12901
904.863	12958
904.981	12620
905.098	12612
905.216	12540
905.334	12574
905.451	12570
905.569	12441
905.686	12635
905.803	12540
905.921	12418
906.038	12361
906.155	12395
906.272	12213
906.389	12330
906.506	12140
906.623	12171
906.74	12125
906.857	12129
906.974	12030
907.091	12167
907.208	12285
907.324	12060
907.441	12125
907.557	11980
907.674	11870
907.79	11836
907.907	11843
908.023	11916
908.139	11863
908.256	11790
908.372	11832
908.488	11794
908.604	11695
908.72	11672
908.836	11573
908.952	11581
909.068	11688
909.184	11847
909.3	11661
909.415	11699
909.531	11646
909.647	11356
909.762	11505
909.878	11364
909.993	11417
910.108	11402
910.224	11395
910.339	11421
910.454	11326
910.57	11368
910.685	11155
910.8	11520
910.915	11436
911.03	11280
911.145	11162
911.259	11117
911.374	10999
911.489	11102
911.604	11075
911.718	10915
911.833	10877
911.947	10763
912.062	10759
912.176	10885
912.291	10866
912.405	10885
912.519	11079
912.633	11162
912.748	10915
912.862	10828
912.976	10710
913.09	10630
913.204	10733
913.318	10820
913.431	10911
913.545	10900
913.659	10919
913.772	10805
913.886	10672
914	10607
914.113	10752
914.226	10721
914.34	10755
914.453	10592
914.566	10691
914.68	10550
914.793	10599
914.906	10375
915.019	10318
915.132	10261
915.245	10390
915.358	10390
915.47	10428
915.583	10344
915.696	10379
915.809	10516
915.921	10542
916.034	10344
916.146	10371
916.259	10363
916.371	10413
916.483	10322
916.595	10443
916.708	10287
916.82	10382
916.932	10367
917.044	10268
917.156	10303
917.268	10234
917.38	10158
917.491	10207
917.603	10261
917.715	10356
917.826	10329
917.938	10177
918.049	10135
918.161	10280
918.272	10455
918.384	10341
918.495	10253
918.606	10116
918.717	10071
918.828	10166
918.939	10173
919.05	9994
919.161	10078
919.272	9895
919.383	9987
919.494	10185
919.604	10295
919.715	10249
919.826	10078
919.936	10078
920.047	10169
920.157	10169
920.267	10318
920.378	10207
920.488	10158
920.598	10306
920.708	10478
920.818	10261
920.928	10322
921.038	10531
921.148	10432
921.258	10227
921.368	10078
921.477	10101
921.587	10044
921.697	9850
921.806	10040
921.916	9888
922.025	9656
922.134	9667
922.244	9553
922.353	9743
922.462	9450
922.571	9538
922.68	9351
922.789	9359
922.898	9389
923.007	9310
923.116	9367
923.224	9336
923.333	9317
923.442	9306
923.55	9260
923.659	9317
923.767	9329
923.876	9211
923.984	9329
924.092	9184
924.201	9306
924.309	9268
924.417	9249
924.525	9176
924.633	9188
924.741	9998
924.849	9001
924.956	9173
925.064	9047
925.172	8948
925.279	8941
925.387	9112
925.494	9085
925.602	9146
925.709	9154
925.816	8941
925.924	9020
926.031	9066
926.138	9066
926.245	9074
926.352	8910
926.459	9116
926.566	9085
926.673	8937
926.779	8845
926.886	8933
926.993	8807
927.099	8758
927.206	8792
927.312	8739
927.419	8766
927.525	8739
927.631	8811
927.737	8670
927.843	8682
927.95	8556
928.056	8674
928.162	8670
928.267	8697
928.373	9131
928.479	8739
928.585	8476
928.69	8613
928.796	8644
928.901	8625
929.007	8408
929.112	8575
929.218	8522
929.323	8518
929.428	8526
929.533	8587
929.638	8381
929.743	8476
929.848	8518
929.953	8499
930.058	8389
930.163	8214
930.267	8202
930.372	8313
930.477	8252
930.581	8434
930.685	8320
930.79	8142
930.894	8183
930.998	8164
931.103	8313
931.207	7974
931.311	7940
931.415	7864
931.519	7734
931.623	7738
