Data from test_V78500241_472.txt Node
Date: Fri Mar 25 14:37:00 CST 2022
User: usil
Spectrometer: V785-0024
Trigger mode: 0
Integration Time (sec): 4.000000E-1
Scans to average: 1
Nonlinearity correction enabled: false
Boxcar width: 0
Storing dark spectrum: false
XAxis mode: Wavelengths
Number of Pixels in Spectrum: 1024
>>>>>Begin Spectral Data<<<<<
801.071	26526
801.214	26396
801.356	26206
801.499	26214
801.641	25982
801.783	25883
801.926	25959
802.068	25887
802.211	25902
802.353	25917
802.496	25753
802.638	25491
802.78	25628
802.923	25510
803.065	25415
803.208	25468
803.35	25510
803.492	25525
803.635	25639
803.777	25556
803.919	25597
804.061	25887
804.204	25609
804.346	25533
804.488	25422
804.63	25540
804.773	25324
804.915	25499
805.057	25643
805.199	25552
805.341	25434
805.483	25578
805.626	25571
805.768	25304
805.91	25552
806.052	25567
806.194	25369
806.336	25597
806.478	25468
806.62	25426
806.762	25624
806.904	25841
807.046	26065
807.188	25913
807.33	25856
807.472	26005
807.614	25765
807.756	25753
807.898	25708
808.04	25548
808.182	25632
808.324	25651
808.465	25601
808.607	25833
808.749	26031
808.891	26062
809.033	26153
809.174	26096
809.316	26046
809.458	25978
809.6	25940
809.741	25921
809.883	26031
810.025	26111
810.166	26187
810.308	26103
810.45	26176
810.591	26115
810.733	25928
810.875	25784
811.016	25757
811.158	25734
811.299	25845
811.441	25936
811.582	25936
811.724	25811
811.865	25856
812.007	25841
812.148	25795
812.29	25902
812.431	26020
812.573	26073
812.714	26103
812.855	26374
812.997	26427
813.138	26480
813.279	26549
813.421	26252
813.562	26218
813.703	25955
813.845	25951
813.986	25635
814.127	25567
814.268	25369
814.41	25354
814.551	25320
814.692	25331
814.833	25232
814.974	25266
815.115	25346
815.256	25091
815.397	25217
815.539	25148
815.68	25255
815.821	25107
815.962	25034
816.103	25122
816.244	24897
816.385	24867
816.526	24696
816.666	24578
816.807	24502
816.948	24582
817.089	24631
817.23	24502
817.371	24456
817.512	24433
817.653	24570
817.793	24376
817.934	24384
818.075	24589
818.216	24498
818.356	24445
818.497	24315
818.638	24117
818.778	24049
818.919	24220
819.06	24129
819.2	24350
819.341	24350
819.481	24342
819.622	24445
819.762	24776
819.903	24650
820.043	24517
820.184	24513
820.324	24327
820.465	24681
820.605	24342
820.746	24521
820.886	24380
821.026	24525
821.167	24300
821.307	24372
821.447	24338
821.588	24289
821.728	24148
821.868	23980
822.008	23786
822.149	23824
822.289	23687
822.429	23482
822.569	23524
822.709	23444
822.849	23197
822.99	23261
823.13	23322
823.27	23212
823.41	23166
823.55	22938
823.69	22961
823.83	23052
823.97	22904
824.11	22824
824.25	22805
824.389	22858
824.529	22873
824.669	22869
824.809	22873
824.949	22820
825.089	23003
825.228	22812
825.368	22641
825.508	22618
825.648	22611
825.787	22698
825.927	22691
826.067	22569
826.206	22607
826.346	22782
826.485	22744
826.625	22577
826.765	22782
826.904	22542
827.044	22402
827.183	22261
827.323	22314
827.462	22310
827.601	22367
827.741	22226
827.88	22329
828.02	22177
828.159	22204
828.298	22169
828.437	22261
828.577	22204
828.716	22234
828.855	22306
828.994	22017
829.134	22048
829.273	22051
829.412	21915
829.551	21991
829.69	21884
829.829	21953
829.968	22124
830.107	22013
830.246	22169
830.385	21903
830.524	21797
830.663	21854
830.802	21785
830.941	21564
831.08	21523
831.219	21675
831.357	21766
831.496	21724
831.635	21622
831.774	21469
831.913	21355
832.051	21294
832.19	21313
832.329	21252
832.467	21222
832.606	21161
832.744	21195
832.883	21275
833.022	21283
833.16	21222
833.299	21195
833.437	21230
833.576	21241
833.714	21119
833.852	21340
833.991	21207
834.129	21207
834.267	21287
834.406	21306
834.544	21184
834.682	21325
834.821	21237
834.959	21340
835.097	21211
835.235	21226
835.373	21176
835.511	21157
835.65	21165
835.788	21009
835.926	20944
836.064	21009
836.202	20861
836.34	21039
836.478	21119
836.615	21013
836.753	21036
836.891	21195
837.029	21165
837.167	20990
837.305	21066
837.443	20982
837.58	20887
837.718	21005
837.856	20910
837.993	20895
838.131	20944
838.269	20883
838.406	20823
838.544	20769
838.681	20568
838.819	20571
838.956	20336
839.094	20301
839.231	20469
839.369	20579
839.506	20720
839.643	20636
839.781	20347
839.918	20286
840.055	20286
840.193	20370
840.33	20286
840.467	20256
840.604	20320
840.742	20530
840.879	20271
841.016	20244
841.153	20218
841.29	20461
841.427	20355
841.564	20278
841.701	20298
841.838	20256
841.975	20237
842.112	20161
842.249	20142
842.385	19974
842.522	20267
842.659	20054
842.796	20016
842.933	19772
843.069	19967
843.206	19875
843.343	20024
843.479	20035
843.616	20016
843.752	19719
843.889	19909
844.025	19982
844.162	19841
844.298	19898
844.435	19727
844.571	19689
844.708	19784
844.844	19963
844.98	19769
845.117	19887
845.253	19795
845.389	19578
845.525	19734
845.661	19632
845.798	19521
845.934	19616
846.07	19628
846.206	19674
846.342	19715
846.478	19578
846.614	19430
846.75	19168
846.886	19209
847.022	19350
847.158	19175
847.294	19304
847.429	19308
847.565	19232
847.701	19415
847.837	19031
847.972	18901
848.108	19057
848.244	19008
848.379	18905
848.515	18844
848.65	18692
848.786	18787
848.921	18833
849.057	18894
849.192	18779
849.328	18859
849.463	18806
849.598	18741
849.734	18681
849.869	18623
850.004	18570
850.14	18589
850.275	18551
850.41	18502
850.545	18547
850.68	18570
850.815	18635
850.95	18486
851.085	18684
851.22	18681
851.355	18578
851.49	18563
851.625	18418
851.76	18445
851.895	18483
852.03	18464
852.165	18429
852.299	18566
852.434	18502
852.569	18536
852.703	18540
852.838	18623
852.973	18696
853.107	18589
853.242	18437
853.376	18376
853.511	18243
853.645	18456
853.78	18620
853.914	18479
854.048	18384
854.183	18384
854.317	18448
854.451	18547
854.585	18376
854.72	18277
854.854	18418
854.988	18277
855.122	18429
855.256	18209
855.39	18350
855.524	18483
855.658	18445
855.792	18414
855.926	18403
856.06	18422
856.194	18365
856.327	18388
856.461	18353
856.595	18330
856.729	18342
856.862	18426
856.996	18525
857.13	18357
857.263	18418
857.397	18471
857.53	18350
857.664	18376
857.797	18414
857.931	18456
858.064	18395
858.197	18365
858.331	18429
858.464	18289
858.597	18270
858.731	18258
858.864	18289
858.997	18308
859.13	18361
859.263	18319
859.396	18429
859.529	18266
859.662	18338
859.795	18258
859.928	18346
860.061	18532
860.194	18467
860.327	18418
860.46	18262
860.592	18361
860.725	18437
860.858	18525
860.99	18319
861.123	18239
861.256	18216
861.388	18414
861.521	19019
861.653	18194
861.786	18167
861.918	18254
862.05	18262
862.183	18300
862.315	18277
862.447	18380
862.58	18308
862.712	18053
862.844	18045
862.976	18102
863.108	18163
863.24	18399
863.372	18060
863.504	18049
863.636	18174
863.768	18003
863.9	18095
864.032	18026
864.164	18030
864.296	17950
864.428	18091
864.559	18292
864.691	18174
864.823	18106
864.954	18076
865.086	18007
865.217	18045
865.349	17874
865.48	17996
865.612	17950
865.743	18136
865.875	18011
866.006	17954
866.137	17984
866.269	17935
866.4	17912
866.531	17912
866.662	17897
866.793	17798
866.924	17889
867.055	17980
867.186	17901
867.317	17817
867.448	17923
867.579	17809
867.71	17920
867.841	17786
867.972	17847
868.103	17805
868.233	17999
868.364	18102
868.495	17942
868.625	18091
868.756	18239
868.886	18091
869.017	18125
869.147	18197
869.278	18144
869.408	18079
869.539	18045
869.669	18167
869.799	18152
869.929	18353
870.06	18224
870.19	18486
870.32	18452
870.45	18498
870.58	18578
870.71	18722
870.84	18703
870.97	18509
871.1	18528
871.23	18749
871.36	18749
871.489	18566
871.619	18654
871.749	18703
871.879	18768
872.008	18848
872.138	18692
872.267	18749
872.397	18669
872.526	18589
872.656	18551
872.785	18703
872.915	18776
873.044	18859
873.173	18715
873.303	18947
873.432	18829
873.561	18692
873.69	18665
873.819	18772
873.948	18776
874.077	18749
874.206	18707
874.335	18817
874.464	18924
874.593	18916
874.722	18958
874.851	19050
874.979	19137
875.108	19137
875.237	18973
875.365	19042
875.494	19080
875.623	19194
875.751	18951
875.88	19145
876.008	19198
876.136	19285
876.265	19453
876.393	19662
876.521	19510
876.65	19540
876.778	19571
876.906	19476
877.034	19445
877.162	19464
877.29	19331
877.418	19392
877.546	19419
877.674	19457
877.802	19483
877.93	19407
878.058	19346
878.185	19263
878.313	19331
878.441	19388
878.568	19232
878.696	19392
878.824	19422
878.951	19571
879.079	19685
879.206	19765
879.333	19575
879.461	19407
879.588	19632
879.715	19632
879.842	19845
879.97	19510
880.097	19301
880.224	19255
880.351	19343
880.478	19263
880.605	19301
880.732	19274
880.859	19483
880.986	19255
881.112	19183
881.239	19160
881.366	19069
881.493	19088
881.619	18833
881.746	18909
881.872	18920
881.999	18970
882.125	18814
882.252	18943
882.378	18878
882.505	19160
882.631	18787
882.757	18783
882.883	18730
883.01	18734
883.136	18654
883.262	18604
883.388	18521
883.514	18658
883.64	18627
883.766	18650
883.892	18361
884.018	18585
884.143	18623
884.269	18688
884.395	18441
884.52	18342
884.646	18418
884.772	18342
884.897	18247
885.023	18285
885.148	18395
885.274	18532
885.399	18498
885.524	18346
885.65	18323
885.775	18243
885.9	18258
886.025	18460
886.15	18319
886.275	18334
886.4	18239
886.525	18281
886.65	18152
886.775	18342
886.9	18376
887.025	18513
887.149	18251
887.274	18144
887.399	18064
887.523	18060
887.648	17920
887.773	18003
887.897	18136
888.021	18159
888.146	18106
888.27	18228
888.395	18228
888.519	18095
888.643	18148
888.767	18095
888.891	18041
889.015	17996
889.139	17927
889.263	17920
889.387	18060
889.511	18019
889.635	17897
889.759	17859
889.883	17809
890.006	18095
890.13	17939
890.254	17927
890.377	17851
890.501	17604
890.624	17596
890.748	17707
890.871	17691
890.995	17512
891.118	17448
891.241	17566
891.364	17676
891.488	17649
891.611	17512
891.734	17528
891.857	17642
891.98	17493
892.103	17505
892.226	17623
892.349	17524
892.471	17296
892.594	17463
892.717	17459
892.839	17486
892.962	17433
893.085	17440
893.207	17436
893.33	17292
893.452	17315
893.575	17554
893.697	17455
893.819	17501
893.941	17687
894.064	17615
894.186	17353
894.308	17417
894.43	17573
894.552	17653
894.674	17672
894.796	17478
894.918	17505
895.04	17398
895.161	17516
895.283	17440
895.405	17459
895.526	17417
895.648	17497
895.769	17406
895.891	17566
896.012	17642
896.134	17729
896.255	17585
896.376	17566
896.498	17630
896.619	17676
896.74	17570
896.861	17703
896.982	17912
897.103	18057
897.224	17851
897.345	17805
897.466	17775
897.587	17783
897.708	17840
897.828	17798
897.949	17726
898.07	17691
898.19	17764
898.311	17893
898.431	17840
898.552	17790
898.672	17859
898.792	17824
898.913	17851
899.033	17676
899.153	17577
899.273	17570
899.393	17520
899.513	17604
899.633	17547
899.753	17611
899.873	17532
899.993	17623
900.113	17543
900.232	17581
900.352	17528
900.472	17505
900.591	17353
900.711	17372
900.83	17341
900.95	17478
901.069	17471
901.189	17208
901.308	17109
901.427	16995
901.546	17022
901.665	17086
901.784	17010
901.904	16854
902.023	16900
902.141	16554
902.26	16596
902.379	16630
902.498	16565
902.617	16527
902.735	16630
902.854	16535
902.973	16542
903.091	16287
903.21	16192
903.328	16322
903.446	16139
903.565	16013
903.683	16063
903.801	15975
903.919	15979
904.038	16017
904.156	15865
904.274	15926
904.392	15854
904.51	15774
904.627	15934
904.745	15892
904.863	15873
904.981	15603
905.098	15534
905.216	15534
905.334	15606
905.451	15576
905.569	15511
905.686	15511
905.803	15576
905.921	15313
906.038	15359
906.155	15329
906.272	15222
906.389	15218
906.506	15116
906.623	15108
906.74	15104
906.857	14979
906.974	14948
907.091	15161
907.208	15211
907.324	15051
907.441	15077
907.557	14788
907.674	14849
907.79	14746
907.907	14651
908.023	14769
908.139	14872
908.256	14689
908.372	14674
908.488	14667
908.604	14503
908.72	14454
908.836	14495
908.952	14560
909.068	14533
909.184	14575
909.3	14469
909.415	14564
909.531	14442
909.647	14309
909.762	14172
909.878	14218
909.993	14164
910.108	14187
910.224	14240
910.339	14225
910.454	14111
910.57	14145
910.685	14012
910.8	14248
910.915	14088
911.03	14012
911.145	13898
911.259	13746
911.374	13822
911.489	13742
911.604	13681
911.718	13624
911.833	13620
911.947	13518
912.062	13381
912.176	13601
912.291	13575
912.405	13552
912.519	13734
912.633	13742
912.748	13628
912.862	13582
912.976	13403
913.09	13346
913.204	13308
913.318	13453
913.431	13510
913.545	13457
913.659	13563
913.772	13457
913.886	13274
914	13194
914.113	13358
914.226	13426
914.34	13312
914.453	13232
914.566	13240
914.68	13190
914.793	13202
914.906	13019
915.019	12894
915.132	12852
915.245	12951
915.358	13000
915.47	12890
915.583	12916
915.696	12943
915.809	12996
915.921	13050
916.034	12989
916.146	12821
916.259	12878
916.371	12920
916.483	12897
916.595	12764
916.708	12852
916.82	12867
916.932	12825
917.044	12810
917.156	12768
917.268	12684
917.38	12726
917.491	12604
917.603	12616
917.715	12719
917.826	12848
917.938	12654
918.049	12547
918.161	12738
918.272	12802
918.384	12692
918.495	12589
918.606	12536
918.717	12456
918.828	12460
918.939	12464
919.05	12407
919.161	12433
919.272	12243
919.383	12407
919.494	12456
919.604	12593
919.715	12494
919.826	12304
919.936	12395
920.047	12452
920.157	12441
920.267	12559
920.378	12464
920.488	12403
920.598	12566
920.708	12726
920.818	12589
920.928	12570
921.038	12753
921.148	12688
921.258	12407
921.368	12277
921.477	12319
921.587	12136
921.697	12098
921.806	12201
921.916	12114
922.025	11916
922.134	11859
922.244	11798
922.353	11882
922.462	11794
922.571	11805
922.68	11573
922.789	11429
922.898	11627
923.007	11512
923.116	11505
923.224	11547
923.333	11539
923.442	11452
923.55	11356
923.659	11410
923.767	11474
923.876	11345
923.984	11417
924.092	11376
924.201	11402
924.309	11318
924.417	11341
924.525	11223
924.633	11307
924.741	12213
924.849	11064
924.956	11223
925.064	11071
925.172	11048
925.279	11067
925.387	11075
925.494	11094
925.602	11197
925.709	11136
925.816	10995
925.924	11102
926.031	11105
926.138	10968
926.245	11037
926.352	10930
926.459	11124
926.566	11143
926.673	11052
926.779	10854
926.886	10866
926.993	10797
927.099	10702
927.206	10626
927.312	10649
927.419	10748
927.525	10668
927.631	10740
927.737	10637
927.843	10561
927.95	10516
928.056	10577
928.162	10577
928.267	10577
928.373	11105
928.479	10687
928.585	10371
928.69	10500
928.796	10596
928.901	10386
929.007	10337
929.112	10447
929.218	10470
929.323	10356
929.428	10322
929.533	10451
929.638	10192
929.743	10299
929.848	10352
929.953	10306
930.058	10177
930.163	10082
930.267	9994
930.372	10177
930.477	10063
930.581	10196
930.685	10086
930.79	9930
930.894	9975
930.998	9918
931.103	10097
931.207	9652
931.311	9660
931.415	9534
931.519	9405
931.623	9412
