Data from test_V78500241_3024.txt Node
Date: Fri Mar 25 14:54:46 CST 2022
User: usil
Spectrometer: V785-0024
Trigger mode: 0
Integration Time (sec): 4.000000E-1
Scans to average: 1
Nonlinearity correction enabled: false
Boxcar width: 0
Storing dark spectrum: false
XAxis mode: Wavelengths
Number of Pixels in Spectrum: 1024
>>>>>Begin Spectral Data<<<<<
801.071	22173
801.214	22025
801.356	21835
801.499	21618
801.641	21492
801.783	21332
801.926	21386
802.068	21348
802.211	21249
802.353	21275
802.496	21066
802.638	20925
802.78	20834
802.923	20872
803.065	20735
803.208	20667
803.35	20762
803.492	20811
803.635	20823
803.777	20712
803.919	20857
804.061	21043
804.204	20895
804.346	20697
804.488	20613
804.63	20731
804.773	20682
804.915	20663
805.057	20830
805.199	20716
805.341	20765
805.483	20872
805.626	20712
805.768	20697
805.91	20693
806.052	20758
806.194	20693
806.336	20899
806.478	20632
806.62	20746
806.762	20815
806.904	20933
807.046	21127
807.188	21161
807.33	21085
807.472	21001
807.614	20975
807.756	20986
807.898	20765
808.04	20811
808.182	20735
808.324	20861
808.465	20823
808.607	21051
808.749	21108
808.891	21096
809.033	21157
809.174	21142
809.316	21142
809.458	21009
809.6	21039
809.741	21100
809.883	21127
810.025	21165
810.166	21157
810.308	21230
810.45	21199
810.591	21043
810.733	20910
810.875	20796
811.016	20746
811.158	20609
811.299	20887
811.441	21096
811.582	20998
811.724	20823
811.865	20731
812.007	20815
812.148	20887
812.29	20956
812.431	21039
812.573	21203
812.714	21252
812.855	21332
812.997	21329
813.138	21477
813.279	21492
813.421	21351
813.562	21344
813.703	21157
813.845	21036
813.986	20796
814.127	20629
814.268	20465
814.41	20499
814.551	20317
814.692	20450
814.833	20324
814.974	20358
815.115	20438
815.256	20286
815.397	20259
815.539	20328
815.68	20081
815.821	20008
815.962	20168
816.103	20119
816.244	19875
816.385	19822
816.526	19913
816.666	19674
816.807	19487
816.948	19578
817.089	19723
817.23	19491
817.371	19597
817.512	19483
817.653	19548
817.793	19441
817.934	19472
818.075	19571
818.216	19457
818.356	19403
818.497	19327
818.638	19114
818.778	19129
818.919	19160
819.06	19308
819.2	19236
819.341	19384
819.481	19278
819.622	19480
819.762	19803
819.903	19586
820.043	19529
820.184	19373
820.324	19537
820.465	19491
820.605	19548
820.746	19483
820.886	19327
821.026	19365
821.167	19388
821.307	19518
821.447	19441
821.588	19358
821.728	19255
821.868	19114
822.008	18989
822.149	18878
822.289	18890
822.429	18623
822.569	18654
822.709	18604
822.849	18464
822.99	18403
823.13	18296
823.27	18369
823.41	18270
823.55	18201
823.69	18239
823.83	18186
823.97	18106
824.11	17980
824.25	17980
824.389	17977
824.529	18030
824.669	18003
824.809	18060
824.949	18068
825.089	18049
825.228	18007
825.368	17828
825.508	17699
825.648	17893
825.787	17863
825.927	17828
826.067	17809
826.206	17752
826.346	17824
826.485	17741
826.625	17813
826.765	17882
826.904	17771
827.044	17562
827.183	17478
827.323	17452
827.462	17482
827.601	17505
827.741	17448
827.88	17493
828.02	17356
828.159	17459
828.298	17417
828.437	17558
828.577	17341
828.716	17589
828.855	17455
828.994	17242
829.134	17227
829.273	17220
829.412	17204
829.551	17204
829.69	17147
829.829	17261
829.968	17341
830.107	17250
830.246	17280
830.385	17098
830.524	17109
830.663	17018
830.802	16934
830.941	16790
831.08	16934
831.219	16866
831.357	16965
831.496	17048
831.635	16771
831.774	16679
831.913	16592
832.051	16660
832.19	16588
832.329	16630
832.467	16500
832.606	16535
832.744	16481
832.883	16436
833.022	16470
833.16	16405
833.299	16436
833.437	16500
833.576	16641
833.714	16508
833.852	16691
833.991	16641
834.129	16584
834.267	16550
834.406	16546
834.544	16584
834.682	16542
834.821	16558
834.959	16634
835.097	16493
835.235	16596
835.373	16440
835.511	16607
835.65	16405
835.788	16440
835.926	16341
836.064	16169
836.202	16268
836.34	16436
836.478	16615
836.615	16421
836.753	16516
836.891	16588
837.029	16478
837.167	16390
837.305	16238
837.443	16382
837.58	16230
837.718	16249
837.856	16382
837.993	16192
838.131	16234
838.269	16230
838.406	16154
838.544	16226
838.681	16006
838.819	15899
838.956	15846
839.094	15899
839.231	15842
839.369	15994
839.506	16215
839.643	16109
839.781	15922
839.918	15857
840.055	15823
840.193	15884
840.33	15835
840.467	15907
840.604	15812
840.742	16177
840.879	15603
841.016	15717
841.153	15747
841.29	15911
841.427	15884
841.564	15873
841.701	15930
841.838	15774
841.975	15682
842.112	15713
842.249	15587
842.385	15564
842.522	15751
842.659	15576
842.796	15606
842.933	15625
843.069	15599
843.206	15545
843.343	15694
843.479	15603
843.616	15720
843.752	15473
843.889	15424
844.025	15530
844.162	15439
844.298	15447
844.435	15504
844.571	15325
844.708	15416
844.844	15553
844.98	15538
845.117	15397
845.253	15287
845.389	15237
845.525	15306
845.661	15310
845.798	15218
845.934	15241
846.07	15150
846.206	15279
846.342	15340
846.478	15192
846.614	15085
846.75	14952
846.886	14948
847.022	15116
847.158	14979
847.294	14990
847.429	15077
847.565	14990
847.701	15188
847.837	14674
847.972	14716
848.108	14815
848.244	14777
848.379	14613
848.515	14518
848.65	14499
848.786	14526
848.921	14556
849.057	14731
849.192	14689
849.328	14564
849.463	14568
849.598	14476
849.734	14545
849.869	14389
850.004	14442
850.14	14381
850.275	14332
850.41	14286
850.545	14301
850.68	14328
850.815	14434
850.95	14271
851.085	14461
851.22	14514
851.355	14301
851.49	14301
851.625	14347
851.76	14355
851.895	14244
852.03	14195
852.165	14336
852.299	14385
852.434	14374
852.569	14396
852.703	14324
852.838	14454
852.973	14530
853.107	14480
853.242	14237
853.376	14187
853.511	14134
853.645	14145
853.78	14404
853.914	14256
854.048	14199
854.183	14221
854.317	14218
854.451	14408
854.585	14191
854.72	14202
854.854	14263
854.988	14050
855.122	14218
855.256	14180
855.39	14134
855.524	14332
855.658	14221
855.792	14252
855.926	14240
856.06	14298
856.194	14434
856.327	14145
856.461	14119
856.595	14138
856.729	14077
856.862	14324
856.996	14145
857.13	14267
857.263	14358
857.397	14214
857.53	14103
857.664	14278
857.797	14309
857.931	14362
858.064	14328
858.197	14370
858.331	14142
858.464	14138
858.597	14107
858.731	14138
858.864	14172
858.997	14191
859.13	14206
859.263	14336
859.396	14347
859.529	14081
859.662	14187
859.795	14191
859.928	14351
860.061	14237
860.194	14454
860.327	14176
860.46	14168
860.592	14282
860.725	14271
860.858	14298
860.99	14180
861.123	14126
861.256	14123
861.388	14244
861.521	14861
861.653	14111
861.786	14008
861.918	14084
862.05	14096
862.183	14084
862.315	14172
862.447	14298
862.58	14138
862.712	13947
862.844	13955
862.976	14123
863.108	14024
863.24	14412
863.372	13940
863.504	13974
863.636	13928
863.768	14027
863.9	13989
864.032	13974
864.164	13947
864.296	14008
864.428	14092
864.559	14058
864.691	14012
864.823	14024
864.954	13974
865.086	14077
865.217	13997
865.349	13871
865.48	14005
865.612	13887
865.743	14084
865.875	14001
866.006	13925
866.137	13868
866.269	13986
866.4	13913
866.531	13951
866.662	13746
866.793	13967
866.924	13921
867.055	13993
867.186	13860
867.317	13993
867.448	13757
867.579	13841
867.71	13860
867.841	13951
867.972	13951
868.103	13955
868.233	14027
868.364	13986
868.495	14016
868.625	14103
868.756	14313
868.886	14168
869.017	14221
869.147	14294
869.278	14290
869.408	14138
869.539	14244
869.669	14183
869.799	14142
869.929	14294
870.06	14336
870.19	14488
870.32	14473
870.45	14590
870.58	14670
870.71	14708
870.84	14648
870.97	14583
871.1	14579
871.23	14864
871.36	14804
871.489	14659
871.619	14796
871.749	14807
871.879	14815
872.008	14948
872.138	14853
872.267	14773
872.397	14575
872.526	14632
872.656	14594
872.785	14636
872.915	14815
873.044	14941
873.173	14853
873.303	14876
873.432	14883
873.561	14937
873.69	14845
873.819	14952
873.948	14838
874.077	14815
874.206	14826
874.335	14952
874.464	15009
874.593	15195
874.722	15009
874.851	15252
874.979	15176
875.108	15226
875.237	15154
875.365	15077
875.494	15176
875.623	15283
875.751	15173
875.88	15237
876.008	15355
876.136	15485
876.265	15625
876.393	15724
876.521	15724
876.65	15656
876.778	15553
876.906	15488
877.034	15561
877.162	15504
877.29	15557
877.418	15648
877.546	15557
877.674	15606
877.802	15595
877.93	15519
878.058	15557
878.185	15587
878.313	15568
878.441	15538
878.568	15412
878.696	15606
878.824	15534
878.951	15698
879.079	15850
879.206	15850
879.333	15766
879.461	15599
879.588	15622
879.715	15770
879.842	15804
879.97	15675
880.097	15397
880.224	15378
880.351	15481
880.478	15435
880.605	15477
880.732	15378
880.859	15652
880.986	15416
881.112	15443
881.239	15355
881.366	15173
881.493	15112
881.619	15036
881.746	15097
881.872	15161
881.999	15058
882.125	14998
882.252	15039
882.378	15146
882.505	15294
882.631	15020
882.757	14872
882.883	14963
883.01	14906
883.136	14933
883.262	14887
883.388	14651
883.514	14982
883.64	14967
883.766	14876
883.892	14754
884.018	14864
884.143	14864
884.269	14998
884.395	14644
884.52	14590
884.646	14743
884.772	14564
884.897	14446
885.023	14575
885.148	14674
885.274	14838
885.399	14693
885.524	14629
885.65	14640
885.775	14583
885.9	14682
886.025	14735
886.15	14693
886.275	14583
886.4	14514
886.525	14571
886.65	14533
886.775	14587
886.9	14617
887.025	14811
887.149	14697
887.274	14465
887.399	14351
887.523	14400
887.648	14374
887.773	14355
887.897	14473
888.021	14503
888.146	14317
888.27	14454
888.395	14598
888.519	14480
888.643	14518
888.767	14556
888.891	14385
889.015	14347
889.139	14332
889.263	14214
889.387	14389
889.511	14476
889.635	14381
889.759	14328
889.883	14244
890.006	14305
890.13	14457
890.254	14305
890.377	14233
890.501	14100
890.624	14092
890.748	14225
890.871	14016
890.995	13986
891.118	13826
891.241	14024
891.364	14024
891.488	14092
891.611	14031
891.734	14039
891.857	13986
891.98	14054
892.103	14088
892.226	14050
892.349	14092
892.471	13860
892.594	14001
892.717	14088
892.839	13868
892.962	13978
893.085	14123
893.207	13936
893.33	13883
893.452	13947
893.575	14065
893.697	13997
893.819	14202
893.941	14275
894.064	14107
894.186	14024
894.308	13928
894.43	14119
894.552	14176
894.674	14111
894.796	13932
894.918	14088
895.04	13875
895.161	14237
895.283	14180
895.405	14103
895.526	14054
895.648	14210
895.769	14206
895.891	14195
896.012	14157
896.134	14221
896.255	14229
896.376	14187
896.498	14233
896.619	14237
896.74	14111
896.861	14199
896.982	14526
897.103	14731
897.224	14507
897.345	14412
897.466	14374
897.587	14393
897.708	14526
897.828	14533
897.949	14480
898.07	14343
898.19	14415
898.311	14537
898.431	14461
898.552	14564
898.672	14518
898.792	14636
898.913	14644
899.033	14469
899.153	14396
899.273	14339
899.393	14442
899.513	14339
899.633	14336
899.753	14320
899.873	14313
899.993	14370
900.113	14400
900.232	14499
900.352	14396
900.472	14244
900.591	14233
900.711	14248
900.83	14206
900.95	14328
901.069	14393
901.189	14278
901.308	14050
901.427	13932
901.546	13986
901.665	13879
901.784	14001
901.904	13849
902.023	13746
902.141	13552
902.26	13556
902.379	13594
902.498	13525
902.617	13464
902.735	13521
902.854	13514
902.973	13354
903.091	13308
903.21	13213
903.328	13259
903.446	13114
903.565	13061
903.683	13076
903.801	12985
903.919	13031
904.038	13000
904.156	12856
904.274	13004
904.392	12859
904.51	12810
904.627	12852
904.745	12905
904.863	13019
904.981	12707
905.098	12597
905.216	12612
905.334	12536
905.451	12521
905.569	12521
905.686	12585
905.803	12620
905.921	12407
906.038	12559
906.155	12509
906.272	12319
906.389	12304
906.506	12243
906.623	12178
906.74	12224
906.857	12136
906.974	12034
907.091	12270
907.208	12315
907.324	12194
907.441	12068
907.557	11992
907.674	11988
907.79	11870
907.907	11893
908.023	11878
908.139	11836
908.256	11836
908.372	11950
908.488	11771
908.604	11714
908.72	11653
908.836	11733
908.952	11646
909.068	11684
909.184	11798
909.3	11596
909.415	11752
909.531	11703
909.647	11509
909.762	11395
909.878	11425
909.993	11459
910.108	11444
910.224	11417
910.339	11398
910.454	11356
910.57	11353
910.685	11265
910.8	11528
910.915	11497
911.03	11311
911.145	11159
911.259	11159
911.374	11193
911.489	11067
911.604	10965
911.718	10854
911.833	10900
911.947	10801
912.062	10725
912.176	10938
912.291	10949
912.405	10927
912.519	11060
912.633	11174
912.748	10953
912.862	10923
912.976	10736
913.09	10634
913.204	10687
913.318	10748
913.431	10892
913.545	10908
913.659	10847
913.772	10744
913.886	10717
914	10675
914.113	10740
914.226	10790
914.34	10790
914.453	10611
914.566	10748
914.68	10615
914.793	10618
914.906	10443
915.019	10428
915.132	10379
915.245	10413
915.358	10413
915.47	10421
915.583	10462
915.696	10455
915.809	10558
915.921	10489
916.034	10299
916.146	10417
916.259	10344
916.371	10466
916.483	10470
916.595	10367
916.708	10341
916.82	10386
916.932	10329
917.044	10325
917.156	10310
917.268	10154
917.38	10322
917.491	10173
917.603	10261
917.715	10268
917.826	10382
917.938	10242
918.049	10139
918.161	10295
918.272	10428
918.384	10409
918.495	10276
918.606	10181
918.717	10109
918.828	10128
918.939	10120
919.05	10124
919.161	10131
919.272	9953
919.383	9918
919.494	10215
919.604	10322
919.715	10112
919.826	10051
919.936	10112
920.047	10188
920.157	10105
920.267	10436
920.378	10185
920.488	10154
920.598	10322
920.708	10443
920.818	10314
920.928	10367
921.038	10485
921.148	10451
921.258	10181
921.368	10067
921.477	10002
921.587	10040
921.697	9850
921.806	10006
921.916	9888
922.025	9770
922.134	9778
922.244	9629
922.353	9740
922.462	9564
922.571	9530
922.68	9336
922.789	9382
922.898	9435
923.007	9313
923.116	9477
923.224	9447
923.333	9355
923.442	9325
923.55	9329
923.659	9298
923.767	9336
923.876	9287
923.984	9332
924.092	9184
924.201	9332
924.309	9268
924.417	9336
924.525	9249
924.633	9298
924.741	10162
924.849	9024
924.956	9070
925.064	9123
925.172	8956
925.279	9005
925.387	9077
925.494	9085
925.602	9287
925.709	9116
925.816	8990
925.924	8963
926.031	9226
926.138	9131
926.245	9157
926.352	9017
926.459	9146
926.566	9135
926.673	9043
926.779	8948
926.886	8906
926.993	8769
927.099	8773
927.206	8750
927.312	8693
927.419	8792
927.525	8766
927.631	8800
927.737	8735
927.843	8705
927.95	8556
928.056	8613
928.162	8689
928.267	8689
928.373	9291
928.479	8796
928.585	8537
928.69	8632
928.796	8708
928.901	8530
929.007	8495
929.112	8640
929.218	8579
929.323	8503
929.428	8556
929.533	8621
929.638	8518
929.743	8507
929.848	8571
929.953	8541
930.058	8473
930.163	8233
930.267	8286
930.372	8377
930.477	8237
930.581	8492
930.685	8324
930.79	8218
930.894	8294
930.998	8206
931.103	8294
931.207	8081
931.311	7993
931.415	7875
931.519	7792
931.623	7719
