Data from test_V78500241_3119.txt Node
Date: Fri Mar 25 14:55:26 CST 2022
User: usil
Spectrometer: V785-0024
Trigger mode: 0
Integration Time (sec): 4.000000E-1
Scans to average: 1
Nonlinearity correction enabled: false
Boxcar width: 0
Storing dark spectrum: false
XAxis mode: Wavelengths
Number of Pixels in Spectrum: 1024
>>>>>Begin Spectral Data<<<<<
801.071	22055
801.214	21869
801.356	21743
801.499	21603
801.641	21466
801.783	21275
801.926	21363
802.068	21317
802.211	21302
802.353	21222
802.496	20986
802.638	20906
802.78	20739
802.923	20769
803.065	20754
803.208	20651
803.35	20712
803.492	20777
803.635	20910
803.777	20765
803.919	20769
804.061	21154
804.204	20819
804.346	20762
804.488	20640
804.63	20746
804.773	20606
804.915	20667
805.057	20762
805.199	20488
805.341	20731
805.483	20727
805.626	20655
805.768	20564
805.91	20708
806.052	20648
806.194	20648
806.336	20754
806.478	20629
806.62	20678
806.762	20746
806.904	20845
807.046	20952
807.188	20990
807.33	20868
807.472	21013
807.614	20826
807.756	20906
807.898	20754
808.04	20800
808.182	20651
808.324	20777
808.465	20720
808.607	21032
808.749	21051
808.891	21116
809.033	21108
809.174	21047
809.316	20967
809.458	20960
809.6	21058
809.741	20952
809.883	20982
810.025	21165
810.166	21169
810.308	21116
810.45	21123
810.591	21005
810.733	20857
810.875	20739
811.016	20648
811.158	20552
811.299	20819
811.441	20937
811.582	20861
811.724	20861
811.865	20727
812.007	20648
812.148	20750
812.29	20807
812.431	20979
812.573	21127
812.714	21116
812.855	21294
812.997	21329
813.138	21504
813.279	21249
813.421	21351
813.562	21226
813.703	21081
813.845	20883
813.986	20625
814.127	20450
814.268	20396
814.41	20442
814.551	20324
814.692	20427
814.833	20332
814.974	20294
815.115	20248
815.256	20172
815.397	20202
815.539	20225
815.68	20031
815.821	20046
815.962	20077
816.103	20024
816.244	19871
816.385	19898
816.526	19746
816.666	19487
816.807	19472
816.948	19499
817.089	19586
817.23	19605
817.371	19567
817.512	19480
817.653	19350
817.793	19270
817.934	19407
818.075	19480
818.216	19480
818.356	19434
818.497	19297
818.638	19091
818.778	19160
818.919	19202
819.06	19160
819.2	19354
819.341	19198
819.481	19415
819.622	19518
819.762	19571
819.903	19559
820.043	19510
820.184	19430
820.324	19445
820.465	19563
820.605	19487
820.746	19472
820.886	19335
821.026	19392
821.167	19457
821.307	19335
821.447	19365
821.588	19301
821.728	19190
821.868	18970
822.008	18943
822.149	18833
822.289	18833
822.429	18528
822.569	18563
822.709	18471
822.849	18334
822.99	18350
823.13	18311
823.27	18350
823.41	18129
823.55	18133
823.69	18213
823.83	18129
823.97	18155
824.11	17988
824.25	17893
824.389	18007
824.529	17939
824.669	17931
824.809	18026
824.949	18011
825.089	17920
825.228	17984
825.368	17767
825.508	17737
825.648	17745
825.787	17752
825.927	17684
826.067	17714
826.206	17627
826.346	17737
826.485	17790
826.625	17604
826.765	17836
826.904	17680
827.044	17440
827.183	17493
827.323	17364
827.462	17452
827.601	17299
827.741	17242
827.88	17372
828.02	17356
828.159	17299
828.298	17436
828.437	17421
828.577	17364
828.716	17562
828.855	17360
828.994	17170
829.134	17109
829.273	17197
829.412	17090
829.551	17124
829.69	17143
829.829	17166
829.968	17235
830.107	17166
830.246	17143
830.385	16987
830.524	17094
830.663	16923
830.802	16801
830.941	16759
831.08	16763
831.219	16900
831.357	16812
831.496	17056
831.635	16752
831.774	16691
831.913	16599
832.051	16603
832.19	16516
832.329	16527
832.467	16390
832.606	16375
832.744	16356
832.883	16424
833.022	16428
833.16	16466
833.299	16371
833.437	16493
833.576	16367
833.714	16478
833.852	16398
833.991	16565
834.129	16561
834.267	16531
834.406	16481
834.544	16565
834.682	16516
834.821	16535
834.959	16611
835.097	16466
835.235	16462
835.373	16409
835.511	16413
835.65	16478
835.788	16371
835.926	16268
836.064	16230
836.202	16303
836.34	16337
836.478	16344
836.615	16295
836.753	16379
836.891	16443
837.029	16379
837.167	16409
837.305	16268
837.443	16261
837.58	16120
837.718	16287
837.856	16147
837.993	16219
838.131	16185
838.269	16158
838.406	16093
838.544	16181
838.681	15972
838.819	15926
838.956	15835
839.094	15789
839.231	15743
839.369	15884
839.506	16238
839.643	16071
839.781	15804
839.918	15751
840.055	15800
840.193	15827
840.33	15762
840.467	15766
840.604	15743
840.742	15956
840.879	15633
841.016	15728
841.153	15610
841.29	15934
841.427	15766
841.564	15842
841.701	15865
841.838	15766
841.975	15747
842.112	15728
842.249	15584
842.385	15599
842.522	15660
842.659	15652
842.796	15496
842.933	15648
843.069	15523
843.206	15557
843.343	15564
843.479	15542
843.616	15549
843.752	15336
843.889	15298
844.025	15458
844.162	15389
844.298	15488
844.435	15416
844.571	15264
844.708	15386
844.844	15496
844.98	15496
845.117	15622
845.253	15355
845.389	15230
845.525	15237
845.661	15256
845.798	15173
845.934	15256
846.07	15146
846.206	15131
846.342	15264
846.478	15093
846.614	15036
846.75	14933
846.886	14891
847.022	15100
847.158	14937
847.294	14979
847.429	14967
847.565	14883
847.701	15165
847.837	14758
847.972	14636
848.108	14807
848.244	14754
848.379	14518
848.515	14514
848.65	14484
848.786	14499
848.921	14461
849.057	14655
849.192	14552
849.328	14564
849.463	14617
849.598	14415
849.734	14385
849.869	14457
850.004	14324
850.14	14317
850.275	14370
850.41	14282
850.545	14240
850.68	14290
850.815	14271
850.95	14244
851.085	14450
851.22	14427
851.355	14290
851.49	14271
851.625	14229
851.76	14248
851.895	14111
852.03	14180
852.165	14290
852.299	14393
852.434	14362
852.569	14362
852.703	14263
852.838	14225
852.973	14427
853.107	14412
853.242	14343
853.376	14202
853.511	14126
853.645	14119
853.78	14317
853.914	14161
854.048	14054
854.183	14130
854.317	14225
854.451	14275
854.585	14096
854.72	14218
854.854	14271
854.988	14126
855.122	14191
855.256	14024
855.39	14164
855.524	14259
855.658	14214
855.792	14180
855.926	14225
856.06	14199
856.194	14210
856.327	14195
856.461	14199
856.595	14187
856.729	14202
856.862	14278
856.996	14233
857.13	14111
857.263	14282
857.397	14362
857.53	14214
857.664	14259
857.797	14202
857.931	14271
858.064	14161
858.197	14233
858.331	14126
858.464	14187
858.597	14046
858.731	14096
858.864	14164
858.997	14157
859.13	14176
859.263	14130
859.396	14267
859.529	14138
859.662	14149
859.795	14168
859.928	14149
860.061	14389
860.194	14298
860.327	14225
860.46	14199
860.592	14320
860.725	14324
860.858	14328
860.99	14081
861.123	14001
861.256	14065
861.388	14134
861.521	14807
861.653	14069
861.786	13909
861.918	14005
862.05	14115
862.183	14149
862.315	14195
862.447	14252
862.58	14130
862.712	13932
862.844	13837
862.976	13894
863.108	14043
863.24	14377
863.372	13845
863.504	14027
863.636	13940
863.768	14054
863.9	14008
864.032	13917
864.164	13894
864.296	14024
864.428	14024
864.559	14035
864.691	13959
864.823	14001
864.954	13989
865.086	13967
865.217	13890
865.349	13909
865.48	13860
865.612	14031
865.743	14039
865.875	13917
866.006	13894
866.137	13997
866.269	13906
866.4	13944
866.531	13951
866.662	13814
866.793	13909
866.924	13940
867.055	13925
867.186	13959
867.317	13852
867.448	13830
867.579	13902
867.71	13845
867.841	13818
867.972	13940
868.103	13921
868.233	13993
868.364	13826
868.495	14008
868.625	14077
868.756	14237
868.886	14043
869.017	14176
869.147	14229
869.278	14275
869.408	14305
869.539	14263
869.669	14278
869.799	14225
869.929	14282
870.06	14275
870.19	14415
870.32	14457
870.45	14564
870.58	14621
870.71	14758
870.84	14640
870.97	14434
871.1	14518
871.23	14693
871.36	14845
871.489	14579
871.619	14735
871.749	14815
871.879	14800
872.008	14819
872.138	14792
872.267	14819
872.397	14644
872.526	14579
872.656	14610
872.785	14686
872.915	14750
873.044	14792
873.173	14864
873.303	14800
873.432	14830
873.561	14910
873.69	14750
873.819	14883
873.948	14883
874.077	14880
874.206	14861
874.335	14880
874.464	14918
874.593	15150
874.722	15081
874.851	15169
874.979	15241
875.108	15207
875.237	15157
875.365	15043
875.494	15097
875.623	15116
875.751	15070
875.88	15180
876.008	15226
876.136	15211
876.265	15603
876.393	15717
876.521	15519
876.65	15717
876.778	15648
876.906	15526
877.034	15599
877.162	15450
877.29	15454
877.418	15557
877.546	15561
877.674	15610
877.802	15542
877.93	15587
878.058	15481
878.185	15477
878.313	15553
878.441	15568
878.568	15447
878.696	15492
878.824	15519
878.951	15637
879.079	15755
879.206	15865
879.333	15675
879.461	15447
879.588	15751
879.715	15720
879.842	15842
879.97	15584
880.097	15481
880.224	15447
880.351	15412
880.478	15435
880.605	15397
880.732	15424
880.859	15667
880.986	15481
881.112	15439
881.239	15306
881.366	15176
881.493	15093
881.619	15032
881.746	15013
881.872	15127
881.999	15055
882.125	15032
882.252	14990
882.378	15112
882.505	15291
882.631	15005
882.757	14880
882.883	14872
883.01	14819
883.136	14872
883.262	14883
883.388	14720
883.514	14929
883.64	14986
883.766	14861
883.892	14712
884.018	14762
884.143	14819
884.269	15058
884.395	14705
884.52	14571
884.646	14659
884.772	14492
884.897	14556
885.023	14693
885.148	14682
885.274	14735
885.399	14682
885.524	14587
885.65	14625
885.775	14606
885.9	14530
886.025	14610
886.15	14727
886.275	14583
886.4	14537
886.525	14533
886.65	14564
886.775	14503
886.9	14693
887.025	14849
887.149	14659
887.274	14545
887.399	14385
887.523	14351
887.648	14358
887.773	14317
887.897	14446
888.021	14454
888.146	14339
888.27	14564
888.395	14594
888.519	14454
888.643	14438
888.767	14518
888.891	14366
889.015	14275
889.139	14396
889.263	14225
889.387	14393
889.511	14446
889.635	14545
889.759	14400
889.883	14233
890.006	14396
890.13	14457
890.254	14294
890.377	14320
890.501	14096
890.624	14005
890.748	14157
890.871	14001
890.995	13947
891.118	13856
891.241	13959
891.364	14035
891.488	14054
891.611	13944
891.734	13970
891.857	14119
891.98	13997
892.103	14039
892.226	14134
892.349	14012
892.471	13902
892.594	13963
892.717	13989
892.839	13974
892.962	13940
893.085	14058
893.207	13951
893.33	13841
893.452	13959
893.575	14088
893.697	13963
893.819	14180
893.941	14172
894.064	14065
894.186	13978
894.308	13989
894.43	14149
894.552	14229
894.674	14301
894.796	14012
894.918	14016
895.04	13928
895.161	14145
895.283	14050
895.405	14005
895.526	14092
895.648	14100
895.769	14187
895.891	14225
896.012	14233
896.134	14263
896.255	14134
896.376	14103
896.498	14229
896.619	14298
896.74	14161
896.861	14244
896.982	14507
897.103	14629
897.224	14419
897.345	14355
897.466	14381
897.587	14484
897.708	14602
897.828	14461
897.949	14396
898.07	14282
898.19	14454
898.311	14617
898.431	14423
898.552	14575
898.672	14587
898.792	14526
898.913	14590
899.033	14476
899.153	14400
899.273	14259
899.393	14442
899.513	14412
899.633	14431
899.753	14408
899.873	14317
899.993	14374
900.113	14415
900.232	14385
900.352	14393
900.472	14339
900.591	14138
900.711	14229
900.83	14206
900.95	14320
901.069	14339
901.189	14092
901.308	13917
901.427	13959
901.546	13841
901.665	13967
901.784	13947
901.904	13784
902.023	13738
902.141	13586
902.26	13434
902.379	13651
902.498	13514
902.617	13419
902.735	13563
902.854	13483
902.973	13483
903.091	13289
903.21	13247
903.328	13187
903.446	13152
903.565	13168
903.683	13114
903.801	12985
903.919	13038
904.038	13065
904.156	12897
904.274	12920
904.392	12905
904.51	12886
904.627	12833
904.745	12932
904.863	12962
904.981	12681
905.098	12483
905.216	12536
905.334	12662
905.451	12677
905.569	12585
905.686	12601
905.803	12669
905.921	12418
906.038	12532
906.155	12342
906.272	12273
906.389	12372
906.506	12213
906.623	12171
906.74	12182
906.857	12102
906.974	12007
907.091	12304
907.208	12338
907.324	12186
907.441	12072
907.557	11897
907.674	11927
907.79	11809
907.907	11908
908.023	11965
908.139	11878
908.256	11897
908.372	11760
908.488	11824
908.604	11657
908.72	11661
908.836	11649
908.952	11695
909.068	11733
909.184	11809
909.3	11703
909.415	11790
909.531	11722
909.647	11547
909.762	11402
909.878	11421
909.993	11459
910.108	11299
910.224	11433
910.339	11463
910.454	11284
910.57	11250
910.685	11208
910.8	11490
910.915	11493
911.03	11341
911.145	11143
911.259	11162
911.374	11113
911.489	11075
911.604	10972
911.718	10911
911.833	10972
911.947	10801
912.062	10706
912.176	10736
912.291	10892
912.405	10919
912.519	11067
912.633	11143
912.748	10946
912.862	10904
912.976	10767
913.09	10664
913.204	10733
913.318	10797
913.431	10919
913.545	10892
913.659	10904
913.772	10774
913.886	10710
914	10653
914.113	10763
914.226	10805
914.34	10721
914.453	10611
914.566	10820
914.68	10622
914.793	10714
914.906	10485
915.019	10379
915.132	10344
915.245	10451
915.358	10310
915.47	10344
915.583	10436
915.696	10523
915.809	10592
915.921	10538
916.034	10360
916.146	10352
916.259	10405
916.371	10405
916.483	10375
916.595	10413
916.708	10268
916.82	10348
916.932	10329
917.044	10329
917.156	10348
917.268	10139
917.38	10371
917.491	10207
917.603	10329
917.715	10318
917.826	10352
917.938	10246
918.049	10090
918.161	10204
918.272	10371
918.384	10500
918.495	10261
918.606	10112
918.717	10162
918.828	10150
918.939	10135
919.05	10055
919.161	10116
919.272	9884
919.383	10017
919.494	10120
919.604	10413
919.715	10204
919.826	10063
919.936	10078
920.047	10188
920.157	10112
920.267	10291
920.378	10105
920.488	10109
920.598	10360
920.708	10493
920.818	10375
920.928	10405
921.038	10516
921.148	10512
921.258	10135
921.368	10131
921.477	10032
921.587	9972
921.697	9816
921.806	9964
921.916	9876
922.025	9755
922.134	9686
922.244	9728
922.353	9797
922.462	9526
922.571	9424
922.68	9450
922.789	9401
922.898	9496
923.007	9336
923.116	9424
923.224	9329
923.333	9447
923.442	9359
923.55	9253
923.659	9313
923.767	9291
923.876	9226
923.984	9325
924.092	9127
924.201	9268
924.309	9302
924.417	9332
924.525	9199
924.633	9237
924.741	10139
924.849	9043
924.956	9180
925.064	9127
925.172	8975
925.279	9028
925.387	9039
925.494	9005
925.602	9157
925.709	9150
925.816	9066
925.924	9036
926.031	9180
926.138	9055
926.245	9116
926.352	8948
926.459	9146
926.566	9161
926.673	8971
926.779	8914
926.886	8868
926.993	8819
927.099	8823
927.206	8720
927.312	8697
927.419	8895
927.525	8777
927.631	8895
927.737	8727
927.843	8655
927.95	8473
928.056	8705
928.162	8674
928.267	8754
928.373	9195
928.479	8796
928.585	8526
928.69	8708
928.796	8701
928.901	8640
929.007	8423
929.112	8606
929.218	8632
929.323	8602
929.428	8434
929.533	8640
929.638	8423
929.743	8431
929.848	8549
929.953	8568
930.058	8381
930.163	8206
930.267	8282
930.372	8385
930.477	8240
930.581	8423
930.685	8339
930.79	8164
930.894	8225
930.998	8149
931.103	8343
931.207	7997
931.311	7951
931.415	7951
931.519	7715
931.623	7742
