Data from test_V78500241_178.txt Node
Date: Fri Mar 25 14:34:57 CST 2022
User: usil
Spectrometer: V785-0024
Trigger mode: 0
Integration Time (sec): 4.000000E-1
Scans to average: 1
Nonlinearity correction enabled: false
Boxcar width: 0
Storing dark spectrum: false
XAxis mode: Wavelengths
Number of Pixels in Spectrum: 1024
>>>>>Begin Spectral Data<<<<<
801.071	28626
801.214	28481
801.356	28238
801.499	28196
801.641	28086
801.783	27835
801.926	28040
802.068	27888
802.211	27991
802.353	27762
802.496	27717
802.638	27724
802.78	27728
802.923	27549
803.065	27420
803.208	27469
803.35	27648
803.492	27701
803.635	27846
803.777	27606
803.919	27667
804.061	28105
804.204	27827
804.346	27686
804.488	27576
804.63	27618
804.773	27500
804.915	27641
805.057	27789
805.199	27663
805.341	27701
805.483	27694
805.626	27835
805.768	27728
805.91	27736
806.052	27873
806.194	27564
806.336	27998
806.478	27861
806.62	27766
806.762	27991
806.904	28109
807.046	28428
807.188	28268
807.33	28325
807.472	28508
807.614	28390
807.756	28508
807.898	28470
808.04	28637
808.182	28793
808.324	28965
808.465	29178
808.607	29661
808.749	29969
808.891	30216
809.033	30239
809.174	30026
809.316	29756
809.458	29448
809.6	29098
809.741	28991
809.883	28812
810.025	28824
810.166	28809
810.308	28713
810.45	28622
810.591	28504
810.733	28386
810.875	28230
811.016	28143
811.158	27926
811.299	28234
811.441	28284
811.582	28093
811.724	28025
811.865	28101
812.007	28158
812.148	28048
812.29	28090
812.431	28303
812.573	28352
812.714	28485
812.855	28615
812.997	28637
813.138	28793
813.279	28691
813.421	28592
813.562	28660
813.703	28280
813.845	28265
813.986	27964
814.127	27720
814.268	27637
814.41	27713
814.551	27781
814.692	27797
814.833	27686
814.974	27720
815.115	27663
815.256	27363
815.397	27492
815.539	27424
815.68	27401
815.821	27424
815.962	27283
816.103	27405
816.244	27329
816.385	27070
816.526	27081
816.666	26826
816.807	26739
816.948	26739
817.089	26804
817.23	26857
817.371	26689
817.512	26682
817.653	26823
817.793	26602
817.934	26697
818.075	26587
818.216	26545
818.356	26575
818.497	26537
818.638	26545
818.778	26507
818.919	26438
819.06	26442
819.2	26549
819.341	26636
819.481	26655
819.622	26807
819.762	27047
819.903	26792
820.043	26682
820.184	26792
820.324	26663
820.465	26956
820.605	26640
820.746	26621
820.886	26552
821.026	26590
821.167	26659
821.307	26655
821.447	26503
821.588	26427
821.728	26240
821.868	26195
822.008	26081
822.149	26043
822.289	26039
822.429	25647
822.569	25506
822.709	25605
822.849	25533
822.99	25483
823.13	25537
823.27	25358
823.41	25194
823.55	25228
823.69	25301
823.83	25438
823.97	25240
824.11	25057
824.25	24966
824.389	24996
824.529	24977
824.669	25023
824.809	25179
824.949	25114
825.089	25110
825.228	25179
825.368	24844
825.508	24977
825.648	24935
825.787	24867
825.927	24947
826.067	24772
826.206	24726
826.346	24837
826.485	24825
826.625	24814
826.765	24852
826.904	24802
827.044	24726
827.183	24513
827.323	24513
827.462	24490
827.601	24547
827.741	24532
827.88	24555
828.02	24445
828.159	24426
828.298	24452
828.437	24460
828.577	24429
828.716	24509
828.855	24353
828.994	24235
829.134	24323
829.273	24292
829.412	24076
829.551	24110
829.69	24148
829.829	24159
829.968	24258
830.107	24140
830.246	24220
830.385	24049
830.524	23961
830.663	23942
830.802	23836
830.941	23737
831.08	23714
831.219	23794
831.357	23851
831.496	23969
831.635	23733
831.774	23680
831.913	23615
832.051	23497
832.19	23463
832.329	23524
832.467	23440
832.606	23360
832.744	23269
832.883	23345
833.022	23433
833.16	23474
833.299	23383
833.437	23322
833.576	23395
833.714	23448
833.852	23501
833.991	23474
834.129	23604
834.267	23611
834.406	23444
834.544	23486
834.682	23490
834.821	23379
834.959	23547
835.097	23372
835.235	23505
835.373	23429
835.511	23379
835.65	23273
835.788	23231
835.926	23117
836.064	23079
836.202	23018
836.34	23162
836.478	23269
836.615	23231
836.753	23140
836.891	23216
837.029	23208
837.167	22968
837.305	23117
837.443	23079
837.58	22904
837.718	23064
837.856	23117
837.993	22957
838.131	22987
838.269	22953
838.406	23010
838.544	22710
838.681	22702
838.819	22603
838.956	22493
839.094	22428
839.231	22584
839.369	22588
839.506	22915
839.643	22755
839.781	22386
839.918	22314
840.055	22375
840.193	22417
840.33	22379
840.467	22363
840.604	22329
840.742	22599
840.879	22169
841.016	22280
841.153	22226
841.29	22432
841.427	22276
841.564	22363
841.701	22318
841.838	22181
841.975	22097
842.112	22226
842.249	22116
842.385	22063
842.522	22192
842.659	22109
842.796	22032
842.933	21991
843.069	21979
843.206	21979
843.343	22112
843.479	22051
843.616	22074
843.752	21838
843.889	21812
844.025	21888
844.162	21831
844.298	21903
844.435	21838
844.571	21766
844.708	21823
844.844	22021
844.98	22017
845.117	22074
845.253	22017
845.389	22067
845.525	22390
845.661	22767
845.798	23337
845.934	23775
846.07	23874
846.206	23783
846.342	23589
846.478	22831
846.614	22223
846.75	21755
846.886	21614
847.022	21553
847.158	21428
847.294	21378
847.429	21291
847.565	21252
847.701	21538
847.837	21032
847.972	20975
848.108	21108
848.244	20960
848.379	20941
848.515	20739
848.65	20830
848.786	20708
848.921	20754
849.057	20891
849.192	20925
849.328	20819
849.463	20689
849.598	20762
849.734	20674
849.869	20556
850.004	20518
850.14	20552
850.275	20442
850.41	20545
850.545	20583
850.68	20602
850.815	20454
850.95	20518
851.085	20678
851.22	20621
851.355	20545
851.49	20469
851.625	20526
851.76	20374
851.895	20434
852.03	20374
852.165	20389
852.299	20499
852.434	20473
852.569	20564
852.703	20404
852.838	20568
852.973	20632
853.107	20575
853.242	20393
853.376	20282
853.511	20153
853.645	20324
853.78	20499
853.914	20408
854.048	20313
854.183	20218
854.317	20374
854.451	20533
854.585	20263
854.72	20351
854.854	20385
854.988	20183
855.122	20393
855.256	20214
855.39	20381
855.524	20336
855.658	20495
855.792	20210
855.926	20278
856.06	20377
856.194	20415
856.327	20252
856.461	20237
856.595	20172
856.729	20176
856.862	20438
856.996	20336
857.13	20396
857.263	20313
857.397	20400
857.53	20206
857.664	20290
857.797	20142
857.931	20252
858.064	20195
858.197	20301
858.331	20259
858.464	20218
858.597	20103
858.731	20157
858.864	20092
858.997	20130
859.13	20313
859.263	20210
859.396	20389
859.529	20199
859.662	20221
859.795	20138
859.928	20176
860.061	20446
860.194	20412
860.327	20202
860.46	20221
860.592	20252
860.725	20294
860.858	20210
860.99	20199
861.123	20157
861.256	20081
861.388	20126
861.521	20845
861.653	20069
861.786	20046
861.918	20065
862.05	20199
862.183	20237
862.315	20149
862.447	20328
862.58	20210
862.712	20081
862.844	20084
862.976	20092
863.108	20016
863.24	20259
863.372	19879
863.504	19974
863.636	19852
863.768	20027
863.9	19955
864.032	19837
864.164	19989
864.296	19997
864.428	20001
864.559	19936
864.691	20001
864.823	19856
864.954	19818
865.086	19928
865.217	19879
865.349	19666
865.48	19860
865.612	19757
865.743	19925
865.875	19963
866.006	19807
866.137	19727
866.269	19788
866.4	19811
866.531	19894
866.662	19761
866.793	19651
866.924	19674
867.055	19708
867.186	19860
867.317	19738
867.448	19738
867.579	19666
867.71	19693
867.841	19704
867.972	19769
868.103	19841
868.233	19757
868.364	19681
868.495	19830
868.625	19890
868.756	19963
868.886	19807
869.017	19913
869.147	20024
869.278	20088
869.408	19997
869.539	19906
869.669	19974
869.799	20081
869.929	20130
870.06	20115
870.19	20305
870.32	20183
870.45	20332
870.58	20286
870.71	20480
870.84	20552
870.97	20237
871.1	20488
871.23	20526
871.36	20556
871.489	20332
871.619	20476
871.749	20625
871.879	20473
872.008	20655
872.138	20667
872.267	20533
872.397	20454
872.526	20396
872.656	20454
872.785	20294
872.915	20556
873.044	20773
873.173	20518
873.303	20644
873.432	20731
873.561	20712
873.69	20663
873.819	20609
873.948	20583
874.077	20659
874.206	20621
874.335	20629
874.464	20743
874.593	20762
874.722	20872
874.851	20956
874.979	21093
875.108	20998
875.237	20880
875.365	20944
875.494	20891
875.623	20994
875.751	20887
875.88	20960
876.008	21096
876.136	21218
876.265	21317
876.393	21538
876.521	21397
876.65	21477
876.778	21405
876.906	21336
877.034	21313
877.162	21412
877.29	21310
877.418	21283
877.546	21397
877.674	21435
877.802	21355
877.93	21348
878.058	21256
878.185	21275
878.313	21389
878.441	21458
878.568	21397
878.696	21507
878.824	21720
878.951	21800
879.079	21953
879.206	22162
879.333	22318
879.461	22466
879.588	22683
879.715	22607
879.842	22706
879.97	22287
880.097	21766
880.224	21713
880.351	21663
880.478	21583
880.605	21561
880.732	21359
880.859	21580
880.986	21428
881.112	21477
881.239	21298
881.366	21245
881.493	21089
881.619	21077
881.746	21085
881.872	21077
881.999	20872
882.125	20960
882.252	21043
882.378	21017
882.505	21116
882.631	20918
882.757	20746
882.883	20880
883.01	20830
883.136	20693
883.262	20640
883.388	20693
883.514	20739
883.64	20659
883.766	20674
883.892	20556
884.018	20583
884.143	20724
884.269	20838
884.395	20442
884.52	20480
884.646	20404
884.772	20343
884.897	20389
885.023	20465
885.148	20461
885.274	20549
885.399	20450
885.524	20461
885.65	20427
885.775	20465
885.9	20362
886.025	20427
886.15	20358
886.275	20206
886.4	20263
886.525	20362
886.65	20142
886.775	20157
886.9	20358
887.025	20404
887.149	20240
887.274	20050
887.399	19902
887.523	20092
887.648	19944
887.773	19830
887.897	19982
888.021	20035
888.146	19917
888.27	19993
888.395	20043
888.519	19978
888.643	20054
888.767	20012
888.891	19837
889.015	19689
889.139	19677
889.263	19712
889.387	19856
889.511	19993
889.635	19849
889.759	19753
889.883	19753
890.006	19647
890.13	19879
890.254	19651
890.377	19605
890.501	19483
890.624	19396
890.748	19407
890.871	19369
890.995	19282
891.118	19270
891.241	19206
891.364	19320
891.488	19259
891.611	19270
891.734	19285
891.857	19278
891.98	19297
892.103	19316
892.226	19354
892.349	19278
892.471	19038
892.594	19225
892.717	19126
892.839	19190
892.962	19099
893.085	19346
893.207	19126
893.33	19072
893.452	19027
893.575	19160
893.697	19187
893.819	19259
893.941	19388
894.064	19266
894.186	19069
894.308	19133
894.43	19168
894.552	19350
894.674	19236
894.796	19129
894.918	19061
895.04	19152
895.161	19259
895.283	19213
895.405	19053
895.526	19122
895.648	19156
895.769	19202
895.891	19228
896.012	19148
896.134	19213
896.255	19133
896.376	19076
896.498	19168
896.619	19187
896.74	19061
896.861	19190
896.982	19483
897.103	19525
897.224	19388
897.345	19331
897.466	19282
897.587	19403
897.708	19457
897.828	19453
897.949	19171
898.07	19194
898.19	19255
898.311	19525
898.431	19228
898.552	19411
898.672	19263
898.792	19358
898.913	19274
899.033	19209
899.153	19179
899.273	19148
899.393	19126
899.513	19095
899.633	19228
899.753	19126
899.873	19072
899.993	19152
900.113	19065
900.232	19031
900.352	19076
900.472	18962
900.591	18833
900.711	18977
900.83	18932
900.95	18897
901.069	18943
901.189	18768
901.308	18570
901.427	18502
901.546	18612
901.665	18563
901.784	18494
901.904	18418
902.023	18205
902.141	18030
902.26	18060
902.379	18038
902.498	18003
902.617	17984
902.735	18030
902.854	17996
902.973	17802
903.091	17760
903.21	17703
903.328	17710
903.446	17589
903.565	17532
903.683	17608
903.801	17406
903.919	17543
904.038	17486
904.156	17204
904.274	17402
904.392	17254
904.51	17197
904.627	17223
904.745	17299
904.863	17254
904.981	17064
905.098	16862
905.216	16919
905.334	17045
905.451	16812
905.569	16919
905.686	16862
905.803	16877
905.921	16679
906.038	16736
906.155	16736
906.272	16592
906.389	16573
906.506	16363
906.623	16455
906.74	16402
906.857	16306
906.974	16352
907.091	16447
907.208	16580
907.324	16329
907.441	16375
907.557	16230
907.674	16200
907.79	16010
907.907	16158
908.023	16044
908.139	16078
908.256	15956
908.372	15926
908.488	15888
908.604	15846
908.72	15800
908.836	15816
908.952	15717
909.068	15880
909.184	15884
909.3	15880
909.415	15778
909.531	15701
909.647	15538
909.762	15454
909.878	15488
909.993	15496
910.108	15443
910.224	15469
910.339	15523
910.454	15340
910.57	15195
910.685	15287
910.8	15515
910.915	15469
911.03	15207
911.145	15192
911.259	15024
911.374	15127
911.489	15100
911.604	15051
911.718	14800
911.833	14845
911.947	14750
912.062	14705
912.176	14895
912.291	14781
912.405	14849
912.519	14971
912.633	15017
912.748	14849
912.862	14807
912.976	14651
913.09	14606
913.204	14610
913.318	14682
913.431	14689
913.545	14693
913.659	14807
913.772	14693
913.886	14560
914	14446
914.113	14541
914.226	14606
914.34	14514
914.453	14355
914.566	14552
914.68	14434
914.793	14324
914.906	14248
915.019	14187
915.132	14031
915.245	14054
915.358	14206
915.47	14111
915.583	14191
915.696	14218
915.809	14202
915.921	14294
916.034	14142
916.146	14035
916.259	14020
916.371	14077
916.483	14024
916.595	14058
916.708	13986
916.82	13963
916.932	14020
917.044	14031
917.156	13909
917.268	13757
917.38	13674
917.491	13761
917.603	13856
917.715	13795
917.826	13940
917.938	13719
918.049	13696
918.161	13750
918.272	13807
918.384	13784
918.495	13837
918.606	13601
918.717	13521
918.828	13685
918.939	13632
919.05	13464
919.161	13480
919.272	13346
919.383	13377
919.494	13674
919.604	13715
919.715	13544
919.826	13422
919.936	13533
920.047	13540
920.157	13533
920.267	13738
920.378	13476
920.488	13510
920.598	13738
920.708	13883
920.818	13628
920.928	13632
921.038	13769
921.148	13723
921.258	13460
921.368	13422
921.477	13293
921.587	13247
921.697	13126
921.806	13270
921.916	13175
922.025	13084
922.134	12905
922.244	13000
922.353	13000
922.462	12768
922.571	12798
922.68	12551
922.789	12559
922.898	12650
923.007	12551
923.116	12623
923.224	12490
923.333	12395
923.442	12429
923.55	12445
923.659	12426
923.767	12464
923.876	12407
923.984	12460
924.092	12270
924.201	12399
924.309	12353
924.417	12334
924.525	12289
924.633	12148
924.741	13266
924.849	12098
924.956	12224
925.064	12022
925.172	12041
925.279	12041
925.387	12034
925.494	12095
925.602	12209
925.709	12098
925.816	11984
925.924	11965
926.031	12072
926.138	11954
926.245	12011
926.352	11980
926.459	12121
926.566	11988
926.673	11798
926.779	11786
926.886	11828
926.993	11741
927.099	11695
927.206	11558
927.312	11562
927.419	11604
927.525	11554
927.631	11623
927.737	11543
927.843	11455
927.95	11356
928.056	11440
928.162	11520
928.267	11505
928.373	12136
928.479	11585
928.585	11322
928.69	11509
928.796	11471
928.901	11349
929.007	11147
929.112	11288
929.218	11307
929.323	11185
929.428	11208
929.533	11277
929.638	11178
929.743	11136
929.848	11242
929.953	11128
930.058	11056
930.163	10892
930.267	10949
930.372	10991
930.477	10820
930.581	11170
930.685	10972
930.79	10812
930.894	10866
930.998	10786
931.103	10843
931.207	10504
931.311	10371
931.415	10375
931.519	10207
931.623	10067
