Data from test_V78500241_1519.txt Node
Date: Fri Mar 25 14:44:17 CST 2022
User: usil
Spectrometer: V785-0024
Trigger mode: 0
Integration Time (sec): 4.000000E-1
Scans to average: 1
Nonlinearity correction enabled: false
Boxcar width: 0
Storing dark spectrum: false
XAxis mode: Wavelengths
Number of Pixels in Spectrum: 1024
>>>>>Begin Spectral Data<<<<<
801.071	22527
801.214	22314
801.356	22097
801.499	21899
801.641	21789
801.783	21762
801.926	21861
802.068	21652
802.211	21652
802.353	21561
802.496	21306
802.638	21237
802.78	21272
802.923	21085
803.065	21032
803.208	21195
803.35	21291
803.492	21237
803.635	21268
803.777	21104
803.919	21348
804.061	21469
804.204	21207
804.346	21062
804.488	20883
804.63	21074
804.773	20963
804.915	21070
805.057	21127
805.199	21017
805.341	21093
805.483	21317
805.626	21119
805.768	20933
805.91	21104
806.052	20944
806.194	20994
806.336	21241
806.478	21131
806.62	21028
806.762	21138
806.904	21340
807.046	21477
807.188	21313
807.33	21367
807.472	21477
807.614	21416
807.756	21424
807.898	21363
808.04	21108
808.182	21249
808.324	21287
808.465	21336
808.607	21549
808.749	21515
808.891	21618
809.033	21816
809.174	21648
809.316	21530
809.458	21561
809.6	21534
809.741	21549
809.883	21534
810.025	21709
810.166	21595
810.308	21625
810.45	21519
810.591	21599
810.733	21348
810.875	21348
811.016	21108
811.158	21138
811.299	21173
811.441	21435
811.582	21275
811.724	21321
811.865	21127
812.007	21214
812.148	21211
812.29	21287
812.431	21435
812.573	21534
812.714	21542
812.855	21789
812.997	21899
813.138	21907
813.279	21816
813.421	21789
813.562	21599
813.703	21534
813.845	21283
813.986	21154
814.127	21017
814.268	20621
814.41	20861
814.551	20750
814.692	20697
814.833	20697
814.974	20792
815.115	20765
815.256	20648
815.397	20655
815.539	20545
815.68	20545
815.821	20495
815.962	20495
816.103	20419
816.244	20415
816.385	20290
816.526	20233
816.666	20069
816.807	19909
816.948	19970
817.089	20039
817.23	20016
817.371	19890
817.512	19811
817.653	19921
817.793	19883
817.934	19947
818.075	19970
818.216	19944
818.356	19826
818.497	19765
818.638	19567
818.778	19609
818.919	19594
819.06	19620
819.2	19700
819.341	19822
819.481	19837
819.622	20065
819.762	20081
819.903	20073
820.043	19921
820.184	19803
820.324	19928
820.465	19944
820.605	19925
820.746	19841
820.886	19837
821.026	19887
821.167	19868
821.307	19898
821.447	19780
821.588	19696
821.728	19700
821.868	19502
822.008	19285
822.149	19308
822.289	19247
822.429	18943
822.569	19084
822.709	19015
822.849	18791
822.99	18802
823.13	18677
823.27	18760
823.41	18528
823.55	18490
823.69	18665
823.83	18635
823.97	18620
824.11	18384
824.25	18388
824.389	18391
824.529	18429
824.669	18369
824.809	18467
824.949	18479
825.089	18414
825.228	18300
825.368	18281
825.508	18174
825.648	18155
825.787	18152
825.927	18365
826.067	18110
826.206	18068
826.346	18144
826.485	18152
826.625	18034
826.765	18258
826.904	18273
827.044	17828
827.183	17863
827.323	17840
827.462	17904
827.601	17817
827.741	17710
827.88	17821
828.02	17775
828.159	17790
828.298	17870
828.437	17855
828.577	17805
828.716	17980
828.855	17733
828.994	17596
829.134	17585
829.273	17566
829.412	17589
829.551	17535
829.69	17600
829.829	17668
829.968	17668
830.107	17646
830.246	17623
830.385	17543
830.524	17589
830.663	17421
830.802	17280
830.941	17258
831.08	17155
831.219	17292
831.357	17246
831.496	17273
831.635	17189
831.774	17048
831.913	17071
832.051	17033
832.19	16946
832.329	16946
832.467	16908
832.606	16843
832.744	16885
832.883	16820
833.022	16771
833.16	16930
833.299	16915
833.437	16984
833.576	16957
833.714	16961
833.852	16965
833.991	16984
834.129	17037
834.267	17003
834.406	16957
834.544	17010
834.682	16976
834.821	16854
834.959	17124
835.097	16968
835.235	16991
835.373	16866
835.511	16908
835.65	16774
835.788	16835
835.926	16778
836.064	16691
836.202	16653
836.34	16885
836.478	16980
836.615	16786
836.753	16869
836.891	16828
837.029	16927
837.167	16900
837.305	16729
837.443	16763
837.58	16706
837.718	16771
837.856	16683
837.993	16630
838.131	16664
838.269	16626
838.406	16649
838.544	16519
838.681	16348
838.819	16371
838.956	16204
839.094	16120
839.231	16341
839.369	16371
839.506	16554
839.643	16489
839.781	16291
839.918	16238
840.055	16181
840.193	16234
840.33	16150
840.467	16238
840.604	16322
840.742	16470
840.879	16082
841.016	16166
841.153	16112
841.29	16325
841.427	16196
841.564	16204
841.701	16303
841.838	16158
841.975	16219
842.112	16143
842.249	15956
842.385	15968
842.522	16211
842.659	16154
842.796	16025
842.933	16051
843.069	15949
843.206	15930
843.343	16059
843.479	15922
843.616	15949
843.752	15762
843.889	15857
844.025	15953
844.162	15804
844.298	15842
844.435	15739
844.571	15755
844.708	15747
844.844	15899
844.98	15991
845.117	15884
845.253	15827
845.389	15663
845.525	15766
845.661	15812
845.798	15679
845.934	15766
846.07	15846
846.206	15857
846.342	15835
846.478	15751
846.614	15485
846.75	15332
846.886	15443
847.022	15454
847.158	15431
847.294	15488
847.429	15462
847.565	15329
847.701	15637
847.837	15032
847.972	15047
848.108	15165
848.244	15214
848.379	15001
848.515	15020
848.65	14830
848.786	14914
848.921	15005
849.057	15104
849.192	15058
849.328	14975
849.463	14963
849.598	14921
849.734	14925
849.869	14785
850.004	14720
850.14	14762
850.275	14777
850.41	14667
850.545	14606
850.68	14712
850.815	14781
850.95	14663
851.085	14868
851.22	14788
851.355	14769
851.49	14739
851.625	14701
851.76	14602
851.895	14587
852.03	14613
852.165	14640
852.299	14739
852.434	14807
852.569	14785
852.703	14743
852.838	14834
852.973	14914
853.107	14777
853.242	14674
853.376	14571
853.511	14389
853.645	14522
853.78	14750
853.914	14606
854.048	14533
854.183	14636
854.317	14727
854.451	14758
854.585	14632
854.72	14533
854.854	14507
854.988	14511
855.122	14693
855.256	14415
855.39	14511
855.524	14701
855.658	14663
855.792	14560
855.926	14629
856.06	14724
856.194	14720
856.327	14686
856.461	14533
856.595	14670
856.729	14602
856.862	14632
856.996	14594
857.13	14659
857.263	14758
857.397	14727
857.53	14655
857.664	14667
857.797	14632
857.931	14712
858.064	14686
858.197	14739
858.331	14571
858.464	14613
858.597	14503
858.731	14518
858.864	14537
858.997	14629
859.13	14545
859.263	14701
859.396	14670
859.529	14659
859.662	14636
859.795	14617
859.928	14606
860.061	14693
860.194	14823
860.327	14617
860.46	14705
860.592	14636
860.725	14686
860.858	14800
860.99	14613
861.123	14571
861.256	14583
861.388	14571
861.521	15093
861.653	14492
861.786	14507
861.918	14461
862.05	14514
862.183	14579
862.315	14625
862.447	14644
862.58	14549
862.712	14381
862.844	14317
862.976	14457
863.108	14389
863.24	14701
863.372	14377
863.504	14408
863.636	14396
863.768	14511
863.9	14434
864.032	14389
864.164	14358
864.296	14434
864.428	14412
864.559	14476
864.691	14473
864.823	14358
864.954	14419
865.086	14450
865.217	14396
865.349	14271
865.48	14393
865.612	14507
865.743	14587
865.875	14336
866.006	14313
866.137	14446
866.269	14343
866.4	14351
866.531	14355
866.662	14320
866.793	14237
866.924	14290
867.055	14393
867.186	14263
867.317	14324
867.448	14286
867.579	14305
867.71	14282
867.841	14278
867.972	14393
868.103	14351
868.233	14309
868.364	14393
868.495	14419
868.625	14629
868.756	14648
868.886	14507
869.017	14503
869.147	14655
869.278	14811
869.408	14693
869.539	14583
869.669	14716
869.799	14610
869.929	14697
870.06	14678
870.19	15017
870.32	14975
870.45	14967
870.58	14948
870.71	15077
870.84	15100
870.97	15001
871.1	15005
871.23	15237
871.36	15180
871.489	15154
871.619	15127
871.749	15108
871.879	15214
872.008	15237
872.138	15249
872.267	15135
872.397	14990
872.526	15028
872.656	15089
872.785	15112
872.915	15230
873.044	15397
873.173	15298
873.303	15344
873.432	15218
873.561	15272
873.69	15302
873.819	15287
873.948	15344
874.077	15233
874.206	15291
874.335	15245
874.464	15382
874.593	15629
874.722	15405
874.851	15603
874.979	15717
875.108	15580
875.237	15488
875.365	15408
875.494	15561
875.623	15644
875.751	15564
875.88	15576
876.008	15812
876.136	15785
876.265	15998
876.393	16063
876.521	15937
876.65	16036
876.778	15960
876.906	15907
877.034	15915
877.162	15930
877.29	15808
877.418	15998
877.546	15983
877.674	16006
877.802	16090
877.93	16032
878.058	15880
878.185	15835
878.313	16006
878.441	16059
878.568	15755
878.696	15869
878.824	16025
878.951	15987
879.079	16135
879.206	16280
879.333	16147
879.461	16093
879.588	16268
879.715	16287
879.842	16257
879.97	16067
880.097	15835
880.224	15827
880.351	15819
880.478	15819
880.605	15892
880.732	15903
880.859	16059
880.986	15865
881.112	15945
881.239	15694
881.366	15595
881.493	15496
881.619	15549
881.746	15450
881.872	15447
881.999	15431
882.125	15393
882.252	15538
882.378	15580
882.505	15599
882.631	15485
882.757	15279
882.883	15363
883.01	15321
883.136	15252
883.262	15119
883.388	15195
883.514	15405
883.64	15348
883.766	15298
883.892	15100
884.018	15108
884.143	15306
884.269	15363
884.395	15051
884.52	14990
884.646	14998
884.772	14975
884.897	15009
885.023	15116
885.148	15199
885.274	15222
885.399	15112
885.524	15028
885.65	15005
885.775	15001
885.9	14933
886.025	15070
886.15	15100
886.275	14971
886.4	14933
886.525	14994
886.65	14826
886.775	14921
886.9	15085
887.025	15241
887.149	15013
887.274	14777
887.399	14849
887.523	14762
887.648	14727
887.773	14724
887.897	14849
888.021	14929
888.146	14883
888.27	14880
888.395	14956
888.519	14872
888.643	14880
888.767	14830
888.891	14708
889.015	14587
889.139	14777
889.263	14693
889.387	14800
889.511	14807
889.635	14872
889.759	14587
889.883	14560
890.006	14640
890.13	14792
890.254	14617
890.377	14583
890.501	14526
890.624	14545
890.748	14465
890.871	14370
890.995	14332
891.118	14252
891.241	14366
891.364	14419
891.488	14526
891.611	14351
891.734	14415
891.857	14343
891.98	14404
892.103	14343
892.226	14385
892.349	14408
892.471	14248
892.594	14351
892.717	14484
892.839	14339
892.962	14442
893.085	14454
893.207	14355
893.33	14317
893.452	14248
893.575	14358
893.697	14339
893.819	14518
893.941	14632
894.064	14457
894.186	14294
894.308	14396
894.43	14389
894.552	14568
894.674	14393
894.796	14347
894.918	14290
895.04	14469
895.161	14503
895.283	14499
895.405	14415
895.526	14473
895.648	14450
895.769	14503
895.891	14590
896.012	14549
896.134	14610
896.255	14579
896.376	14469
896.498	14552
896.619	14640
896.74	14511
896.861	14530
896.982	14838
897.103	15051
897.224	14845
897.345	14773
897.466	14727
897.587	14773
897.708	14891
897.828	14918
897.949	14716
898.07	14708
898.19	14720
898.311	14921
898.431	14800
898.552	14883
898.672	14948
898.792	14956
898.913	14960
899.033	14750
899.153	14686
899.273	14537
899.393	14758
899.513	14823
899.633	14777
899.753	14777
899.873	14640
899.993	14800
900.113	14739
900.232	14739
900.352	14655
900.472	14606
900.591	14579
900.711	14594
900.83	14598
900.95	14636
901.069	14743
901.189	14492
901.308	14324
901.427	14161
901.546	14233
901.665	14256
901.784	14263
901.904	14240
902.023	14020
902.141	13811
902.26	13811
902.379	13856
902.498	13826
902.617	13719
902.735	13856
902.854	13772
902.973	13776
903.091	13544
903.21	13556
903.328	13578
903.446	13407
903.565	13422
903.683	13365
903.801	13293
903.919	13304
904.038	13278
904.156	13213
904.274	13247
904.392	13183
904.51	13217
904.627	13255
904.745	13202
904.863	13270
904.981	13027
905.098	12996
905.216	12886
905.334	12954
905.451	12894
905.569	12867
905.686	12867
905.803	12890
905.921	12760
906.038	12798
906.155	12684
906.272	12627
906.389	12654
906.506	12467
906.623	12536
906.74	12467
906.857	12399
906.974	12422
907.091	12540
907.208	12601
907.324	12456
907.441	12433
907.557	12243
907.674	12232
907.79	12194
907.907	12232
908.023	12190
908.139	12216
908.256	12106
908.372	12194
908.488	12205
908.604	12049
908.72	11954
908.836	11977
908.952	11920
909.068	11965
909.184	12106
909.3	11954
909.415	12060
909.531	11885
909.647	11783
909.762	11752
909.878	11764
909.993	11707
910.108	11680
910.224	11707
910.339	11767
910.454	11596
910.57	11577
910.685	11608
910.8	11859
910.915	11691
911.03	11592
911.145	11512
911.259	11379
911.374	11436
911.489	11326
911.604	11349
911.718	11117
911.833	11201
911.947	11094
912.062	11037
912.176	11166
912.291	11189
912.405	11159
912.519	11425
912.633	11444
912.748	11292
912.862	11212
912.976	11029
913.09	10915
913.204	10946
913.318	10976
913.431	11136
913.545	11117
913.659	11181
913.772	11132
913.886	10972
914	11029
914.113	11083
914.226	11067
914.34	11006
914.453	10900
914.566	11090
914.68	10904
914.793	10927
914.906	10786
915.019	10630
915.132	10668
915.245	10656
915.358	10736
915.47	10706
915.583	10664
915.696	10736
915.809	10854
915.921	10843
916.034	10672
916.146	10668
916.259	10687
916.371	10721
916.483	10717
916.595	10584
916.708	10523
916.82	10634
916.932	10580
917.044	10554
917.156	10527
917.268	10466
917.38	10447
917.491	10466
917.603	10470
917.715	10607
917.826	10637
917.938	10470
918.049	10363
918.161	10424
918.272	10634
918.384	10611
918.495	10527
918.606	10455
918.717	10356
918.828	10390
918.939	10348
919.05	10363
919.161	10390
919.272	10257
919.383	10230
919.494	10394
919.604	10618
919.715	10405
919.826	10337
919.936	10386
920.047	10440
920.157	10474
920.267	10519
920.378	10428
920.488	10322
920.598	10634
920.708	10725
920.818	10558
920.928	10569
921.038	10812
921.148	10729
921.258	10341
921.368	10306
921.477	10337
921.587	10230
921.697	10169
921.806	10329
921.916	10200
922.025	10059
922.134	9953
922.244	9869
922.353	9975
922.462	9812
922.571	9888
922.68	9606
922.789	9633
922.898	9644
923.007	9584
923.116	9717
923.224	9709
923.333	9625
923.442	9538
923.55	9485
923.659	9568
923.767	9595
923.876	9500
923.984	9633
924.092	9382
924.201	9481
924.309	9485
924.417	9481
924.525	9416
924.633	9450
924.741	10371
924.849	9241
924.956	9306
925.064	9256
925.172	9237
925.279	9203
925.387	9313
925.494	9237
925.602	9496
925.709	9355
925.816	9268
925.924	9294
926.031	9367
926.138	9222
926.245	9355
926.352	9203
926.459	9329
926.566	9291
926.673	9237
926.779	9093
926.886	9116
926.993	9055
927.099	8963
927.206	8956
927.312	8952
927.419	9020
927.525	9020
927.631	8982
927.737	8895
927.843	8868
927.95	8758
928.056	8883
928.162	8883
928.267	8914
928.373	9450
928.479	9093
928.585	8746
928.69	8849
928.796	8819
928.901	8853
929.007	8655
929.112	8766
929.218	8716
929.323	8731
929.428	8678
929.533	8819
929.638	8537
929.743	8693
929.848	8689
929.953	8724
930.058	8587
930.163	8415
930.267	8495
930.372	8568
930.477	8427
930.581	8697
930.685	8602
930.79	8446
930.894	8473
930.998	8370
931.103	8564
931.207	8229
931.311	8142
931.415	8020
931.519	7879
931.623	7944
