Data from test_V78500241_2891.txt Node
Date: Fri Mar 25 14:53:50 CST 2022
User: usil
Spectrometer: V785-0024
Trigger mode: 0
Integration Time (sec): 4.000000E-1
Scans to average: 1
Nonlinearity correction enabled: false
Boxcar width: 0
Storing dark spectrum: false
XAxis mode: Wavelengths
Number of Pixels in Spectrum: 1024
>>>>>Begin Spectral Data<<<<<
801.071	22109
801.214	21994
801.356	21671
801.499	21614
801.641	21488
801.783	21450
801.926	21428
802.068	21344
802.211	21340
802.353	21165
802.496	21032
802.638	20941
802.78	20872
802.923	20777
803.065	20625
803.208	20735
803.35	20792
803.492	20883
803.635	20990
803.777	20746
803.919	20807
804.061	21211
804.204	20743
804.346	20800
804.488	20617
804.63	20891
804.773	20625
804.915	20754
805.057	20830
805.199	20625
805.341	20712
805.483	20765
805.626	20765
805.768	20552
805.91	20842
806.052	20838
806.194	20644
806.336	20785
806.478	20735
806.62	20541
806.762	20720
806.904	20864
807.046	21032
807.188	20986
807.33	20960
807.472	21100
807.614	20952
807.756	20979
807.898	20807
808.04	20708
808.182	20773
808.324	20796
808.465	20838
808.607	20891
808.749	20998
808.891	21188
809.033	21264
809.174	21135
809.316	21070
809.458	21017
809.6	21077
809.741	21218
809.883	21260
810.025	21203
810.166	21161
810.308	21203
810.45	21074
810.591	21070
810.733	20785
810.875	21070
811.016	20667
811.158	20678
811.299	20750
811.441	20944
811.582	20971
811.724	20910
811.865	20750
812.007	20830
812.148	20758
812.29	20826
812.431	21028
812.573	21062
812.714	21192
812.855	21272
812.997	21439
813.138	21386
813.279	21382
813.421	21344
813.562	21264
813.703	21066
813.845	21066
813.986	20682
814.127	20518
814.268	20336
814.41	20343
814.551	20328
814.692	20434
814.833	20282
814.974	20408
815.115	20358
815.256	20294
815.397	20229
815.539	20115
815.68	20149
815.821	20119
815.962	20115
816.103	20122
816.244	20008
816.385	19818
816.526	19750
816.666	19624
816.807	19544
816.948	19540
817.089	19620
817.23	19449
817.371	19499
817.512	19430
817.653	19483
817.793	19529
817.934	19480
818.075	19495
818.216	19506
818.356	19468
818.497	19343
818.638	19194
818.778	19209
818.919	19122
819.06	19255
819.2	19297
819.341	19285
819.481	19297
819.622	19502
819.762	19666
819.903	19567
820.043	19518
820.184	19495
820.324	19476
820.465	19552
820.605	19480
820.746	19533
820.886	19396
821.026	19472
821.167	19514
821.307	19502
821.447	19430
821.588	19270
821.728	19168
821.868	19034
822.008	19027
822.149	18867
822.289	18840
822.429	18677
822.569	18536
822.709	18460
822.849	18445
822.99	18414
823.13	18403
823.27	18353
823.41	18232
823.55	18011
823.69	18201
823.83	18186
823.97	18045
824.11	18060
824.25	17882
824.389	17961
824.529	17984
824.669	17901
824.809	18072
824.949	18034
825.089	18102
825.228	17916
825.368	17764
825.508	17824
825.648	17786
825.787	17760
825.927	17805
826.067	17699
826.206	17611
826.346	17824
826.485	17760
826.625	17680
826.765	17813
826.904	17714
827.044	17547
827.183	17493
827.323	17391
827.462	17509
827.601	17505
827.741	17433
827.88	17349
828.02	17261
828.159	17303
828.298	17414
828.437	17539
828.577	17379
828.716	17516
828.855	17315
828.994	17174
829.134	17204
829.273	17231
829.412	17014
829.551	17094
829.69	17124
829.829	17170
829.968	17166
830.107	17079
830.246	17151
830.385	17102
830.524	16930
830.663	16965
830.802	16778
830.941	16790
831.08	16729
831.219	16839
831.357	16805
831.496	17045
831.635	16850
831.774	16702
831.913	16603
832.051	16603
832.19	16550
832.329	16596
832.467	16550
832.606	16375
832.744	16516
832.883	16470
833.022	16402
833.16	16436
833.299	16542
833.437	16478
833.576	16478
833.714	16489
833.852	16607
833.991	16558
834.129	16679
834.267	16459
834.406	16531
834.544	16436
834.682	16531
834.821	16489
834.959	16713
835.097	16451
835.235	16603
835.373	16489
835.511	16535
835.65	16402
835.788	16390
835.926	16268
836.064	16185
836.202	16177
836.34	16489
836.478	16470
836.615	16466
836.753	16375
836.891	16550
837.029	16413
837.167	16356
837.305	16428
837.443	16325
837.58	16215
837.718	16276
837.856	16291
837.993	16242
838.131	16242
838.269	16139
838.406	16268
838.544	16101
838.681	15918
838.819	15857
838.956	15880
839.094	15816
839.231	15846
839.369	15956
839.506	16139
839.643	16055
839.781	15808
839.918	15876
840.055	15892
840.193	15865
840.33	15778
840.467	15819
840.604	15819
840.742	16059
840.879	15614
841.016	15724
841.153	15732
841.29	15968
841.427	15838
841.564	15770
841.701	15884
841.838	15835
841.975	15690
842.112	15747
842.249	15656
842.385	15572
842.522	15857
842.659	15705
842.796	15545
842.933	15576
843.069	15644
843.206	15542
843.343	15747
843.479	15606
843.616	15576
843.752	15386
843.889	15397
844.025	15591
844.162	15382
844.298	15488
844.435	15431
844.571	15408
844.708	15504
844.844	15530
844.98	15545
845.117	15504
845.253	15291
845.389	15116
845.525	15344
845.661	15310
845.798	15135
845.934	15226
846.07	15077
846.206	15264
846.342	15313
846.478	15222
846.614	14994
846.75	14902
846.886	14933
847.022	15100
847.158	14956
847.294	14899
847.429	14937
847.565	14876
847.701	15150
847.837	14724
847.972	14667
848.108	14819
848.244	14727
848.379	14568
848.515	14606
848.65	14454
848.786	14564
848.921	14461
849.057	14678
849.192	14750
849.328	14552
849.463	14613
849.598	14549
849.734	14484
849.869	14381
850.004	14408
850.14	14370
850.275	14381
850.41	14298
850.545	14240
850.68	14332
850.815	14332
850.95	14282
851.085	14450
851.22	14389
851.355	14317
851.49	14290
851.625	14324
851.76	14278
851.895	14119
852.03	14191
852.165	14309
852.299	14309
852.434	14393
852.569	14305
852.703	14290
852.838	14446
852.973	14473
853.107	14473
853.242	14324
853.376	14161
853.511	14149
853.645	14111
853.78	14233
853.914	14282
854.048	14107
854.183	14237
854.317	14256
854.451	14309
854.585	14210
854.72	14180
854.854	14347
854.988	14084
855.122	14282
855.256	14069
855.39	14138
855.524	14298
855.658	14206
855.792	14229
855.926	14286
856.06	14237
856.194	14271
856.327	14183
856.461	14161
856.595	14088
856.729	14111
856.862	14202
856.996	14202
857.13	14278
857.263	14225
857.397	14336
857.53	14168
857.664	14278
857.797	14305
857.931	14324
858.064	14214
858.197	14263
858.331	14119
858.464	14123
858.597	13951
858.731	14202
858.864	14180
858.997	14218
859.13	14187
859.263	14191
859.396	14366
859.529	14168
859.662	14183
859.795	14153
859.928	14138
860.061	14355
860.194	14389
860.327	14240
860.46	14172
860.592	14271
860.725	14237
860.858	14339
860.99	14157
861.123	14081
861.256	14096
861.388	14096
861.521	14861
861.653	14092
861.786	14058
861.918	14016
862.05	14111
862.183	14050
862.315	14187
862.447	14214
862.58	14172
862.712	14020
862.844	13909
862.976	14088
863.108	14016
863.24	14355
863.372	13856
863.504	14077
863.636	13951
863.768	14065
863.9	13852
864.032	13898
864.164	13997
864.296	14043
864.428	14130
864.559	14164
864.691	14065
864.823	14062
864.954	14134
865.086	13944
865.217	14005
865.349	13864
865.48	13917
865.612	13898
865.743	14149
865.875	13909
866.006	13932
866.137	14016
866.269	13890
866.4	13803
866.531	13879
866.662	13921
866.793	13890
866.924	13940
867.055	13902
867.186	13928
867.317	14008
867.448	13940
867.579	13940
867.71	13856
867.841	13936
867.972	13974
868.103	13860
868.233	13909
868.364	13989
868.495	14046
868.625	14149
868.756	14393
868.886	14214
869.017	14134
869.147	14317
869.278	14381
869.408	14240
869.539	14126
869.669	14286
869.799	14298
869.929	14305
870.06	14385
870.19	14450
870.32	14503
870.45	14549
870.58	14579
870.71	14750
870.84	14655
870.97	14545
871.1	14659
871.23	14697
871.36	14838
871.489	14735
871.619	14758
871.749	14792
871.879	14906
872.008	14853
872.138	14800
872.267	14739
872.397	14727
872.526	14651
872.656	14587
872.785	14590
872.915	14918
873.044	14864
873.173	14823
873.303	14724
873.432	14906
873.561	14933
873.69	14948
873.819	14895
873.948	14864
874.077	14960
874.206	14830
874.335	14842
874.464	14948
874.593	15070
874.722	15112
874.851	15199
874.979	15226
875.108	15245
875.237	15169
875.365	15108
875.494	15211
875.623	15218
875.751	15195
875.88	15287
876.008	15233
876.136	15412
876.265	15488
876.393	15675
876.521	15728
876.65	15739
876.778	15519
876.906	15561
877.034	15542
877.162	15557
877.29	15622
877.418	15496
877.546	15610
877.674	15580
877.802	15644
877.93	15614
878.058	15553
878.185	15504
878.313	15568
878.441	15564
878.568	15443
878.696	15454
878.824	15553
878.951	15698
879.079	15762
879.206	15869
879.333	15797
879.461	15633
879.588	15785
879.715	15857
879.842	15827
879.97	15660
880.097	15416
880.224	15443
880.351	15420
880.478	15488
880.605	15496
880.732	15428
880.859	15679
880.986	15424
881.112	15466
881.239	15344
881.366	15188
881.493	15233
881.619	15150
881.746	15093
881.872	15077
881.999	14967
882.125	15028
882.252	15165
882.378	15157
882.505	15233
882.631	15047
882.757	14849
882.883	14960
883.01	14876
883.136	14902
883.262	14746
883.388	14796
883.514	14910
883.64	14963
883.766	14990
883.892	14781
884.018	14720
884.143	14902
884.269	15032
884.395	14682
884.52	14655
884.646	14659
884.772	14579
884.897	14518
885.023	14716
885.148	14674
885.274	14921
885.399	14796
885.524	14705
885.65	14667
885.775	14617
885.9	14636
886.025	14765
886.15	14739
886.275	14579
886.4	14598
886.525	14739
886.65	14480
886.775	14499
886.9	14750
887.025	14887
887.149	14746
887.274	14590
887.399	14560
887.523	14457
887.648	14377
887.773	14457
887.897	14575
888.021	14503
888.146	14423
888.27	14552
888.395	14606
888.519	14503
888.643	14442
888.767	14518
888.891	14343
889.015	14423
889.139	14374
889.263	14328
889.387	14438
889.511	14522
889.635	14511
889.759	14290
889.883	14351
890.006	14385
890.13	14583
890.254	14282
890.377	14385
890.501	14172
890.624	14149
890.748	14275
890.871	14092
890.995	13967
891.118	13982
891.241	14134
891.364	14046
891.488	14164
891.611	13936
891.734	14111
891.857	14138
891.98	14035
892.103	14058
892.226	14123
892.349	14062
892.471	13902
892.594	13982
892.717	14088
892.839	14065
892.962	13951
893.085	14138
893.207	14092
893.33	13989
893.452	13883
893.575	14111
893.697	14035
893.819	14244
893.941	14313
894.064	14195
894.186	13959
894.308	14016
894.43	14153
894.552	14187
894.674	14191
894.796	14043
894.918	14199
895.04	14043
895.161	14210
895.283	14123
895.405	14065
895.526	14096
895.648	14187
895.769	14214
895.891	14332
896.012	14298
896.134	14282
896.255	14218
896.376	14210
896.498	14221
896.619	14237
896.74	14294
896.861	14332
896.982	14518
897.103	14724
897.224	14587
897.345	14530
897.466	14427
897.587	14541
897.708	14594
897.828	14503
897.949	14423
898.07	14301
898.19	14400
898.311	14594
898.431	14530
898.552	14587
898.672	14678
898.792	14720
898.913	14678
899.033	14454
899.153	14465
899.273	14377
899.393	14351
899.513	14473
899.633	14423
899.753	14450
899.873	14442
899.993	14454
900.113	14461
900.232	14454
900.352	14438
900.472	14385
900.591	14374
900.711	14400
900.83	14309
900.95	14385
901.069	14427
901.189	14309
901.308	14005
901.427	14001
901.546	13947
901.665	14020
901.784	14016
901.904	13864
902.023	13685
902.141	13578
902.26	13514
902.379	13681
902.498	13575
902.617	13597
902.735	13556
902.854	13540
902.973	13483
903.091	13354
903.21	13259
903.328	13255
903.446	13263
903.565	13137
903.683	13289
903.801	12928
903.919	13072
904.038	13137
904.156	12913
904.274	12924
904.392	12909
904.51	13008
904.627	12996
904.745	12947
904.863	12905
904.981	12734
905.098	12639
905.216	12662
905.334	12604
905.451	12623
905.569	12563
905.686	12665
905.803	12673
905.921	12471
906.038	12593
906.155	12555
906.272	12410
906.389	12323
906.506	12175
906.623	12273
906.74	12152
906.857	12121
906.974	12194
907.091	12273
907.208	12342
907.324	12300
907.441	12190
907.557	12060
907.674	11992
907.79	11851
907.907	11870
908.023	11961
908.139	11961
908.256	11897
908.372	11878
908.488	11901
908.604	11726
908.72	11642
908.836	11737
908.952	11699
909.068	11665
909.184	11805
909.3	11661
909.415	11737
909.531	11786
909.647	11596
909.762	11520
909.878	11372
909.993	11535
910.108	11505
910.224	11463
910.339	11467
910.454	11345
910.57	11292
910.685	11376
910.8	11570
910.915	11524
911.03	11303
911.145	11204
911.259	11235
911.374	11147
911.489	11170
911.604	11174
911.718	10934
911.833	10991
911.947	10881
912.062	10828
912.176	10961
912.291	10938
912.405	11048
912.519	11151
912.633	11170
912.748	11117
912.862	10976
912.976	10786
913.09	10706
913.204	10869
913.318	10820
913.431	10980
913.545	10923
913.659	10976
913.772	10771
913.886	10744
914	10653
914.113	10866
914.226	10892
914.34	10759
914.453	10630
914.566	10828
914.68	10721
914.793	10702
914.906	10512
915.019	10500
915.132	10341
915.245	10493
915.358	10405
915.47	10470
915.583	10470
915.696	10474
915.809	10554
915.921	10588
916.034	10428
916.146	10455
916.259	10398
916.371	10470
916.483	10497
916.595	10398
916.708	10352
916.82	10447
916.932	10421
917.044	10363
917.156	10333
917.268	10333
917.38	10314
917.491	10272
917.603	10295
917.715	10306
917.826	10390
917.938	10322
918.049	10196
918.161	10287
918.272	10474
918.384	10367
918.495	10352
918.606	10158
918.717	10101
918.828	10242
918.939	10215
919.05	10105
919.161	10101
919.272	9979
919.383	10029
919.494	10287
919.604	10280
919.715	10249
919.826	10048
919.936	10147
920.047	10242
920.157	10207
920.267	10432
920.378	10227
920.488	10242
920.598	10394
920.708	10508
920.818	10371
920.928	10398
921.038	10474
921.148	10489
921.258	10204
921.368	10139
921.477	10071
921.587	10021
921.697	9994
921.806	10112
921.916	9899
922.025	9713
922.134	9740
922.244	9720
922.353	9892
922.462	9644
922.571	9568
922.68	9428
922.789	9428
922.898	9458
923.007	9405
923.116	9530
923.224	9397
923.333	9401
923.442	9370
923.55	9291
923.659	9313
923.767	9447
923.876	9386
923.984	9329
924.092	9237
924.201	9298
924.309	9264
924.417	9340
924.525	9355
924.633	9253
924.741	10215
924.849	9146
924.956	9268
925.064	9070
925.172	9039
925.279	9081
925.387	9154
925.494	9097
925.602	9253
925.709	9207
925.816	9017
925.924	9058
926.031	9237
926.138	9104
926.245	9157
926.352	8929
926.459	9176
926.566	9211
926.673	9017
926.779	9005
926.886	8975
926.993	8849
927.099	8758
927.206	8781
927.312	8724
927.419	8902
927.525	8819
927.631	8910
927.737	8785
927.843	8632
927.95	8625
928.056	8705
928.162	8720
928.267	8773
928.373	9397
928.479	8781
928.585	8556
928.69	8629
928.796	8689
928.901	8606
929.007	8465
929.112	8610
929.218	8568
929.323	8473
929.428	8503
929.533	8670
929.638	8511
929.743	8545
929.848	8511
929.953	8541
930.058	8381
930.163	8294
930.267	8328
930.372	8442
930.477	8358
930.581	8503
930.685	8374
930.79	8161
930.894	8286
930.998	8332
931.103	8370
931.207	8058
931.311	8005
931.415	7898
931.519	7734
931.623	7807
