Data from test_V78500241_2495.txt Node
Date: Fri Mar 25 14:51:05 CST 2022
User: usil
Spectrometer: V785-0024
Trigger mode: 0
Integration Time (sec): 4.000000E-1
Scans to average: 1
Nonlinearity correction enabled: false
Boxcar width: 0
Storing dark spectrum: false
XAxis mode: Wavelengths
Number of Pixels in Spectrum: 1024
>>>>>Begin Spectral Data<<<<<
801.071	21945
801.214	21945
801.356	21633
801.499	21667
801.641	21386
801.783	21458
801.926	21431
802.068	21291
802.211	21405
802.353	21127
802.496	21112
802.638	21013
802.78	20849
802.923	20708
803.065	20727
803.208	20689
803.35	20819
803.492	20880
803.635	20967
803.777	20731
803.919	20845
804.061	21070
804.204	20880
804.346	20651
804.488	20609
804.63	20667
804.773	20644
804.915	20716
805.057	20727
805.199	20609
805.341	20686
805.483	20754
805.626	20800
805.768	20598
805.91	20674
806.052	20629
806.194	20621
806.336	20823
806.478	20769
806.62	20625
806.762	20796
806.904	20864
807.046	21195
807.188	21036
807.33	21058
807.472	21093
807.614	20979
807.756	20849
807.898	20823
808.04	20777
808.182	20689
808.324	20739
808.465	20781
808.607	21017
808.749	21077
808.891	21108
809.033	21233
809.174	21135
809.316	20948
809.458	21024
809.6	21119
809.741	21028
809.883	21131
810.025	21203
810.166	21188
810.308	21127
810.45	21154
810.591	21017
810.733	20929
810.875	20899
811.016	20792
811.158	20682
811.299	20750
811.441	20948
811.582	20906
811.724	20876
811.865	20731
812.007	20868
812.148	20796
812.29	20811
812.431	20929
812.573	21214
812.714	21226
812.855	21256
812.997	21428
813.138	21473
813.279	21332
813.421	21294
813.562	21325
813.703	21024
813.845	21001
813.986	20705
814.127	20526
814.268	20408
814.41	20423
814.551	20381
814.692	20469
814.833	20248
814.974	20385
815.115	20385
815.256	20218
815.397	20134
815.539	20225
815.68	20145
815.821	19978
815.962	19944
816.103	19997
816.244	19875
816.385	19803
816.526	19677
816.666	19613
816.807	19510
816.948	19559
817.089	19582
817.23	19563
817.371	19369
817.512	19495
817.653	19487
817.793	19487
817.934	19426
818.075	19487
818.216	19293
818.356	19426
818.497	19225
818.638	19217
818.778	19209
818.919	19126
819.06	19194
819.2	19354
819.341	19304
819.481	19468
819.622	19434
819.762	19704
819.903	19567
820.043	19552
820.184	19499
820.324	19502
820.465	19548
820.605	19518
820.746	19502
820.886	19335
821.026	19411
821.167	19445
821.307	19441
821.447	19502
821.588	19324
821.728	19107
821.868	19015
822.008	18932
822.149	18913
822.289	18848
822.429	18658
822.569	18506
822.709	18578
822.849	18391
822.99	18395
823.13	18323
823.27	18270
823.41	18174
823.55	18167
823.69	18167
823.83	18232
823.97	18053
824.11	17939
824.25	17897
824.389	17916
824.529	18144
824.669	18011
824.809	17935
824.949	18015
825.089	18091
825.228	17992
825.368	17741
825.508	17779
825.648	17783
825.787	17714
825.927	17760
826.067	17707
826.206	17661
826.346	17710
826.485	17703
826.625	17687
826.765	17866
826.904	17722
827.044	17509
827.183	17440
827.323	17322
827.462	17429
827.601	17459
827.741	17436
827.88	17379
828.02	17220
828.159	17345
828.298	17414
828.437	17436
828.577	17455
828.716	17608
828.855	17364
828.994	17212
829.134	17136
829.273	17094
829.412	17124
829.551	17128
829.69	17147
829.829	17212
829.968	17277
830.107	17216
830.246	17269
830.385	17124
830.524	16991
830.663	16908
830.802	16839
830.941	16736
831.08	16733
831.219	16793
831.357	16812
831.496	17113
831.635	16736
831.774	16637
831.913	16698
832.051	16706
832.19	16531
832.329	16584
832.467	16398
832.606	16371
832.744	16459
832.883	16508
833.022	16348
833.16	16493
833.299	16542
833.437	16538
833.576	16455
833.714	16508
833.852	16615
833.991	16470
834.129	16698
834.267	16554
834.406	16558
834.544	16516
834.682	16554
834.821	16558
834.959	16694
835.097	16474
835.235	16634
835.373	16546
835.511	16523
835.65	16508
835.788	16440
835.926	16295
836.064	16219
836.202	16291
836.34	16538
836.478	16432
836.615	16398
836.753	16413
836.891	16542
837.029	16459
837.167	16421
837.305	16394
837.443	16272
837.58	16295
837.718	16466
837.856	16344
837.993	16185
838.131	16215
838.269	16246
838.406	16234
838.544	16166
838.681	16013
838.819	16002
838.956	15793
839.094	15778
839.231	16017
839.369	15934
839.506	16215
839.643	16093
839.781	15884
839.918	15880
840.055	15975
840.193	15869
840.33	15899
840.467	15778
840.604	15850
840.742	16177
840.879	15705
841.016	15785
841.153	15739
841.29	15945
841.427	15770
841.564	15876
841.701	15835
841.838	15747
841.975	15759
842.112	15686
842.249	15690
842.385	15675
842.522	15865
842.659	15561
842.796	15663
842.933	15614
843.069	15561
843.206	15584
843.343	15637
843.479	15633
843.616	15709
843.752	15378
843.889	15435
844.025	15580
844.162	15340
844.298	15492
844.435	15393
844.571	15393
844.708	15553
844.844	15580
844.98	15587
845.117	15557
845.253	15401
845.389	15287
845.525	15363
845.661	15291
845.798	15192
845.934	15233
846.07	15127
846.206	15180
846.342	15340
846.478	15173
846.614	15051
846.75	15017
846.886	14986
847.022	15047
847.158	15074
847.294	14967
847.429	15062
847.565	14963
847.701	15268
847.837	14724
847.972	14727
848.108	14838
848.244	14811
848.379	14587
848.515	14598
848.65	14587
848.786	14659
848.921	14686
849.057	14655
849.192	14659
849.328	14708
849.463	14708
849.598	14552
849.734	14545
849.869	14530
850.004	14476
850.14	14442
850.275	14320
850.41	14256
850.545	14324
850.68	14309
850.815	14400
850.95	14374
851.085	14503
851.22	14381
851.355	14294
851.49	14385
851.625	14347
851.76	14442
851.895	14164
852.03	14377
852.165	14355
852.299	14438
852.434	14385
852.569	14412
852.703	14355
852.838	14473
852.973	14503
853.107	14560
853.242	14339
853.376	14221
853.511	14191
853.645	14172
853.78	14385
853.914	14202
854.048	14263
854.183	14275
854.317	14278
854.451	14362
854.585	14290
854.72	14149
854.854	14282
854.988	14210
855.122	14142
855.256	14180
855.39	14252
855.524	14305
855.658	14313
855.792	14229
855.926	14195
856.06	14298
856.194	14393
856.327	14320
856.461	14073
856.595	14252
856.729	14195
856.862	14419
856.996	14248
857.13	14305
857.263	14393
857.397	14347
857.53	14240
857.664	14336
857.797	14301
857.931	14355
858.064	14339
858.197	14317
858.331	14244
858.464	14180
858.597	14103
858.731	14218
858.864	14259
858.997	14187
859.13	14218
859.263	14202
859.396	14301
859.529	14240
859.662	14180
859.795	14244
859.928	14278
860.061	14290
860.194	14408
860.327	14275
860.46	14191
860.592	14412
860.725	14423
860.858	14339
860.99	14305
861.123	14180
861.256	14153
861.388	14290
861.521	14899
861.653	14176
861.786	14081
861.918	14081
862.05	14138
862.183	14202
862.315	14275
862.447	14206
862.58	14233
862.712	14065
862.844	14024
862.976	14157
863.108	14157
863.24	14400
863.372	13947
863.504	14027
863.636	14031
863.768	14005
863.9	14084
864.032	13963
864.164	14054
864.296	14027
864.428	14145
864.559	14134
864.691	14199
864.823	14126
864.954	13970
865.086	14024
865.217	14077
865.349	13925
865.48	14096
865.612	14065
865.743	14077
865.875	14054
866.006	13989
866.137	14008
866.269	13986
866.4	13970
866.531	13989
866.662	13841
866.793	13944
866.924	13967
867.055	14100
867.186	13925
867.317	13947
867.448	13902
867.579	13864
867.71	13970
867.841	13906
867.972	13978
868.103	13951
868.233	13906
868.364	14119
868.495	14096
868.625	14290
868.756	14313
868.886	14195
869.017	14252
869.147	14438
869.278	14275
869.408	14278
869.539	14187
869.669	14282
869.799	14259
869.929	14396
870.06	14366
870.19	14568
870.32	14552
870.45	14610
870.58	14686
870.71	14705
870.84	14792
870.97	14724
871.1	14640
871.23	14857
871.36	14804
871.489	14754
871.619	14686
871.749	14834
871.879	14800
872.008	14952
872.138	14933
872.267	14815
872.397	14693
872.526	14682
872.656	14617
872.785	14746
872.915	14925
873.044	15001
873.173	14902
873.303	14804
873.432	15005
873.561	15039
873.69	14891
873.819	14861
873.948	15039
874.077	14994
874.206	14872
874.335	15043
874.464	15013
874.593	15195
874.722	15180
874.851	15272
874.979	15192
875.108	15393
875.237	15199
875.365	15089
875.494	15127
875.623	15317
875.751	15165
875.88	15218
876.008	15344
876.136	15370
876.265	15629
876.393	15800
876.521	15739
876.65	15759
876.778	15800
876.906	15633
877.034	15603
877.162	15633
877.29	15576
877.418	15515
877.546	15686
877.674	15603
877.802	15614
877.93	15561
878.058	15549
878.185	15572
878.313	15732
878.441	15576
878.568	15477
878.696	15656
878.824	15633
878.951	15713
879.079	15797
879.206	15994
879.333	15774
879.461	15739
879.588	15747
879.715	15793
879.842	15991
879.97	15690
880.097	15485
880.224	15416
880.351	15538
880.478	15416
880.605	15386
880.732	15526
880.859	15656
880.986	15477
881.112	15481
881.239	15245
881.366	15302
881.493	15138
881.619	15207
881.746	15146
881.872	15150
881.999	15142
882.125	15100
882.252	15150
882.378	15203
882.505	15214
882.631	15116
882.757	14921
882.883	15066
883.01	14982
883.136	14876
883.262	14880
883.388	14800
883.514	14963
883.64	15017
883.766	14948
883.892	14731
884.018	14682
884.143	14944
884.269	15039
884.395	14762
884.52	14610
884.646	14686
884.772	14629
884.897	14636
885.023	14689
885.148	14769
885.274	14765
885.399	14800
885.524	14720
885.65	14594
885.775	14697
885.9	14629
886.025	14731
886.15	14670
886.275	14644
886.4	14514
886.525	14678
886.65	14579
886.775	14552
886.9	14811
887.025	14918
887.149	14708
887.274	14476
887.399	14518
887.523	14454
887.648	14412
887.773	14446
887.897	14568
888.021	14560
888.146	14507
888.27	14606
888.395	14602
888.519	14541
888.643	14670
888.767	14598
888.891	14427
889.015	14385
889.139	14457
889.263	14305
889.387	14423
889.511	14514
889.635	14503
889.759	14252
889.883	14404
890.006	14438
890.13	14503
890.254	14290
890.377	14298
890.501	14149
890.624	14142
890.748	14313
890.871	14069
890.995	13997
891.118	14100
891.241	14176
891.364	14058
891.488	14119
891.611	14043
891.734	14096
891.857	14123
891.98	14088
892.103	14176
892.226	14107
892.349	14134
892.471	13875
892.594	14035
892.717	14077
892.839	14016
892.962	14046
893.085	14084
893.207	14157
893.33	13982
893.452	13955
893.575	14054
893.697	13970
893.819	14313
893.941	14259
894.064	14233
894.186	14031
894.308	13932
894.43	14180
894.552	14214
894.674	14199
894.796	14100
894.918	14024
895.04	14062
895.161	14237
895.283	14149
895.405	14043
895.526	14191
895.648	14191
895.769	14168
895.891	14218
896.012	14214
896.134	14225
896.255	14248
896.376	14100
896.498	14233
896.619	14271
896.74	14263
896.861	14332
896.982	14632
897.103	14716
897.224	14674
897.345	14419
897.466	14476
897.587	14514
897.708	14625
897.828	14537
897.949	14465
898.07	14492
898.19	14484
898.311	14602
898.431	14488
898.552	14575
898.672	14667
898.792	14636
898.913	14617
899.033	14514
899.153	14480
899.273	14301
899.393	14366
899.513	14480
899.633	14366
899.753	14560
899.873	14313
899.993	14503
900.113	14419
900.232	14465
900.352	14332
900.472	14355
900.591	14271
900.711	14271
900.83	14229
900.95	14518
901.069	14381
901.189	14180
901.308	14027
901.427	13868
901.546	14027
901.665	14016
901.784	14046
901.904	13921
902.023	13788
902.141	13540
902.26	13609
902.379	13582
902.498	13590
902.617	13419
902.735	13491
902.854	13540
902.973	13533
903.091	13240
903.21	13251
903.328	13240
903.446	13209
903.565	13202
903.683	13190
903.801	13046
903.919	13122
904.038	13042
904.156	12916
904.274	13027
904.392	12973
904.51	12890
904.627	12901
904.745	13004
904.863	12996
904.981	12829
905.098	12623
905.216	12642
905.334	12684
905.451	12665
905.569	12658
905.686	12711
905.803	12574
905.921	12426
906.038	12540
906.155	12441
906.272	12384
906.389	12289
906.506	12190
906.623	12209
906.74	12194
906.857	12148
906.974	12194
907.091	12311
907.208	12365
907.324	12232
907.441	12159
907.557	12057
907.674	12022
907.79	11885
907.907	11958
908.023	12117
908.139	11973
908.256	11912
908.372	11931
908.488	11802
908.604	11767
908.72	11729
908.836	11802
908.952	11691
909.068	11756
909.184	11756
909.3	11741
909.415	11714
909.531	11733
909.647	11554
909.762	11440
909.878	11497
909.993	11532
910.108	11429
910.224	11356
910.339	11452
910.454	11311
910.57	11414
910.685	11349
910.8	11608
910.915	11551
911.03	11391
911.145	11204
911.259	11170
911.374	11208
911.489	11140
911.604	11056
911.718	10923
911.833	11010
911.947	10877
912.062	10755
912.176	10900
912.291	10934
912.405	10972
912.519	11174
912.633	11147
912.748	11071
912.862	10972
912.976	10862
913.09	10767
913.204	10801
913.318	10839
913.431	10957
913.545	10938
913.659	10911
913.772	10873
913.886	10740
914	10656
914.113	10820
914.226	10805
914.34	10736
914.453	10596
914.566	10824
914.68	10672
914.793	10668
914.906	10485
915.019	10428
915.132	10428
915.245	10466
915.358	10489
915.47	10398
915.583	10405
915.696	10485
915.809	10542
915.921	10615
916.034	10413
916.146	10516
916.259	10421
916.371	10584
916.483	10485
916.595	10299
916.708	10421
916.82	10379
916.932	10379
917.044	10398
917.156	10409
917.268	10257
917.38	10318
917.491	10276
917.603	10280
917.715	10440
917.826	10352
917.938	10242
918.049	10158
918.161	10344
918.272	10443
918.384	10436
918.495	10379
918.606	10242
918.717	10093
918.828	10196
918.939	10200
919.05	10063
919.161	10131
919.272	9956
919.383	10124
919.494	10295
919.604	10322
919.715	10230
919.826	10143
919.936	10207
920.047	10265
920.157	10207
920.267	10409
920.378	10215
920.488	10280
920.598	10478
920.708	10504
920.818	10341
920.928	10337
921.038	10554
921.148	10523
921.258	10287
921.368	10135
921.477	10059
921.587	10010
921.697	9975
921.806	10135
921.916	9934
922.025	9759
922.134	9785
922.244	9709
922.353	9831
922.462	9648
922.571	9599
922.68	9534
922.789	9473
922.898	9405
923.007	9466
923.116	9477
923.224	9450
923.333	9447
923.442	9382
923.55	9275
923.659	9348
923.767	9462
923.876	9351
923.984	9370
924.092	9275
924.201	9344
924.309	9317
924.417	9272
924.525	9184
924.633	9260
924.741	9960
924.849	9089
924.956	9279
925.064	9112
925.172	9009
925.279	9066
925.387	9081
925.494	9173
925.602	9268
925.709	9108
925.816	9013
925.924	9104
926.031	9165
926.138	9116
926.245	9169
926.352	9043
926.459	9218
926.566	9192
926.673	9104
926.779	8941
926.886	8914
926.993	8807
927.099	8857
927.206	8811
927.312	8746
927.419	8914
927.525	8838
927.631	8823
927.737	8682
927.843	8686
927.95	8610
928.056	8727
928.162	8746
928.267	8735
928.373	9370
928.479	8834
928.585	8575
928.69	8720
928.796	8682
928.901	8663
929.007	8530
929.112	8629
929.218	8670
929.323	8594
929.428	8526
929.533	8670
929.638	8434
929.743	8560
929.848	8583
929.953	8514
930.058	8454
930.163	8339
930.267	8347
930.372	8465
930.477	8267
930.581	8499
930.685	8377
930.79	8248
930.894	8233
930.998	8199
931.103	8381
931.207	8073
931.311	8012
931.415	7940
931.519	7731
931.623	7738
