Data from test_V78500241_2132.txt Node
Date: Fri Mar 25 14:48:33 CST 2022
User: usil
Spectrometer: V785-0024
Trigger mode: 0
Integration Time (sec): 4.000000E-1
Scans to average: 1
Nonlinearity correction enabled: false
Boxcar width: 0
Storing dark spectrum: false
XAxis mode: Wavelengths
Number of Pixels in Spectrum: 1024
>>>>>Begin Spectral Data<<<<<
801.071	22158
801.214	21975
801.356	21861
801.499	21603
801.641	21568
801.783	21538
801.926	21557
802.068	21351
802.211	21287
802.353	21310
802.496	21074
802.638	21043
802.78	20944
802.923	20994
803.065	20811
803.208	20765
803.35	20746
803.492	21009
803.635	21013
803.777	20883
803.919	21009
804.061	21142
804.204	20880
804.346	20750
804.488	20712
804.63	20788
804.773	20667
804.915	20754
805.057	20864
805.199	20746
805.341	20883
805.483	20845
805.626	20708
805.768	20663
805.91	20743
806.052	20857
806.194	20743
806.336	20891
806.478	20705
806.62	20823
806.762	20792
806.904	21074
807.046	21127
807.188	21043
807.33	21017
807.472	21131
807.614	21017
807.756	20986
807.898	20910
808.04	20788
808.182	20796
808.324	20937
808.465	20944
808.607	21127
808.749	21127
808.891	21291
809.033	21367
809.174	21104
809.316	21138
809.458	21085
809.6	21066
809.741	21199
809.883	21226
810.025	21279
810.166	21222
810.308	21249
810.45	21173
810.591	21070
810.733	20963
810.875	20800
811.016	20781
811.158	20819
811.299	20895
811.441	21032
811.582	21013
811.724	20895
811.865	20929
812.007	20849
812.148	20921
812.29	20952
812.431	21154
812.573	21135
812.714	21291
812.855	21386
812.997	21439
813.138	21580
813.279	21443
813.421	21336
813.562	21332
813.703	21207
813.845	21089
813.986	20754
814.127	20575
814.268	20492
814.41	20530
814.551	20370
814.692	20545
814.833	20351
814.974	20450
815.115	20431
815.256	20336
815.397	20233
815.539	20263
815.68	20187
815.821	20164
815.962	20275
816.103	20119
816.244	19967
816.385	19879
816.526	19822
816.666	19807
816.807	19662
816.948	19826
817.089	19761
817.23	19616
817.371	19677
817.512	19426
817.653	19552
817.793	19453
817.934	19540
818.075	19700
818.216	19460
818.356	19499
818.497	19312
818.638	19232
818.778	19282
818.919	19221
819.06	19209
819.2	19373
819.341	19449
819.481	19354
819.622	19624
819.762	19795
819.903	19742
820.043	19567
820.184	19552
820.324	19491
820.465	19575
820.605	19548
820.746	19487
820.886	19449
821.026	19540
821.167	19609
821.307	19563
821.447	19540
821.588	19430
821.728	19327
821.868	19076
822.008	19019
822.149	18859
822.289	18977
822.429	18810
822.569	18620
822.709	18654
822.849	18486
822.99	18376
823.13	18528
823.27	18410
823.41	18277
823.55	18213
823.69	18281
823.83	18171
823.97	18155
824.11	18022
824.25	18083
824.389	18117
824.529	18049
824.669	18003
824.809	18110
824.949	18083
825.089	18110
825.228	17958
825.368	17851
825.508	17767
825.648	17866
825.787	17813
825.927	17855
826.067	17710
826.206	17699
826.346	17817
826.485	17771
826.625	17832
826.765	17923
826.904	17809
827.044	17535
827.183	17539
827.323	17547
827.462	17554
827.601	17532
827.741	17528
827.88	17646
828.02	17372
828.159	17493
828.298	17509
828.437	17573
828.577	17471
828.716	17596
828.855	17383
828.994	17258
829.134	17296
829.273	17254
829.412	17239
829.551	17124
829.69	17166
829.829	17318
829.968	17345
830.107	17296
830.246	17322
830.385	17254
830.524	17143
830.663	17022
830.802	17029
830.941	16839
831.08	16801
831.219	16927
831.357	16946
831.496	17117
831.635	16900
831.774	16892
831.913	16740
832.051	16645
832.19	16603
832.329	16679
832.467	16558
832.606	16417
832.744	16542
832.883	16637
833.022	16516
833.16	16637
833.299	16630
833.437	16706
833.576	16580
833.714	16584
833.852	16725
833.991	16512
834.129	16759
834.267	16744
834.406	16569
834.544	16645
834.682	16584
834.821	16485
834.959	16790
835.097	16573
835.235	16675
835.373	16641
835.511	16710
835.65	16588
835.788	16512
835.926	16390
836.064	16352
836.202	16398
836.34	16493
836.478	16569
836.615	16421
836.753	16565
836.891	16615
837.029	16558
837.167	16451
837.305	16417
837.443	16398
837.58	16333
837.718	16459
837.856	16478
837.993	16272
838.131	16333
838.269	16333
838.406	16363
838.544	16253
838.681	16116
838.819	16093
838.956	15998
839.094	15895
839.231	15888
839.369	16143
839.506	16375
839.643	16200
839.781	15945
839.918	15972
840.055	15930
840.193	15876
840.33	15869
840.467	15911
840.604	16017
840.742	16135
840.879	15884
841.016	15766
841.153	15778
841.29	16078
841.427	15911
841.564	15880
841.701	15842
841.838	15960
841.975	15793
842.112	15838
842.249	15827
842.385	15675
842.522	15918
842.659	15732
842.796	15846
842.933	15732
843.069	15648
843.206	15667
843.343	15690
843.479	15823
843.616	15717
843.752	15561
843.889	15443
844.025	15682
844.162	15466
844.298	15515
844.435	15534
844.571	15389
844.708	15587
844.844	15648
844.98	15618
845.117	15625
845.253	15515
845.389	15363
845.525	15336
845.661	15412
845.798	15272
845.934	15492
846.07	15268
846.206	15401
846.342	15481
846.478	15359
846.614	15142
846.75	15116
846.886	15047
847.022	15154
847.158	15192
847.294	15062
847.429	15074
847.565	15108
847.701	15283
847.837	14861
847.972	14762
848.108	14910
848.244	14921
848.379	14686
848.515	14610
848.65	14705
848.786	14674
848.921	14712
849.057	14724
849.192	14762
849.328	14735
849.463	14727
849.598	14724
849.734	14621
849.869	14503
850.004	14526
850.14	14461
850.275	14530
850.41	14389
850.545	14499
850.68	14480
850.815	14526
850.95	14431
851.085	14594
851.22	14568
851.355	14503
851.49	14396
851.625	14450
851.76	14400
851.895	14271
852.03	14336
852.165	14396
852.299	14450
852.434	14446
852.569	14499
852.703	14480
852.838	14606
852.973	14610
853.107	14636
853.242	14438
853.376	14290
853.511	14233
853.645	14309
853.78	14434
853.914	14358
854.048	14214
854.183	14248
854.317	14305
854.451	14461
854.585	14298
854.72	14339
854.854	14336
854.988	14339
855.122	14248
855.256	14183
855.39	14282
855.524	14434
855.658	14374
855.792	14229
855.926	14347
856.06	14351
856.194	14438
856.327	14278
856.461	14259
856.595	14149
856.729	14393
856.862	14381
856.996	14385
857.13	14393
857.263	14457
857.397	14503
857.53	14275
857.664	14404
857.797	14385
857.931	14495
858.064	14301
858.197	14408
858.331	14336
858.464	14278
858.597	14256
858.731	14240
858.864	14206
858.997	14423
859.13	14282
859.263	14298
859.396	14438
859.529	14347
859.662	14294
859.795	14339
859.928	14381
860.061	14461
860.194	14537
860.327	14309
860.46	14339
860.592	14442
860.725	14564
860.858	14400
860.99	14328
861.123	14240
861.256	14244
861.388	14393
861.521	15043
861.653	14115
861.786	14035
861.918	14221
862.05	14202
862.183	14263
862.315	14290
862.447	14393
862.58	14290
862.712	14073
862.844	14058
862.976	14168
863.108	14069
863.24	14404
863.372	14043
863.504	14062
863.636	14077
863.768	14107
863.9	14115
864.032	14016
864.164	14031
864.296	14103
864.428	14187
864.559	14180
864.691	14183
864.823	14103
864.954	14046
865.086	14202
865.217	14039
865.349	13951
865.48	14115
865.612	14126
865.743	14191
865.875	14103
866.006	13970
866.137	14001
866.269	14054
866.4	14062
866.531	14031
866.662	13993
866.793	13921
866.924	14069
867.055	14161
867.186	14050
867.317	14134
867.448	14024
867.579	13974
867.71	13932
867.841	13925
867.972	14107
868.103	14130
868.233	14096
868.364	14077
868.495	14115
868.625	14309
868.756	14374
868.886	14244
869.017	14256
869.147	14351
869.278	14438
869.408	14309
869.539	14355
869.669	14385
869.799	14313
869.929	14454
870.06	14434
870.19	14655
870.32	14545
870.45	14632
870.58	14648
870.71	14811
870.84	14796
870.97	14781
871.1	14727
871.23	14853
871.36	14883
871.489	14754
871.619	14765
871.749	14979
871.879	14944
872.008	15013
872.138	14971
872.267	14910
872.397	14826
872.526	14610
872.656	14823
872.785	14777
872.915	14910
873.044	15039
873.173	14986
873.303	15028
873.432	15009
873.561	15131
873.69	14990
873.819	14899
873.948	15020
874.077	14944
874.206	14937
874.335	14963
874.464	15081
874.593	15237
874.722	15180
874.851	15351
874.979	15294
875.108	15332
875.237	15184
875.365	15222
875.494	15203
875.623	15310
875.751	15230
875.88	15386
876.008	15523
876.136	15374
876.265	15698
876.393	15835
876.521	15759
876.65	15762
876.778	15614
876.906	15781
877.034	15534
877.162	15679
877.29	15641
877.418	15675
877.546	15625
877.674	15789
877.802	15622
877.93	15701
878.058	15781
878.185	15648
878.313	15637
878.441	15774
878.568	15485
878.696	15549
878.824	15705
878.951	15728
879.079	15793
879.206	16044
879.333	15895
879.461	15827
879.588	15857
879.715	15895
879.842	15960
879.97	15751
880.097	15545
880.224	15488
880.351	15561
880.478	15492
880.605	15526
880.732	15545
880.859	15686
880.986	15504
881.112	15538
881.239	15526
881.366	15340
881.493	15252
881.619	15192
881.746	15222
881.872	15241
881.999	15203
882.125	15188
882.252	15146
882.378	15161
882.505	15370
882.631	15176
882.757	14982
882.883	15047
883.01	15036
883.136	14948
883.262	14838
883.388	14891
883.514	14971
883.64	15058
883.766	14986
883.892	14929
884.018	14804
884.143	14982
884.269	15085
884.395	14777
884.52	14758
884.646	14735
884.772	14686
884.897	14507
885.023	14777
885.148	14834
885.274	14857
885.399	14838
885.524	14724
885.65	14621
885.775	14758
885.9	14773
886.025	14899
886.15	14853
886.275	14598
886.4	14610
886.525	14746
886.65	14629
886.775	14731
886.9	14807
887.025	14994
887.149	14716
887.274	14541
887.399	14579
887.523	14454
887.648	14541
887.773	14480
887.897	14541
888.021	14568
888.146	14549
888.27	14610
888.395	14705
888.519	14583
888.643	14606
888.767	14632
888.891	14511
889.015	14339
889.139	14484
889.263	14473
889.387	14552
889.511	14579
889.635	14454
889.759	14389
889.883	14355
890.006	14438
890.13	14454
890.254	14233
890.377	14317
890.501	14271
890.624	14164
890.748	14286
890.871	14195
890.995	14046
891.118	14020
891.241	14107
891.364	14096
891.488	14244
891.611	14145
891.734	14145
891.857	14199
891.98	14031
892.103	14077
892.226	14035
892.349	14024
892.471	14039
892.594	14016
892.717	14119
892.839	14134
892.962	14153
893.085	14187
893.207	14096
893.33	13963
893.452	14084
893.575	14210
893.697	14012
893.819	14267
893.941	14271
894.064	14214
894.186	14084
894.308	14062
894.43	14324
894.552	14324
894.674	14301
894.796	14008
894.918	14195
895.04	14130
895.161	14221
895.283	14244
895.405	14153
895.526	14176
895.648	14259
895.769	14157
895.891	14256
896.012	14282
896.134	14355
896.255	14256
896.376	14317
896.498	14206
896.619	14282
896.74	14351
896.861	14431
896.982	14598
897.103	14777
897.224	14689
897.345	14545
897.466	14484
897.587	14541
897.708	14587
897.828	14598
897.949	14560
898.07	14381
898.19	14556
898.311	14735
898.431	14560
898.552	14651
898.672	14762
898.792	14716
898.913	14705
899.033	14636
899.153	14465
899.273	14309
899.393	14511
899.513	14476
899.633	14533
899.753	14438
899.873	14583
899.993	14465
900.113	14431
900.232	14522
900.352	14419
900.472	14366
900.591	14313
900.711	14442
900.83	14336
900.95	14393
901.069	14465
901.189	14374
901.308	14008
901.427	14001
901.546	13978
901.665	14050
901.784	13989
901.904	13955
902.023	13833
902.141	13651
902.26	13605
902.379	13719
902.498	13700
902.617	13556
902.735	13620
902.854	13601
902.973	13487
903.091	13320
903.21	13312
903.328	13236
903.446	13274
903.565	13107
903.683	13171
903.801	13069
903.919	13110
904.038	13129
904.156	12970
904.274	12993
904.392	13031
904.51	12989
904.627	12935
904.745	13084
904.863	13019
904.981	12760
905.098	12700
905.216	12719
905.334	12741
905.451	12665
905.569	12673
905.686	12745
905.803	12684
905.921	12509
906.038	12665
906.155	12494
906.272	12357
906.389	12414
906.506	12247
906.623	12209
906.74	12232
906.857	12178
906.974	12197
907.091	12273
907.208	12414
907.324	12304
907.441	12197
907.557	12068
907.674	12045
907.79	11866
907.907	11999
908.023	12003
908.139	12098
908.256	12038
908.372	11954
908.488	11908
908.604	11798
908.72	11733
908.836	11824
908.952	11737
909.068	11840
909.184	11870
909.3	11771
909.415	11878
909.531	11824
909.647	11570
909.762	11547
909.878	11585
909.993	11592
910.108	11520
910.224	11543
910.339	11623
910.454	11395
910.57	11414
910.685	11299
910.8	11608
910.915	11535
911.03	11372
911.145	11292
911.259	11193
911.374	11288
911.489	11170
911.604	11147
911.718	10949
911.833	11064
911.947	10862
912.062	10839
912.176	10896
912.291	11003
912.405	10976
912.519	11147
912.633	11246
912.748	11071
912.862	11029
912.976	10869
913.09	10729
913.204	10862
913.318	10885
913.431	10919
913.545	10980
913.659	11022
913.772	10991
913.886	10763
914	10698
914.113	10946
914.226	10919
914.34	10816
914.453	10668
914.566	10854
914.68	10774
914.793	10702
914.906	10500
915.019	10470
915.132	10440
915.245	10546
915.358	10493
915.47	10512
915.583	10516
915.696	10565
915.809	10546
915.921	10626
916.034	10443
916.146	10409
916.259	10436
916.371	10512
916.483	10455
916.595	10398
916.708	10432
916.82	10455
916.932	10352
917.044	10367
917.156	10386
917.268	10329
917.38	10314
917.491	10329
917.603	10329
917.715	10421
917.826	10462
917.938	10246
918.049	10192
918.161	10325
918.272	10424
918.384	10489
918.495	10394
918.606	10181
918.717	10246
918.828	10166
918.939	10207
919.05	10135
919.161	10169
919.272	9987
919.383	10048
919.494	10227
919.604	10455
919.715	10280
919.826	10173
919.936	10211
920.047	10261
920.157	10329
920.267	10440
920.378	10276
920.488	10265
920.598	10421
920.708	10622
920.818	10394
920.928	10398
921.038	10630
921.148	10584
921.258	10284
921.368	10242
921.477	10071
921.587	10090
921.697	9972
921.806	10078
921.916	9941
922.025	9785
922.134	9789
922.244	9770
922.353	9846
922.462	9740
922.571	9675
922.68	9488
922.789	9523
922.898	9431
923.007	9359
923.116	9534
923.224	9504
923.333	9443
923.442	9405
923.55	9298
923.659	9291
923.767	9450
923.876	9359
923.984	9389
924.092	9294
924.201	9374
924.309	9370
924.417	9401
924.525	9279
924.633	9401
924.741	10200
924.849	9157
924.956	9313
925.064	9123
925.172	9051
925.279	9009
925.387	9138
925.494	9142
925.602	9287
925.709	9351
925.816	9036
925.924	9123
926.031	9188
926.138	9112
926.245	9253
926.352	9032
926.459	9123
926.566	9214
926.673	9142
926.779	9001
926.886	8929
926.993	8880
927.099	8811
927.206	8815
927.312	8792
927.419	8941
927.525	8849
927.631	8906
927.737	8842
927.843	8663
927.95	8655
928.056	8727
928.162	8689
928.267	8811
928.373	9348
928.479	8880
928.585	8625
928.69	8754
928.796	8735
928.901	8697
929.007	8560
929.112	8693
929.218	8697
929.323	8575
929.428	8552
929.533	8712
929.638	8571
929.743	8587
929.848	8648
929.953	8560
930.058	8461
930.163	8332
930.267	8343
930.372	8473
930.477	8320
930.581	8514
930.685	8476
930.79	8263
930.894	8309
930.998	8157
931.103	8457
931.207	8035
931.311	8016
931.415	7940
931.519	7757
931.623	7769
