Data from test_V78500241_1031.txt Node
Date: Fri Mar 25 14:40:53 CST 2022
User: usil
Spectrometer: V785-0024
Trigger mode: 0
Integration Time (sec): 4.000000E-1
Scans to average: 1
Nonlinearity correction enabled: false
Boxcar width: 0
Storing dark spectrum: false
XAxis mode: Wavelengths
Number of Pixels in Spectrum: 1024
>>>>>Begin Spectral Data<<<<<
801.071	22915
801.214	22809
801.356	22577
801.499	22637
801.641	22500
801.783	22318
801.926	22394
802.068	22291
802.211	22166
802.353	22002
802.496	21842
802.638	21823
802.78	21854
802.923	21679
803.065	21675
803.208	21732
803.35	21682
803.492	21694
803.635	21850
803.777	21652
803.919	21797
804.061	21899
804.204	21785
804.346	21652
804.488	21614
804.63	21759
804.773	21553
804.915	21485
805.057	21736
805.199	21515
805.341	21728
805.483	21713
805.626	21652
805.768	21530
805.91	21633
806.052	21644
806.194	21542
806.336	21724
806.478	21663
806.62	21610
806.762	21701
806.904	21846
807.046	22238
807.188	22048
807.33	22150
807.472	22128
807.614	21922
807.756	22181
807.898	22013
808.04	21998
808.182	22063
808.324	22291
808.465	22455
808.607	22615
808.749	22923
808.891	23044
809.033	22961
809.174	22927
809.316	22580
809.458	22561
809.6	22466
809.741	22462
809.883	22474
810.025	22310
810.166	22322
810.308	22303
810.45	22230
810.591	22124
810.733	22021
810.875	22074
811.016	21911
811.158	21728
811.299	21972
811.441	22051
811.582	21979
811.724	21953
811.865	21850
812.007	21812
812.148	21835
812.29	22006
812.431	21991
812.573	22135
812.714	22268
812.855	22447
812.997	22527
813.138	22523
813.279	22371
813.421	22295
813.562	22223
813.703	22234
813.845	22055
813.986	21606
814.127	21587
814.268	21416
814.41	21424
814.551	21401
814.692	21363
814.833	21336
814.974	21291
815.115	21317
815.256	21249
815.397	21218
815.539	21245
815.68	21077
815.821	21051
815.962	21131
816.103	20956
816.244	20921
816.385	20906
816.526	20861
816.666	20678
816.807	20587
816.948	20598
817.089	20697
817.23	20511
817.371	20609
817.512	20564
817.653	20552
817.793	20507
817.934	20473
818.075	20686
818.216	20575
818.356	20393
818.497	20339
818.638	20138
818.778	20286
818.919	20206
819.06	20225
819.2	20358
819.341	20381
819.481	20408
819.622	20442
819.762	20609
819.903	20651
820.043	20629
820.184	20575
820.324	20514
820.465	20530
820.605	20377
820.746	20530
820.886	20313
821.026	20431
821.167	20450
821.307	20568
821.447	20541
821.588	20290
821.728	20187
821.868	20050
822.008	19871
822.149	19871
822.289	19833
822.429	19628
822.569	19506
822.709	19510
822.849	19384
822.99	19388
823.13	19263
823.27	19331
823.41	19206
823.55	19194
823.69	19213
823.83	19221
823.97	19076
824.11	19046
824.25	19008
824.389	18867
824.529	18924
824.669	19065
824.809	19023
824.949	19091
825.089	19065
825.228	19069
825.368	18726
825.508	18688
825.648	18806
825.787	18886
825.927	18852
826.067	18783
826.206	18661
826.346	18795
826.485	18798
826.625	18688
826.765	18764
826.904	18730
827.044	18479
827.183	18597
827.323	18334
827.462	18574
827.601	18372
827.741	18410
827.88	18429
828.02	18365
828.159	18445
828.298	18353
828.437	18395
828.577	18384
828.716	18486
828.855	18426
828.994	18159
829.134	18091
829.273	18254
829.412	18129
829.551	18072
829.69	18197
829.829	18087
829.968	18243
830.107	18247
830.246	18102
830.385	18148
830.524	18155
830.663	17977
830.802	17920
830.941	17726
831.08	17771
831.219	17908
831.357	17722
831.496	17999
831.635	17824
831.774	17699
831.913	17611
832.051	17539
832.19	17596
832.329	17691
832.467	17482
832.606	17391
832.744	17512
832.883	17478
833.022	17528
833.16	17543
833.299	17581
833.437	17463
833.576	17562
833.714	17649
833.852	17585
833.991	17577
834.129	17623
834.267	17608
834.406	17539
834.544	17611
834.682	17611
834.821	17638
834.959	17684
835.097	17535
835.235	17630
835.373	17452
835.511	17543
835.65	17440
835.788	17356
835.926	17376
836.064	17288
836.202	17193
836.34	17573
836.478	17547
836.615	17406
836.753	17402
836.891	17512
837.029	17417
837.167	17482
837.305	17356
837.443	17311
837.58	17311
837.718	17322
837.856	17429
837.993	17242
838.131	17296
838.269	17231
838.406	17326
838.544	17178
838.681	17045
838.819	17025
838.956	16767
839.094	16809
839.231	16850
839.369	17033
839.506	17193
839.643	17064
839.781	16889
839.918	16675
840.055	16755
840.193	16908
840.33	16706
840.467	16847
840.604	16889
840.742	16942
840.879	16618
841.016	16702
841.153	16626
841.29	16949
841.427	16793
841.564	16778
841.701	16835
841.838	16752
841.975	16656
842.112	16717
842.249	16599
842.385	16508
842.522	16733
842.659	16664
842.796	16569
842.933	16611
843.069	16565
843.206	16512
843.343	16580
843.479	16573
843.616	16561
843.752	16367
843.889	16344
844.025	16508
844.162	16325
844.298	16432
844.435	16371
844.571	16333
844.708	16421
844.844	16550
844.98	16546
845.117	16615
845.253	16474
845.389	16447
845.525	16580
845.661	16721
845.798	16930
845.934	17147
846.07	17128
846.206	17193
846.342	17132
846.478	16702
846.614	16371
846.75	16128
846.886	16109
847.022	16048
847.158	15941
847.294	15869
847.429	15945
847.565	15930
847.701	16097
847.837	15705
847.972	15618
848.108	15774
848.244	15690
848.379	15564
848.515	15504
848.65	15393
848.786	15439
848.921	15549
849.057	15622
849.192	15568
849.328	15553
849.463	15545
849.598	15370
849.734	15462
849.869	15351
850.004	15351
850.14	15287
850.275	15256
850.41	15176
850.545	15283
850.68	15176
850.815	15214
850.95	15192
851.085	15477
851.22	15378
851.355	15104
851.49	15249
851.625	15203
851.76	15317
851.895	15116
852.03	15161
852.165	15222
852.299	15340
852.434	15207
852.569	15249
852.703	15317
852.838	15363
852.973	15336
853.107	15401
853.242	15264
853.376	15097
853.511	15055
853.645	15028
853.78	15218
853.914	15241
854.048	15085
854.183	15192
854.317	15203
854.451	15374
854.585	15169
854.72	15047
854.854	15272
854.988	15051
855.122	15017
855.256	14986
855.39	15100
855.524	15260
855.658	15207
855.792	15104
855.926	15138
856.06	15108
856.194	15180
856.327	15146
856.461	15062
856.595	15093
856.729	15108
856.862	15264
856.996	15135
857.13	15173
857.263	15260
857.397	15279
857.53	15192
857.664	15165
857.797	15169
857.931	15207
858.064	15058
858.197	15218
858.331	15211
858.464	15192
858.597	14960
858.731	15131
858.864	15070
858.997	15116
859.13	15157
859.263	15009
859.396	15176
859.529	15123
859.662	15055
859.795	15108
859.928	15146
860.061	15237
860.194	15336
860.327	15169
860.46	15013
860.592	15192
860.725	15199
860.858	15298
860.99	15108
861.123	15009
861.256	15093
861.388	15184
861.521	15770
861.653	15017
861.786	14834
861.918	14941
862.05	15009
862.183	15119
862.315	15055
862.447	15211
862.58	15036
862.712	14941
862.844	14792
862.976	14925
863.108	14956
863.24	15165
863.372	14762
863.504	14868
863.636	14815
863.768	14941
863.9	14811
864.032	14796
864.164	14845
864.296	14944
864.428	15028
864.559	14929
864.691	15055
864.823	14933
864.954	14902
865.086	14956
865.217	14838
865.349	14785
865.48	14895
865.612	14899
865.743	14956
865.875	14864
866.006	14754
866.137	14941
866.269	14758
866.4	14960
866.531	14815
866.662	14769
866.793	14769
866.924	14857
867.055	14990
867.186	14868
867.317	14861
867.448	14743
867.579	14785
867.71	14693
867.841	14708
867.972	14883
868.103	14872
868.233	14952
868.364	14815
868.495	14956
868.625	15039
868.756	15218
868.886	14906
869.017	15154
869.147	15252
869.278	15291
869.408	15157
869.539	15093
869.669	15233
869.799	15176
869.929	15214
870.06	15302
870.19	15416
870.32	15401
870.45	15450
870.58	15397
870.71	15622
870.84	15500
870.97	15557
871.1	15458
871.23	15789
871.36	15747
871.489	15580
871.619	15485
871.749	15698
871.879	15804
872.008	15663
872.138	15568
872.267	15690
872.397	15599
872.526	15542
872.656	15458
872.785	15485
872.915	15667
873.044	15736
873.173	15705
873.303	15747
873.432	15671
873.561	15736
873.69	15717
873.819	15770
873.948	15823
874.077	15766
874.206	15739
874.335	15728
874.464	15797
874.593	16063
874.722	16017
874.851	16090
874.979	16071
875.108	16139
875.237	16071
875.365	15857
875.494	15941
875.623	16147
875.751	16025
875.88	16150
876.008	16188
876.136	16329
876.265	16436
876.393	16592
876.521	16516
876.65	16546
876.778	16546
876.906	16447
877.034	16363
877.162	16455
877.29	16348
877.418	16497
877.546	16470
877.674	16474
877.802	16523
877.93	16478
878.058	16500
878.185	16417
878.313	16481
878.441	16523
878.568	16409
878.696	16565
878.824	16664
878.951	16664
879.079	16831
879.206	17083
879.333	17014
879.461	16843
879.588	17052
879.715	17189
879.842	17136
879.97	16942
880.097	16641
880.224	16569
880.351	16519
880.478	16478
880.605	16493
880.732	16382
880.859	16660
880.986	16348
881.112	16462
881.239	16398
881.366	16215
881.493	16234
881.619	16139
881.746	16101
881.872	16150
881.999	16116
882.125	16097
882.252	16192
882.378	16101
882.505	16204
882.631	16032
882.757	15991
882.883	15876
883.01	15880
883.136	15869
883.262	15679
883.388	15713
883.514	15869
883.64	16071
883.766	15949
883.892	15736
884.018	15690
884.143	15975
884.269	15911
884.395	15686
884.52	15542
884.646	15595
884.772	15629
884.897	15500
885.023	15637
885.148	15743
885.274	15728
885.399	15736
885.524	15576
885.65	15504
885.775	15584
885.9	15534
886.025	15686
886.15	15720
886.275	15553
886.4	15382
886.525	15557
886.65	15435
886.775	15466
886.9	15732
887.025	15713
887.149	15515
887.274	15329
887.399	15310
887.523	15302
887.648	15283
887.773	15241
887.897	15481
888.021	15416
888.146	15367
888.27	15401
888.395	15420
888.519	15424
888.643	15397
888.767	15439
888.891	15272
889.015	15131
889.139	15294
889.263	15112
889.387	15310
889.511	15412
889.635	15291
889.759	15192
889.883	15085
890.006	15085
890.13	15256
890.254	15074
890.377	15169
890.501	14963
890.624	14921
890.748	15085
890.871	15013
890.995	14826
891.118	14750
891.241	14823
891.364	14876
891.488	14914
891.611	14849
891.734	14804
891.857	14800
891.98	14895
892.103	14929
892.226	14937
892.349	14891
892.471	14678
892.594	14895
892.717	14823
892.839	14819
892.962	14773
893.085	14902
893.207	14849
893.33	14705
893.452	14773
893.575	14891
893.697	14769
893.819	14910
893.941	14967
894.064	14956
894.186	14864
894.308	14762
894.43	14937
894.552	15066
894.674	14868
894.796	14769
894.918	14880
895.04	14838
895.161	14899
895.283	14941
895.405	14754
895.526	14823
895.648	14952
895.769	14883
895.891	14963
896.012	15017
896.134	14990
896.255	14956
896.376	14834
896.498	14929
896.619	15013
896.74	15013
896.861	15017
896.982	15344
897.103	15481
897.224	15272
897.345	15386
897.466	15119
897.587	15214
897.708	15363
897.828	15275
897.949	15230
898.07	15036
898.19	15138
898.311	15317
898.431	15176
898.552	15370
898.672	15378
898.792	15367
898.913	15382
899.033	15211
899.153	15104
899.273	15116
899.393	15218
899.513	15119
899.633	15161
899.753	15169
899.873	15085
899.993	15241
900.113	15135
900.232	15123
900.352	15097
900.472	15085
900.591	14895
900.711	15085
900.83	14952
900.95	14994
901.069	15176
901.189	14906
901.308	14800
901.427	14708
901.546	14655
901.665	14693
901.784	14746
901.904	14610
902.023	14545
902.141	14320
902.26	14164
902.379	14278
902.498	14221
902.617	14168
902.735	14221
902.854	14153
902.973	14126
903.091	13982
903.21	13856
903.328	13970
903.446	13837
903.565	13753
903.683	13776
903.801	13643
903.919	13727
904.038	13746
904.156	13605
904.274	13559
904.392	13582
904.51	13605
904.627	13624
904.745	13571
904.863	13590
904.981	13403
905.098	13354
905.216	13282
905.334	13316
905.451	13164
905.569	13247
905.686	13324
905.803	13335
905.921	13050
906.038	13156
906.155	13110
906.272	12996
906.389	13012
906.506	12894
906.623	12863
906.74	12730
906.857	12612
906.974	12700
907.091	12894
907.208	12947
907.324	12867
907.441	12795
907.557	12597
907.674	12608
907.79	12513
907.907	12563
908.023	12544
908.139	12585
908.256	12650
908.372	12517
908.488	12433
908.604	12289
908.72	12330
908.836	12319
908.952	12209
909.068	12350
909.184	12452
909.3	12327
909.415	12308
909.531	12311
909.647	12057
909.762	12110
909.878	12159
909.993	12072
910.108	12102
910.224	12083
910.339	12114
910.454	11992
910.57	11942
910.685	11847
910.8	12163
910.915	12133
911.03	11950
911.145	11828
911.259	11813
911.374	11767
911.489	11676
911.604	11638
911.718	11539
911.833	11490
911.947	11474
912.062	11341
912.176	11551
912.291	11490
912.405	11562
912.519	11691
912.633	11684
912.748	11615
912.862	11497
912.976	11341
913.09	11280
913.204	11387
913.318	11425
913.431	11486
913.545	11383
913.659	11592
913.772	11364
913.886	11277
914	11197
914.113	11341
914.226	11448
914.34	11414
914.453	11166
914.566	11364
914.68	11315
914.793	11269
914.906	11079
915.019	10999
915.132	10927
915.245	10953
915.358	10987
915.47	11025
915.583	11060
915.696	11060
915.809	11220
915.921	11208
916.034	10961
916.146	10972
916.259	10957
916.371	11098
916.483	11037
916.595	11014
916.708	10984
916.82	10934
916.932	10858
917.044	10927
917.156	10877
917.268	10793
917.38	10771
917.491	10767
917.603	10778
917.715	10942
917.826	10968
917.938	10797
918.049	10653
918.161	10828
918.272	10900
918.384	10854
918.495	10744
918.606	10687
918.717	10474
918.828	10710
918.939	10714
919.05	10580
919.161	10687
919.272	10394
919.383	10516
919.494	10774
919.604	10873
919.715	10634
919.826	10637
919.936	10618
920.047	10805
920.157	10634
920.267	10911
920.378	10778
920.488	10694
920.598	10923
920.708	11018
920.818	10858
920.928	10946
921.038	11006
921.148	11014
921.258	10782
921.368	10577
921.477	10577
921.587	10565
921.697	10337
921.806	10641
921.916	10459
922.025	10223
922.134	10284
922.244	10211
922.353	10284
922.462	10116
922.571	10067
922.68	9941
922.789	9846
922.898	9846
923.007	9873
923.116	9892
923.224	10010
923.333	9915
923.442	9781
923.55	9755
923.659	9842
923.767	9903
923.876	9728
923.984	9812
924.092	9759
924.201	9770
924.309	9770
924.417	9766
924.525	9709
924.633	9720
924.741	10546
924.849	9507
924.956	9656
925.064	9504
925.172	9439
925.279	9496
925.387	9603
925.494	9500
925.602	9679
925.709	9553
925.816	9504
925.924	9603
926.031	9690
926.138	9580
926.245	9587
926.352	9515
926.459	9584
926.566	9679
926.673	9515
926.779	9450
926.886	9355
926.993	9321
927.099	9233
927.206	9237
927.312	9233
927.419	9256
927.525	9241
927.631	9321
927.737	9176
927.843	9184
927.95	9051
928.056	9116
928.162	9108
928.267	9116
928.373	9789
928.479	9188
928.585	9013
928.69	9024
928.796	9116
928.901	9058
929.007	8937
929.112	9009
929.218	8956
929.323	9036
929.428	9005
929.533	9047
929.638	8830
929.743	8876
929.848	8967
929.953	8891
930.058	8845
930.163	8735
930.267	8716
930.372	8857
930.477	8701
930.581	8914
930.685	8697
930.79	8632
930.894	8674
930.998	8625
931.103	8754
931.207	8415
931.311	8328
931.415	8290
931.519	8130
931.623	8123
