Data from test_V78500241_2329.txt Node
Date: Fri Mar 25 14:49:55 CST 2022
User: usil
Spectrometer: V785-0024
Trigger mode: 0
Integration Time (sec): 4.000000E-1
Scans to average: 1
Nonlinearity correction enabled: false
Boxcar width: 0
Storing dark spectrum: false
XAxis mode: Wavelengths
Number of Pixels in Spectrum: 1024
>>>>>Begin Spectral Data<<<<<
801.071	22173
801.214	22116
801.356	21835
801.499	21686
801.641	21523
801.783	21454
801.926	21469
802.068	21492
802.211	21424
802.353	21367
802.496	21108
802.638	21100
802.78	21058
802.923	20887
803.065	20830
803.208	20800
803.35	20899
803.492	21032
803.635	21043
803.777	20857
803.919	20998
804.061	21222
804.204	20986
804.346	20921
804.488	20750
804.63	20876
804.773	20659
804.915	20750
805.057	20937
805.199	20689
805.341	20807
805.483	20963
805.626	20895
805.768	20731
805.91	20777
806.052	20792
806.194	20670
806.336	20963
806.478	20819
806.62	20872
806.762	20781
806.904	20971
807.046	21176
807.188	21203
807.33	21074
807.472	21165
807.614	21039
807.756	20948
807.898	20796
808.04	20800
808.182	20727
808.324	20807
808.465	20971
808.607	21142
808.749	21218
808.891	21313
809.033	21329
809.174	21214
809.316	21176
809.458	21157
809.6	21157
809.741	21192
809.883	21252
810.025	21386
810.166	21317
810.308	21241
810.45	21256
810.591	21169
810.733	21074
810.875	20910
811.016	20880
811.158	20815
811.299	21074
811.441	21123
811.582	21055
811.724	20929
811.865	20842
812.007	20845
812.148	20918
812.29	21005
812.431	20899
812.573	21142
812.714	21264
812.855	21549
812.997	21549
813.138	21644
813.279	21580
813.421	21481
813.562	21340
813.703	21184
813.845	21192
813.986	20838
814.127	20648
814.268	20629
814.41	20587
814.551	20518
814.692	20571
814.833	20454
814.974	20412
815.115	20518
815.256	20423
815.397	20358
815.539	20457
815.68	20259
815.821	20240
815.962	20233
816.103	20153
816.244	20005
816.385	19883
816.526	19993
816.666	19753
816.807	19613
816.948	19696
817.089	19708
817.23	19616
817.371	19719
817.512	19529
817.653	19540
817.793	19438
817.934	19514
818.075	19480
818.216	19666
818.356	19639
818.497	19483
818.638	19202
818.778	19335
818.919	19251
819.06	19373
819.2	19403
819.341	19419
819.481	19483
819.622	19571
819.762	19803
819.903	19693
820.043	19578
820.184	19769
820.324	19594
820.465	19689
820.605	19643
820.746	19601
820.886	19343
821.026	19521
821.167	19578
821.307	19590
821.447	19548
821.588	19308
821.728	19343
821.868	19156
822.008	18996
822.149	19012
822.289	18913
822.429	18867
822.569	18715
822.709	18764
822.849	18555
822.99	18452
823.13	18486
823.27	18407
823.41	18323
823.55	18239
823.69	18315
823.83	18319
823.97	18197
824.11	17992
824.25	18068
824.389	18068
824.529	18072
824.669	18083
824.809	18148
824.949	18087
825.089	18041
825.228	18030
825.368	17901
825.508	17870
825.648	17828
825.787	17897
825.927	17958
826.067	17798
826.206	17786
826.346	17897
826.485	17840
826.625	17783
826.765	17874
826.904	17775
827.044	17577
827.183	17592
827.323	17341
827.462	17532
827.601	17703
827.741	17436
827.88	17558
828.02	17425
828.159	17524
828.298	17444
828.437	17467
828.577	17486
828.716	17608
828.855	17448
828.994	17250
829.134	17212
829.273	17379
829.412	17197
829.551	17242
829.69	17204
829.829	17242
829.968	17433
830.107	17360
830.246	17239
830.385	17166
830.524	17083
830.663	17113
830.802	17048
830.941	16858
831.08	16896
831.219	16869
831.357	16965
831.496	17090
831.635	16919
831.774	16869
831.913	16839
832.051	16649
832.19	16630
832.329	16618
832.467	16683
832.606	16516
832.744	16580
832.883	16542
833.022	16512
833.16	16622
833.299	16706
833.437	16569
833.576	16736
833.714	16611
833.852	16565
833.991	16634
834.129	16721
834.267	16679
834.406	16558
834.544	16702
834.682	16698
834.821	16679
834.959	16847
835.097	16550
835.235	16675
835.373	16645
835.511	16679
835.65	16554
835.788	16489
835.926	16424
836.064	16272
836.202	16382
836.34	16478
836.478	16694
836.615	16580
836.753	16542
836.891	16554
837.029	16588
837.167	16485
837.305	16428
837.443	16322
837.58	16348
837.718	16451
837.856	16447
837.993	16382
838.131	16413
838.269	16337
838.406	16390
838.544	16261
838.681	16120
838.819	16135
838.956	15915
839.094	15865
839.231	16025
839.369	16135
839.506	16405
839.643	16181
839.781	15907
839.918	15903
840.055	15964
840.193	15949
840.33	15808
840.467	15953
840.604	15956
840.742	16246
840.879	15808
841.016	15857
841.153	15869
841.29	16048
841.427	16006
841.564	16025
841.701	15979
841.838	15915
841.975	15869
842.112	15857
842.249	15797
842.385	15720
842.522	15892
842.659	15778
842.796	15774
842.933	15720
843.069	15751
843.206	15622
843.343	15789
843.479	15842
843.616	15789
843.752	15526
843.889	15515
844.025	15648
844.162	15515
844.298	15648
844.435	15458
844.571	15485
844.708	15587
844.844	15747
844.98	15667
845.117	15644
845.253	15519
845.389	15443
845.525	15374
845.661	15393
845.798	15287
845.934	15416
846.07	15214
846.206	15393
846.342	15488
846.478	15279
846.614	15180
846.75	15058
846.886	15077
847.022	15142
847.158	15093
847.294	15154
847.429	15100
847.565	15062
847.701	15214
847.837	14823
847.972	14830
848.108	14906
848.244	14910
848.379	14716
848.515	14727
848.65	14663
848.786	14621
848.921	14659
849.057	14651
849.192	14701
849.328	14598
849.463	14636
849.598	14606
849.734	14674
849.869	14594
850.004	14389
850.14	14568
850.275	14476
850.41	14419
850.545	14484
850.68	14431
850.815	14400
850.95	14412
851.085	14579
851.22	14522
851.355	14514
851.49	14419
851.625	14476
851.76	14442
851.895	14301
852.03	14294
852.165	14415
852.299	14385
852.434	14423
852.569	14594
852.703	14412
852.838	14503
852.973	14499
853.107	14526
853.242	14358
853.376	14324
853.511	14275
853.645	14309
853.78	14385
853.914	14427
854.048	14229
854.183	14252
854.317	14301
854.451	14370
854.585	14358
854.72	14233
854.854	14347
854.988	14187
855.122	14256
855.256	14183
855.39	14336
855.524	14484
855.658	14358
855.792	14366
855.926	14412
856.06	14370
856.194	14374
856.327	14282
856.461	14229
856.595	14275
856.729	14233
856.862	14423
856.996	14332
857.13	14385
857.263	14427
857.397	14476
857.53	14339
857.664	14400
857.797	14366
857.931	14396
858.064	14362
858.197	14381
858.331	14290
858.464	14317
858.597	14161
858.731	14328
858.864	14309
858.997	14313
859.13	14370
859.263	14324
859.396	14336
859.529	14343
859.662	14294
859.795	14263
859.928	14290
860.061	14499
860.194	14507
860.327	14362
860.46	14301
860.592	14419
860.725	14492
860.858	14484
860.99	14256
861.123	14195
861.256	14161
861.388	14267
861.521	14842
861.653	14172
861.786	14130
861.918	14161
862.05	14210
862.183	14164
862.315	14275
862.447	14366
862.58	14206
862.712	13982
862.844	14039
862.976	14244
863.108	14214
863.24	14438
863.372	14024
863.504	14073
863.636	14069
863.768	14202
863.9	14046
864.032	13947
864.164	14031
864.296	14130
864.428	14157
864.559	14149
864.691	14130
864.823	14210
864.954	14210
865.086	14145
865.217	14100
865.349	14054
865.48	14012
865.612	13997
865.743	14149
865.875	14069
866.006	13986
866.137	14024
866.269	14012
866.4	14054
866.531	14027
866.662	14027
866.793	13989
866.924	13970
867.055	13989
867.186	14050
867.317	13917
867.448	13955
867.579	13921
867.71	13932
867.841	13947
867.972	14046
868.103	14005
868.233	14088
868.364	14046
868.495	14138
868.625	14305
868.756	14362
868.886	14240
869.017	14298
869.147	14351
869.278	14385
869.408	14278
869.539	14370
869.669	14377
869.799	14400
869.929	14484
870.06	14408
870.19	14648
870.32	14583
870.45	14640
870.58	14750
870.71	14746
870.84	14849
870.97	14705
871.1	14632
871.23	14842
871.36	14937
871.489	14838
871.619	14895
871.749	14853
871.879	14994
872.008	15047
872.138	14948
872.267	14834
872.397	14697
872.526	14678
872.656	14697
872.785	14792
872.915	14933
873.044	14998
873.173	14902
873.303	14967
873.432	14956
873.561	14994
873.69	15001
873.819	14990
873.948	14979
874.077	14925
874.206	14925
874.335	15001
874.464	15077
874.593	15272
874.722	15157
874.851	15336
874.979	15256
875.108	15237
875.237	15207
875.365	15123
875.494	15306
875.623	15256
875.751	15256
875.88	15245
876.008	15496
876.136	15431
876.265	15793
876.393	15880
876.521	15713
876.65	15762
876.778	15759
876.906	15614
877.034	15599
877.162	15542
877.29	15679
877.418	15686
877.546	15690
877.674	15713
877.802	15736
877.93	15709
878.058	15656
878.185	15515
878.313	15679
878.441	15584
878.568	15477
878.696	15561
878.824	15682
878.951	15755
879.079	15778
879.206	15964
879.333	15903
879.461	15736
879.588	15747
879.715	15819
879.842	15972
879.97	15823
880.097	15542
880.224	15542
880.351	15580
880.478	15660
880.605	15564
880.732	15534
880.859	15675
880.986	15572
881.112	15584
881.239	15416
881.366	15249
881.493	15268
881.619	15241
881.746	15230
881.872	15127
881.999	15233
882.125	15165
882.252	15249
882.378	15116
882.505	15344
882.631	15077
882.757	15055
882.883	15127
883.01	14963
883.136	15028
883.262	14849
883.388	14842
883.514	15020
883.64	15020
883.766	14910
883.892	14891
884.018	14921
884.143	15005
884.269	14967
884.395	14800
884.52	14720
884.646	14678
884.772	14678
884.897	14590
885.023	14682
885.148	14819
885.274	14895
885.399	14826
885.524	14693
885.65	14727
885.775	14724
885.9	14724
886.025	14872
886.15	14727
886.275	14648
886.4	14552
886.525	14697
886.65	14701
886.775	14697
886.9	14864
887.025	14925
887.149	14754
887.274	14552
887.399	14507
887.523	14488
887.648	14511
887.773	14434
887.897	14659
888.021	14556
888.146	14389
888.27	14648
888.395	14564
888.519	14674
888.643	14552
888.767	14602
888.891	14454
889.015	14309
889.139	14419
889.263	14461
889.387	14549
889.511	14560
889.635	14518
889.759	14408
889.883	14366
890.006	14446
890.13	14461
890.254	14347
890.377	14393
890.501	14313
890.624	14191
890.748	14290
890.871	14138
890.995	14062
891.118	14020
891.241	14183
891.364	14031
891.488	14115
891.611	14031
891.734	14145
891.857	14233
891.98	14153
892.103	14161
892.226	14145
892.349	14100
892.471	13947
892.594	14016
892.717	14016
892.839	14073
892.962	14069
893.085	14183
893.207	14081
893.33	13986
893.452	14008
893.575	14145
893.697	14199
893.819	14355
893.941	14229
894.064	14210
894.186	14107
894.308	14092
894.43	14275
894.552	14396
894.674	14294
894.796	14111
894.918	14187
895.04	14172
895.161	14290
895.283	14210
895.405	14168
895.526	14168
895.648	14225
895.769	14294
895.891	14290
896.012	14240
896.134	14317
896.255	14229
896.376	14256
896.498	14328
896.619	14396
896.74	14298
896.861	14377
896.982	14560
897.103	14743
897.224	14560
897.345	14552
897.466	14339
897.587	14499
897.708	14659
897.828	14617
897.949	14541
898.07	14343
898.19	14465
898.311	14712
898.431	14556
898.552	14640
898.672	14644
898.792	14632
898.913	14716
899.033	14568
899.153	14549
899.273	14423
899.393	14533
899.513	14431
899.633	14549
899.753	14492
899.873	14526
899.993	14568
900.113	14450
900.232	14629
900.352	14454
900.472	14358
900.591	14328
900.711	14415
900.83	14396
900.95	14552
901.069	14469
901.189	14229
901.308	14046
901.427	14050
901.546	13970
901.665	14103
901.784	14077
901.904	13818
902.023	13772
902.141	13597
902.26	13712
902.379	13677
902.498	13586
902.617	13613
902.735	13628
902.854	13624
902.973	13578
903.091	13381
903.21	13251
903.328	13369
903.446	13244
903.565	13183
903.683	13202
903.801	13023
903.919	13095
904.038	13107
904.156	12951
904.274	13046
904.392	12924
904.51	12935
904.627	12970
904.745	13034
904.863	13008
904.981	12848
905.098	12642
905.216	12684
905.334	12642
905.451	12654
905.569	12642
905.686	12688
905.803	12669
905.921	12479
906.038	12585
906.155	12513
906.272	12285
906.389	12403
906.506	12243
906.623	12277
906.74	12304
906.857	12209
906.974	12194
907.091	12334
907.208	12426
907.324	12281
907.441	12178
907.557	12026
907.674	11908
907.79	12019
907.907	12019
908.023	12038
908.139	12007
908.256	11954
908.372	12011
908.488	11961
908.604	11885
908.72	11775
908.836	11760
908.952	11779
909.068	11703
909.184	11882
909.3	11786
909.415	11851
909.531	11817
909.647	11600
909.762	11573
909.878	11455
909.993	11581
910.108	11493
910.224	11589
910.339	11535
910.454	11398
910.57	11383
910.685	11356
910.8	11615
910.915	11619
911.03	11436
911.145	11322
911.259	11315
911.374	11277
911.489	11178
911.604	11079
911.718	11022
911.833	11094
911.947	10919
912.062	10854
912.176	10961
912.291	10965
912.405	11067
912.519	11174
912.633	11166
912.748	11094
912.862	10987
912.976	10938
913.09	10771
913.204	10919
913.318	10984
913.431	10965
913.545	10995
913.659	11029
913.772	10881
913.886	10824
914	10733
914.113	10877
914.226	10828
914.34	10862
914.453	10752
914.566	10999
914.68	10653
914.793	10733
914.906	10542
915.019	10432
915.132	10424
915.245	10485
915.358	10531
915.47	10474
915.583	10527
915.696	10615
915.809	10626
915.921	10641
916.034	10565
916.146	10440
916.259	10432
916.371	10569
916.483	10538
916.595	10360
916.708	10451
916.82	10394
916.932	10436
917.044	10394
917.156	10424
917.268	10291
917.38	10341
917.491	10386
917.603	10398
917.715	10424
917.826	10497
917.938	10287
918.049	10310
918.161	10371
918.272	10497
918.384	10523
918.495	10322
918.606	10268
918.717	10158
918.828	10192
918.939	10265
919.05	10105
919.161	10173
919.272	9960
919.383	10071
919.494	10333
919.604	10489
919.715	10177
919.826	10128
919.936	10147
920.047	10246
920.157	10276
920.267	10424
920.378	10310
920.488	10276
920.598	10481
920.708	10550
920.818	10440
920.928	10398
921.038	10626
921.148	10599
921.258	10291
921.368	10246
921.477	10139
921.587	10135
921.697	9983
921.806	10139
921.916	9968
922.025	9911
922.134	9854
922.244	9732
922.353	9861
922.462	9698
922.571	9660
922.68	9488
922.789	9511
922.898	9534
923.007	9435
923.116	9530
923.224	9481
923.333	9500
923.442	9363
923.55	9439
923.659	9397
923.767	9408
923.876	9340
923.984	9469
924.092	9222
924.201	9329
924.309	9393
924.417	9329
924.525	9264
924.633	9298
924.741	10090
924.849	9119
924.956	9321
925.064	9138
925.172	9097
925.279	9150
925.387	9135
925.494	9077
925.602	9245
925.709	9218
925.816	9070
925.924	9157
926.031	9195
926.138	9154
926.245	9188
926.352	9070
926.459	9146
926.566	9313
926.673	9138
926.779	9024
926.886	9013
926.993	8872
927.099	8883
927.206	8845
927.312	8823
927.419	8937
927.525	8883
927.631	8876
927.737	8815
927.843	8724
927.95	8667
928.056	8697
928.162	8750
928.267	8804
928.373	9359
928.479	8906
928.585	8640
928.69	8750
928.796	8773
928.901	8708
929.007	8632
929.112	8686
929.218	8659
929.323	8571
929.428	8571
929.533	8743
929.638	8484
929.743	8594
929.848	8674
929.953	8575
930.058	8484
930.163	8389
930.267	8396
930.372	8476
930.477	8358
930.581	8598
930.685	8469
930.79	8259
930.894	8313
930.998	8282
931.103	8419
931.207	8092
931.311	8050
931.415	7993
931.519	7780
931.623	7841
