Data from test_V78500241_2994.txt Node
Date: Fri Mar 25 14:54:33 CST 2022
User: usil
Spectrometer: V785-0024
Trigger mode: 0
Integration Time (sec): 4.000000E-1
Scans to average: 1
Nonlinearity correction enabled: false
Boxcar width: 0
Storing dark spectrum: false
XAxis mode: Wavelengths
Number of Pixels in Spectrum: 1024
>>>>>Begin Spectral Data<<<<<
801.071	22070
801.214	21987
801.356	21675
801.499	21667
801.641	21481
801.783	21428
801.926	21515
802.068	21523
802.211	21268
802.353	21241
802.496	21055
802.638	20883
802.78	20880
802.923	20895
803.065	20872
803.208	20765
803.35	20788
803.492	20929
803.635	21039
803.777	20826
803.919	20849
804.061	21176
804.204	20895
804.346	20743
804.488	20606
804.63	20819
804.773	20659
804.915	20796
805.057	20899
805.199	20667
805.341	20781
805.483	20842
805.626	20720
805.768	20727
805.91	20708
806.052	20857
806.194	20739
806.336	20902
806.478	20609
806.62	20712
806.762	20689
806.904	20902
807.046	21131
807.188	20956
807.33	21112
807.472	21085
807.614	21024
807.756	20902
807.898	20895
808.04	20845
808.182	20765
808.324	20811
808.465	20845
808.607	21077
808.749	21081
808.891	21218
809.033	21359
809.174	21214
809.316	21062
809.458	21169
809.6	21039
809.741	21165
809.883	21287
810.025	21192
810.166	21233
810.308	21256
810.45	21230
810.591	21055
810.733	21009
810.875	20971
811.016	20777
811.158	20807
811.299	21020
811.441	20944
811.582	21009
811.724	20861
811.865	20914
812.007	20811
812.148	20785
812.29	20834
812.431	20990
812.573	21214
812.714	21241
812.855	21336
812.997	21496
813.138	21606
813.279	21370
813.421	21428
813.562	21294
813.703	21135
813.845	21058
813.986	20636
814.127	20739
814.268	20530
814.41	20381
814.551	20469
814.692	20590
814.833	20419
814.974	20313
815.115	20374
815.256	20317
815.397	20199
815.539	20336
815.68	20172
815.821	20218
815.962	20153
816.103	20237
816.244	20081
816.385	19856
816.526	19769
816.666	19784
816.807	19464
816.948	19655
817.089	19666
817.23	19578
817.371	19624
817.512	19605
817.653	19575
817.793	19407
817.934	19407
818.075	19616
818.216	19571
818.356	19552
818.497	19381
818.638	19316
818.778	19221
818.919	19278
819.06	19213
819.2	19373
819.341	19407
819.481	19400
819.622	19662
819.762	19734
819.903	19757
820.043	19525
820.184	19563
820.324	19518
820.465	19567
820.605	19544
820.746	19411
820.886	19419
821.026	19518
821.167	19419
821.307	19407
821.447	19419
821.588	19346
821.728	19221
821.868	19069
822.008	18932
822.149	18905
822.289	18977
822.429	18741
822.569	18738
822.709	18696
822.849	18350
822.99	18479
823.13	18342
823.27	18273
823.41	18163
823.55	18095
823.69	18323
823.83	18232
823.97	18125
824.11	17946
824.25	17904
824.389	17973
824.529	18140
824.669	17965
824.809	18091
824.949	18038
825.089	18015
825.228	17977
825.368	17885
825.508	17824
825.648	17687
825.787	17745
825.927	17722
826.067	17745
826.206	17714
826.346	17794
826.485	17748
826.625	17790
826.765	17859
826.904	17855
827.044	17596
827.183	17524
827.323	17444
827.462	17425
827.601	17486
827.741	17417
827.88	17482
828.02	17227
828.159	17402
828.298	17501
828.437	17512
828.577	17471
828.716	17562
828.855	17337
828.994	17231
829.134	17231
829.273	17227
829.412	17117
829.551	17083
829.69	17223
829.829	17189
829.968	17337
830.107	17220
830.246	17204
830.385	17132
830.524	17067
830.663	16900
830.802	16908
830.941	16904
831.08	16824
831.219	16915
831.357	16873
831.496	17113
831.635	16748
831.774	16755
831.913	16691
832.051	16637
832.19	16516
832.329	16607
832.467	16542
832.606	16421
832.744	16485
832.883	16413
833.022	16432
833.16	16497
833.299	16459
833.437	16466
833.576	16527
833.714	16466
833.852	16462
833.991	16474
834.129	16531
834.267	16535
834.406	16538
834.544	16542
834.682	16588
834.821	16455
834.959	16729
835.097	16500
835.235	16630
835.373	16500
835.511	16417
835.65	16455
835.788	16382
835.926	16211
836.064	16306
836.202	16253
836.34	16489
836.478	16580
836.615	16443
836.753	16485
836.891	16470
837.029	16470
837.167	16306
837.305	16341
837.443	16268
837.58	16367
837.718	16310
837.856	16462
837.993	16287
838.131	16341
838.269	16135
838.406	16215
838.544	16112
838.681	16082
838.819	15964
838.956	15838
839.094	15739
839.231	15994
839.369	16013
839.506	16257
839.643	16154
839.781	15895
839.918	15789
840.055	15842
840.193	15819
840.33	15728
840.467	15797
840.604	15789
840.742	16101
840.879	15686
841.016	15816
841.153	15747
841.29	15808
841.427	15770
841.564	15861
841.701	15892
841.838	15793
841.975	15747
842.112	15755
842.249	15625
842.385	15587
842.522	15884
842.659	15591
842.796	15591
842.933	15614
843.069	15591
843.206	15599
843.343	15606
843.479	15595
843.616	15648
843.752	15462
843.889	15424
844.025	15572
844.162	15412
844.298	15443
844.435	15439
844.571	15405
844.708	15466
844.844	15481
844.98	15568
845.117	15469
845.253	15344
845.389	15291
845.525	15397
845.661	15298
845.798	15230
845.934	15355
846.07	15093
846.206	15233
846.342	15252
846.478	15142
846.614	14941
846.75	14861
846.886	14895
847.022	15032
847.158	14872
847.294	14994
847.429	15020
847.565	14914
847.701	15199
847.837	14857
847.972	14781
848.108	14857
848.244	14804
848.379	14575
848.515	14499
848.65	14552
848.786	14499
848.921	14503
849.057	14674
849.192	14606
849.328	14640
849.463	14613
849.598	14545
849.734	14522
849.869	14396
850.004	14328
850.14	14366
850.275	14450
850.41	14252
850.545	14282
850.68	14221
850.815	14400
850.95	14271
851.085	14442
851.22	14469
851.355	14313
851.49	14328
851.625	14320
851.76	14324
851.895	14138
852.03	14081
852.165	14301
852.299	14336
852.434	14427
852.569	14214
852.703	14366
852.838	14400
852.973	14533
853.107	14537
853.242	14339
853.376	14240
853.511	14020
853.645	14195
853.78	14290
853.914	14237
854.048	14275
854.183	14149
854.317	14138
854.451	14366
854.585	14252
854.72	14183
854.854	14263
854.988	14115
855.122	14267
855.256	14062
855.39	14229
855.524	14237
855.658	14248
855.792	14237
855.926	14301
856.06	14282
856.194	14374
856.327	14233
856.461	14206
856.595	14210
856.729	14115
856.862	14237
856.996	14225
857.13	14286
857.263	14286
857.397	14362
857.53	14199
857.664	14256
857.797	14252
857.931	14328
858.064	14157
858.197	14313
858.331	14199
858.464	14145
858.597	14123
858.731	14225
858.864	14237
858.997	14278
859.13	14294
859.263	14164
859.396	14305
859.529	14218
859.662	14172
859.795	14107
859.928	14195
860.061	14438
860.194	14396
860.327	14168
860.46	14218
860.592	14214
860.725	14275
860.858	14313
860.99	14161
861.123	14138
861.256	14126
861.388	14267
861.521	14880
861.653	14016
861.786	14111
861.918	14031
862.05	14100
862.183	14100
862.315	14180
862.447	14256
862.58	14119
862.712	13989
862.844	13909
862.976	14008
863.108	13890
863.24	14351
863.372	13940
863.504	14031
863.636	13989
863.768	13974
863.9	14031
864.032	13940
864.164	13868
864.296	14054
864.428	14142
864.559	14077
864.691	13982
864.823	13970
864.954	14020
865.086	14008
865.217	13936
865.349	13890
865.48	13986
865.612	13982
865.743	14027
865.875	13963
866.006	13940
866.137	13921
866.269	13909
866.4	14008
866.531	13936
866.662	13906
866.793	13921
866.924	13986
867.055	13890
867.186	13879
867.317	13925
867.448	13830
867.579	13868
867.71	13814
867.841	13799
867.972	13921
868.103	13974
868.233	13978
868.364	13997
868.495	13955
868.625	14218
868.756	14252
868.886	14058
869.017	14149
869.147	14252
869.278	14286
869.408	14225
869.539	14214
869.669	14240
869.799	14278
869.929	14351
870.06	14317
870.19	14499
870.32	14564
870.45	14530
870.58	14606
870.71	14720
870.84	14689
870.97	14644
871.1	14533
871.23	14712
871.36	14754
871.489	14686
871.619	14743
871.749	14765
871.879	14887
872.008	14956
872.138	14834
872.267	14731
872.397	14636
872.526	14640
872.656	14545
872.785	14735
872.915	14834
873.044	14876
873.173	14819
873.303	14876
873.432	14864
873.561	14864
873.69	14902
873.819	14781
873.948	14967
874.077	14842
874.206	14868
874.335	14834
874.464	15017
874.593	15127
874.722	15089
874.851	15157
874.979	15154
875.108	15195
875.237	15028
875.365	15058
875.494	15097
875.623	15279
875.751	15062
875.88	15207
876.008	15302
876.136	15382
876.265	15591
876.393	15827
876.521	15705
876.65	15591
876.778	15622
876.906	15599
877.034	15485
877.162	15549
877.29	15439
877.418	15481
877.546	15580
877.674	15526
877.802	15538
877.93	15587
878.058	15610
878.185	15447
878.313	15496
878.441	15515
878.568	15458
878.696	15439
878.824	15553
878.951	15637
879.079	15709
879.206	15846
879.333	15762
879.461	15599
879.588	15618
879.715	15774
879.842	15823
879.97	15644
880.097	15481
880.224	15359
880.351	15485
880.478	15389
880.605	15511
880.732	15386
880.859	15698
880.986	15386
881.112	15462
881.239	15188
881.366	15233
881.493	15245
881.619	14986
881.746	15043
881.872	15085
881.999	15127
882.125	15085
882.252	15009
882.378	15195
882.505	15272
882.631	15123
882.757	14883
882.883	15104
883.01	14861
883.136	14743
883.262	14876
883.388	14743
883.514	14982
883.64	14918
883.766	14857
883.892	14750
884.018	14754
884.143	14918
884.269	14986
884.395	14663
884.52	14610
884.646	14552
884.772	14564
884.897	14476
885.023	14686
885.148	14769
885.274	14750
885.399	14785
885.524	14606
885.65	14606
885.775	14697
885.9	14575
886.025	14606
886.15	14610
886.275	14640
886.4	14461
886.525	14537
886.65	14621
886.775	14545
886.9	14659
887.025	14842
887.149	14636
887.274	14446
887.399	14434
887.523	14438
887.648	14336
887.773	14244
887.897	14583
888.021	14461
888.146	14290
888.27	14598
888.395	14537
888.519	14488
888.643	14492
888.767	14598
888.891	14415
889.015	14343
889.139	14393
889.263	14259
889.387	14442
889.511	14587
889.635	14343
889.759	14305
889.883	14358
890.006	14336
890.13	14461
890.254	14206
890.377	14199
890.501	14134
890.624	14069
890.748	14202
890.871	14027
890.995	13970
891.118	13986
891.241	13967
891.364	13932
891.488	14126
891.611	13974
891.734	13989
891.857	14031
891.98	14088
892.103	14058
892.226	14088
892.349	14008
892.471	13879
892.594	13959
892.717	13959
892.839	13982
892.962	13982
893.085	14065
893.207	13951
893.33	13917
893.452	14001
893.575	14157
893.697	13913
893.819	14256
893.941	14252
894.064	14145
894.186	13944
894.308	13955
894.43	13997
894.552	14278
894.674	14123
894.796	13913
894.918	13993
895.04	14027
895.161	14168
895.283	14119
895.405	14062
895.526	14115
895.648	14062
895.769	14172
895.891	14221
896.012	14214
896.134	14320
896.255	14134
896.376	14142
896.498	14172
896.619	14237
896.74	14183
896.861	14244
896.982	14533
897.103	14625
897.224	14503
897.345	14450
897.466	14332
897.587	14438
897.708	14560
897.828	14537
897.949	14450
898.07	14385
898.19	14412
898.311	14541
898.431	14442
898.552	14583
898.672	14701
898.792	14659
898.913	14587
899.033	14522
899.153	14415
899.273	14377
899.393	14374
899.513	14465
899.633	14366
899.753	14396
899.873	14446
899.993	14476
900.113	14389
900.232	14518
900.352	14396
900.472	14301
900.591	14298
900.711	14298
900.83	14320
900.95	14408
901.069	14400
901.189	14218
901.308	13978
901.427	13944
901.546	13902
901.665	13917
901.784	13967
901.904	13902
902.023	13757
902.141	13533
902.26	13464
902.379	13563
902.498	13495
902.617	13571
902.735	13613
902.854	13563
902.973	13407
903.091	13244
903.21	13285
903.328	13251
903.446	13171
903.565	13069
903.683	13141
903.801	13012
903.919	13053
904.038	13069
904.156	12924
904.274	12996
904.392	12802
904.51	12878
904.627	12905
904.745	12970
904.863	13000
904.981	12707
905.098	12620
905.216	12589
905.334	12612
905.451	12559
905.569	12593
905.686	12620
905.803	12582
905.921	12490
906.038	12528
906.155	12418
906.272	12327
906.389	12308
906.506	12224
906.623	12171
906.74	12148
906.857	12019
906.974	12129
907.091	12194
907.208	12357
907.324	12213
907.441	12182
907.557	11874
907.674	11958
907.79	11893
907.907	11961
908.023	11977
908.139	11958
908.256	11939
908.372	11802
908.488	11752
908.604	11741
908.72	11558
908.836	11672
908.952	11604
909.068	11627
909.184	11767
909.3	11661
909.415	11733
909.531	11722
909.647	11528
909.762	11433
909.878	11379
909.993	11512
910.108	11474
910.224	11505
910.339	11353
910.454	11322
910.57	11284
910.685	11235
910.8	11493
910.915	11459
911.03	11364
911.145	11223
911.259	11178
911.374	11284
911.489	11128
911.604	11079
911.718	10877
911.833	10885
911.947	10759
912.062	10694
912.176	10877
912.291	10980
912.405	10938
912.519	11113
912.633	11102
912.748	11006
912.862	10968
912.976	10801
913.09	10698
913.204	10698
913.318	10759
913.431	10900
913.545	10869
913.659	10896
913.772	10767
913.886	10679
914	10679
914.113	10786
914.226	10839
914.34	10774
914.453	10607
914.566	10801
914.68	10679
914.793	10672
914.906	10466
915.019	10386
915.132	10363
915.245	10417
915.358	10394
915.47	10470
915.583	10493
915.696	10500
915.809	10615
915.921	10603
916.034	10413
916.146	10367
916.259	10295
916.371	10470
916.483	10432
916.595	10325
916.708	10284
916.82	10249
916.932	10249
917.044	10363
917.156	10253
917.268	10207
917.38	10242
917.491	10219
917.603	10230
917.715	10390
917.826	10394
917.938	10272
918.049	10128
918.161	10291
918.272	10333
918.384	10455
918.495	10284
918.606	10128
918.717	10051
918.828	10128
918.939	10230
919.05	10124
919.161	10063
919.272	9953
919.383	10071
919.494	10204
919.604	10261
919.715	10196
919.826	10071
919.936	10086
920.047	10192
920.157	10112
920.267	10367
920.378	10150
920.488	10177
920.598	10363
920.708	10443
920.818	10409
920.928	10352
921.038	10481
921.148	10440
921.258	10219
921.368	10109
921.477	10006
921.587	10006
921.697	9846
921.806	10105
921.916	9937
922.025	9747
922.134	9774
922.244	9656
922.353	9785
922.462	9686
922.571	9580
922.68	9454
922.789	9359
922.898	9374
923.007	9355
923.116	9511
923.224	9439
923.333	9393
923.442	9329
923.55	9275
923.659	9287
923.767	9344
923.876	9245
923.984	9416
924.092	9207
924.201	9302
924.309	9264
924.417	9306
924.525	9253
924.633	9199
924.741	10185
924.849	9005
924.956	9161
925.064	9131
925.172	9001
925.279	8982
925.387	9051
925.494	9032
925.602	9260
925.709	9146
925.816	9017
925.924	9112
926.031	9184
926.138	9142
926.245	9154
926.352	9001
926.459	9146
926.566	9165
926.673	9017
926.779	8933
926.886	8967
926.993	8826
927.099	8781
927.206	8773
927.312	8743
927.419	8788
927.525	8769
927.631	8804
927.737	8674
927.843	8693
927.95	8533
928.056	8693
928.162	8739
928.267	8735
928.373	9199
928.479	8777
928.585	8579
928.69	8716
928.796	8746
928.901	8625
929.007	8446
929.112	8636
929.218	8564
929.323	8526
929.428	8495
929.533	8629
929.638	8446
929.743	8454
929.848	8560
929.953	8537
930.058	8408
930.163	8252
930.267	8290
930.372	8446
930.477	8286
930.581	8503
930.685	8305
930.79	8259
930.894	8328
930.998	8096
931.103	8332
931.207	8065
931.311	7963
931.415	7852
931.519	7757
931.623	7689
