Data from test_V78500241_1409.txt Node
Date: Fri Mar 25 14:43:31 CST 2022
User: usil
Spectrometer: V785-0024
Trigger mode: 0
Integration Time (sec): 4.000000E-1
Scans to average: 1
Nonlinearity correction enabled: false
Boxcar width: 0
Storing dark spectrum: false
XAxis mode: Wavelengths
Number of Pixels in Spectrum: 1024
>>>>>Begin Spectral Data<<<<<
801.071	22455
801.214	22371
801.356	22196
801.499	21972
801.641	21800
801.783	21888
801.926	21781
802.068	21739
802.211	21690
802.353	21583
802.496	21488
802.638	21389
802.78	21214
802.923	21192
803.065	21024
803.208	21119
803.35	21119
803.492	21222
803.635	21363
803.777	21154
803.919	21203
804.061	21523
804.204	21142
804.346	21055
804.488	21043
804.63	21207
804.773	20941
804.915	21119
805.057	21260
805.199	21096
805.341	21154
805.483	21222
805.626	21096
805.768	21081
805.91	20979
806.052	20994
806.194	21005
806.336	21176
806.478	21146
806.62	21009
806.762	21138
806.904	21306
807.046	21496
807.188	21382
807.33	21378
807.472	21572
807.614	21287
807.756	21504
807.898	21393
808.04	21214
808.182	21230
808.324	21416
808.465	21405
808.607	21641
808.749	21629
808.891	21724
809.033	21956
809.174	21698
809.316	21660
809.458	21663
809.6	21580
809.741	21682
809.883	21488
810.025	21823
810.166	21701
810.308	21599
810.45	21576
810.591	21564
810.733	21439
810.875	21173
811.016	21211
811.158	21135
811.299	21367
811.441	21313
811.582	21405
811.724	21222
811.865	21211
812.007	21211
812.148	21237
812.29	21241
812.431	21439
812.573	21561
812.714	21549
812.855	21789
812.997	21781
813.138	22086
813.279	21991
813.421	21713
813.562	21701
813.703	21523
813.845	21412
813.986	21108
814.127	20944
814.268	20788
814.41	20842
814.551	20823
814.692	20834
814.833	20739
814.974	20785
815.115	20758
815.256	20629
815.397	20590
815.539	20598
815.68	20606
815.821	20651
815.962	20541
816.103	20492
816.244	20328
816.385	20309
816.526	20324
816.666	20107
816.807	20001
816.948	20039
817.089	20176
817.23	20046
817.371	19883
817.512	19803
817.653	19894
817.793	19940
817.934	19921
818.075	20046
818.216	19989
818.356	19894
818.497	19776
818.638	19514
818.778	19616
818.919	19514
819.06	19609
819.2	19632
819.341	19761
819.481	19700
819.622	19917
819.762	20134
819.903	20031
820.043	20001
820.184	20016
820.324	19890
820.465	19982
820.605	19947
820.746	19837
820.886	19791
821.026	19856
821.167	19830
821.307	19970
821.447	19776
821.588	19791
821.728	19571
821.868	19403
822.008	19384
822.149	19293
822.289	19247
822.429	18951
822.569	18977
822.709	18989
822.849	18741
822.99	18753
823.13	18707
823.27	18681
823.41	18764
823.55	18498
823.69	18566
823.83	18688
823.97	18582
824.11	18334
824.25	18410
824.389	18414
824.529	18448
824.669	18350
824.809	18528
824.949	18570
825.089	18479
825.228	18414
825.368	18254
825.508	18209
825.648	18213
825.787	18114
825.927	18369
826.067	18114
826.206	18053
826.346	18121
826.485	18201
826.625	18197
826.765	18159
826.904	18136
827.044	18098
827.183	17923
827.323	17847
827.462	17874
827.601	17824
827.741	17859
827.88	17870
828.02	17691
828.159	17878
828.298	17859
828.437	17988
828.577	17794
828.716	17950
828.855	17859
828.994	17611
829.134	17691
829.273	17687
829.412	17634
829.551	17490
829.69	17577
829.829	17554
829.968	17680
830.107	17649
830.246	17672
830.385	17482
830.524	17566
830.663	17474
830.802	17223
830.941	17208
831.08	17170
831.219	17322
831.357	17166
831.496	17360
831.635	17162
831.774	17143
831.913	17140
832.051	17064
832.19	17041
832.329	16946
832.467	16953
832.606	16835
832.744	16900
832.883	16995
833.022	16923
833.16	16957
833.299	17071
833.437	17010
833.576	16923
833.714	17102
833.852	16987
833.991	17018
834.129	17193
834.267	17033
834.406	17003
834.544	17014
834.682	16946
834.821	17037
834.959	17109
835.097	16927
835.235	16961
835.373	16965
835.511	16854
835.65	16858
835.788	16847
835.926	16717
836.064	16656
836.202	16683
836.34	16965
836.478	16949
836.615	16778
836.753	16911
836.891	16763
837.029	16843
837.167	16873
837.305	16733
837.443	16725
837.58	16660
837.718	16793
837.856	16687
837.993	16645
838.131	16748
838.269	16672
838.406	16706
838.544	16615
838.681	16436
838.819	16405
838.956	16303
839.094	16196
839.231	16314
839.369	16398
839.506	16683
839.643	16478
839.781	16413
839.918	16226
840.055	16249
840.193	16181
840.33	16234
840.467	16303
840.604	16322
840.742	16497
840.879	16234
841.016	16150
841.153	16291
841.29	16413
841.427	16280
841.564	16280
841.701	16322
841.838	16188
841.975	16154
842.112	16200
842.249	16040
842.385	15975
842.522	16234
842.659	16055
842.796	16048
842.933	16124
843.069	16082
843.206	15979
843.343	16154
843.479	16044
843.616	16177
843.752	15778
843.889	15903
844.025	16036
844.162	15804
844.298	16025
844.435	15816
844.571	15720
844.708	15884
844.844	15972
844.98	16071
845.117	15991
845.253	15755
845.389	15747
845.525	15876
845.661	15888
845.798	15934
845.934	15918
846.07	16029
846.206	16040
846.342	16139
846.478	15854
846.614	15576
846.75	15340
846.886	15374
847.022	15538
847.158	15412
847.294	15496
847.429	15519
847.565	15439
847.701	15671
847.837	15135
847.972	15089
848.108	15249
848.244	15173
848.379	15176
848.515	15013
848.65	14982
848.786	15085
848.921	15055
849.057	15131
849.192	15055
849.328	15013
849.463	14960
849.598	15039
849.734	14925
849.869	14834
850.004	14735
850.14	14796
850.275	14762
850.41	14629
850.545	14606
850.68	14838
850.815	14727
850.95	14834
851.085	14921
851.22	14811
851.355	14743
851.49	14754
851.625	14727
851.76	14708
851.895	14613
852.03	14644
852.165	14636
852.299	14804
852.434	14743
852.569	14769
852.703	14727
852.838	14872
852.973	14906
853.107	14906
853.242	14743
853.376	14575
853.511	14484
853.645	14522
853.78	14670
853.914	14663
854.048	14579
854.183	14541
854.317	14667
854.451	14765
854.585	14606
854.72	14617
854.854	14693
854.988	14438
855.122	14613
855.256	14473
855.39	14625
855.524	14705
855.658	14655
855.792	14663
855.926	14648
856.06	14697
856.194	14838
856.327	14629
856.461	14530
856.595	14602
856.729	14579
856.862	14644
856.996	14629
857.13	14773
857.263	14735
857.397	14731
857.53	14674
857.664	14716
857.797	14724
857.931	14705
858.064	14678
858.197	14712
858.331	14621
858.464	14613
858.597	14575
858.731	14610
858.864	14663
858.997	14526
859.13	14689
859.263	14564
859.396	14769
859.529	14625
859.662	14503
859.795	14590
859.928	14693
860.061	14800
860.194	14693
860.327	14625
860.46	14636
860.592	14720
860.725	14834
860.858	14758
860.99	14533
861.123	14511
861.256	14495
861.388	14564
861.521	15428
861.653	14488
861.786	14503
861.918	14511
862.05	14533
862.183	14579
862.315	14594
862.447	14678
862.58	14556
862.712	14431
862.844	14336
862.976	14511
863.108	14454
863.24	14853
863.372	14320
863.504	14431
863.636	14366
863.768	14461
863.9	14324
864.032	14202
864.164	14393
864.296	14393
864.428	14503
864.559	14613
864.691	14488
864.823	14385
864.954	14450
865.086	14336
865.217	14446
865.349	14286
865.48	14377
865.612	14427
865.743	14442
865.875	14400
866.006	14393
866.137	14484
866.269	14370
866.4	14351
866.531	14389
866.662	14332
866.793	14370
866.924	14385
867.055	14328
867.186	14259
867.317	14366
867.448	14259
867.579	14286
867.71	14324
867.841	14301
867.972	14423
868.103	14336
868.233	14396
868.364	14412
868.495	14507
868.625	14613
868.756	14667
868.886	14625
869.017	14648
869.147	14727
869.278	14686
869.408	14670
869.539	14697
869.669	14648
869.799	14701
869.929	14769
870.06	14708
870.19	14963
870.32	14963
870.45	14971
870.58	14971
870.71	15169
870.84	15112
870.97	15043
871.1	14971
871.23	15222
871.36	15154
871.489	15123
871.619	15241
871.749	15245
871.879	15344
872.008	15272
872.138	15252
872.267	15241
872.397	15013
872.526	15070
872.656	15058
872.785	15017
872.915	15203
873.044	15268
873.173	15256
873.303	15336
873.432	15321
873.561	15344
873.69	15359
873.819	15233
873.948	15416
874.077	15332
874.206	15256
874.335	15329
874.464	15466
874.593	15580
874.722	15492
874.851	15652
874.979	15618
875.108	15644
875.237	15462
875.365	15507
875.494	15526
875.623	15603
875.751	15473
875.88	15572
876.008	15816
876.136	15720
876.265	16021
876.393	16162
876.521	16071
876.65	15987
876.778	15926
876.906	16006
877.034	15930
877.162	15911
877.29	15892
877.418	16036
877.546	16021
877.674	15892
877.802	15926
877.93	16044
878.058	15899
878.185	15876
878.313	15983
878.441	15998
878.568	15762
878.696	15991
878.824	16002
878.951	16063
879.079	16268
879.206	16238
879.333	16181
879.461	16135
879.588	16226
879.715	16291
879.842	16424
879.97	16162
880.097	15998
880.224	15937
880.351	15945
880.478	15876
880.605	15907
880.732	15880
880.859	16097
880.986	15869
881.112	15907
881.239	15755
881.366	15644
881.493	15538
881.619	15511
881.746	15595
881.872	15576
881.999	15549
882.125	15561
882.252	15595
882.378	15393
882.505	15660
882.631	15492
882.757	15351
882.883	15317
883.01	15370
883.136	15283
883.262	15226
883.388	15218
883.514	15386
883.64	15420
883.766	15252
883.892	15199
884.018	15188
884.143	15317
884.269	15515
884.395	15028
884.52	15039
884.646	15142
884.772	15020
884.897	14998
885.023	14952
885.148	15150
885.274	15237
885.399	15195
885.524	14979
885.65	14986
885.775	15146
885.9	15032
886.025	15180
886.15	15142
886.275	14944
886.4	14925
886.525	14948
886.65	14891
886.775	14941
886.9	15192
887.025	15230
887.149	14998
887.274	14819
887.399	14849
887.523	14838
887.648	14804
887.773	14743
887.897	14910
888.021	14948
888.146	14845
888.27	14899
888.395	14990
888.519	14826
888.643	14971
888.767	14910
888.891	14838
889.015	14758
889.139	14693
889.263	14571
889.387	14857
889.511	14902
889.635	14872
889.759	14667
889.883	14590
890.006	14716
890.13	14758
890.254	14632
890.377	14678
890.501	14537
890.624	14480
890.748	14533
890.871	14423
890.995	14328
891.118	14313
891.241	14461
891.364	14404
891.488	14446
891.611	14434
891.734	14298
891.857	14518
891.98	14396
892.103	14423
892.226	14412
892.349	14370
892.471	14263
892.594	14396
892.717	14423
892.839	14305
892.962	14400
893.085	14412
893.207	14457
893.33	14206
893.452	14278
893.575	14400
893.697	14328
893.819	14533
893.941	14522
894.064	14564
894.186	14278
894.308	14332
894.43	14480
894.552	14667
894.674	14442
894.796	14381
894.918	14404
895.04	14366
895.161	14579
895.283	14522
895.405	14503
895.526	14530
895.648	14530
895.769	14549
895.891	14537
896.012	14514
896.134	14568
896.255	14579
896.376	14427
896.498	14552
896.619	14651
896.74	14552
896.861	14610
896.982	14914
897.103	15043
897.224	14796
897.345	14750
897.466	14762
897.587	14857
897.708	14933
897.828	14830
897.949	14785
898.07	14644
898.19	14781
898.311	14823
898.431	14842
898.552	14750
898.672	14975
898.792	14925
898.913	14933
899.033	14857
899.153	14811
899.273	14705
899.393	14807
899.513	14804
899.633	14701
899.753	14762
899.873	14731
899.993	14811
900.113	14739
900.232	14804
900.352	14758
900.472	14575
900.591	14640
900.711	14659
900.83	14629
900.95	14693
901.069	14632
901.189	14514
901.308	14404
901.427	14145
901.546	14286
901.665	14305
901.784	14320
901.904	14214
902.023	14062
902.141	13795
902.26	13845
902.379	14024
902.498	13769
902.617	13822
902.735	13833
902.854	13833
902.973	13837
903.091	13556
903.21	13563
903.328	13586
903.446	13438
903.565	13396
903.683	13544
903.801	13339
903.919	13388
904.038	13445
904.156	13206
904.274	13324
904.392	13175
904.51	13225
904.627	13198
904.745	13213
904.863	13198
904.981	12962
905.098	12897
905.216	12951
905.334	12973
905.451	12939
905.569	12817
905.686	12871
905.803	12856
905.921	12669
906.038	12859
906.155	12757
906.272	12696
906.389	12646
906.506	12498
906.623	12486
906.74	12502
906.857	12429
906.974	12452
907.091	12513
907.208	12623
907.324	12498
907.441	12399
907.557	12186
907.674	12270
907.79	12155
907.907	12281
908.023	12220
908.139	12213
908.256	12155
908.372	12159
908.488	12087
908.604	12106
908.72	12015
908.836	11984
908.952	12022
909.068	12034
909.184	12079
909.3	11999
909.415	11999
909.531	12003
909.647	11832
909.762	11771
909.878	11676
909.993	11783
910.108	11767
910.224	11760
910.339	11783
910.454	11665
910.57	11630
910.685	11566
910.8	11802
910.915	11821
911.03	11570
911.145	11512
911.259	11417
911.374	11474
911.489	11372
911.604	11273
911.718	11204
911.833	11307
911.947	11086
912.062	10968
912.176	11193
912.291	11288
912.405	11166
912.519	11414
912.633	11376
912.748	11330
912.862	11071
912.976	11010
913.09	10957
913.204	11071
913.318	11121
913.431	11151
913.545	11189
913.659	11159
913.772	11128
913.886	10919
914	10911
914.113	11045
914.226	11064
914.34	10968
914.453	10904
914.566	10987
914.68	10949
914.793	10930
914.906	10702
915.019	10729
915.132	10603
915.245	10714
915.358	10660
915.47	10710
915.583	10740
915.696	10694
915.809	10881
915.921	10923
916.034	10714
916.146	10660
916.259	10672
916.371	10820
916.483	10721
916.595	10565
916.708	10664
916.82	10660
916.932	10687
917.044	10565
917.156	10588
917.268	10504
917.38	10531
917.491	10500
917.603	10580
917.715	10675
917.826	10626
917.938	10542
918.049	10428
918.161	10558
918.272	10615
918.384	10611
918.495	10592
918.606	10432
918.717	10382
918.828	10394
918.939	10436
919.05	10341
919.161	10432
919.272	10246
919.383	10261
919.494	10485
919.604	10653
919.715	10466
919.826	10379
919.936	10421
920.047	10626
920.157	10478
920.267	10687
920.378	10516
920.488	10504
920.598	10668
920.708	10816
920.818	10603
920.928	10637
921.038	10885
921.148	10733
921.258	10481
921.368	10341
921.477	10322
921.587	10284
921.697	10185
921.806	10329
921.916	10227
922.025	9994
922.134	9968
922.244	9972
922.353	9968
922.462	9899
922.571	9816
922.68	9671
922.789	9660
922.898	9736
923.007	9641
923.116	9732
923.224	9720
923.333	9682
923.442	9526
923.55	9610
923.659	9614
923.767	9637
923.876	9591
923.984	9637
924.092	9477
924.201	9523
924.309	9603
924.417	9526
924.525	9523
924.633	9477
924.741	10440
924.849	9336
924.956	9515
925.064	9439
925.172	9264
925.279	9291
925.387	9329
925.494	9283
925.602	9496
925.709	9401
925.816	9336
925.924	9283
926.031	9454
926.138	9359
926.245	9397
926.352	9233
926.459	9363
926.566	9416
926.673	9230
926.779	9233
926.886	9116
926.993	9009
927.099	9024
927.206	8929
927.312	8986
927.419	9039
927.525	9074
927.631	9077
927.737	8899
927.843	8960
927.95	8834
928.056	8929
928.162	8982
928.267	9024
928.373	9603
928.479	9104
928.585	8868
928.69	8895
928.796	8948
928.901	8857
929.007	8678
929.112	8861
929.218	8815
929.323	8830
929.428	8743
929.533	8929
929.638	8682
929.743	8701
929.848	8849
929.953	8697
930.058	8663
930.163	8522
930.267	8507
930.372	8648
930.477	8556
930.581	8754
930.685	8571
930.79	8503
930.894	8461
930.998	8484
931.103	8632
931.207	8237
931.311	8202
931.415	8119
931.519	7967
931.623	7970
