Data from test_V78500241_728.txt Node
Date: Fri Mar 25 14:38:47 CST 2022
User: usil
Spectrometer: V785-0024
Trigger mode: 0
Integration Time (sec): 4.000000E-1
Scans to average: 1
Nonlinearity correction enabled: false
Boxcar width: 0
Storing dark spectrum: false
XAxis mode: Wavelengths
Number of Pixels in Spectrum: 1024
>>>>>Begin Spectral Data<<<<<
801.071	27515
801.214	27431
801.356	27272
801.499	27146
801.641	26986
801.783	26754
801.926	26811
802.068	26830
802.211	26697
802.353	26453
802.496	26381
802.638	26469
802.78	26431
802.923	26469
803.065	26282
803.208	26351
803.35	26461
803.492	26317
803.635	26552
803.777	26530
803.919	26503
804.061	26743
804.204	26606
804.346	26564
804.488	26446
804.63	26533
804.773	26480
804.915	26667
805.057	26845
805.199	26925
805.341	27020
805.483	27058
805.626	27146
805.768	27150
805.91	27214
806.052	27515
806.194	27393
806.336	27850
806.478	27888
806.62	28101
806.762	28363
806.904	28759
807.046	29353
807.188	29600
807.33	30060
807.472	30753
807.614	31263
807.756	32275
807.898	33370
808.04	35075
808.182	37202
808.324	39975
808.465	42947
808.607	46143
808.749	49304
808.891	51271
809.033	51435
809.174	49769
809.316	46793
809.458	43221
809.6	39492
809.741	36734
809.883	34440
810.025	32937
810.166	31810
810.308	30871
810.45	30057
810.591	29638
810.733	29064
810.875	28668
811.016	28489
811.158	28150
811.299	28169
811.441	27892
811.582	27987
811.724	27679
811.865	27507
812.007	27336
812.148	27340
812.29	27252
812.431	27336
812.573	27416
812.714	27447
812.855	27431
812.997	27435
813.138	27610
813.279	27431
813.421	27173
813.562	27294
813.703	27036
813.845	26739
813.986	26457
814.127	26427
814.268	26119
814.41	26214
814.551	25921
814.692	26153
814.833	26016
814.974	25837
815.115	26062
815.256	25913
815.397	25780
815.539	25731
815.68	25567
815.821	25658
815.962	25643
816.103	25609
816.244	25460
816.385	25426
816.526	25285
816.666	25088
816.807	24947
816.948	25015
817.089	25069
817.23	24973
817.371	24871
817.512	24738
817.653	24700
817.793	24760
817.934	24867
818.075	24757
818.216	24947
818.356	24837
818.497	24669
818.638	24460
818.778	24502
818.919	24426
819.06	24509
819.2	24582
819.341	24677
819.481	24681
819.622	24928
819.762	24920
819.903	24817
820.043	24806
820.184	24757
820.324	24772
820.465	24707
820.605	24669
820.746	24620
820.886	24582
821.026	24551
821.167	24471
821.307	24703
821.447	24540
821.588	24365
821.728	24281
821.868	24121
822.008	23882
822.149	23889
822.289	23859
822.429	23642
822.569	23543
822.709	23611
822.849	23258
822.99	23360
823.13	23299
823.27	23337
823.41	23056
823.55	23033
823.69	23022
823.83	23033
823.97	23155
824.11	22793
824.25	22824
824.389	22801
824.529	22824
824.669	22809
824.809	22980
824.949	22915
825.089	22908
825.228	22900
825.368	22710
825.508	22588
825.648	22660
825.787	22698
825.927	22637
826.067	22626
826.206	22622
826.346	22637
826.485	22645
826.625	22660
826.765	22736
826.904	22687
827.044	22284
827.183	22299
827.323	22238
827.462	22386
827.601	22405
827.741	22386
827.88	22402
828.02	22185
828.159	22333
828.298	22261
828.437	22280
828.577	22207
828.716	22375
828.855	22055
828.994	22109
829.134	21979
829.273	21991
829.412	21968
829.551	21911
829.69	21979
829.829	21991
829.968	21994
830.107	21994
830.246	22040
830.385	21895
830.524	21964
830.663	21812
830.802	21534
830.941	21568
831.08	21633
831.219	21648
831.357	21534
831.496	21720
831.635	21564
831.774	21473
831.913	21473
832.051	21504
832.19	21458
832.329	21439
832.467	21439
832.606	21443
832.744	21466
832.883	21428
833.022	21496
833.16	21641
833.299	21698
833.437	21865
833.576	22154
833.714	22207
833.852	22409
833.991	22417
834.129	22607
834.267	22592
834.406	22470
834.544	22447
834.682	22421
834.821	22166
834.959	22295
835.097	21937
835.235	21911
835.373	21808
835.511	21656
835.65	21405
835.788	21264
835.926	21401
836.064	21119
836.202	21024
836.34	21264
836.478	21192
836.615	21077
836.753	21207
836.891	21211
837.029	21123
837.167	21161
837.305	20921
837.443	20971
837.58	20845
837.718	21032
837.856	20902
837.993	20876
838.131	20800
838.269	20754
838.406	20746
838.544	20724
838.681	20556
838.819	20568
838.956	20336
839.094	20290
839.231	20400
839.369	20503
839.506	20648
839.643	20602
839.781	20290
839.918	20290
840.055	20267
840.193	20290
840.33	20263
840.467	20385
840.604	20351
840.742	20461
840.879	20191
841.016	20214
841.153	20092
841.29	20476
841.427	20221
841.564	20393
841.701	20225
841.838	20339
841.975	20191
842.112	20130
842.249	20210
842.385	20088
842.522	20244
842.659	20183
842.796	20202
842.933	20130
843.069	20126
843.206	20126
843.343	20332
843.479	20267
843.616	20256
843.752	20092
843.889	20259
844.025	20351
844.162	20248
844.298	20423
844.435	20609
844.571	20750
844.708	21047
844.844	21416
844.98	22128
845.117	22611
845.253	23486
845.389	25563
845.525	29516
845.661	35478
845.798	42677
845.934	47950
846.07	49829
846.206	48376
846.342	43308
846.478	36323
846.614	30053
846.75	26161
846.886	23726
847.022	22394
847.158	21462
847.294	20910
847.429	20533
847.565	20168
847.701	20259
847.837	19655
847.972	19563
848.108	19533
848.244	19457
848.379	19263
848.515	19225
848.65	19213
848.786	19103
848.921	19107
849.057	19088
849.192	19137
849.328	19156
849.463	19072
849.598	18837
849.734	18913
849.869	18993
850.004	18772
850.14	18776
850.275	18639
850.41	18612
850.545	18798
850.68	18574
850.815	18814
850.95	18688
851.085	18935
851.22	18776
851.355	18779
851.49	18673
851.625	18776
851.76	18658
851.895	18620
852.03	18681
852.165	18650
852.299	18821
852.434	18875
852.569	18821
852.703	18878
852.838	18833
852.973	18970
853.107	18928
853.242	18806
853.376	18768
853.511	18734
853.645	18779
853.78	19000
853.914	18829
854.048	18837
854.183	18886
854.317	19118
854.451	19141
854.585	18928
854.72	18932
854.854	19012
854.988	18814
855.122	18878
855.256	18601
855.39	18677
855.524	18867
855.658	18829
855.792	18726
855.926	18692
856.06	18635
856.194	18707
856.327	18646
856.461	18570
856.595	18353
856.729	18540
856.862	18627
856.996	18601
857.13	18623
857.263	18673
857.397	18623
857.53	18551
857.664	18547
857.797	18574
857.931	18570
858.064	18452
858.197	18589
858.331	18380
858.464	18327
858.597	18369
858.731	18338
858.864	18319
858.997	18498
859.13	18353
859.263	18456
859.396	18528
859.529	18422
859.662	18292
859.795	18330
859.928	18395
860.061	18509
860.194	18418
860.327	18372
860.46	18403
860.592	18422
860.725	18479
860.858	18426
860.99	18315
861.123	18201
861.256	18247
861.388	18327
861.521	19019
861.653	18258
861.786	18159
861.918	18182
862.05	18224
862.183	18315
862.315	18391
862.447	18399
862.58	18292
862.712	18155
862.844	17961
862.976	18102
863.108	18064
863.24	18456
863.372	17965
863.504	17973
863.636	18083
863.768	18155
863.9	18091
864.032	17939
864.164	18015
864.296	18003
864.428	18144
864.559	18049
864.691	18053
864.823	18068
864.954	17965
865.086	17950
865.217	17961
865.349	17904
865.48	17961
865.612	17920
865.743	17996
865.875	17992
866.006	17855
866.137	17984
866.269	17946
866.4	17954
866.531	17939
866.662	17817
866.793	17809
866.924	17904
867.055	17931
867.186	17904
867.317	17939
867.448	17927
867.579	17935
867.71	17817
867.841	17878
867.972	17889
868.103	17977
868.233	17863
868.364	17824
868.495	17965
868.625	18144
868.756	18273
868.886	17935
869.017	18194
869.147	18334
869.278	18365
869.408	18190
869.539	18125
869.669	18266
869.799	18167
869.929	18251
870.06	18289
870.19	18555
870.32	18509
870.45	18551
870.58	18601
870.71	18585
870.84	18707
870.97	18631
871.1	18658
871.23	18848
871.36	18837
871.489	18734
871.619	18840
871.749	18837
871.879	19042
872.008	18996
872.138	18894
872.267	18924
872.397	18859
872.526	18768
872.656	18852
872.785	18821
872.915	19065
873.044	19023
873.173	18943
873.303	19213
873.432	19202
873.561	19266
873.69	19107
873.819	19221
873.948	19297
874.077	19278
874.206	19209
874.335	19358
874.464	19457
874.593	19635
874.722	19597
874.851	19658
874.979	19700
875.108	19746
875.237	19662
875.365	19731
875.494	19784
875.623	20039
875.751	19940
875.88	19967
876.008	20202
876.136	20202
876.265	20495
876.393	20632
876.521	20640
876.65	20750
876.778	20705
876.906	20781
877.034	20918
877.162	20849
877.29	20979
877.418	21138
877.546	21127
877.674	21348
877.802	21363
877.93	21606
878.058	21572
878.185	21880
878.313	22303
878.441	22535
878.568	22691
878.696	23493
878.824	24388
878.951	25571
879.079	27401
879.206	29254
879.333	31430
879.461	33378
879.588	34314
879.715	34219
879.842	33427
879.97	31537
880.097	29223
880.224	27496
880.351	26294
880.478	25369
880.605	24700
880.732	24418
880.859	24422
880.986	23882
881.112	23893
881.239	23657
881.366	23551
881.493	23577
881.619	23433
881.746	23581
881.872	23589
881.999	23455
882.125	23509
882.252	23600
882.378	23649
882.505	23786
882.631	23623
882.757	23566
882.883	23592
883.01	23452
883.136	23448
883.262	23258
883.388	23307
883.514	23402
883.64	23391
883.766	23376
883.892	23284
884.018	23258
884.143	23444
884.269	23391
884.395	23200
884.52	23258
884.646	23292
884.772	22991
884.897	23060
885.023	23353
885.148	23193
885.274	23269
885.399	23140
885.524	22892
885.65	22866
885.775	22729
885.9	22596
886.025	22561
886.15	22287
886.275	22063
886.4	21945
886.525	21861
886.65	21751
886.775	21511
886.9	21504
887.025	21595
887.149	21237
887.274	21047
887.399	20724
887.523	20785
887.648	20598
887.773	20465
887.897	20602
888.021	20400
888.146	20252
888.27	20469
888.395	20358
888.519	20161
888.643	20278
888.767	20187
888.891	19944
889.015	19898
889.139	19913
889.263	19750
889.387	19841
889.511	19841
889.635	19696
889.759	19620
889.883	19578
890.006	19552
890.13	19605
890.254	19411
890.377	19350
890.501	19213
890.624	19152
890.748	19152
890.871	18985
890.995	18962
891.118	18840
891.241	18882
891.364	18821
891.488	18989
891.611	18837
891.734	18795
891.857	18810
891.98	18806
892.103	18749
892.226	18707
892.349	18711
892.471	18498
892.594	18616
892.717	18475
892.839	18494
892.962	18464
893.085	18426
893.207	18486
893.33	18254
893.452	18270
893.575	18304
893.697	18327
893.819	18384
893.941	18464
894.064	18315
894.186	18133
894.308	18079
894.43	18220
894.552	18243
894.674	18285
894.796	18064
894.918	18102
895.04	18053
895.161	18064
895.283	18053
895.405	17912
895.526	18102
895.648	17992
895.769	17958
895.891	17908
896.012	18019
896.134	17961
896.255	17904
896.376	17775
896.498	17961
896.619	17965
896.74	17969
896.861	17927
896.982	18144
897.103	18380
897.224	18102
897.345	18106
897.466	18091
897.587	18091
897.708	18152
897.828	18091
897.949	17988
898.07	17908
898.19	17988
898.311	18209
898.431	17973
898.552	18152
898.672	18209
898.792	18140
898.913	18277
899.033	17935
899.153	17840
899.273	17802
899.393	17916
899.513	17870
899.633	17893
899.753	17908
899.873	17836
899.993	17821
900.113	17783
900.232	17904
900.352	17824
900.472	17687
900.591	17573
900.711	17707
900.83	17566
900.95	17710
901.069	17741
901.189	17467
901.308	17315
901.427	17303
901.546	17299
901.665	17288
901.784	17227
901.904	17102
902.023	17086
902.141	16782
902.26	16698
902.379	16793
902.498	16725
902.617	16691
902.735	16596
902.854	16561
902.973	16519
903.091	16413
903.21	16276
903.328	16363
903.446	16093
903.565	16196
903.683	16143
903.801	16036
903.919	16025
904.038	15975
904.156	15903
904.274	15918
904.392	15884
904.51	15770
904.627	15865
904.745	15846
904.863	15968
904.981	15625
905.098	15450
905.216	15481
905.334	15564
905.451	15488
905.569	15431
905.686	15606
905.803	15420
905.921	15302
906.038	15321
906.155	15370
906.272	15138
906.389	15100
906.506	15047
906.623	15032
906.74	15062
906.857	14925
906.974	14876
907.091	15039
907.208	15180
907.324	15108
907.441	14883
907.557	14800
907.674	14720
907.79	14701
907.907	14739
908.023	14708
908.139	14785
908.256	14644
908.372	14636
908.488	14587
908.604	14469
908.72	14511
908.836	14396
908.952	14469
909.068	14415
909.184	14560
909.3	14400
909.415	14514
909.531	14454
909.647	14240
909.762	14183
909.878	14172
909.993	14119
910.108	14126
910.224	14069
910.339	14210
910.454	14043
910.57	13959
910.685	13997
910.8	14115
910.915	14195
911.03	14054
911.145	13887
911.259	13795
911.374	13784
911.489	13750
911.604	13616
911.718	13510
911.833	13544
911.947	13483
912.062	13403
912.176	13487
912.291	13559
912.405	13639
912.519	13700
912.633	13788
912.748	13529
912.862	13540
912.976	13529
913.09	13270
913.204	13388
913.318	13384
913.431	13544
913.545	13521
913.659	13537
913.772	13362
913.886	13232
914	13213
914.113	13304
914.226	13316
914.34	13308
914.453	13137
914.566	13331
914.68	13202
914.793	13187
914.906	13012
915.019	12913
915.132	12958
915.245	12928
915.358	12901
915.47	12954
915.583	13031
915.696	12970
915.809	13034
915.921	13076
916.034	12905
916.146	12985
916.259	12981
916.371	12958
916.483	12958
916.595	12863
916.708	12882
916.82	12878
916.932	12882
917.044	12905
917.156	12806
917.268	12798
917.38	12688
917.491	12631
917.603	12734
917.715	12779
917.826	12863
917.938	12696
918.049	12498
918.161	12635
918.272	12825
918.384	12722
918.495	12589
918.606	12502
918.717	12433
918.828	12498
918.939	12536
919.05	12353
919.161	12437
919.272	12319
919.383	12410
919.494	12521
919.604	12703
919.715	12448
919.826	12445
919.936	12410
920.047	12540
920.157	12429
920.267	12585
920.378	12483
920.488	12353
920.598	12620
920.708	12730
920.818	12566
920.928	12536
921.038	12627
921.148	12646
921.258	12460
921.368	12353
921.477	12285
921.587	12076
921.697	12095
921.806	12205
921.916	12057
922.025	11939
922.134	11965
922.244	11923
922.353	11866
922.462	11695
922.571	11623
922.68	11512
922.789	11448
922.898	11486
923.007	11429
923.116	11573
923.224	11482
923.333	11497
923.442	11429
923.55	11395
923.659	11433
923.767	11425
923.876	11387
923.984	11436
924.092	11318
924.201	11364
924.309	11303
924.417	11406
924.525	11277
924.633	11311
924.741	12175
924.849	11124
924.956	11204
925.064	11060
925.172	10968
925.279	10976
925.387	11060
925.494	11060
925.602	11178
925.709	11208
925.816	10927
925.924	11048
926.031	11140
926.138	11060
926.245	10980
926.352	10961
926.459	11079
926.566	11052
926.673	10934
926.779	10809
926.886	10858
926.993	10710
927.099	10729
927.206	10660
927.312	10645
927.419	10710
927.525	10694
927.631	10721
927.737	10569
927.843	10504
927.95	10436
928.056	10550
928.162	10603
928.267	10618
928.373	11220
928.479	10592
928.585	10405
928.69	10493
928.796	10542
928.901	10451
929.007	10299
929.112	10402
929.218	10394
929.323	10253
929.428	10249
929.533	10474
929.638	10325
929.743	10325
929.848	10352
929.953	10341
930.058	10284
930.163	10082
930.267	10082
930.372	10154
930.477	10086
930.581	10223
930.685	10101
930.79	9960
930.894	10017
930.998	9937
931.103	10128
931.207	9808
931.311	9652
931.415	9515
931.519	9382
931.623	9405
