Data from test_V78500241_987.txt Node
Date: Fri Mar 25 14:40:35 CST 2022
User: usil
Spectrometer: V785-0024
Trigger mode: 0
Integration Time (sec): 4.000000E-1
Scans to average: 1
Nonlinearity correction enabled: false
Boxcar width: 0
Storing dark spectrum: false
XAxis mode: Wavelengths
Number of Pixels in Spectrum: 1024
>>>>>Begin Spectral Data<<<<<
801.071	23277
801.214	23155
801.356	22949
801.499	22755
801.641	22645
801.783	22729
801.926	22561
802.068	22592
802.211	22451
802.353	22306
802.496	22196
802.638	22059
802.78	22112
802.923	22040
803.065	21991
803.208	21972
803.35	21945
803.492	21991
803.635	22128
803.777	21934
803.919	22051
804.061	22341
804.204	22109
804.346	22002
804.488	21861
804.63	21854
804.773	21926
804.915	21876
805.057	22036
805.199	21869
805.341	21884
805.483	21960
805.626	21876
805.768	21823
805.91	21903
806.052	21994
806.194	21876
806.336	22070
806.478	22074
806.62	21979
806.762	22029
806.904	22215
807.046	22421
807.188	22325
807.33	22443
807.472	22432
807.614	22519
807.756	22500
807.898	22459
808.04	22584
808.182	22527
808.324	22869
808.465	23022
808.607	23417
808.749	23691
808.891	23874
809.033	23988
809.174	23741
809.316	23387
809.458	23311
809.6	23014
809.741	22965
809.883	22812
810.025	22885
810.166	22767
810.308	22672
810.45	22653
810.591	22485
810.733	22512
810.875	22306
811.016	22120
811.158	22051
811.299	22348
811.441	22287
811.582	22322
811.724	22215
811.865	22086
812.007	22162
812.148	22063
812.29	22226
812.431	22360
812.573	22371
812.714	22500
812.855	22504
812.997	22675
813.138	22752
813.279	22824
813.421	22626
813.562	22546
813.703	22413
813.845	22341
813.986	22010
814.127	21823
814.268	21789
814.41	21660
814.551	21679
814.692	21663
814.833	21641
814.974	21545
815.115	21572
815.256	21580
815.397	21542
815.539	21367
815.68	21439
815.821	21268
815.962	21447
816.103	21378
816.244	21211
816.385	21119
816.526	21093
816.666	20956
816.807	20853
816.948	20979
817.089	20933
817.23	20925
817.371	20811
817.512	20746
817.653	20781
817.793	20697
817.934	20807
818.075	20682
818.216	20857
818.356	20868
818.497	20568
818.638	20518
818.778	20446
818.919	20530
819.06	20446
819.2	20552
819.341	20594
819.481	20678
819.622	20830
819.762	20929
819.903	20929
820.043	20899
820.184	20754
820.324	20811
820.465	20769
820.605	20777
820.746	20712
820.886	20613
821.026	20731
821.167	20636
821.307	20811
821.447	20537
821.588	20575
821.728	20358
821.868	20294
822.008	20191
822.149	20126
822.289	20149
822.429	19932
822.569	19860
822.709	19849
822.849	19651
822.99	19643
823.13	19559
823.27	19609
823.41	19400
823.55	19312
823.69	19445
823.83	19327
823.97	19270
824.11	19232
824.25	19263
824.389	19225
824.529	19335
824.669	19240
824.809	19278
824.949	19236
825.089	19099
825.228	19324
825.368	19034
825.508	19034
825.648	18920
825.787	18981
825.927	19031
826.067	18901
826.206	18909
826.346	19038
826.485	19069
826.625	18939
826.765	19080
826.904	18943
827.044	18856
827.183	18734
827.323	18646
827.462	18745
827.601	18715
827.741	18681
827.88	18635
828.02	18479
828.159	18620
828.298	18688
828.437	18688
828.577	18669
828.716	18863
828.855	18627
828.994	18429
829.134	18426
829.273	18414
829.412	18304
829.551	18407
829.69	18540
829.829	18452
829.968	18521
830.107	18479
830.246	18460
830.385	18327
830.524	18311
830.663	18353
830.802	18136
830.941	18045
831.08	17874
831.219	18106
831.357	18087
831.496	18232
831.635	18011
831.774	17893
831.913	17920
832.051	17695
832.19	17889
832.329	17859
832.467	17760
832.606	17703
832.744	17779
832.883	17775
833.022	17741
833.16	17714
833.299	17802
833.437	17874
833.576	17908
833.714	17813
833.852	17809
833.991	17935
834.129	17813
834.267	17790
834.406	17756
834.544	17912
834.682	17832
834.821	17714
834.959	17946
835.097	17775
835.235	17897
835.373	17874
835.511	17866
835.65	17653
835.788	17566
835.926	17425
836.064	17459
836.202	17433
836.34	17672
836.478	17745
836.615	17707
836.753	17687
836.891	17668
837.029	17627
837.167	17604
837.305	17490
837.443	17592
837.58	17440
837.718	17520
837.856	17562
837.993	17581
838.131	17543
838.269	17395
838.406	17459
838.544	17410
838.681	17189
838.819	17086
838.956	17117
839.094	16892
839.231	17124
839.369	17193
839.506	17360
839.643	17360
839.781	17037
839.918	17006
840.055	17003
840.193	17025
840.33	16991
840.467	16953
840.604	17033
840.742	17296
840.879	16812
841.016	16904
841.153	16873
841.29	17128
841.427	16984
841.564	17056
841.701	16972
841.838	16908
841.975	16774
842.112	16972
842.249	16805
842.385	16763
842.522	16942
842.659	16767
842.796	16767
842.933	16839
843.069	16725
843.206	16702
843.343	16892
843.479	16828
843.616	16748
843.752	16672
843.889	16679
844.025	16729
844.162	16466
844.298	16698
844.435	16565
844.571	16668
844.708	16668
844.844	16862
844.98	16740
845.117	16805
845.253	16691
845.389	16675
845.525	17048
845.661	17292
845.798	17634
845.934	18121
846.07	18110
846.206	18079
846.342	17843
846.478	17406
846.614	16885
846.75	16615
846.886	16447
847.022	16371
847.158	16230
847.294	16238
847.429	16207
847.565	16181
847.701	16363
847.837	15972
847.972	15819
848.108	15926
848.244	16002
848.379	15778
848.515	15759
848.65	15774
848.786	15785
848.921	15717
849.057	15880
849.192	15895
849.328	15766
849.463	15770
849.598	15625
849.734	15675
849.869	15622
850.004	15534
850.14	15614
850.275	15447
850.41	15405
850.545	15363
850.68	15485
850.815	15462
850.95	15504
851.085	15724
851.22	15568
851.355	15466
851.49	15435
851.625	15408
851.76	15412
851.895	15363
852.03	15382
852.165	15401
852.299	15591
852.434	15549
852.569	15568
852.703	15637
852.838	15667
852.973	15682
853.107	15671
853.242	15439
853.376	15336
853.511	15348
853.645	15302
853.78	15458
853.914	15466
854.048	15298
854.183	15405
854.317	15332
854.451	15580
854.585	15355
854.72	15294
854.854	15477
854.988	15294
855.122	15313
855.256	15237
855.39	15344
855.524	15408
855.658	15424
855.792	15283
855.926	15374
856.06	15485
856.194	15462
856.327	15393
856.461	15313
856.595	15237
856.729	15306
856.862	15412
856.996	15420
857.13	15382
857.263	15424
857.397	15447
857.53	15420
857.664	15393
857.797	15477
857.931	15477
858.064	15416
858.197	15412
858.331	15367
858.464	15199
858.597	15188
858.731	15336
858.864	15275
858.997	15317
859.13	15344
859.263	15416
859.396	15443
859.529	15355
859.662	15241
859.795	15233
859.928	15283
860.061	15519
860.194	15500
860.327	15363
860.46	15283
860.592	15416
860.725	15500
860.858	15485
860.99	15287
861.123	15340
861.256	15416
861.388	15310
861.521	15873
861.653	15233
861.786	15146
861.918	15226
862.05	15226
862.183	15169
862.315	15313
862.447	15321
862.58	15275
862.712	15097
862.844	15085
862.976	15157
863.108	15199
863.24	15568
863.372	15066
863.504	14941
863.636	15028
863.768	15119
863.9	15127
864.032	15036
864.164	15070
864.296	15135
864.428	15195
864.559	15127
864.691	15264
864.823	15173
864.954	15066
865.086	15119
865.217	15135
865.349	14937
865.48	15089
865.612	15051
865.743	15169
865.875	15116
866.006	15009
866.137	15104
866.269	15093
866.4	15020
866.531	14998
866.662	15013
866.793	15062
866.924	15074
867.055	15085
867.186	15020
867.317	15024
867.448	15043
867.579	15028
867.71	14963
867.841	14971
867.972	15097
868.103	15104
868.233	15047
868.364	15100
868.495	15119
868.625	15214
868.756	15359
868.886	15184
869.017	15389
869.147	15393
869.278	15450
869.408	15264
869.539	15310
869.669	15420
869.799	15272
869.929	15351
870.06	15447
870.19	15542
870.32	15603
870.45	15660
870.58	15770
870.71	15800
870.84	15797
870.97	15743
871.1	15682
871.23	15892
871.36	15816
871.489	15770
871.619	15785
871.749	15876
871.879	15869
872.008	16010
872.138	15907
872.267	15888
872.397	15739
872.526	15690
872.656	15717
872.785	15785
872.915	15975
873.044	15987
873.173	15873
873.303	15991
873.432	15911
873.561	16021
873.69	15987
873.819	16010
873.948	16021
874.077	15964
874.206	15873
874.335	16021
874.464	16097
874.593	16344
874.722	16276
874.851	16291
874.979	16280
875.108	16268
875.237	16299
875.365	16272
875.494	16207
875.623	16284
875.751	16242
875.88	16363
876.008	16386
876.136	16531
876.265	16694
876.393	16839
876.521	16778
876.65	16816
876.778	16710
876.906	16679
877.034	16653
877.162	16691
877.29	16660
877.418	16721
877.546	16706
877.674	16706
877.802	16717
877.93	16793
878.058	16755
878.185	16618
878.313	16801
878.441	16816
878.568	16755
878.696	16755
878.824	16946
878.951	17025
879.079	17277
879.206	17482
879.333	17471
879.461	17512
879.588	17710
879.715	17623
879.842	17756
879.97	17474
880.097	17056
880.224	16976
880.351	16934
880.478	16930
880.605	16911
880.732	16710
880.859	16934
880.986	16733
881.112	16752
881.239	16611
881.366	16504
881.493	16329
881.619	16405
881.746	16386
881.872	16386
881.999	16352
882.125	16341
882.252	16474
882.378	16360
882.505	16577
882.631	16314
882.757	16253
882.883	16257
883.01	16120
883.136	16211
883.262	16029
883.388	16150
883.514	16215
883.64	16291
883.766	16162
883.892	15975
884.018	16048
884.143	16200
884.269	16223
884.395	15945
884.52	15873
884.646	15873
884.772	15903
884.897	15838
885.023	15922
885.148	15964
885.274	16074
885.399	15937
885.524	15934
885.65	15838
885.775	15930
885.9	15732
886.025	15975
886.15	15854
886.275	15854
886.4	15778
886.525	15781
886.65	15732
886.775	15739
886.9	15994
887.025	16082
887.149	15930
887.274	15618
887.399	15595
887.523	15610
887.648	15542
887.773	15587
887.897	15713
888.021	15568
888.146	15564
888.27	15694
888.395	15694
888.519	15610
888.643	15690
888.767	15618
888.891	15500
889.015	15397
889.139	15431
889.263	15332
889.387	15523
889.511	15667
889.635	15542
889.759	15302
889.883	15389
890.006	15431
890.13	15458
890.254	15386
890.377	15272
890.501	15173
890.624	15260
890.748	15211
890.871	15188
890.995	14990
891.118	15001
891.241	15093
891.364	15089
891.488	15150
891.611	15077
891.734	15112
891.857	15222
891.98	15039
892.103	15089
892.226	15104
892.349	15024
892.471	14967
892.594	14979
892.717	14937
892.839	14967
892.962	14990
893.085	15089
893.207	14921
893.33	14956
893.452	14967
893.575	15055
893.697	15032
893.819	15195
893.941	15287
894.064	15192
894.186	14948
894.308	15055
894.43	15119
894.552	15226
894.674	15154
894.796	14990
894.918	15047
895.04	15017
895.161	15176
895.283	15165
895.405	15009
895.526	15074
895.648	15104
895.769	15169
895.891	15127
896.012	15154
896.134	15222
896.255	15097
896.376	15066
896.498	15241
896.619	15310
896.74	15222
896.861	15291
896.982	15500
897.103	15606
897.224	15420
897.345	15488
897.466	15245
897.587	15469
897.708	15667
897.828	15485
897.949	15321
898.07	15298
898.19	15370
898.311	15447
898.431	15496
898.552	15507
898.672	15530
898.792	15595
898.913	15572
899.033	15382
899.153	15348
899.273	15275
899.393	15367
899.513	15458
899.633	15294
899.753	15332
899.873	15294
899.993	15386
900.113	15302
900.232	15359
900.352	15405
900.472	15218
900.591	15184
900.711	15203
900.83	15169
900.95	15184
901.069	15389
901.189	15070
901.308	14998
901.427	14800
901.546	14887
901.665	14853
901.784	14891
901.904	14800
902.023	14610
902.141	14503
902.26	14480
902.379	14526
902.498	14412
902.617	14313
902.735	14473
902.854	14339
902.973	14412
903.091	14065
903.21	14046
903.328	14111
903.446	14058
903.565	13978
903.683	14001
903.801	13879
903.919	13883
904.038	13890
904.156	13780
904.274	13780
904.392	13719
904.51	13814
904.627	13791
904.745	13776
904.863	13765
904.981	13552
905.098	13411
905.216	13487
905.334	13434
905.451	13438
905.569	13377
905.686	13457
905.803	13460
905.921	13247
906.038	13388
906.155	13255
906.272	13187
906.389	13122
906.506	13015
906.623	12989
906.74	12954
906.857	12928
906.974	13034
907.091	13061
907.208	13114
907.324	12989
907.441	12897
907.557	12772
907.674	12684
907.79	12654
907.907	12681
908.023	12734
908.139	12703
908.256	12608
908.372	12673
908.488	12677
908.604	12559
908.72	12426
908.836	12506
908.952	12452
909.068	12429
909.184	12528
909.3	12433
909.415	12582
909.531	12601
909.647	12296
909.762	12266
909.878	12205
909.993	12289
910.108	12171
910.224	12235
910.339	12201
910.454	12091
910.57	12140
910.685	11999
910.8	12220
910.915	12254
911.03	12175
911.145	11927
911.259	11882
911.374	11897
911.489	11897
911.604	11794
911.718	11623
911.833	11714
911.947	11551
912.062	11551
912.176	11710
912.291	11699
912.405	11741
912.519	11714
912.633	11809
912.748	11748
912.862	11649
912.976	11551
913.09	11440
913.204	11570
913.318	11535
913.431	11684
913.545	11558
913.659	11638
913.772	11520
913.886	11471
914	11490
914.113	11547
914.226	11581
914.34	11444
914.453	11288
914.566	11463
914.68	11425
914.793	11337
914.906	11216
915.019	11029
915.132	11094
915.245	11178
915.358	11178
915.47	11181
915.583	11181
915.696	11223
915.809	11307
915.921	11242
916.034	11261
916.146	11113
916.259	11140
916.371	11166
916.483	11151
916.595	11121
916.708	11136
916.82	11098
916.932	11048
917.044	11056
917.156	10957
917.268	11006
917.38	11022
917.491	10919
917.603	11029
917.715	11045
917.826	11117
917.938	10976
918.049	10820
918.161	11033
918.272	11090
918.384	11143
918.495	11033
918.606	10854
918.717	10748
918.828	10866
918.939	10885
919.05	10755
919.161	10790
919.272	10611
919.383	10714
919.494	10927
919.604	11022
919.715	10786
919.826	10729
919.936	10710
920.047	10923
920.157	10873
920.267	11025
920.378	10930
920.488	10835
920.598	10942
920.708	11162
920.818	10991
920.928	11033
921.038	11220
921.148	11136
921.258	10911
921.368	10820
921.477	10679
921.587	10611
921.697	10561
921.806	10752
921.916	10603
922.025	10360
922.134	10344
922.244	10333
922.353	10375
922.462	10249
922.571	10207
922.68	10044
922.789	10063
922.898	10090
923.007	10048
923.116	10086
923.224	10017
923.333	10025
923.442	9903
923.55	9934
923.659	9968
923.767	10074
923.876	9949
923.984	9994
924.092	9884
924.201	9926
924.309	9922
924.417	9884
924.525	9884
924.633	9854
924.741	10793
924.849	9656
924.956	9880
925.064	9671
925.172	9576
925.279	9679
925.387	9667
925.494	9641
925.602	9850
925.709	9686
925.816	9599
925.924	9690
926.031	9713
926.138	9637
926.245	9789
926.352	9667
926.459	9740
926.566	9781
926.673	9778
926.779	9561
926.886	9473
926.993	9435
927.099	9329
927.206	9389
927.312	9294
927.419	9412
927.525	9389
927.631	9386
927.737	9325
927.843	9294
927.95	9123
928.056	9237
928.162	9340
928.267	9260
928.373	9774
928.479	9355
928.585	9165
928.69	9340
928.796	9313
928.901	9100
929.007	9097
929.112	9173
929.218	9165
929.323	9150
929.428	9047
929.533	9253
929.638	8948
929.743	9043
929.848	9104
929.953	9058
930.058	9009
930.163	8834
930.267	8785
930.372	9005
930.477	8800
930.581	9066
930.685	8952
930.79	8682
930.894	8766
930.998	8762
931.103	8883
931.207	8549
931.311	8514
931.415	8374
931.519	8229
931.623	8275
