Data from test_V78500241_1791.txt Node
Date: Fri Mar 25 14:46:11 CST 2022
User: usil
Spectrometer: V785-0024
Trigger mode: 0
Integration Time (sec): 4.000000E-1
Scans to average: 1
Nonlinearity correction enabled: false
Boxcar width: 0
Storing dark spectrum: false
XAxis mode: Wavelengths
Number of Pixels in Spectrum: 1024
>>>>>Begin Spectral Data<<<<<
801.071	22154
801.214	21964
801.356	21876
801.499	21705
801.641	21599
801.783	21477
801.926	21538
802.068	21469
802.211	21416
802.353	21450
802.496	21066
802.638	21058
802.78	21062
802.923	20998
803.065	20864
803.208	20883
803.35	20910
803.492	21081
803.635	20963
803.777	20921
803.919	20853
804.061	21211
804.204	20990
804.346	20708
804.488	20739
804.63	20990
804.773	20743
804.915	20807
805.057	20807
805.199	20849
805.341	20887
805.483	20918
805.626	20960
805.768	20754
805.91	20746
806.052	20781
806.194	20651
806.336	20937
806.478	20765
806.62	20773
806.762	20777
806.904	20960
807.046	21169
807.188	21245
807.33	21260
807.472	21154
807.614	20967
807.756	21089
807.898	20960
808.04	20872
808.182	20811
808.324	20838
808.465	20895
808.607	21058
808.749	21165
808.891	21127
809.033	21344
809.174	21291
809.316	21203
809.458	21195
809.6	21039
809.741	21332
809.883	21351
810.025	21306
810.166	21359
810.308	21332
810.45	21401
810.591	21233
810.733	21211
810.875	20960
811.016	20853
811.158	20891
811.299	20967
811.441	21116
811.582	20982
811.724	21005
811.865	20925
812.007	20963
812.148	21013
812.29	20914
812.431	21009
812.573	21275
812.714	21363
812.855	21405
812.997	21625
813.138	21629
813.279	21393
813.421	21477
813.562	21405
813.703	21252
813.845	21028
813.986	20960
814.127	20644
814.268	20644
814.41	20564
814.551	20571
814.692	20545
814.833	20450
814.974	20408
815.115	20450
815.256	20237
815.397	20385
815.539	20324
815.68	20320
815.821	20149
815.962	20267
816.103	20210
816.244	20008
816.385	19993
816.526	19974
816.666	19849
816.807	19693
816.948	19795
817.089	19715
817.23	19788
817.371	19556
817.512	19624
817.653	19666
817.793	19514
817.934	19681
818.075	19590
818.216	19635
818.356	19521
818.497	19460
818.638	19297
818.778	19343
818.919	19240
819.06	19445
819.2	19384
819.341	19457
819.481	19559
819.622	19677
819.762	19822
819.903	19833
820.043	19548
820.184	19533
820.324	19590
820.465	19746
820.605	19632
820.746	19655
820.886	19476
821.026	19616
821.167	19548
821.307	19628
821.447	19677
821.588	19514
821.728	19255
821.868	19038
822.008	19023
822.149	19042
822.289	18981
822.429	18745
822.569	18734
822.709	18673
822.849	18528
822.99	18528
823.13	18441
823.27	18498
823.41	18213
823.55	18266
823.69	18445
823.83	18304
823.97	18235
824.11	18053
824.25	18041
824.389	18121
824.529	18030
824.669	18136
824.809	18254
824.949	18102
825.089	18228
825.228	18228
825.368	17912
825.508	17901
825.648	17946
825.787	17870
825.927	17954
826.067	17802
826.206	17695
826.346	17790
826.485	17927
826.625	17802
826.765	17954
826.904	17824
827.044	17589
827.183	17581
827.323	17627
827.462	17687
827.601	17532
827.741	17478
827.88	17562
828.02	17512
828.159	17516
828.298	17539
828.437	17680
828.577	17558
828.716	17638
828.855	17512
828.994	17433
829.134	17288
829.273	17410
829.412	17292
829.551	17250
829.69	17269
829.829	17387
829.968	17429
830.107	17448
830.246	17376
830.385	17337
830.524	17299
830.663	17109
830.802	16968
830.941	16908
831.08	16862
831.219	17018
831.357	16919
831.496	17170
831.635	16991
831.774	16843
831.913	16904
832.051	16698
832.19	16698
832.329	16824
832.467	16641
832.606	16672
832.744	16542
832.883	16516
833.022	16580
833.16	16599
833.299	16694
833.437	16630
833.576	16687
833.714	16698
833.852	16774
833.991	16679
834.129	16675
834.267	16733
834.406	16660
834.544	16641
834.682	16679
834.821	16577
834.959	16748
835.097	16664
835.235	16839
835.373	16736
835.511	16672
835.65	16618
835.788	16577
835.926	16565
836.064	16356
836.202	16519
836.34	16679
836.478	16611
836.615	16607
836.753	16580
836.891	16656
837.029	16683
837.167	16641
837.305	16497
837.443	16459
837.58	16398
837.718	16428
837.856	16554
837.993	16470
838.131	16504
838.269	16405
838.406	16497
838.544	16363
838.681	16185
838.819	16097
838.956	15884
839.094	16067
839.231	15991
839.369	16082
839.506	16417
839.643	16303
839.781	16010
839.918	16025
840.055	16082
840.193	15911
840.33	15975
840.467	16029
840.604	15968
840.742	16219
840.879	15892
841.016	15911
841.153	15907
841.29	16090
841.427	16090
841.564	16135
841.701	16078
841.838	15926
841.975	15892
842.112	15865
842.249	15857
842.385	15781
842.522	15930
842.659	15785
842.796	15732
842.933	15800
843.069	15705
843.206	15679
843.343	15884
843.479	15774
843.616	15861
843.752	15599
843.889	15553
844.025	15732
844.162	15610
844.298	15648
844.435	15591
844.571	15504
844.708	15652
844.844	15789
844.98	15762
845.117	15770
845.253	15507
845.389	15386
845.525	15557
845.661	15443
845.798	15397
845.934	15454
846.07	15363
846.206	15507
846.342	15549
846.478	15401
846.614	15230
846.75	15077
846.886	15127
847.022	15230
847.158	15222
847.294	15081
847.429	15291
847.565	15108
847.701	15370
847.837	14887
847.972	14849
848.108	14918
848.244	15020
848.379	14712
848.515	14705
848.65	14746
848.786	14735
848.921	14754
849.057	14838
849.192	14861
849.328	14769
849.463	14788
849.598	14678
849.734	14670
849.869	14731
850.004	14549
850.14	14545
850.275	14480
850.41	14469
850.545	14514
850.68	14461
850.815	14541
850.95	14541
851.085	14689
851.22	14667
851.355	14469
851.49	14465
851.625	14370
851.76	14427
851.895	14381
852.03	14415
852.165	14511
852.299	14568
852.434	14537
852.569	14537
852.703	14473
852.838	14621
852.973	14655
853.107	14533
853.242	14545
853.376	14404
853.511	14225
853.645	14381
853.78	14549
853.914	14366
854.048	14355
854.183	14294
854.317	14408
854.451	14621
854.585	14385
854.72	14317
854.854	14404
854.988	14362
855.122	14275
855.256	14199
855.39	14301
855.524	14473
855.658	14446
855.792	14358
855.926	14385
856.06	14301
856.194	14552
856.327	14431
856.461	14301
856.595	14278
856.729	14286
856.862	14446
856.996	14366
857.13	14393
857.263	14530
857.397	14465
857.53	14385
857.664	14488
857.797	14465
857.931	14514
858.064	14389
858.197	14465
858.331	14480
858.464	14332
858.597	14259
858.731	14362
858.864	14286
858.997	14263
859.13	14343
859.263	14488
859.396	14438
859.529	14412
859.662	14381
859.795	14454
859.928	14442
860.061	14488
860.194	14663
860.327	14389
860.46	14438
860.592	14469
860.725	14560
860.858	14571
860.99	14339
861.123	14355
861.256	14259
861.388	14362
861.521	14967
861.653	14202
861.786	14267
861.918	14328
862.05	14275
862.183	14351
862.315	14469
862.447	14419
862.58	14358
862.712	14149
862.844	14115
862.976	14195
863.108	14240
863.24	14404
863.372	14062
863.504	14168
863.636	14142
863.768	14130
863.9	14134
864.032	14065
864.164	14153
864.296	14157
864.428	14244
864.559	14256
864.691	14256
864.823	14214
864.954	14145
865.086	14210
865.217	14214
865.349	14142
865.48	14157
865.612	14119
865.743	14324
865.875	14138
866.006	14111
866.137	14126
866.269	14161
866.4	14130
866.531	14069
866.662	14103
866.793	14054
866.924	14046
867.055	14161
867.186	14077
867.317	14050
867.448	13970
867.579	14069
867.71	14054
867.841	14069
867.972	14107
868.103	14134
868.233	14111
868.364	14225
868.495	14328
868.625	14393
868.756	14488
868.886	14282
869.017	14389
869.147	14427
869.278	14454
869.408	14328
869.539	14374
869.669	14507
869.799	14434
869.929	14632
870.06	14446
870.19	14697
870.32	14705
870.45	14640
870.58	14750
870.71	14887
870.84	14956
870.97	14785
871.1	14670
871.23	14853
871.36	14937
871.489	14826
871.619	14971
871.749	14990
871.879	14986
872.008	15116
872.138	15062
872.267	14956
872.397	14857
872.526	14773
872.656	14781
872.785	14861
872.915	14971
873.044	15017
873.173	14960
873.303	15028
873.432	15055
873.561	15066
873.69	15036
873.819	15001
873.948	15089
874.077	15146
874.206	14937
874.335	15142
874.464	15142
874.593	15325
874.722	15291
874.851	15412
874.979	15272
875.108	15370
875.237	15378
875.365	15310
875.494	15214
875.623	15435
875.751	15310
875.88	15374
876.008	15466
876.136	15576
876.265	15717
876.393	15835
876.521	15827
876.65	15953
876.778	15778
876.906	15663
877.034	15751
877.162	15812
877.29	15618
877.418	15694
877.546	15743
877.674	15720
877.802	15690
877.93	15778
878.058	15717
878.185	15637
878.313	15686
878.441	15759
878.568	15576
878.696	15713
878.824	15732
878.951	15892
879.079	15937
879.206	16082
879.333	15819
879.461	15838
879.588	15907
879.715	15888
879.842	16112
879.97	15854
880.097	15492
880.224	15633
880.351	15671
880.478	15633
880.605	15622
880.732	15641
880.859	15869
880.986	15629
881.112	15686
881.239	15500
881.366	15378
881.493	15317
881.619	15310
881.746	15306
881.872	15275
881.999	15298
882.125	15310
882.252	15344
882.378	15291
882.505	15325
882.631	15272
882.757	15157
882.883	15214
883.01	15066
883.136	15013
883.262	14834
883.388	14887
883.514	15173
883.64	15123
883.766	15058
883.892	14861
884.018	14933
884.143	15055
884.269	15241
884.395	14830
884.52	14716
884.646	14788
884.772	14613
884.897	14678
885.023	14815
885.148	14853
885.274	14887
885.399	14967
885.524	14849
885.65	14853
885.775	14762
885.9	14796
886.025	14880
886.15	14838
886.275	14807
886.4	14705
886.525	14750
886.65	14773
886.775	14804
886.9	14845
887.025	15055
887.149	14883
887.274	14617
887.399	14545
887.523	14552
887.648	14602
887.773	14518
887.897	14655
888.021	14655
888.146	14530
888.27	14765
888.395	14701
888.519	14743
888.643	14727
888.767	14621
888.891	14571
889.015	14541
889.139	14465
889.263	14473
889.387	14640
889.511	14667
889.635	14613
889.759	14454
889.883	14495
890.006	14499
890.13	14594
890.254	14370
890.377	14408
890.501	14370
890.624	14161
890.748	14366
890.871	14320
890.995	14259
891.118	14088
891.241	14301
891.364	14119
891.488	14259
891.611	14191
891.734	14168
891.857	14252
891.98	14229
892.103	14252
892.226	14282
892.349	14195
892.471	13974
892.594	14191
892.717	14195
892.839	14183
892.962	14153
893.085	14313
893.207	14157
893.33	14073
893.452	14069
893.575	14172
893.697	14126
893.819	14324
893.941	14328
894.064	14332
894.186	14088
894.308	14126
894.43	14267
894.552	14412
894.674	14290
894.796	14214
894.918	14248
895.04	14225
895.161	14290
895.283	14240
895.405	14218
895.526	14237
895.648	14278
895.769	14294
895.891	14332
896.012	14351
896.134	14389
896.255	14431
896.376	14286
896.498	14473
896.619	14469
896.74	14290
896.861	14499
896.982	14686
897.103	14868
897.224	14575
897.345	14552
897.466	14492
897.587	14568
897.708	14712
897.828	14705
897.949	14552
898.07	14499
898.19	14514
898.311	14674
898.431	14621
898.552	14758
898.672	14765
898.792	14902
898.913	14625
899.033	14655
899.153	14556
899.273	14530
899.393	14473
899.513	14552
899.633	14499
899.753	14587
899.873	14587
899.993	14663
900.113	14598
900.232	14587
900.352	14526
900.472	14503
900.591	14404
900.711	14438
900.83	14389
900.95	14541
901.069	14648
901.189	14271
901.308	14088
901.427	14077
901.546	14001
901.665	14153
901.784	14100
901.904	14016
902.023	13890
902.141	13575
902.26	13658
902.379	13761
902.498	13590
902.617	13597
902.735	13753
902.854	13643
902.973	13582
903.091	13411
903.21	13422
903.328	13430
903.446	13354
903.565	13206
903.683	13206
903.801	13114
903.919	13194
904.038	13187
904.156	13069
904.274	13110
904.392	13038
904.51	13050
904.627	12958
904.745	13164
904.863	13099
904.981	12856
905.098	12681
905.216	12806
905.334	12829
905.451	12776
905.569	12627
905.686	12741
905.803	12787
905.921	12597
906.038	12665
906.155	12502
906.272	12506
906.389	12525
906.506	12342
906.623	12376
906.74	12296
906.857	12232
906.974	12167
907.091	12395
907.208	12528
907.324	12410
907.441	12258
907.557	12068
907.674	12102
907.79	11992
907.907	11958
908.023	12068
908.139	12041
908.256	12022
908.372	12019
908.488	11996
908.604	11901
908.72	11824
908.836	11851
908.952	11733
909.068	11760
909.184	11912
909.3	11771
909.415	11901
909.531	11805
909.647	11634
909.762	11577
909.878	11627
909.993	11653
910.108	11528
910.224	11562
910.339	11585
910.454	11497
910.57	11448
910.685	11337
910.8	11695
910.915	11634
911.03	11501
911.145	11277
911.259	11368
911.374	11280
911.489	11307
911.604	11212
911.718	11037
911.833	11113
911.947	10976
912.062	10847
912.176	11033
912.291	11048
912.405	11147
912.519	11143
912.633	11311
912.748	11109
912.862	11033
912.976	10934
913.09	10771
913.204	10904
913.318	10942
913.431	11014
913.545	10968
913.659	11003
913.772	10968
913.886	10812
914	10649
914.113	10908
914.226	10976
914.34	10896
914.453	10717
914.566	10927
914.68	10786
914.793	10748
914.906	10588
915.019	10519
915.132	10451
915.245	10580
915.358	10569
915.47	10523
915.583	10584
915.696	10565
915.809	10649
915.921	10687
916.034	10538
916.146	10565
916.259	10485
916.371	10607
916.483	10512
916.595	10386
916.708	10462
916.82	10481
916.932	10474
917.044	10367
917.156	10451
917.268	10371
917.38	10390
917.491	10306
917.603	10417
917.715	10398
917.826	10462
917.938	10459
918.049	10261
918.161	10367
918.272	10504
918.384	10500
918.495	10386
918.606	10242
918.717	10238
918.828	10268
918.939	10303
919.05	10230
919.161	10276
919.272	10036
919.383	10158
919.494	10299
919.604	10417
919.715	10318
919.826	10173
919.936	10276
920.047	10287
920.157	10295
920.267	10531
920.378	10314
920.488	10291
920.598	10443
920.708	10687
920.818	10478
920.928	10504
921.038	10664
921.148	10577
921.258	10268
921.368	10257
921.477	10093
921.587	10074
921.697	10051
921.806	10158
921.916	9941
922.025	9842
922.134	9861
922.244	9755
922.353	9880
922.462	9724
922.571	9663
922.68	9587
922.789	9511
922.898	9584
923.007	9515
923.116	9587
923.224	9519
923.333	9492
923.442	9431
923.55	9439
923.659	9454
923.767	9370
923.876	9355
923.984	9500
924.092	9298
924.201	9386
924.309	9397
924.417	9382
924.525	9283
924.633	9397
924.741	10261
924.849	9119
924.956	9367
925.064	9150
925.172	9138
925.279	9116
925.387	9188
925.494	9123
925.602	9283
925.709	9203
925.816	9157
925.924	9260
926.031	9260
926.138	9192
926.245	9161
926.352	9047
926.459	9157
926.566	9268
926.673	9119
926.779	9020
926.886	8986
926.993	8971
927.099	8823
927.206	8834
927.312	8891
927.419	8895
927.525	8868
927.631	8906
927.737	8804
927.843	8716
927.95	8678
928.056	8773
928.162	8857
928.267	8857
928.373	9412
928.479	8895
928.585	8655
928.69	8739
928.796	8811
928.901	8731
929.007	8587
929.112	8667
929.218	8632
929.323	8545
929.428	8571
929.533	8739
929.638	8549
929.743	8568
929.848	8648
929.953	8552
930.058	8495
930.163	8324
930.267	8355
930.372	8556
930.477	8400
930.581	8579
930.685	8541
930.79	8355
930.894	8320
930.998	8343
931.103	8495
931.207	8081
931.311	8016
931.415	7978
931.519	7803
931.623	7841
