Data from test_V78500241_2907.txt Node
Date: Fri Mar 25 14:53:57 CST 2022
User: usil
Spectrometer: V785-0024
Trigger mode: 0
Integration Time (sec): 4.000000E-1
Scans to average: 1
Nonlinearity correction enabled: false
Boxcar width: 0
Storing dark spectrum: false
XAxis mode: Wavelengths
Number of Pixels in Spectrum: 1024
>>>>>Begin Spectral Data<<<<<
801.071	22105
801.214	22040
801.356	21728
801.499	21812
801.641	21496
801.783	21469
801.926	21363
802.068	21367
802.211	21412
802.353	21214
802.496	21085
802.638	20998
802.78	20918
802.923	20876
803.065	20815
803.208	20640
803.35	20853
803.492	20971
803.635	20883
803.777	20785
803.919	20785
804.061	21207
804.204	20868
804.346	20731
804.488	20735
804.63	20769
804.773	20579
804.915	20663
805.057	20792
805.199	20739
805.341	20838
805.483	20785
805.626	20712
805.768	20712
805.91	20834
806.052	20667
806.194	20594
806.336	20849
806.478	20644
806.62	20648
806.762	20754
806.904	20880
807.046	21062
807.188	21074
807.33	21066
807.472	21093
807.614	20868
807.756	21001
807.898	20861
808.04	20716
808.182	20819
808.324	20838
808.465	20785
808.607	21089
808.749	21154
808.891	21260
809.033	21138
809.174	21173
809.316	20963
809.458	21100
809.6	21070
809.741	21192
809.883	21047
810.025	21150
810.166	21184
810.308	21237
810.45	21180
810.591	21032
810.733	20979
810.875	20880
811.016	20712
811.158	20655
811.299	20845
811.441	20986
811.582	21032
811.724	20906
811.865	20826
812.007	20857
812.148	20815
812.29	20781
812.431	21104
812.573	21195
812.714	21241
812.855	21317
812.997	21507
813.138	21576
813.279	21507
813.421	21378
813.562	21325
813.703	21017
813.845	21028
813.986	20667
814.127	20549
814.268	20492
814.41	20484
814.551	20362
814.692	20423
814.833	20389
814.974	20419
815.115	20328
815.256	20259
815.397	20161
815.539	20210
815.68	20229
815.821	20100
815.962	20138
816.103	20153
816.244	20005
816.385	19986
816.526	19795
816.666	19715
816.807	19586
816.948	19605
817.089	19791
817.23	19594
817.371	19525
817.512	19567
817.653	19567
817.793	19289
817.934	19453
818.075	19559
818.216	19540
818.356	19464
818.497	19445
818.638	19202
818.778	19183
818.919	19152
819.06	19152
819.2	19381
819.341	19335
819.481	19525
819.622	19438
819.762	19685
819.903	19643
820.043	19548
820.184	19518
820.324	19468
820.465	19476
820.605	19472
820.746	19502
820.886	19301
821.026	19453
821.167	19411
821.307	19445
821.447	19384
821.588	19411
821.728	19137
821.868	19171
822.008	18821
822.149	18867
822.289	18939
822.429	18635
822.569	18604
822.709	18684
822.849	18327
822.99	18414
823.13	18365
823.27	18342
823.41	18251
823.55	18171
823.69	18262
823.83	18064
823.97	18064
824.11	17980
824.25	17954
824.389	17920
824.529	18083
824.669	18026
824.809	17977
824.949	18068
825.089	18053
825.228	18087
825.368	17874
825.508	17668
825.648	17790
825.787	17634
825.927	17726
826.067	17661
826.206	17695
826.346	17752
826.485	17737
826.625	17695
826.765	17790
826.904	17741
827.044	17497
827.183	17577
827.323	17372
827.462	17566
827.601	17516
827.741	17497
827.88	17547
828.02	17311
828.159	17467
828.298	17505
828.437	17554
828.577	17429
828.716	17509
828.855	17455
828.994	17277
829.134	17239
829.273	17185
829.412	17109
829.551	17064
829.69	17235
829.829	17143
829.968	17216
830.107	17216
830.246	17185
830.385	17018
830.524	17136
830.663	16881
830.802	16869
830.941	16755
831.08	16748
831.219	16923
831.357	16748
831.496	17083
831.635	16740
831.774	16675
831.913	16763
832.051	16588
832.19	16535
832.329	16664
832.467	16504
832.606	16409
832.744	16474
832.883	16493
833.022	16390
833.16	16436
833.299	16508
833.437	16466
833.576	16478
833.714	16550
833.852	16641
833.991	16596
834.129	16611
834.267	16577
834.406	16569
834.544	16603
834.682	16474
834.821	16516
834.959	16687
835.097	16474
835.235	16573
835.373	16443
835.511	16527
835.65	16516
835.788	16428
835.926	16314
836.064	16219
836.202	16238
836.34	16394
836.478	16478
836.615	16428
836.753	16527
836.891	16493
837.029	16470
837.167	16371
837.305	16322
837.443	16329
837.58	16242
837.718	16417
837.856	16303
837.993	16219
838.131	16177
838.269	16181
838.406	16207
838.544	16109
838.681	16013
838.819	16036
838.956	15793
839.094	15880
839.231	15972
839.369	15907
839.506	16246
839.643	16150
839.781	15800
839.918	15812
840.055	15861
840.193	15747
840.33	15778
840.467	15804
840.604	15812
840.742	15994
840.879	15732
841.016	15781
841.153	15827
841.29	15842
841.427	15812
841.564	15953
841.701	15857
841.838	15800
841.975	15671
842.112	15728
842.249	15698
842.385	15530
842.522	15789
842.659	15675
842.796	15511
842.933	15709
843.069	15595
843.206	15625
843.343	15656
843.479	15625
843.616	15595
843.752	15572
843.889	15485
844.025	15454
844.162	15408
844.298	15496
844.435	15462
844.571	15412
844.708	15481
844.844	15557
844.98	15485
845.117	15450
845.253	15310
845.389	15306
845.525	15374
845.661	15420
845.798	15176
845.934	15142
846.07	15173
846.206	15218
846.342	15279
846.478	15241
846.614	15131
846.75	14967
846.886	14895
847.022	15024
847.158	15036
847.294	15036
847.429	14986
847.565	15009
847.701	15112
847.837	14785
847.972	14731
848.108	14777
848.244	14902
848.379	14655
848.515	14556
848.65	14560
848.786	14560
848.921	14495
849.057	14689
849.192	14712
849.328	14629
849.463	14568
849.598	14560
849.734	14495
849.869	14438
850.004	14358
850.14	14381
850.275	14400
850.41	14282
850.545	14305
850.68	14263
850.815	14358
850.95	14313
851.085	14522
851.22	14381
851.355	14370
851.49	14126
851.625	14305
851.76	14286
851.895	14229
852.03	14286
852.165	14305
852.299	14381
852.434	14347
852.569	14450
852.703	14351
852.838	14438
852.973	14495
853.107	14461
853.242	14343
853.376	14252
853.511	14126
853.645	14263
853.78	14317
853.914	14267
854.048	14142
854.183	14115
854.317	14290
854.451	14305
854.585	14157
854.72	14214
854.854	14252
854.988	14092
855.122	14153
855.256	14111
855.39	14096
855.524	14313
855.658	14168
855.792	14164
855.926	14240
856.06	14233
856.194	14400
856.327	14202
856.461	14161
856.595	14195
856.729	14172
856.862	14343
856.996	14248
857.13	14298
857.263	14229
857.397	14271
857.53	14244
857.664	14244
857.797	14313
857.931	14282
858.064	14320
858.197	14415
858.331	14183
858.464	14172
858.597	14123
858.731	14206
858.864	14305
858.997	14210
859.13	14298
859.263	14248
859.396	14275
859.529	14145
859.662	14134
859.795	14183
859.928	14221
860.061	14358
860.194	14415
860.327	14077
860.46	14229
860.592	14366
860.725	14377
860.858	14282
860.99	14218
861.123	14073
861.256	14248
861.388	14233
861.521	14838
861.653	13955
861.786	14020
861.918	14062
862.05	14157
862.183	14138
862.315	14199
862.447	14206
862.58	14161
862.712	13951
862.844	13909
862.976	14058
863.108	14043
863.24	14286
863.372	13913
863.504	14001
863.636	14008
863.768	13989
863.9	13993
864.032	13830
864.164	13989
864.296	13955
864.428	14107
864.559	14088
864.691	14084
864.823	14046
864.954	13970
865.086	13947
865.217	13963
865.349	13955
865.48	13978
865.612	14005
865.743	14027
865.875	13951
866.006	14016
866.137	13940
866.269	13970
866.4	14084
866.531	13940
866.662	13898
866.793	13982
866.924	13917
867.055	14020
867.186	13940
867.317	13868
867.448	13879
867.579	13913
867.71	13997
867.841	13921
867.972	13970
868.103	13959
868.233	13997
868.364	14031
868.495	13989
868.625	14221
868.756	14305
868.886	14096
869.017	14206
869.147	14332
869.278	14317
869.408	14275
869.539	14267
869.669	14282
869.799	14168
869.929	14343
870.06	14301
870.19	14450
870.32	14503
870.45	14526
870.58	14667
870.71	14838
870.84	14708
870.97	14560
871.1	14598
871.23	14819
871.36	14800
871.489	14754
871.619	14712
871.749	14857
871.879	14880
872.008	14880
872.138	14796
872.267	14796
872.397	14705
872.526	14670
872.656	14701
872.785	14758
872.915	14899
873.044	14967
873.173	14807
873.303	14906
873.432	14952
873.561	14868
873.69	14960
873.819	14872
873.948	14944
874.077	14948
874.206	14887
874.335	14944
874.464	14990
874.593	15211
874.722	15203
874.851	15291
874.979	15226
875.108	15252
875.237	15222
875.365	15142
875.494	15195
875.623	15230
875.751	15192
875.88	15188
876.008	15355
876.136	15408
876.265	15618
876.393	15644
876.521	15618
876.65	15671
876.778	15564
876.906	15663
877.034	15496
877.162	15595
877.29	15572
877.418	15584
877.546	15557
877.674	15686
877.802	15660
877.93	15652
878.058	15511
878.185	15428
878.313	15595
878.441	15534
878.568	15504
878.696	15633
878.824	15644
878.951	15690
879.079	15812
879.206	15857
879.333	15785
879.461	15614
879.588	15724
879.715	15720
879.842	15968
879.97	15644
880.097	15443
880.224	15454
880.351	15431
880.478	15587
880.605	15420
880.732	15481
880.859	15580
880.986	15511
881.112	15466
881.239	15336
881.366	15226
881.493	15097
881.619	15112
881.746	15001
881.872	15116
881.999	15055
882.125	15093
882.252	15195
882.378	15161
882.505	15264
882.631	15176
882.757	14880
882.883	15066
883.01	14971
883.136	14815
883.262	14777
883.388	14762
883.514	14872
883.64	14914
883.766	14929
883.892	14743
884.018	14815
884.143	14842
884.269	15024
884.395	14621
884.52	14613
884.646	14750
884.772	14644
884.897	14514
885.023	14674
885.148	14781
885.274	14792
885.399	14697
885.524	14590
885.65	14629
885.775	14629
885.9	14594
886.025	14781
886.15	14686
886.275	14663
886.4	14469
886.525	14522
886.65	14552
886.775	14526
886.9	14746
887.025	14796
887.149	14716
887.274	14419
887.399	14366
887.523	14446
887.648	14400
887.773	14457
887.897	14533
888.021	14556
888.146	14412
888.27	14560
888.395	14575
888.519	14541
888.643	14503
888.767	14514
888.891	14362
889.015	14377
889.139	14374
889.263	14290
889.387	14446
889.511	14518
889.635	14450
889.759	14240
889.883	14195
890.006	14366
890.13	14385
890.254	14206
890.377	14309
890.501	14058
890.624	14183
890.748	14199
890.871	14069
890.995	14001
891.118	13856
891.241	14043
891.364	14043
891.488	14168
891.611	14024
891.734	14096
891.857	14054
891.98	14001
892.103	14115
892.226	13986
892.349	14031
892.471	14016
892.594	13940
892.717	14088
892.839	13993
892.962	14084
893.085	14126
893.207	14027
893.33	13776
893.452	13917
893.575	14092
893.697	14050
893.819	14157
893.941	14176
894.064	14153
894.186	13993
894.308	14001
894.43	14176
894.552	14267
894.674	14157
894.796	14062
894.918	14123
895.04	14012
895.161	14195
895.283	14244
895.405	14039
895.526	14145
895.648	14058
895.769	14214
895.891	14191
896.012	14252
896.134	14199
896.255	14111
896.376	14164
896.498	14233
896.619	14244
896.74	14138
896.861	14248
896.982	14583
897.103	14750
897.224	14434
897.345	14526
897.466	14461
897.587	14442
897.708	14556
897.828	14469
897.949	14412
898.07	14313
898.19	14419
898.311	14568
898.431	14526
898.552	14526
898.672	14590
898.792	14663
898.913	14541
899.033	14492
899.153	14488
899.273	14366
899.393	14442
899.513	14423
899.633	14324
899.753	14396
899.873	14419
899.993	14389
900.113	14408
900.232	14415
900.352	14438
900.472	14210
900.591	14172
900.711	14347
900.83	14183
900.95	14389
901.069	14400
901.189	14259
901.308	13967
901.427	13913
901.546	13967
901.665	13921
901.784	14065
901.904	13772
902.023	13742
902.141	13578
902.26	13571
902.379	13567
902.498	13552
902.617	13491
902.735	13651
902.854	13506
902.973	13422
903.091	13346
903.21	13346
903.328	13274
903.446	13175
903.565	13129
903.683	13137
903.801	13053
903.919	13091
904.038	13107
904.156	13015
904.274	12985
904.392	12833
904.51	12951
904.627	12909
904.745	12932
904.863	12966
904.981	12722
905.098	12574
905.216	12544
905.334	12639
905.451	12604
905.569	12555
905.686	12544
905.803	12578
905.921	12388
906.038	12574
906.155	12403
906.272	12395
906.389	12319
906.506	12277
906.623	12243
906.74	12129
906.857	12011
906.974	12114
907.091	12254
907.208	12304
907.324	12266
907.441	12213
907.557	11988
907.674	11946
907.79	11920
907.907	11908
908.023	11988
908.139	11935
908.256	11870
908.372	11832
908.488	11874
908.604	11745
908.72	11737
908.836	11661
908.952	11707
909.068	11668
909.184	11783
909.3	11703
909.415	11779
909.531	11604
909.647	11478
909.762	11524
909.878	11455
909.993	11402
910.108	11398
910.224	11436
910.339	11486
910.454	11406
910.57	11337
910.685	11280
910.8	11551
910.915	11467
911.03	11337
911.145	11155
911.259	11162
911.374	11193
911.489	11151
911.604	11098
911.718	10930
911.833	11025
911.947	10915
912.062	10755
912.176	10892
912.291	10900
912.405	10866
912.519	11079
912.633	11174
912.748	10980
912.862	10984
912.976	10801
913.09	10721
913.204	10736
913.318	10774
913.431	10927
913.545	10850
913.659	10900
913.772	10824
913.886	10603
914	10637
914.113	10721
914.226	10812
914.34	10786
914.453	10626
914.566	10759
914.68	10618
914.793	10668
914.906	10455
915.019	10386
915.132	10333
915.245	10390
915.358	10443
915.47	10535
915.583	10421
915.696	10451
915.809	10542
915.921	10580
916.034	10508
916.146	10375
916.259	10367
916.371	10535
916.483	10440
916.595	10325
916.708	10356
916.82	10287
916.932	10352
917.044	10299
917.156	10318
917.268	10268
917.38	10276
917.491	10242
917.603	10318
917.715	10318
917.826	10375
917.938	10249
918.049	10211
918.161	10188
918.272	10451
918.384	10455
918.495	10299
918.606	10188
918.717	10093
918.828	10242
918.939	10177
919.05	10048
919.161	10143
919.272	9964
919.383	9964
919.494	10238
919.604	10436
919.715	10097
919.826	10078
919.936	10207
920.047	10287
920.157	10150
920.267	10432
920.378	10188
920.488	10074
920.598	10341
920.708	10474
920.818	10371
920.928	10333
921.038	10573
921.148	10500
921.258	10173
921.368	10139
921.477	10029
921.587	10025
921.697	9838
921.806	10017
921.916	10013
922.025	9762
922.134	9682
922.244	9709
922.353	9789
922.462	9622
922.571	9549
922.68	9405
922.789	9507
922.898	9500
923.007	9416
923.116	9408
923.224	9420
923.333	9511
923.442	9256
923.55	9321
923.659	9466
923.767	9325
923.876	9283
923.984	9367
924.092	9157
924.201	9325
924.309	9317
924.417	9294
924.525	9233
924.633	9222
924.741	10207
924.849	9116
924.956	9180
925.064	9062
925.172	9009
925.279	8998
925.387	9112
925.494	9089
925.602	9184
925.709	9150
925.816	9043
925.924	9108
926.031	9146
926.138	9146
926.245	9138
926.352	8956
926.459	9154
926.566	9154
926.673	9024
926.779	8895
926.886	8963
926.993	8902
927.099	8735
927.206	8708
927.312	8766
927.419	8777
927.525	8845
927.631	8785
927.737	8663
927.843	8667
927.95	8621
928.056	8693
928.162	8724
928.267	8701
928.373	9359
928.479	8815
928.585	8533
928.69	8674
928.796	8727
928.901	8629
929.007	8450
929.112	8610
929.218	8594
929.323	8476
929.428	8511
929.533	8670
929.638	8370
929.743	8526
929.848	8610
929.953	8480
930.058	8480
930.163	8252
930.267	8244
930.372	8488
930.477	8199
930.581	8454
930.685	8400
930.79	8199
930.894	8305
930.998	8336
931.103	8374
931.207	7967
931.311	7925
931.415	7883
931.519	7742
931.623	7689
