Data from test_V78500241_1293.txt Node
Date: Fri Mar 25 14:42:43 CST 2022
User: usil
Spectrometer: V785-0024
Trigger mode: 0
Integration Time (sec): 4.000000E-1
Scans to average: 1
Nonlinearity correction enabled: false
Boxcar width: 0
Storing dark spectrum: false
XAxis mode: Wavelengths
Number of Pixels in Spectrum: 1024
>>>>>Begin Spectral Data<<<<<
801.071	22398
801.214	22268
801.356	22036
801.499	21937
801.641	21835
801.783	21629
801.926	21747
802.068	21713
802.211	21637
802.353	21633
802.496	21222
802.638	21207
802.78	21237
802.923	21116
803.065	21047
803.208	21077
803.35	21028
803.492	21214
803.635	21424
803.777	21100
803.919	21062
804.061	21576
804.204	21157
804.346	21043
804.488	20937
804.63	21055
804.773	20937
804.915	20944
805.057	21135
805.199	21036
805.341	20979
805.483	21184
805.626	21116
805.768	21024
805.91	21135
806.052	21066
806.194	20937
806.336	21233
806.478	21085
806.62	21066
806.762	21104
806.904	21112
807.046	21431
807.188	21325
807.33	21325
807.472	21576
807.614	21310
807.756	21435
807.898	21104
808.04	21233
808.182	21173
808.324	21199
808.465	21211
808.607	21477
808.749	21572
808.891	21747
809.033	21720
809.174	21564
809.316	21561
809.458	21466
809.6	21454
809.741	21469
809.883	21679
810.025	21679
810.166	21701
810.308	21587
810.45	21599
810.591	21526
810.733	21291
810.875	21298
811.016	21142
811.158	21127
811.299	21176
811.441	21283
811.582	21435
811.724	21169
811.865	21252
812.007	21233
812.148	21291
812.29	21283
812.431	21458
812.573	21382
812.714	21580
812.855	21873
812.997	21785
813.138	21717
813.279	21880
813.421	21583
813.562	21644
813.703	21488
813.845	21310
813.986	21062
814.127	20994
814.268	20815
814.41	20743
814.551	20674
814.692	20857
814.833	20769
814.974	20708
815.115	20682
815.256	20503
815.397	20480
815.539	20689
815.68	20431
815.821	20404
815.962	20556
816.103	20343
816.244	20256
816.385	20336
816.526	20240
816.666	20065
816.807	19898
816.948	19940
817.089	19993
817.23	19947
817.371	19906
817.512	19947
817.653	19818
817.793	19795
817.934	19928
818.075	19913
818.216	19921
818.356	19868
818.497	19788
818.638	19514
818.778	19578
818.919	19476
819.06	19597
819.2	19799
819.341	19818
819.481	19807
819.622	19925
819.762	20115
819.903	20035
820.043	19871
820.184	19799
820.324	19883
820.465	19898
820.605	19917
820.746	19742
820.886	19651
821.026	19902
821.167	19814
821.307	19989
821.447	19753
821.588	19670
821.728	19658
821.868	19419
822.008	19343
822.149	19266
822.289	19221
822.429	19057
822.569	18894
822.709	18920
822.849	18760
822.99	18833
823.13	18825
823.27	18795
823.41	18734
823.55	18467
823.69	18642
823.83	18620
823.97	18528
824.11	18426
824.25	18372
824.389	18342
824.529	18418
824.669	18304
824.809	18452
824.949	18357
825.089	18445
825.228	18380
825.368	18167
825.508	18038
825.648	18258
825.787	18167
825.927	18254
826.067	18140
826.206	18102
826.346	18117
826.485	18102
826.625	18060
826.765	18235
826.904	18205
827.044	17942
827.183	17866
827.323	17722
827.462	17882
827.601	17710
827.741	17790
827.88	17836
828.02	17729
828.159	17775
828.298	17813
828.437	17942
828.577	17790
828.716	17931
828.855	17809
828.994	17646
829.134	17680
829.273	17684
829.412	17585
829.551	17589
829.69	17547
829.829	17562
829.968	17729
830.107	17573
830.246	17585
830.385	17532
830.524	17425
830.663	17459
830.802	17356
830.941	17170
831.08	17227
831.219	17318
831.357	17277
831.496	17459
831.635	17220
831.774	17113
831.913	17147
832.051	17045
832.19	16980
832.329	16995
832.467	16942
832.606	16930
832.744	16805
832.883	16900
833.022	16873
833.16	16961
833.299	17010
833.437	16900
833.576	16949
833.714	17090
833.852	16984
833.991	16999
834.129	17071
834.267	16934
834.406	16980
834.544	17048
834.682	16866
834.821	16896
834.959	17117
835.097	16938
835.235	17048
835.373	17064
835.511	16953
835.65	16858
835.788	16820
835.926	16713
836.064	16561
836.202	16645
836.34	16911
836.478	17018
836.615	16946
836.753	16927
836.891	16953
837.029	16824
837.167	16801
837.305	16721
837.443	16786
837.58	16691
837.718	16873
837.856	16862
837.993	16805
838.131	16755
838.269	16634
838.406	16687
838.544	16546
838.681	16500
838.819	16424
838.956	16257
839.094	16261
839.231	16390
839.369	16436
839.506	16691
839.643	16500
839.781	16287
839.918	16257
840.055	16249
840.193	16276
840.33	16337
840.467	16318
840.604	16314
840.742	16523
840.879	16192
841.016	16185
841.153	16230
841.29	16333
841.427	16238
841.564	16447
841.701	16314
841.838	16249
841.975	16242
842.112	16238
842.249	16090
842.385	16086
842.522	16287
842.659	16101
842.796	16124
842.933	16059
843.069	16090
843.206	16021
843.343	16078
843.479	16074
843.616	16013
843.752	15793
843.889	15911
844.025	16021
844.162	15781
844.298	15892
844.435	15857
844.571	15823
844.708	15869
844.844	16006
844.98	16006
845.117	15956
845.253	15911
845.389	15705
845.525	15926
845.661	15857
845.798	15823
845.934	15838
846.07	15831
846.206	15884
846.342	15888
846.478	15698
846.614	15568
846.75	15488
846.886	15336
847.022	15519
847.158	15473
847.294	15454
847.429	15466
847.565	15363
847.701	15606
847.837	15264
847.972	15138
848.108	15355
848.244	15233
848.379	15093
848.515	15055
848.65	15001
848.786	15013
848.921	15043
849.057	15104
849.192	15104
849.328	14986
849.463	14971
849.598	15116
849.734	14941
849.869	14853
850.004	14777
850.14	14838
850.275	14655
850.41	14686
850.545	14697
850.68	14769
850.815	14800
850.95	14758
851.085	14849
851.22	14929
851.355	14746
851.49	14712
851.625	14796
851.76	14705
851.895	14587
852.03	14731
852.165	14735
852.299	14792
852.434	14868
852.569	14785
852.703	14788
852.838	14746
852.973	14933
853.107	14929
853.242	14765
853.376	14701
853.511	14522
853.645	14629
853.78	14796
853.914	14533
854.048	14571
854.183	14552
854.317	14743
854.451	14853
854.585	14590
854.72	14568
854.854	14697
854.988	14518
855.122	14617
855.256	14575
855.39	14693
855.524	14781
855.658	14743
855.792	14613
855.926	14663
856.06	14716
856.194	14819
856.327	14632
856.461	14514
856.595	14659
856.729	14598
856.862	14739
856.996	14708
857.13	14701
857.263	14838
857.397	14735
857.53	14693
857.664	14781
857.797	14769
857.931	14849
858.064	14667
858.197	14705
858.331	14552
858.464	14670
858.597	14503
858.731	14602
858.864	14655
858.997	14590
859.13	14705
859.263	14708
859.396	14765
859.529	14613
859.662	14590
859.795	14594
859.928	14667
860.061	14731
860.194	14834
860.327	14731
860.46	14663
860.592	14727
860.725	14727
860.858	14724
860.99	14583
861.123	14476
861.256	14499
861.388	14670
861.521	15370
861.653	14495
861.786	14537
861.918	14560
862.05	14617
862.183	14598
862.315	14686
862.447	14648
862.58	14651
862.712	14396
862.844	14393
862.976	14484
863.108	14412
863.24	14830
863.372	14351
863.504	14442
863.636	14347
863.768	14476
863.9	14438
864.032	14370
864.164	14351
864.296	14469
864.428	14457
864.559	14469
864.691	14579
864.823	14431
864.954	14438
865.086	14503
865.217	14396
865.349	14309
865.48	14427
865.612	14450
865.743	14552
865.875	14434
866.006	14400
866.137	14324
866.269	14313
866.4	14355
866.531	14278
866.662	14305
866.793	14343
866.924	14423
867.055	14419
867.186	14427
867.317	14381
867.448	14248
867.579	14282
867.71	14240
867.841	14294
867.972	14457
868.103	14377
868.233	14408
868.364	14423
868.495	14526
868.625	14610
868.756	14689
868.886	14659
869.017	14613
869.147	14765
869.278	14773
869.408	14651
869.539	14571
869.669	14823
869.799	14674
869.929	14712
870.06	14720
870.19	14979
870.32	14975
870.45	14910
870.58	15123
870.71	15089
870.84	15066
870.97	15043
871.1	15032
871.23	15119
871.36	15184
871.489	15131
871.619	15192
871.749	15233
871.879	15230
872.008	15306
872.138	15192
872.267	15180
872.397	15142
872.526	15085
872.656	15047
872.785	15100
872.915	15245
873.044	15272
873.173	15192
873.303	15363
873.432	15435
873.561	15351
873.69	15336
873.819	15252
873.948	15344
874.077	15268
874.206	15252
874.335	15275
874.464	15367
874.593	15504
874.722	15603
874.851	15641
874.979	15618
875.108	15519
875.237	15618
875.365	15450
875.494	15523
875.623	15561
875.751	15591
875.88	15694
876.008	15698
876.136	15827
876.265	15987
876.393	16318
876.521	15991
876.65	16200
876.778	15991
876.906	16006
877.034	15994
877.162	16013
877.29	15953
877.418	16048
877.546	15979
877.674	16055
877.802	16013
877.93	15960
878.058	15949
878.185	15835
878.313	16013
878.441	15994
878.568	15850
878.696	15987
878.824	16017
878.951	16135
879.079	16280
879.206	16443
879.333	16325
879.461	16185
879.588	16158
879.715	16265
879.842	16424
879.97	16192
880.097	15934
880.224	15816
880.351	15907
880.478	15934
880.605	15842
880.732	15888
880.859	16185
880.986	15956
881.112	15994
881.239	15857
881.366	15637
881.493	15504
881.619	15481
881.746	15587
881.872	15644
881.999	15488
882.125	15622
882.252	15625
882.378	15698
882.505	15720
882.631	15488
882.757	15435
882.883	15458
883.01	15359
883.136	15321
883.262	15211
883.388	15260
883.514	15386
883.64	15462
883.766	15279
883.892	15199
884.018	15294
884.143	15359
884.269	15473
884.395	15108
884.52	15127
884.646	15043
884.772	14979
884.897	15055
885.023	15119
885.148	15135
885.274	15283
885.399	15165
885.524	15081
885.65	15157
885.775	15173
885.9	15112
886.025	15138
886.15	15165
886.275	15032
886.4	14899
886.525	15039
886.65	15024
886.775	14899
886.9	15138
887.025	15291
887.149	15169
887.274	14933
887.399	14864
887.523	14887
887.648	14872
887.773	14845
887.897	14921
888.021	15001
888.146	14830
888.27	14960
888.395	15077
888.519	15009
888.643	15039
888.767	14952
888.891	14804
889.015	14807
889.139	14804
889.263	14754
889.387	14880
889.511	14963
889.635	14902
889.759	14781
889.883	14708
890.006	14834
890.13	14800
890.254	14762
890.377	14720
890.501	14613
890.624	14480
890.748	14556
890.871	14499
890.995	14484
891.118	14282
891.241	14461
891.364	14473
891.488	14549
891.611	14442
891.734	14530
891.857	14488
891.98	14389
892.103	14564
892.226	14400
892.349	14457
892.471	14347
892.594	14377
892.717	14518
892.839	14343
892.962	14442
893.085	14499
893.207	14400
893.33	14320
893.452	14332
893.575	14507
893.697	14492
893.819	14598
893.941	14575
894.064	14541
894.186	14469
894.308	14362
894.43	14598
894.552	14625
894.674	14549
894.796	14358
894.918	14507
895.04	14438
895.161	14655
895.283	14579
895.405	14457
895.526	14533
895.648	14621
895.769	14598
895.891	14552
896.012	14689
896.134	14610
896.255	14560
896.376	14613
896.498	14640
896.619	14598
896.74	14488
896.861	14617
896.982	14979
897.103	14986
897.224	14887
897.345	14880
897.466	14693
897.587	14792
897.708	14902
897.828	14921
897.949	14842
898.07	14720
898.19	14804
898.311	15085
898.431	14956
898.552	14933
898.672	15005
898.792	15005
898.913	15005
899.033	14880
899.153	14838
899.273	14735
899.393	14750
899.513	14773
899.633	14754
899.753	14902
899.873	14701
899.993	14758
900.113	14788
900.232	14834
900.352	14648
900.472	14754
900.591	14552
900.711	14682
900.83	14537
900.95	14838
901.069	14720
901.189	14629
901.308	14396
901.427	14248
901.546	14271
901.665	14377
901.784	14305
901.904	14267
902.023	14058
902.141	14016
902.26	13864
902.379	14016
902.498	13799
902.617	13902
902.735	13894
902.854	13814
902.973	13791
903.091	13624
903.21	13575
903.328	13525
903.446	13476
903.565	13430
903.683	13472
903.801	13449
903.919	13441
904.038	13460
904.156	13247
904.274	13350
904.392	13293
904.51	13251
904.627	13282
904.745	13263
904.863	13247
904.981	13118
905.098	12939
905.216	13015
905.334	13000
905.451	12928
905.569	12867
905.686	12981
905.803	12932
905.921	12741
906.038	12909
906.155	12772
906.272	12608
906.389	12734
906.506	12467
906.623	12498
906.74	12566
906.857	12384
906.974	12467
907.091	12627
907.208	12669
907.324	12521
907.441	12399
907.557	12273
907.674	12410
907.79	12266
907.907	12254
908.023	12372
908.139	12315
908.256	12235
908.372	12228
908.488	12182
908.604	11996
908.72	11904
908.836	12095
908.952	11935
909.068	12068
909.184	12079
909.3	12053
909.415	12110
909.531	11992
909.647	11855
909.762	11855
909.878	11828
909.993	11855
910.108	11794
910.224	11703
910.339	11707
910.454	11714
910.57	11630
910.685	11634
910.8	11878
910.915	11790
911.03	11623
911.145	11493
911.259	11455
911.374	11509
911.489	11391
911.604	11284
911.718	11292
911.833	11315
911.947	11223
912.062	11052
912.176	11250
912.291	11201
912.405	11239
912.519	11425
912.633	11463
912.748	11303
912.862	11265
912.976	11048
913.09	11025
913.204	11075
913.318	11223
913.431	11235
913.545	11216
913.659	11277
913.772	11121
913.886	11067
914	11041
914.113	11064
914.226	11090
914.34	11003
914.453	10961
914.566	11140
914.68	10923
914.793	10900
914.906	10797
915.019	10668
915.132	10687
915.245	10656
915.358	10771
915.47	10748
915.583	10752
915.696	10767
915.809	10942
915.921	10869
916.034	10698
916.146	10721
916.259	10668
916.371	10721
916.483	10767
916.595	10558
916.708	10653
916.82	10599
916.932	10592
917.044	10599
917.156	10599
917.268	10546
917.38	10478
917.491	10535
917.603	10565
917.715	10615
917.826	10641
917.938	10481
918.049	10413
918.161	10573
918.272	10679
918.384	10710
918.495	10592
918.606	10500
918.717	10409
918.828	10421
918.939	10508
919.05	10424
919.161	10413
919.272	10246
919.383	10295
919.494	10546
919.604	10660
919.715	10508
919.826	10295
919.936	10348
920.047	10516
920.157	10470
920.267	10683
920.378	10462
920.488	10424
920.598	10561
920.708	10793
920.818	10535
920.928	10615
921.038	10790
921.148	10790
921.258	10455
921.368	10398
921.477	10356
921.587	10249
921.697	10200
921.806	10299
921.916	10116
922.025	10029
922.134	9991
922.244	9888
922.353	10017
922.462	9842
922.571	9850
922.68	9728
922.789	9705
922.898	9686
923.007	9561
923.116	9766
923.224	9686
923.333	9770
923.442	9549
923.55	9606
923.659	9549
923.767	9667
923.876	9557
923.984	9705
924.092	9523
924.201	9492
924.309	9538
924.417	9530
924.525	9477
924.633	9405
924.741	10223
924.849	9325
924.956	9485
925.064	9279
925.172	9279
925.279	9230
925.387	9367
925.494	9283
925.602	9507
925.709	9378
925.816	9275
925.924	9359
926.031	9321
926.138	9321
926.245	9332
926.352	9256
926.459	9378
926.566	9428
926.673	9313
926.779	9192
926.886	9241
926.993	9043
927.099	9013
927.206	8994
927.312	9005
927.419	9104
927.525	9081
927.631	9070
927.737	8986
927.843	8906
927.95	8792
928.056	8883
928.162	8990
928.267	8948
928.373	9526
928.479	9020
928.585	8769
928.69	8864
928.796	8933
928.901	8899
929.007	8716
929.112	8861
929.218	8838
929.323	8739
929.428	8766
929.533	8941
929.638	8701
929.743	8689
929.848	8674
929.953	8705
930.058	8629
930.163	8518
930.267	8495
930.372	8663
930.477	8438
930.581	8731
930.685	8682
930.79	8522
930.894	8465
930.998	8408
931.103	8549
931.207	8275
931.311	8229
931.415	8157
931.519	7940
931.623	7978
