Data from test_V78500241_1810.txt Node
Date: Fri Mar 25 14:46:18 CST 2022
User: usil
Spectrometer: V785-0024
Trigger mode: 0
Integration Time (sec): 4.000000E-1
Scans to average: 1
Nonlinearity correction enabled: false
Boxcar width: 0
Storing dark spectrum: false
XAxis mode: Wavelengths
Number of Pixels in Spectrum: 1024
>>>>>Begin Spectral Data<<<<<
801.071	22204
801.214	22120
801.356	21892
801.499	21709
801.641	21545
801.783	21393
801.926	21515
802.068	21492
802.211	21420
802.353	21287
802.496	21173
802.638	21051
802.78	21024
802.923	20758
803.065	20800
803.208	20830
803.35	20823
803.492	21009
803.635	20979
803.777	20876
803.919	20982
804.061	21192
804.204	20842
804.346	20758
804.488	20769
804.63	20826
804.773	20724
804.915	20895
805.057	20857
805.199	20739
805.341	20944
805.483	20933
805.626	20845
805.768	20701
805.91	20944
806.052	20792
806.194	20682
806.336	20963
806.478	20720
806.62	20758
806.762	20864
806.904	20823
807.046	21211
807.188	21058
807.33	21085
807.472	21131
807.614	21020
807.756	21051
807.898	20902
808.04	20914
808.182	20800
808.324	20891
808.465	20929
808.607	21020
808.749	21127
808.891	21294
809.033	21321
809.174	21389
809.316	21268
809.458	21112
809.6	21119
809.741	21272
809.883	21230
810.025	21382
810.166	21294
810.308	21363
810.45	21344
810.591	21268
810.733	21100
810.875	20895
811.016	20861
811.158	20781
811.299	20864
811.441	21108
811.582	21104
811.724	20952
811.865	20868
812.007	20967
812.148	20864
812.29	20933
812.431	21032
812.573	21272
812.714	21386
812.855	21454
812.997	21583
813.138	21736
813.279	21576
813.421	21458
813.562	21458
813.703	21275
813.845	21074
813.986	20838
814.127	20686
814.268	20465
814.41	20499
814.551	20415
814.692	20537
814.833	20450
814.974	20370
815.115	20473
815.256	20385
815.397	20400
815.539	20206
815.68	20153
815.821	20119
815.962	20286
816.103	20218
816.244	20012
816.385	19970
816.526	19879
816.666	19822
816.807	19639
816.948	19723
817.089	19826
817.23	19700
817.371	19616
817.512	19586
817.653	19620
817.793	19499
817.934	19567
818.075	19590
818.216	19537
818.356	19605
818.497	19422
818.638	19297
818.778	19392
818.919	19358
819.06	19354
819.2	19441
819.341	19521
819.481	19495
819.622	19643
819.762	19883
819.903	19681
820.043	19772
820.184	19495
820.324	19647
820.465	19715
820.605	19605
820.746	19575
820.886	19422
821.026	19594
821.167	19468
821.307	19666
821.447	19464
821.588	19487
821.728	19278
821.868	19133
822.008	19114
822.149	18951
822.289	19053
822.429	18703
822.569	18844
822.709	18665
822.849	18566
822.99	18551
823.13	18441
823.27	18407
823.41	18239
823.55	18197
823.69	18357
823.83	18346
823.97	18163
824.11	18133
824.25	18098
824.389	18041
824.529	18091
824.669	18038
824.809	18228
824.949	18159
825.089	18232
825.228	18087
825.368	17927
825.508	17988
825.648	18003
825.787	17939
825.927	17863
826.067	17752
826.206	17832
826.346	17878
826.485	17878
826.625	17802
826.765	17946
826.904	17927
827.044	17577
827.183	17532
827.323	17520
827.462	17452
827.601	17512
827.741	17585
827.88	17512
828.02	17474
828.159	17532
828.298	17573
828.437	17676
828.577	17532
828.716	17562
828.855	17570
828.994	17444
829.134	17311
829.273	17345
829.412	17360
829.551	17273
829.69	17315
829.829	17246
829.968	17463
830.107	17334
830.246	17261
830.385	17292
830.524	17223
830.663	17006
830.802	17086
830.941	16927
831.08	16896
831.219	16999
831.357	17098
831.496	17185
831.635	16797
831.774	16752
831.913	16854
832.051	16778
832.19	16824
832.329	16790
832.467	16694
832.606	16626
832.744	16577
832.883	16603
833.022	16558
833.16	16577
833.299	16694
833.437	16634
833.576	16710
833.714	16527
833.852	16725
833.991	16660
834.129	16767
834.267	16767
834.406	16649
834.544	16653
834.682	16710
834.821	16660
834.959	16767
835.097	16687
835.235	16824
835.373	16675
835.511	16740
835.65	16596
835.788	16527
835.926	16474
836.064	16356
836.202	16348
836.34	16489
836.478	16653
836.615	16584
836.753	16493
836.891	16649
837.029	16584
837.167	16618
837.305	16508
837.443	16466
837.58	16367
837.718	16599
837.856	16512
837.993	16413
838.131	16356
838.269	16280
838.406	16356
838.544	16352
838.681	16067
838.819	16097
838.956	16040
839.094	15930
839.231	16025
839.369	16135
839.506	16379
839.643	16219
839.781	16090
839.918	15945
840.055	15975
840.193	16013
840.33	15937
840.467	15934
840.604	15926
840.742	16223
840.879	15827
841.016	15903
841.153	15915
841.29	16097
841.427	16074
841.564	16093
841.701	16147
841.838	16006
841.975	15804
842.112	15987
842.249	15827
842.385	15800
842.522	16067
842.659	15865
842.796	15724
842.933	15709
843.069	15724
843.206	15751
843.343	15857
843.479	15770
843.616	15846
843.752	15633
843.889	15564
844.025	15747
844.162	15568
844.298	15663
844.435	15542
844.571	15542
844.708	15652
844.844	15736
844.98	15732
845.117	15644
845.253	15584
845.389	15458
845.525	15469
845.661	15557
845.798	15340
845.934	15458
846.07	15245
846.206	15302
846.342	15485
846.478	15298
846.614	15138
846.75	15108
846.886	15074
847.022	15272
847.158	15119
847.294	15127
847.429	15173
847.565	15142
847.701	15443
847.837	14918
847.972	14815
848.108	14960
848.244	14845
848.379	14773
848.515	14667
848.65	14667
848.786	14670
848.921	14689
849.057	14773
849.192	14758
849.328	14754
849.463	14735
849.598	14697
849.734	14667
849.869	14644
850.004	14530
850.14	14549
850.275	14507
850.41	14484
850.545	14457
850.68	14514
850.815	14533
850.95	14522
851.085	14705
851.22	14590
851.355	14476
851.49	14484
851.625	14549
851.76	14442
851.895	14358
852.03	14412
852.165	14404
852.299	14366
852.434	14636
852.569	14537
852.703	14530
852.838	14587
852.973	14693
853.107	14724
853.242	14442
853.376	14374
853.511	14320
853.645	14305
853.78	14503
853.914	14385
854.048	14351
854.183	14324
854.317	14339
854.451	14469
854.585	14313
854.72	14320
854.854	14438
854.988	14324
855.122	14328
855.256	14229
855.39	14324
855.524	14499
855.658	14427
855.792	14385
855.926	14415
856.06	14393
856.194	14450
856.327	14324
856.461	14374
856.595	14332
856.729	14419
856.862	14503
856.996	14415
857.13	14465
857.263	14511
857.397	14499
857.53	14374
857.664	14393
857.797	14385
857.931	14415
858.064	14362
858.197	14511
858.331	14336
858.464	14259
858.597	14278
858.731	14263
858.864	14366
858.997	14286
859.13	14347
859.263	14415
859.396	14400
859.529	14343
859.662	14320
859.795	14298
859.928	14438
860.061	14537
860.194	14503
860.327	14442
860.46	14366
860.592	14427
860.725	14480
860.858	14575
860.99	14275
861.123	14320
861.256	14404
861.388	14320
861.521	14952
861.653	14290
861.786	14168
861.918	14294
862.05	14259
862.183	14343
862.315	14400
862.447	14503
862.58	14355
862.712	14142
862.844	14058
862.976	14111
863.108	14180
863.24	14450
863.372	14164
863.504	14050
863.636	14161
863.768	14233
863.9	14210
864.032	14039
864.164	14176
864.296	14206
864.428	14374
864.559	14267
864.691	14320
864.823	14206
864.954	14145
865.086	14256
865.217	14084
865.349	14103
865.48	14138
865.612	14130
865.743	14278
865.875	14130
866.006	14096
866.137	14149
866.269	14103
866.4	14161
866.531	14092
866.662	14050
866.793	14145
866.924	14020
867.055	14161
867.186	14100
867.317	14035
867.448	14024
867.579	14043
867.71	13944
867.841	14016
867.972	14183
868.103	14096
868.233	14115
868.364	14153
868.495	14210
868.625	14339
868.756	14473
868.886	14256
869.017	14229
869.147	14412
869.278	14488
869.408	14473
869.539	14389
869.669	14454
869.799	14450
869.929	14480
870.06	14492
870.19	14701
870.32	14697
870.45	14758
870.58	14826
870.71	14876
870.84	14857
870.97	14670
871.1	14644
871.23	15013
871.36	14941
871.489	15005
871.619	14929
871.749	14990
871.879	15024
872.008	15081
872.138	14925
872.267	14998
872.397	14857
872.526	14708
872.656	14849
872.785	14746
872.915	15055
873.044	14994
873.173	14952
873.303	15047
873.432	15119
873.561	15089
873.69	15077
873.819	15051
873.948	15024
874.077	15077
874.206	14921
874.335	15043
874.464	15150
874.593	15386
874.722	15252
874.851	15340
874.979	15332
875.108	15378
875.237	15279
875.365	15249
875.494	15412
875.623	15378
875.751	15245
875.88	15389
876.008	15504
876.136	15606
876.265	15785
876.393	15895
876.521	15778
876.65	15838
876.778	15705
876.906	15709
877.034	15717
877.162	15686
877.29	15656
877.418	15804
877.546	15705
877.674	15694
877.802	15793
877.93	15793
878.058	15690
878.185	15629
878.313	15682
878.441	15686
878.568	15519
878.696	15812
878.824	15743
878.951	15838
879.079	15892
879.206	16017
879.333	15998
879.461	15861
879.588	15918
879.715	15911
879.842	16082
879.97	15903
880.097	15629
880.224	15633
880.351	15671
880.478	15584
880.605	15595
880.732	15625
880.859	15956
880.986	15606
881.112	15557
881.239	15504
881.366	15359
881.493	15249
881.619	15279
881.746	15199
881.872	15218
881.999	15173
882.125	15313
882.252	15268
882.378	15310
882.505	15382
882.631	15245
882.757	15131
882.883	15173
883.01	15154
883.136	15089
883.262	14880
883.388	14948
883.514	15070
883.64	15062
883.766	14998
883.892	14876
884.018	14963
884.143	15108
884.269	15085
884.395	14861
884.52	14743
884.646	14834
884.772	14708
884.897	14636
885.023	14807
885.148	14864
885.274	14937
885.399	14929
885.524	14811
885.65	14693
885.775	14796
885.9	14735
886.025	14864
886.15	14868
886.275	14663
886.4	14731
886.525	14826
886.65	14632
886.775	14686
886.9	14819
887.025	15009
887.149	14686
887.274	14720
887.399	14594
887.523	14560
887.648	14537
887.773	14499
887.897	14670
888.021	14788
888.146	14575
888.27	14727
888.395	14754
888.519	14632
888.643	14613
888.767	14579
888.891	14556
889.015	14552
889.139	14492
889.263	14408
889.387	14579
889.511	14727
889.635	14590
889.759	14507
889.883	14488
890.006	14518
890.13	14518
890.254	14431
890.377	14324
890.501	14381
890.624	14221
890.748	14370
890.871	14149
890.995	14126
891.118	14225
891.241	14286
891.364	14172
891.488	14267
891.611	14119
891.734	14176
891.857	14309
891.98	14248
892.103	14172
892.226	14221
892.349	14199
892.471	14065
892.594	14111
892.717	14164
892.839	14187
892.962	14187
893.085	14256
893.207	14229
893.33	13963
893.452	14043
893.575	14142
893.697	14149
893.819	14434
893.941	14454
894.064	14244
894.186	14100
894.308	14088
894.43	14225
894.552	14332
894.674	14275
894.796	14130
894.918	14305
895.04	14195
895.161	14248
895.283	14278
895.405	14252
895.526	14214
895.648	14271
895.769	14263
895.891	14408
896.012	14298
896.134	14294
896.255	14332
896.376	14339
896.498	14256
896.619	14442
896.74	14480
896.861	14518
896.982	14640
897.103	14857
897.224	14735
897.345	14568
897.466	14571
897.587	14552
897.708	14667
897.828	14590
897.949	14514
898.07	14381
898.19	14564
898.311	14758
898.431	14625
898.552	14682
898.672	14804
898.792	14743
898.913	14629
899.033	14629
899.153	14552
899.273	14488
899.393	14442
899.513	14575
899.633	14511
899.753	14507
899.873	14507
899.993	14648
900.113	14454
900.232	14552
900.352	14530
900.472	14343
900.591	14454
900.711	14476
900.83	14210
900.95	14522
901.069	14465
901.189	14381
901.308	14164
901.427	14096
901.546	14161
901.665	14088
901.784	14126
901.904	14001
902.023	13833
902.141	13723
902.26	13727
902.379	13681
902.498	13616
902.617	13658
902.735	13628
902.854	13704
902.973	13571
903.091	13434
903.21	13415
903.328	13350
903.446	13217
903.565	13259
903.683	13266
903.801	13168
903.919	13183
904.038	13213
904.156	13034
904.274	13133
904.392	13015
904.51	12993
904.627	13091
904.745	13046
904.863	13050
904.981	12901
905.098	12719
905.216	12684
905.334	12779
905.451	12730
905.569	12646
905.686	12776
905.803	12734
905.921	12688
906.038	12692
906.155	12593
906.272	12410
906.389	12479
906.506	12319
906.623	12285
906.74	12243
906.857	12175
906.974	12201
907.091	12353
907.208	12486
907.324	12388
907.441	12228
907.557	12053
907.674	12068
907.79	12026
907.907	11988
908.023	12110
908.139	12011
908.256	11984
908.372	11984
908.488	11939
908.604	11821
908.72	11847
908.836	11878
908.952	11680
909.068	11790
909.184	11866
909.3	11836
909.415	11916
909.531	11855
909.647	11577
909.762	11657
909.878	11524
909.993	11600
910.108	11452
910.224	11558
910.339	11497
910.454	11497
910.57	11398
910.685	11383
910.8	11619
910.915	11676
911.03	11421
911.145	11341
911.259	11261
911.374	11311
911.489	11151
911.604	11193
911.718	11014
911.833	11071
911.947	10961
912.062	10782
912.176	10965
912.291	10995
912.405	10965
912.519	11216
912.633	11185
912.748	11170
912.862	11136
912.976	10957
913.09	10908
913.204	10900
913.318	10889
913.431	11033
913.545	10957
913.659	10968
913.772	10858
913.886	10873
914	10687
914.113	10850
914.226	10934
914.34	10904
914.453	10660
914.566	10816
914.68	10744
914.793	10763
914.906	10558
915.019	10417
915.132	10493
915.245	10573
915.358	10516
915.47	10573
915.583	10512
915.696	10615
915.809	10622
915.921	10771
916.034	10489
916.146	10455
916.259	10466
916.371	10641
916.483	10615
916.595	10398
916.708	10417
916.82	10478
916.932	10493
917.044	10413
917.156	10405
917.268	10341
917.38	10344
917.491	10303
917.603	10386
917.715	10428
917.826	10489
917.938	10280
918.049	10207
918.161	10314
918.272	10443
918.384	10417
918.495	10318
918.606	10223
918.717	10166
918.828	10333
918.939	10337
919.05	10147
919.161	10284
919.272	10010
919.383	10120
919.494	10238
919.604	10443
919.715	10158
919.826	10158
919.936	10375
920.047	10352
920.157	10268
920.267	10478
920.378	10280
920.488	10272
920.598	10489
920.708	10592
920.818	10497
920.928	10451
921.038	10664
921.148	10554
921.258	10318
921.368	10238
921.477	10207
921.587	10097
921.697	10010
921.806	10181
921.916	10048
922.025	9850
922.134	9857
922.244	9766
922.353	9918
922.462	9740
922.571	9740
922.68	9580
922.789	9538
922.898	9542
923.007	9458
923.116	9610
923.224	9530
923.333	9507
923.442	9428
923.55	9420
923.659	9462
923.767	9492
923.876	9439
923.984	9447
924.092	9321
924.201	9363
924.309	9408
924.417	9439
924.525	9363
924.633	9420
924.741	10322
924.849	9142
924.956	9405
925.064	9211
925.172	9173
925.279	9203
925.387	9218
925.494	9199
925.602	9378
925.709	9264
925.816	9253
925.924	9188
926.031	9230
926.138	9256
926.245	9317
926.352	9150
926.459	9241
926.566	9279
926.673	9237
926.779	9085
926.886	9066
926.993	8937
927.099	8944
927.206	8876
927.312	8891
927.419	8956
927.525	8929
927.631	9028
927.737	8830
927.843	8902
927.95	8724
928.056	8872
928.162	8842
928.267	8918
928.373	9447
928.479	8857
928.585	8743
928.69	8781
928.796	8880
928.901	8697
929.007	8644
929.112	8735
929.218	8697
929.323	8716
929.428	8575
929.533	8766
929.638	8492
929.743	8606
929.848	8743
929.953	8613
930.058	8511
930.163	8434
930.267	8366
930.372	8568
930.477	8355
930.581	8606
930.685	8518
930.79	8362
930.894	8419
930.998	8381
931.103	8454
931.207	8157
931.311	8054
931.415	8050
931.519	7852
931.623	7837
