Data from test_V78500241_2048.txt Node
Date: Fri Mar 25 14:47:58 CST 2022
User: usil
Spectrometer: V785-0024
Trigger mode: 0
Integration Time (sec): 4.000000E-1
Scans to average: 1
Nonlinearity correction enabled: false
Boxcar width: 0
Storing dark spectrum: false
XAxis mode: Wavelengths
Number of Pixels in Spectrum: 1024
>>>>>Begin Spectral Data<<<<<
801.071	22051
801.214	21994
801.356	21690
801.499	21713
801.641	21587
801.783	21428
801.926	21572
802.068	21439
802.211	21355
802.353	21298
802.496	21089
802.638	20914
802.78	20842
802.923	20849
803.065	20686
803.208	20743
803.35	20792
803.492	20838
803.635	20933
803.777	20777
803.919	20956
804.061	21207
804.204	20876
804.346	20735
804.488	20735
804.63	20788
804.773	20636
804.915	20750
805.057	20857
805.199	20629
805.341	20750
805.483	20815
805.626	20815
805.768	20708
805.91	20785
806.052	20883
806.194	20682
806.336	20777
806.478	20670
806.62	20792
806.762	20701
806.904	20944
807.046	21104
807.188	21039
807.33	21043
807.472	21116
807.614	21032
807.756	20986
807.898	20853
808.04	20693
808.182	20735
808.324	20765
808.465	20937
808.607	21013
808.749	21096
808.891	21275
809.033	21355
809.174	21154
809.316	21081
809.458	21142
809.6	21150
809.741	21256
809.883	21135
810.025	21302
810.166	21192
810.308	21218
810.45	21260
810.591	21165
810.733	20944
810.875	20804
811.016	20861
811.158	20777
811.299	20842
811.441	20979
811.582	21005
811.724	20876
811.865	20830
812.007	20826
812.148	20849
812.29	20788
812.431	20979
812.573	21161
812.714	21344
812.855	21310
812.997	21325
813.138	21538
813.279	21488
813.421	21408
813.562	21359
813.703	21165
813.845	20956
813.986	20716
814.127	20655
814.268	20446
814.41	20461
814.551	20488
814.692	20514
814.833	20259
814.974	20370
815.115	20450
815.256	20370
815.397	20282
815.539	20351
815.68	20126
815.821	20088
815.962	20073
816.103	20134
816.244	20001
816.385	19936
816.526	19837
816.666	19738
816.807	19518
816.948	19696
817.089	19753
817.23	19506
817.371	19415
817.512	19586
817.653	19628
817.793	19499
817.934	19559
818.075	19601
818.216	19613
818.356	19514
818.497	19297
818.638	19198
818.778	19278
818.919	19232
819.06	19244
819.2	19438
819.341	19480
819.481	19495
819.622	19632
819.762	19795
819.903	19704
820.043	19613
820.184	19578
820.324	19491
820.465	19624
820.605	19575
820.746	19407
820.886	19407
821.026	19548
821.167	19453
821.307	19540
821.447	19460
821.588	19285
821.728	19148
821.868	19084
822.008	18935
822.149	18962
822.289	18814
822.429	18711
822.569	18589
822.709	18646
822.849	18467
822.99	18506
823.13	18479
823.27	18323
823.41	18205
823.55	18220
823.69	18308
823.83	18232
823.97	18171
824.11	17996
824.25	18026
824.389	17847
824.529	18178
824.669	18041
824.809	18072
824.949	18197
825.089	17977
825.228	18041
825.368	17824
825.508	17878
825.648	17855
825.787	17737
825.927	17897
826.067	17840
826.206	17802
826.346	17779
826.485	17726
826.625	17737
826.765	17893
826.904	17824
827.044	17577
827.183	17509
827.323	17505
827.462	17501
827.601	17570
827.741	17436
827.88	17520
828.02	17406
828.159	17417
828.298	17551
828.437	17524
828.577	17512
828.716	17604
828.855	17436
828.994	17231
829.134	17277
829.273	17277
829.412	17216
829.551	17231
829.69	17143
829.829	17250
829.968	17239
830.107	17280
830.246	17178
830.385	17136
830.524	17227
830.663	17071
830.802	16953
830.941	16889
831.08	16812
831.219	16930
831.357	17041
831.496	17121
831.635	16778
831.774	16774
831.913	16797
832.051	16755
832.19	16649
832.329	16801
832.467	16554
832.606	16466
832.744	16493
832.883	16538
833.022	16531
833.16	16538
833.299	16626
833.437	16516
833.576	16588
833.714	16694
833.852	16599
833.991	16584
834.129	16626
834.267	16710
834.406	16584
834.544	16691
834.682	16603
834.821	16554
834.959	16664
835.097	16519
835.235	16687
835.373	16630
835.511	16622
835.65	16546
835.788	16508
835.926	16375
836.064	16367
836.202	16379
836.34	16554
836.478	16523
836.615	16451
836.753	16504
836.891	16618
837.029	16561
837.167	16447
837.305	16459
837.443	16443
837.58	16409
837.718	16459
837.856	16436
837.993	16329
838.131	16451
838.269	16363
838.406	16382
838.544	16177
838.681	16093
838.819	16120
838.956	15892
839.094	15895
839.231	16029
839.369	15945
839.506	16348
839.643	16158
839.781	15960
839.918	15835
840.055	15915
840.193	16021
840.33	15884
840.467	15854
840.604	15987
840.742	16185
840.879	15751
841.016	15865
841.153	15907
841.29	16082
841.427	15922
841.564	15937
841.701	15949
841.838	15854
841.975	15850
842.112	15869
842.249	15778
842.385	15713
842.522	15945
842.659	15751
842.796	15701
842.933	15660
843.069	15652
843.206	15675
843.343	15816
843.479	15774
843.616	15823
843.752	15549
843.889	15515
844.025	15682
844.162	15496
844.298	15545
844.435	15561
844.571	15450
844.708	15526
844.844	15656
844.98	15625
845.117	15751
845.253	15447
845.389	15496
845.525	15443
845.661	15416
845.798	15359
845.934	15428
846.07	15279
846.206	15275
846.342	15492
846.478	15310
846.614	15161
846.75	15161
846.886	15142
847.022	15131
847.158	15112
847.294	15218
847.429	15222
847.565	14990
847.701	15431
847.837	14906
847.972	14807
848.108	14849
848.244	14902
848.379	14769
848.515	14537
848.65	14613
848.786	14758
848.921	14788
849.057	14819
849.192	14853
849.328	14655
849.463	14746
849.598	14674
849.734	14617
849.869	14575
850.004	14457
850.14	14499
850.275	14442
850.41	14351
850.545	14396
850.68	14396
850.815	14465
850.95	14412
851.085	14571
851.22	14503
851.355	14476
851.49	14431
851.625	14438
851.76	14423
851.895	14324
852.03	14313
852.165	14336
852.299	14434
852.434	14473
852.569	14389
852.703	14465
852.838	14587
852.973	14598
853.107	14625
853.242	14454
853.376	14400
853.511	14199
853.645	14248
853.78	14385
853.914	14282
854.048	14358
854.183	14275
854.317	14252
854.451	14457
854.585	14343
854.72	14248
854.854	14389
854.988	14202
855.122	14275
855.256	14199
855.39	14256
855.524	14377
855.658	14389
855.792	14351
855.926	14366
856.06	14381
856.194	14419
856.327	14434
856.461	14267
856.595	14275
856.729	14343
856.862	14442
856.996	14362
857.13	14400
857.263	14488
857.397	14476
857.53	14317
857.664	14442
857.797	14389
857.931	14530
858.064	14396
858.197	14533
858.331	14351
858.464	14336
858.597	14233
858.731	14358
858.864	14351
858.997	14362
859.13	14412
859.263	14355
859.396	14434
859.529	14396
859.662	14267
859.795	14244
859.928	14336
860.061	14495
860.194	14476
860.327	14465
860.46	14366
860.592	14469
860.725	14469
860.858	14450
860.99	14267
861.123	14259
861.256	14282
861.388	14309
861.521	15039
861.653	14278
861.786	14202
861.918	14187
862.05	14271
862.183	14355
862.315	14419
862.447	14339
862.58	14267
862.712	14183
862.844	14062
862.976	14248
863.108	14164
863.24	14514
863.372	14161
863.504	14142
863.636	14172
863.768	14168
863.9	14107
864.032	14069
864.164	14027
864.296	14145
864.428	14252
864.559	14282
864.691	14202
864.823	14214
864.954	14218
865.086	14092
865.217	14157
865.349	14016
865.48	14202
865.612	14107
865.743	14244
865.875	14214
866.006	14043
866.137	14134
866.269	14145
866.4	14126
866.531	14081
866.662	13936
866.793	14100
866.924	14126
867.055	14126
867.186	14138
867.317	14092
867.448	13982
867.579	14062
867.71	13947
867.841	14046
867.972	14134
868.103	14100
868.233	14153
868.364	14214
868.495	14191
868.625	14301
868.756	14427
868.886	14294
869.017	14214
869.147	14370
869.278	14476
869.408	14457
869.539	14419
869.669	14385
869.799	14362
869.929	14545
870.06	14594
870.19	14629
870.32	14682
870.45	14743
870.58	14720
870.71	14895
870.84	14933
870.97	14800
871.1	14724
871.23	14979
871.36	15005
871.489	14811
871.619	14982
871.749	14948
871.879	14998
872.008	15043
872.138	14998
872.267	15093
872.397	14819
872.526	14735
872.656	14899
872.785	14807
872.915	14998
873.044	14998
873.173	14986
873.303	14975
873.432	15043
873.561	15116
873.69	15051
873.819	14952
873.948	15093
874.077	15077
874.206	14925
874.335	15036
874.464	15195
874.593	15325
874.722	15256
874.851	15370
874.979	15351
875.108	15386
875.237	15283
875.365	15344
875.494	15291
875.623	15386
875.751	15249
875.88	15378
876.008	15466
876.136	15622
876.265	15701
876.393	15873
876.521	15854
876.65	15816
876.778	15846
876.906	15671
877.034	15606
877.162	15701
877.29	15694
877.418	15732
877.546	15728
877.674	15682
877.802	15751
877.93	15717
878.058	15774
878.185	15606
878.313	15709
878.441	15751
878.568	15610
878.696	15671
878.824	15679
878.951	15842
879.079	15835
879.206	16120
879.333	15918
879.461	15743
879.588	15819
879.715	16006
879.842	15987
879.97	15736
880.097	15663
880.224	15526
880.351	15610
880.478	15561
880.605	15572
880.732	15564
880.859	15831
880.986	15641
881.112	15667
881.239	15477
881.366	15351
881.493	15283
881.619	15233
881.746	15230
881.872	15351
881.999	15207
882.125	15233
882.252	15249
882.378	15306
882.505	15420
882.631	15252
882.757	14941
882.883	15119
883.01	15100
883.136	15047
883.262	14941
883.388	15009
883.514	15127
883.64	15024
883.766	15024
883.892	14823
884.018	14956
884.143	14982
884.269	15066
884.395	14906
884.52	14712
884.646	14743
884.772	14640
884.897	14777
885.023	14861
885.148	14826
885.274	14944
885.399	14941
885.524	14754
885.65	14743
885.775	14765
885.9	14746
886.025	14842
886.15	14857
886.275	14720
886.4	14746
886.525	14754
886.65	14785
886.775	14731
886.9	14918
887.025	14906
887.149	14754
887.274	14594
887.399	14560
887.523	14564
887.648	14514
887.773	14457
887.897	14670
888.021	14765
888.146	14575
888.27	14693
888.395	14762
888.519	14632
888.643	14499
888.767	14708
888.891	14507
889.015	14488
889.139	14545
889.263	14408
889.387	14621
889.511	14625
889.635	14659
889.759	14507
889.883	14431
890.006	14598
890.13	14613
890.254	14434
890.377	14419
890.501	14229
890.624	14233
890.748	14332
890.871	14271
890.995	14058
891.118	14046
891.241	14123
891.364	14199
891.488	14221
891.611	14278
891.734	14161
891.857	14267
891.98	14130
892.103	14195
892.226	14157
892.349	14145
892.471	14027
892.594	14206
892.717	14081
892.839	14138
892.962	14157
893.085	14244
893.207	14115
893.33	14134
893.452	14062
893.575	14233
893.697	14161
893.819	14328
893.941	14336
894.064	14298
894.186	14088
894.308	14180
894.43	14259
894.552	14366
894.674	14339
894.796	14123
894.918	14218
895.04	14252
895.161	14328
895.283	14263
895.405	14145
895.526	14214
895.648	14199
895.769	14286
895.891	14366
896.012	14377
896.134	14362
896.255	14294
896.376	14275
896.498	14271
896.619	14370
896.74	14309
896.861	14415
896.982	14644
897.103	14823
897.224	14689
897.345	14530
897.466	14461
897.587	14606
897.708	14697
897.828	14663
897.949	14533
898.07	14400
898.19	14541
898.311	14735
898.431	14568
898.552	14667
898.672	14716
898.792	14773
898.913	14663
899.033	14636
899.153	14560
899.273	14495
899.393	14473
899.513	14594
899.633	14579
899.753	14610
899.873	14450
899.993	14590
900.113	14461
900.232	14587
900.352	14473
900.472	14438
900.591	14309
900.711	14366
900.83	14374
900.95	14518
901.069	14518
901.189	14282
901.308	14046
901.427	14012
901.546	14008
901.665	14149
901.784	14031
901.904	13921
902.023	13887
902.141	13719
902.26	13624
902.379	13761
902.498	13681
902.617	13552
902.735	13639
902.854	13544
902.973	13525
903.091	13304
903.21	13278
903.328	13381
903.446	13179
903.565	13221
903.683	13221
903.801	13133
903.919	13149
904.038	13114
904.156	12913
904.274	13175
904.392	12951
904.51	13012
904.627	12958
904.745	13015
904.863	13061
904.981	12886
905.098	12650
905.216	12734
905.334	12677
905.451	12715
905.569	12760
905.686	12738
905.803	12665
905.921	12483
906.038	12646
906.155	12521
906.272	12399
906.389	12509
906.506	12323
906.623	12323
906.74	12296
906.857	12232
906.974	12224
907.091	12338
907.208	12486
907.324	12376
907.441	12175
907.557	12045
907.674	11965
907.79	11939
907.907	11980
908.023	12011
908.139	12106
908.256	11988
908.372	11980
908.488	11901
908.604	11794
908.72	11733
908.836	11859
908.952	11885
909.068	11821
909.184	11836
909.3	11756
909.415	11828
909.531	11847
909.647	11608
909.762	11630
909.878	11562
909.993	11566
910.108	11592
910.224	11573
910.339	11573
910.454	11478
910.57	11429
910.685	11376
910.8	11672
910.915	11589
911.03	11410
911.145	11284
911.259	11326
911.374	11193
911.489	11143
911.604	11102
911.718	11048
911.833	11094
911.947	10892
912.062	10759
912.176	10980
912.291	11067
912.405	10995
912.519	11174
912.633	11227
912.748	11136
912.862	11029
912.976	10923
913.09	10797
913.204	10911
913.318	10949
913.431	10976
913.545	10900
913.659	11086
913.772	10968
913.886	10816
914	10767
914.113	10911
914.226	10904
914.34	10877
914.453	10736
914.566	10850
914.68	10820
914.793	10763
914.906	10558
915.019	10504
915.132	10474
915.245	10531
915.358	10478
915.47	10550
915.583	10577
915.696	10561
915.809	10675
915.921	10736
916.034	10584
916.146	10493
916.259	10398
916.371	10497
916.483	10542
916.595	10470
916.708	10409
916.82	10470
916.932	10451
917.044	10421
917.156	10436
917.268	10303
917.38	10421
917.491	10360
917.603	10375
917.715	10455
917.826	10493
917.938	10402
918.049	10253
918.161	10344
918.272	10504
918.384	10409
918.495	10394
918.606	10246
918.717	10162
918.828	10246
918.939	10261
919.05	10169
919.161	10238
919.272	10059
919.383	10082
919.494	10265
919.604	10459
919.715	10204
919.826	10188
919.936	10192
920.047	10261
920.157	10284
920.267	10478
920.378	10215
920.488	10204
920.598	10382
920.708	10630
920.818	10371
920.928	10470
921.038	10637
921.148	10592
921.258	10398
921.368	10253
921.477	10074
921.587	10017
921.697	10013
921.806	10116
921.916	9991
922.025	9762
922.134	9785
922.244	9736
922.353	9892
922.462	9705
922.571	9595
922.68	9500
922.789	9507
922.898	9580
923.007	9477
923.116	9572
923.224	9496
923.333	9511
923.442	9447
923.55	9348
923.659	9397
923.767	9447
923.876	9439
923.984	9450
924.092	9283
924.201	9412
924.309	9458
924.417	9435
924.525	9367
924.633	9332
924.741	10272
924.849	9112
924.956	9283
925.064	9199
925.172	9138
925.279	9146
925.387	9169
925.494	9199
925.602	9329
925.709	9230
925.816	9116
925.924	9226
926.031	9317
926.138	9241
926.245	9218
926.352	9127
926.459	9241
926.566	9287
926.673	9165
926.779	9070
926.886	8998
926.993	8967
927.099	8910
927.206	8861
927.312	8800
927.419	8887
927.525	8941
927.631	8906
927.737	8773
927.843	8792
927.95	8705
928.056	8705
928.162	8804
928.267	8861
928.373	9500
928.479	8895
928.585	8648
928.69	8766
928.796	8788
928.901	8693
929.007	8587
929.112	8773
929.218	8610
929.323	8579
929.428	8549
929.533	8762
929.638	8606
929.743	8545
929.848	8708
929.953	8651
930.058	8492
930.163	8343
930.267	8396
930.372	8549
930.477	8355
930.581	8575
930.685	8488
930.79	8362
930.894	8305
930.998	8339
931.103	8457
931.207	8119
931.311	8062
931.415	8012
931.519	7814
931.623	7826
