Data from test_V78500241_1389.txt Node
Date: Fri Mar 25 14:43:23 CST 2022
User: usil
Spectrometer: V785-0024
Trigger mode: 0
Integration Time (sec): 4.000000E-1
Scans to average: 1
Nonlinearity correction enabled: false
Boxcar width: 0
Storing dark spectrum: false
XAxis mode: Wavelengths
Number of Pixels in Spectrum: 1024
>>>>>Begin Spectral Data<<<<<
801.071	22440
801.214	22386
801.356	22177
801.499	21953
801.641	21732
801.783	21690
801.926	21816
802.068	21762
802.211	21633
802.353	21591
802.496	21367
802.638	21275
802.78	21237
802.923	21150
803.065	21051
803.208	21135
803.35	21188
803.492	21275
803.635	21260
803.777	21077
803.919	21195
804.061	21549
804.204	21161
804.346	21157
804.488	21062
804.63	21112
804.773	21039
804.915	21119
805.057	21165
805.199	21005
805.341	21108
805.483	21161
805.626	21199
805.768	20941
805.91	21017
806.052	20929
806.194	20868
806.336	21165
806.478	21081
806.62	21009
806.762	21055
806.904	21245
807.046	21530
807.188	21420
807.33	21336
807.472	21519
807.614	21279
807.756	21401
807.898	21313
808.04	21279
808.182	21199
808.324	21245
808.465	21458
808.607	21591
808.749	21644
808.891	21827
809.033	21793
809.174	21785
809.316	21580
809.458	21496
809.6	21458
809.741	21557
809.883	21515
810.025	21580
810.166	21572
810.308	21698
810.45	21561
810.591	21526
810.733	21264
810.875	21287
811.016	21222
811.158	21131
811.299	21294
811.441	21431
811.582	21386
811.724	21195
811.865	21157
812.007	21363
812.148	21127
812.29	21272
812.431	21450
812.573	21591
812.714	21466
812.855	21675
812.997	21880
813.138	21991
813.279	21842
813.421	21656
813.562	21648
813.703	21504
813.845	21367
813.986	21077
814.127	20910
814.268	20868
814.41	20826
814.551	20746
814.692	20765
814.833	20686
814.974	20579
815.115	20815
815.256	20583
815.397	20571
815.539	20659
815.68	20503
815.821	20465
815.962	20503
816.103	20560
816.244	20309
816.385	20294
816.526	20263
816.666	19936
816.807	19917
816.948	20050
817.089	20058
817.23	20069
817.371	19982
817.512	19906
817.653	19909
817.793	19864
817.934	19959
818.075	19864
818.216	19864
818.356	19864
818.497	19693
818.638	19544
818.778	19575
818.919	19658
819.06	19563
819.2	19670
819.341	19753
819.481	19799
819.622	20001
819.762	20138
819.903	20054
820.043	19944
820.184	19890
820.324	19913
820.465	19932
820.605	19928
820.746	19803
820.886	19883
821.026	19822
821.167	19791
821.307	19871
821.447	19799
821.588	19685
821.728	19571
821.868	19384
822.008	19270
822.149	19331
822.289	19168
822.429	18996
822.569	18958
822.709	19050
822.849	18848
822.99	18776
823.13	18696
823.27	18833
823.41	18703
823.55	18627
823.69	18555
823.83	18597
823.97	18441
824.11	18319
824.25	18365
824.389	18372
824.529	18433
824.669	18403
824.809	18464
824.949	18544
825.089	18456
825.228	18330
825.368	18239
825.508	18213
825.648	18155
825.787	18232
825.927	18270
826.067	18163
826.206	18106
826.346	18174
826.485	18095
826.625	18144
826.765	18247
826.904	18235
827.044	18083
827.183	17874
827.323	17798
827.462	17942
827.601	17893
827.741	17889
827.88	17946
828.02	17779
828.159	17843
828.298	17893
828.437	17931
828.577	17813
828.716	18083
828.855	17775
828.994	17554
829.134	17604
829.273	17710
829.412	17573
829.551	17581
829.69	17581
829.829	17554
829.968	17775
830.107	17661
830.246	17707
830.385	17535
830.524	17436
830.663	17372
830.802	17360
830.941	17273
831.08	17162
831.219	17337
831.357	17311
831.496	17360
831.635	17212
831.774	17254
831.913	17105
832.051	17064
832.19	16991
832.329	17147
832.467	16965
832.606	16881
832.744	17014
832.883	16908
833.022	16889
833.16	16881
833.299	16987
833.437	16854
833.576	17071
833.714	16991
833.852	17105
833.991	17086
834.129	16980
834.267	17033
834.406	17033
834.544	16984
834.682	17010
834.821	17022
834.959	17140
835.097	17010
835.235	17029
835.373	16980
835.511	17064
835.65	17006
835.788	16850
835.926	16660
836.064	16740
836.202	16740
836.34	16987
836.478	16972
836.615	16957
836.753	16877
836.891	16972
837.029	16972
837.167	16854
837.305	16812
837.443	16824
837.58	16759
837.718	16816
837.856	16820
837.993	16672
838.131	16755
838.269	16672
838.406	16592
838.544	16592
838.681	16485
838.819	16303
838.956	16356
839.094	16325
839.231	16390
839.369	16421
839.506	16759
839.643	16466
839.781	16352
839.918	16257
840.055	16284
840.193	16295
840.33	16253
840.467	16162
840.604	16272
840.742	16470
840.879	16185
841.016	16150
841.153	16188
841.29	16394
841.427	16287
841.564	16295
841.701	16238
841.838	16158
841.975	16238
842.112	16185
842.249	16010
842.385	15987
842.522	16200
842.659	16116
842.796	16013
842.933	16013
843.069	16055
843.206	16093
843.343	16234
843.479	16131
843.616	16048
843.752	15911
843.889	15846
844.025	16040
844.162	15781
844.298	15964
844.435	15873
844.571	15831
844.708	15949
844.844	16067
844.98	16010
845.117	15953
845.253	15827
845.389	15816
845.525	15918
845.661	16071
845.798	15876
845.934	16071
846.07	15994
846.206	16059
846.342	15983
846.478	15842
846.614	15587
846.75	15458
846.886	15367
847.022	15458
847.158	15477
847.294	15443
847.429	15530
847.565	15458
847.701	15686
847.837	15176
847.972	15093
848.108	15256
848.244	15112
848.379	15089
848.515	14990
848.65	14948
848.786	14979
848.921	14998
849.057	15047
849.192	15135
849.328	15032
849.463	15047
849.598	14895
849.734	15001
849.869	14952
850.004	14792
850.14	14807
850.275	14777
850.41	14724
850.545	14773
850.68	14720
850.815	14868
850.95	14864
851.085	14918
851.22	14963
851.355	14819
851.49	14640
851.625	14746
851.76	14743
851.895	14632
852.03	14708
852.165	14674
852.299	14838
852.434	14830
852.569	14857
852.703	14883
852.838	14823
852.973	14914
853.107	14891
853.242	14750
853.376	14667
853.511	14537
853.645	14629
853.78	14849
853.914	14705
854.048	14674
854.183	14617
854.317	14655
854.451	14750
854.585	14621
854.72	14667
854.854	14705
854.988	14568
855.122	14659
855.256	14511
855.39	14636
855.524	14773
855.658	14636
855.792	14750
855.926	14735
856.06	14727
856.194	14708
856.327	14625
856.461	14594
856.595	14545
856.729	14632
856.862	14663
856.996	14762
857.13	14785
857.263	14746
857.397	14800
857.53	14682
857.664	14758
857.797	14606
857.931	14807
858.064	14701
858.197	14678
858.331	14705
858.464	14537
858.597	14499
858.731	14663
858.864	14682
858.997	14667
859.13	14674
859.263	14686
859.396	14868
859.529	14579
859.662	14579
859.795	14625
859.928	14705
860.061	14678
860.194	14842
860.327	14697
860.46	14632
860.592	14746
860.725	14826
860.858	14777
860.99	14579
861.123	14560
861.256	14503
861.388	14640
861.521	15336
861.653	14610
861.786	14480
861.918	14552
862.05	14499
862.183	14602
862.315	14674
862.447	14720
862.58	14606
862.712	14434
862.844	14347
862.976	14507
863.108	14454
863.24	14868
863.372	14313
863.504	14434
863.636	14431
863.768	14465
863.9	14473
864.032	14389
864.164	14351
864.296	14454
864.428	14648
864.559	14484
864.691	14503
864.823	14507
864.954	14503
865.086	14423
865.217	14412
865.349	14351
865.48	14332
865.612	14469
865.743	14469
865.875	14389
866.006	14492
866.137	14374
866.269	14358
866.4	14370
866.531	14423
866.662	14374
866.793	14355
866.924	14309
867.055	14404
867.186	14408
867.317	14324
867.448	14313
867.579	14400
867.71	14267
867.841	14298
867.972	14400
868.103	14355
868.233	14427
868.364	14450
868.495	14393
868.625	14636
868.756	14773
868.886	14613
869.017	14648
869.147	14800
869.278	14674
869.408	14739
869.539	14670
869.669	14731
869.799	14735
869.929	14705
870.06	14777
870.19	14925
870.32	14948
870.45	15036
870.58	15097
870.71	15176
870.84	15131
870.97	14982
871.1	15039
871.23	15245
871.36	15150
871.489	15161
871.619	15157
871.749	15249
871.879	15249
872.008	15401
872.138	15241
872.267	15211
872.397	15055
872.526	15047
872.656	15097
872.785	15074
872.915	15222
873.044	15386
873.173	15340
873.303	15302
873.432	15439
873.561	15405
873.69	15283
873.819	15203
873.948	15256
874.077	15249
874.206	15291
874.335	15310
874.464	15462
874.593	15656
874.722	15485
874.851	15641
874.979	15671
875.108	15610
875.237	15614
875.365	15469
875.494	15542
875.623	15728
875.751	15466
875.88	15648
876.008	15728
876.136	15774
876.265	16032
876.393	16074
876.521	15983
876.65	16055
876.778	16093
876.906	15972
877.034	15987
877.162	16105
877.29	16067
877.418	16082
877.546	16002
877.674	16029
877.802	15926
877.93	16010
878.058	16017
878.185	15968
878.313	15991
878.441	16074
878.568	15827
878.696	15941
878.824	16078
878.951	16162
879.079	16337
879.206	16394
879.333	16261
879.461	16169
879.588	16257
879.715	16352
879.842	16363
879.97	16268
880.097	15983
880.224	15956
880.351	15937
880.478	15922
880.605	15850
880.732	15953
880.859	16112
880.986	15854
881.112	15941
881.239	15713
881.366	15641
881.493	15591
881.619	15549
881.746	15595
881.872	15504
881.999	15568
882.125	15450
882.252	15576
882.378	15553
882.505	15732
882.631	15511
882.757	15344
882.883	15473
883.01	15298
883.136	15355
883.262	15256
883.388	15256
883.514	15389
883.64	15504
883.766	15370
883.892	15233
884.018	15230
884.143	15401
884.269	15466
884.395	15119
884.52	15058
884.646	14994
884.772	15017
884.897	14944
885.023	15028
885.148	15173
885.274	15100
885.399	15222
885.524	15184
885.65	15058
885.775	15150
885.9	15077
886.025	15180
886.15	15119
886.275	15009
886.4	14979
886.525	15013
886.65	14880
886.775	14895
886.9	15127
887.025	15355
887.149	14952
887.274	14910
887.399	14838
887.523	14804
887.648	14823
887.773	14773
887.897	14952
888.021	14956
888.146	14845
888.27	14937
888.395	15020
888.519	15028
888.643	14948
888.767	15009
888.891	14739
889.015	14705
889.139	14682
889.263	14739
889.387	14765
889.511	14876
889.635	14792
889.759	14697
889.883	14720
890.006	14765
890.13	14800
890.254	14693
890.377	14777
890.501	14549
890.624	14552
890.748	14606
890.871	14526
890.995	14328
891.118	14294
891.241	14518
891.364	14412
891.488	14393
891.611	14389
891.734	14488
891.857	14469
891.98	14457
892.103	14480
892.226	14438
892.349	14488
892.471	14286
892.594	14377
892.717	14454
892.839	14438
892.962	14431
893.085	14473
893.207	14400
893.33	14309
893.452	14343
893.575	14427
893.697	14442
893.819	14579
893.941	14590
894.064	14476
894.186	14400
894.308	14355
894.43	14473
894.552	14598
894.674	14499
894.796	14370
894.918	14358
895.04	14419
895.161	14457
895.283	14530
895.405	14461
895.526	14499
895.648	14457
895.769	14507
895.891	14568
896.012	14571
896.134	14636
896.255	14568
896.376	14552
896.498	14549
896.619	14629
896.74	14575
896.861	14606
896.982	14956
897.103	14956
897.224	14941
897.345	14872
897.466	14800
897.587	14769
897.708	14883
897.828	14971
897.949	14754
898.07	14720
898.19	14815
898.311	14807
898.431	14796
898.552	14910
898.672	14998
898.792	14994
898.913	14952
899.033	14773
899.153	14735
899.273	14610
899.393	14804
899.513	14762
899.633	14845
899.753	14807
899.873	14708
899.993	14838
900.113	14777
900.232	14758
900.352	14746
900.472	14598
900.591	14549
900.711	14659
900.83	14568
900.95	14701
901.069	14632
901.189	14655
901.308	14336
901.427	14237
901.546	14240
901.665	14317
901.784	14278
901.904	14145
902.023	14084
902.141	13849
902.26	13875
902.379	13921
902.498	13830
902.617	13906
902.735	13906
902.854	13875
902.973	13742
903.091	13620
903.21	13628
903.328	13636
903.446	13544
903.565	13285
903.683	13392
903.801	13255
903.919	13339
904.038	13434
904.156	13297
904.274	13308
904.392	13247
904.51	13202
904.627	13198
904.745	13244
904.863	13270
904.981	13088
905.098	12989
905.216	12947
905.334	12943
905.451	12920
905.569	12901
905.686	12985
905.803	12993
905.921	12833
906.038	12810
906.155	12696
906.272	12681
906.389	12692
906.506	12460
906.623	12559
906.74	12559
906.857	12414
906.974	12429
907.091	12616
907.208	12646
907.324	12650
907.441	12467
907.557	12277
907.674	12323
907.79	12167
907.907	12159
908.023	12258
908.139	12243
908.256	12201
908.372	12194
908.488	12136
908.604	12038
908.72	11973
908.836	11969
908.952	12045
909.068	12106
909.184	12114
909.3	12087
909.415	12015
909.531	12015
909.647	11805
909.762	11714
909.878	11767
909.993	11764
910.108	11855
910.224	11710
910.339	11836
910.454	11661
910.57	11623
910.685	11551
910.8	11912
910.915	11859
911.03	11600
911.145	11478
911.259	11452
911.374	11482
911.489	11436
911.604	11349
911.718	11231
911.833	11277
911.947	11140
912.062	11075
912.176	11288
912.291	11216
912.405	11223
912.519	11463
912.633	11406
912.748	11296
912.862	11185
912.976	11029
913.09	10976
913.204	11064
913.318	11102
913.431	11223
913.545	11086
913.659	11277
913.772	11102
913.886	10930
914	10991
914.113	11052
914.226	11048
914.34	11018
914.453	10877
914.566	11029
914.68	10999
914.793	10961
914.906	10702
915.019	10729
915.132	10691
915.245	10702
915.358	10755
915.47	10782
915.583	10763
915.696	10774
915.809	10797
915.921	10869
916.034	10771
916.146	10573
916.259	10641
916.371	10687
916.483	10721
916.595	10664
916.708	10637
916.82	10546
916.932	10729
917.044	10596
917.156	10550
917.268	10466
917.38	10592
917.491	10538
917.603	10596
917.715	10573
917.826	10649
917.938	10440
918.049	10455
918.161	10565
918.272	10675
918.384	10653
918.495	10527
918.606	10466
918.717	10318
918.828	10348
918.939	10363
919.05	10360
919.161	10413
919.272	10223
919.383	10219
919.494	10554
919.604	10573
919.715	10550
919.826	10402
919.936	10413
920.047	10519
920.157	10500
920.267	10607
920.378	10470
920.488	10424
920.598	10592
920.708	10755
920.818	10584
920.928	10618
921.038	10812
921.148	10797
921.258	10459
921.368	10341
921.477	10287
921.587	10188
921.697	10124
921.806	10261
921.916	10188
922.025	10010
922.134	10036
922.244	9968
922.353	9998
922.462	9915
922.571	9812
922.68	9618
922.789	9603
922.898	9690
923.007	9633
923.116	9675
923.224	9629
923.333	9663
923.442	9504
923.55	9568
923.659	9538
923.767	9679
923.876	9462
923.984	9584
924.092	9473
924.201	9443
924.309	9488
924.417	9561
924.525	9393
924.633	9530
924.741	10394
924.849	9256
924.956	9397
925.064	9329
925.172	9188
925.279	9268
925.387	9275
925.494	9325
925.602	9351
925.709	9397
925.816	9218
925.924	9382
926.031	9447
926.138	9275
926.245	9359
926.352	9230
926.459	9370
926.566	9355
926.673	9211
926.779	9085
926.886	9097
926.993	8963
927.099	9009
927.206	9001
927.312	8967
927.419	9062
927.525	8994
927.631	9009
927.737	8918
927.843	8944
927.95	8762
928.056	8914
928.162	8948
928.267	8994
928.373	9622
928.479	9032
928.585	8815
928.69	8910
928.796	8952
928.901	8845
929.007	8655
929.112	8815
929.218	8800
929.323	8727
929.428	8727
929.533	8838
929.638	8644
929.743	8667
929.848	8712
929.953	8731
930.058	8617
930.163	8511
930.267	8465
930.372	8659
930.477	8469
930.581	8655
930.685	8583
930.79	8438
930.894	8419
930.998	8503
931.103	8518
931.207	8199
931.311	8107
931.415	8119
931.519	7951
931.623	7959
