Data from test_V78500241_2287.txt Node
Date: Fri Mar 25 14:49:38 CST 2022
User: usil
Spectrometer: V785-0024
Trigger mode: 0
Integration Time (sec): 4.000000E-1
Scans to average: 1
Nonlinearity correction enabled: false
Boxcar width: 0
Storing dark spectrum: false
XAxis mode: Wavelengths
Number of Pixels in Spectrum: 1024
>>>>>Begin Spectral Data<<<<<
801.071	22188
801.214	22265
801.356	21808
801.499	21732
801.641	21694
801.783	21614
801.926	21641
802.068	21511
802.211	21370
802.353	21397
802.496	21146
802.638	21135
802.78	21070
802.923	21013
803.065	20872
803.208	20910
803.35	20952
803.492	20952
803.635	21070
803.777	20929
803.919	20956
804.061	21264
804.204	20967
804.346	20811
804.488	20785
804.63	20781
804.773	20853
804.915	20842
805.057	20895
805.199	20834
805.341	20910
805.483	20929
805.626	20857
805.768	20712
805.91	20842
806.052	20998
806.194	20674
806.336	21036
806.478	20739
806.62	20739
806.762	20899
806.904	21005
807.046	21142
807.188	21184
807.33	21077
807.472	21241
807.614	21146
807.756	21039
807.898	20933
808.04	20861
808.182	20971
808.324	20872
808.465	20952
808.607	21199
808.749	21203
808.891	21321
809.033	21378
809.174	21218
809.316	21252
809.458	21272
809.6	21089
809.741	21237
809.883	21199
810.025	21268
810.166	21424
810.308	21420
810.45	21313
810.591	21211
810.733	21119
810.875	21009
811.016	21005
811.158	20792
811.299	21032
811.441	21184
811.582	21138
811.724	20941
811.865	20963
812.007	20796
812.148	20960
812.29	20937
812.431	21226
812.573	21249
812.714	21382
812.855	21393
812.997	21530
813.138	21747
813.279	21603
813.421	21420
813.562	21363
813.703	21138
813.845	21116
813.986	20948
814.127	20644
814.268	20602
814.41	20606
814.551	20587
814.692	20629
814.833	20396
814.974	20434
815.115	20396
815.256	20358
815.397	20324
815.539	20332
815.68	20229
815.821	20161
815.962	20370
816.103	20206
816.244	20001
816.385	20005
816.526	19947
816.666	19769
816.807	19772
816.948	19689
817.089	19791
817.23	19750
817.371	19613
817.512	19559
817.653	19548
817.793	19616
817.934	19639
818.075	19632
818.216	19689
818.356	19715
818.497	19499
818.638	19346
818.778	19369
818.919	19369
819.06	19358
819.2	19434
819.341	19502
819.481	19502
819.622	19647
819.762	19818
819.903	19784
820.043	19670
820.184	19590
820.324	19655
820.465	19578
820.605	19597
820.746	19620
820.886	19430
821.026	19559
821.167	19419
821.307	19734
821.447	19518
821.588	19419
821.728	19228
821.868	19061
822.008	19091
822.149	19019
822.289	19023
822.429	18840
822.569	18719
822.709	18661
822.849	18536
822.99	18566
823.13	18597
823.27	18445
823.41	18342
823.55	18247
823.69	18319
823.83	18292
823.97	18213
824.11	18205
824.25	18049
824.389	18140
824.529	18114
824.669	18182
824.809	18186
824.949	18091
825.089	18144
825.228	18148
825.368	17870
825.508	17767
825.648	17954
825.787	17942
825.927	17969
826.067	17718
826.206	17748
826.346	17897
826.485	17855
826.625	17817
826.765	17988
826.904	17893
827.044	17619
827.183	17665
827.323	17493
827.462	17474
827.601	17551
827.741	17516
827.88	17532
828.02	17459
828.159	17547
828.298	17471
828.437	17615
828.577	17509
828.716	17703
828.855	17551
828.994	17368
829.134	17261
829.273	17269
829.412	17322
829.551	17124
829.69	17258
829.829	17277
829.968	17383
830.107	17440
830.246	17311
830.385	17216
830.524	17162
830.663	17147
830.802	17006
830.941	16927
831.08	16900
831.219	16991
831.357	16866
831.496	17060
831.635	16908
831.774	16744
831.913	16797
832.051	16702
832.19	16694
832.329	16653
832.467	16599
832.606	16554
832.744	16550
832.883	16512
833.022	16478
833.16	16558
833.299	16588
833.437	16626
833.576	16599
833.714	16611
833.852	16645
833.991	16748
834.129	16752
834.267	16687
834.406	16687
834.544	16596
834.682	16626
834.821	16653
834.959	16797
835.097	16542
835.235	16675
835.373	16668
835.511	16637
835.65	16481
835.788	16561
835.926	16405
836.064	16272
836.202	16402
836.34	16679
836.478	16577
836.615	16474
836.753	16519
836.891	16649
837.029	16466
837.167	16470
837.305	16421
837.443	16424
837.58	16299
837.718	16341
837.856	16413
837.993	16371
838.131	16421
838.269	16287
838.406	16265
838.544	16295
838.681	16044
838.819	16097
838.956	15956
839.094	15766
839.231	16006
839.369	15991
839.506	16280
839.643	16261
839.781	16017
839.918	15861
840.055	15953
840.193	15903
840.33	15918
840.467	15926
840.604	15934
840.742	16124
840.879	15728
841.016	15743
841.153	15842
841.29	16021
841.427	15945
841.564	15960
841.701	15972
841.838	15842
841.975	15800
842.112	15865
842.249	15705
842.385	15660
842.522	15922
842.659	15686
842.796	15690
842.933	15618
843.069	15644
843.206	15698
843.343	15686
843.479	15656
843.616	15781
843.752	15519
843.889	15477
844.025	15564
844.162	15485
844.298	15599
844.435	15515
844.571	15481
844.708	15584
844.844	15633
844.98	15580
845.117	15610
845.253	15515
845.389	15355
845.525	15435
845.661	15370
845.798	15249
845.934	15195
846.07	15157
846.206	15355
846.342	15367
846.478	15252
846.614	15081
846.75	15005
846.886	15077
847.022	15146
847.158	15070
847.294	15043
847.429	15093
847.565	15058
847.701	15302
847.837	14800
847.972	14777
848.108	14960
848.244	14941
848.379	14724
848.515	14598
848.65	14629
848.786	14731
848.921	14667
849.057	14792
849.192	14750
849.328	14659
849.463	14625
849.598	14617
849.734	14594
849.869	14511
850.004	14374
850.14	14461
850.275	14427
850.41	14343
850.545	14408
850.68	14450
850.815	14374
850.95	14355
851.085	14545
851.22	14514
851.355	14385
851.49	14233
851.625	14415
851.76	14404
851.895	14301
852.03	14301
852.165	14317
852.299	14351
852.434	14412
852.569	14530
852.703	14533
852.838	14598
852.973	14514
853.107	14533
853.242	14355
853.376	14252
853.511	14187
853.645	14240
853.78	14415
853.914	14351
854.048	14244
854.183	14229
854.317	14271
854.451	14457
854.585	14385
854.72	14267
854.854	14328
854.988	14256
855.122	14294
855.256	14195
855.39	14317
855.524	14377
855.658	14313
855.792	14237
855.926	14290
856.06	14252
856.194	14446
856.327	14271
856.461	14339
856.595	14271
856.729	14229
856.862	14366
856.996	14374
857.13	14339
857.263	14400
857.397	14438
857.53	14263
857.664	14309
857.797	14358
857.931	14385
858.064	14358
858.197	14415
858.331	14218
858.464	14199
858.597	14248
858.731	14366
858.864	14358
858.997	14240
859.13	14290
859.263	14305
859.396	14332
859.529	14252
859.662	14237
859.795	14176
859.928	14221
860.061	14495
860.194	14442
860.327	14248
860.46	14263
860.592	14404
860.725	14355
860.858	14355
860.99	14263
861.123	14259
861.256	14221
861.388	14218
861.521	14853
861.653	14149
861.786	14073
861.918	14195
862.05	14199
862.183	14214
862.315	14256
862.447	14267
862.58	14282
862.712	13989
862.844	14065
862.976	14149
863.108	14088
863.24	14446
863.372	14008
863.504	14096
863.636	14039
863.768	14172
863.9	14050
864.032	14039
864.164	14073
864.296	14035
864.428	14126
864.559	14176
864.691	14218
864.823	14142
864.954	14107
865.086	14012
865.217	14058
865.349	14054
865.48	14046
865.612	13997
865.743	14138
865.875	14054
866.006	14077
866.137	14058
866.269	14027
866.4	13982
866.531	14016
866.662	13894
866.793	14020
866.924	13986
867.055	14050
867.186	14058
867.317	13993
867.448	13951
867.579	13955
867.71	13963
867.841	13974
867.972	14069
868.103	14027
868.233	13986
868.364	14016
868.495	14024
868.625	14370
868.756	14347
868.886	14202
869.017	14183
869.147	14415
869.278	14412
869.408	14396
869.539	14240
869.669	14294
869.799	14389
869.929	14446
870.06	14301
870.19	14575
870.32	14495
870.45	14655
870.58	14610
870.71	14716
870.84	14765
870.97	14693
871.1	14663
871.23	14743
871.36	14857
871.489	14773
871.619	14895
871.749	14849
871.879	14861
872.008	15005
872.138	14906
872.267	14792
872.397	14781
872.526	14712
872.656	14705
872.785	14720
872.915	14883
873.044	15058
873.173	14834
873.303	15013
873.432	14929
873.561	14998
873.69	15005
873.819	14872
873.948	15001
874.077	14891
874.206	15051
874.335	15028
874.464	15051
874.593	15226
874.722	15233
874.851	15245
874.979	15233
875.108	15317
875.237	15252
875.365	15188
875.494	15245
875.623	15325
875.751	15233
875.88	15252
876.008	15291
876.136	15405
876.265	15625
876.393	15713
876.521	15785
876.65	15660
876.778	15755
876.906	15542
877.034	15576
877.162	15667
877.29	15679
877.418	15629
877.546	15660
877.674	15614
877.802	15606
877.93	15557
878.058	15724
878.185	15534
878.313	15576
878.441	15618
878.568	15477
878.696	15576
878.824	15778
878.951	15717
879.079	15915
879.206	15972
879.333	15759
879.461	15717
879.588	15762
879.715	15778
879.842	15930
879.97	15720
880.097	15443
880.224	15405
880.351	15504
880.478	15515
880.605	15519
880.732	15488
880.859	15739
880.986	15469
881.112	15576
881.239	15291
881.366	15332
881.493	15203
881.619	15169
881.746	15207
881.872	15188
881.999	15135
882.125	15154
882.252	15249
882.378	15138
882.505	15283
882.631	15062
882.757	15032
882.883	15058
883.01	14994
883.136	14769
883.262	14921
883.388	14872
883.514	14967
883.64	15150
883.766	14914
883.892	14781
884.018	14845
884.143	14986
884.269	15013
884.395	14746
884.52	14670
884.646	14720
884.772	14632
884.897	14644
885.023	14716
885.148	14739
885.274	14762
885.399	14750
885.524	14815
885.65	14640
885.775	14674
885.9	14655
886.025	14739
886.15	14697
886.275	14746
886.4	14663
886.525	14689
886.65	14568
886.775	14670
886.9	14887
887.025	14994
887.149	14674
887.274	14583
887.399	14533
887.523	14434
887.648	14377
887.773	14396
887.897	14667
888.021	14545
888.146	14526
888.27	14667
888.395	14705
888.519	14549
888.643	14419
888.767	14644
888.891	14450
889.015	14385
889.139	14396
889.263	14396
889.387	14476
889.511	14575
889.635	14484
889.759	14404
889.883	14343
890.006	14396
890.13	14617
890.254	14237
890.377	14389
890.501	14267
890.624	14161
890.748	14263
890.871	14145
890.995	14088
891.118	13974
891.241	14043
891.364	14065
891.488	14248
891.611	14031
891.734	14142
891.857	14176
891.98	14073
892.103	14183
892.226	14012
892.349	14077
892.471	13970
892.594	14062
892.717	14157
892.839	14062
892.962	14027
893.085	14111
893.207	14107
893.33	14008
893.452	14142
893.575	14039
893.697	14088
893.819	14286
893.941	14248
894.064	14294
894.186	14069
894.308	14012
894.43	14191
894.552	14320
894.674	14267
894.796	13989
894.918	14081
895.04	14138
895.161	14187
895.283	14149
895.405	14157
895.526	14210
895.648	14259
895.769	14301
895.891	14248
896.012	14419
896.134	14187
896.255	14294
896.376	14271
896.498	14275
896.619	14385
896.74	14237
896.861	14358
896.982	14560
897.103	14823
897.224	14526
897.345	14560
897.466	14408
897.587	14568
897.708	14659
897.828	14568
897.949	14442
898.07	14381
898.19	14427
898.311	14651
898.431	14610
898.552	14682
898.672	14731
898.792	14727
898.913	14663
899.033	14514
899.153	14469
899.273	14457
899.393	14438
899.513	14514
899.633	14370
899.753	14541
899.873	14385
899.993	14651
900.113	14480
900.232	14427
900.352	14473
900.472	14423
900.591	14450
900.711	14305
900.83	14362
900.95	14480
901.069	14446
901.189	14343
901.308	14081
901.427	14020
901.546	13986
901.665	14020
901.784	13944
901.904	13898
902.023	13761
902.141	13799
902.26	13571
902.379	13674
902.498	13674
902.617	13620
902.735	13632
902.854	13609
902.973	13499
903.091	13327
903.21	13373
903.328	13274
903.446	13202
903.565	13175
903.683	13187
903.801	13046
903.919	13122
904.038	13137
904.156	12993
904.274	13023
904.392	12962
904.51	12954
904.627	13012
904.745	13046
904.863	13031
904.981	12776
905.098	12639
905.216	12646
905.334	12654
905.451	12608
905.569	12627
905.686	12639
905.803	12734
905.921	12418
906.038	12570
906.155	12456
906.272	12365
906.389	12311
906.506	12270
906.623	12315
906.74	12232
906.857	12163
906.974	12095
907.091	12361
907.208	12448
907.324	12338
907.441	12201
907.557	11992
907.674	12053
907.79	11984
907.907	11912
908.023	11980
908.139	12087
908.256	11935
908.372	11954
908.488	11950
908.604	11805
908.72	11748
908.836	11771
908.952	11707
909.068	11745
909.184	11783
909.3	11783
909.415	11821
909.531	11760
909.647	11573
909.762	11478
909.878	11490
909.993	11543
910.108	11611
910.224	11551
910.339	11558
910.454	11421
910.57	11425
910.685	11277
910.8	11539
910.915	11592
911.03	11509
911.145	11292
911.259	11227
911.374	11273
911.489	11140
911.604	11056
911.718	11041
911.833	11052
911.947	10900
912.062	10809
912.176	10980
912.291	11037
912.405	11029
912.519	11094
912.633	11185
912.748	11083
912.862	11102
912.976	10881
913.09	10862
913.204	10892
913.318	10835
913.431	10987
913.545	10968
913.659	11010
913.772	10889
913.886	10767
914	10748
914.113	10877
914.226	10949
914.34	10812
914.453	10656
914.566	10896
914.68	10797
914.793	10774
914.906	10432
915.019	10554
915.132	10451
915.245	10546
915.358	10516
915.47	10611
915.583	10573
915.696	10565
915.809	10702
915.921	10683
916.034	10474
916.146	10398
916.259	10409
916.371	10596
916.483	10531
916.595	10413
916.708	10535
916.82	10432
916.932	10478
917.044	10459
917.156	10512
917.268	10261
917.38	10402
917.491	10341
917.603	10394
917.715	10512
917.826	10497
917.938	10363
918.049	10154
918.161	10360
918.272	10508
918.384	10455
918.495	10413
918.606	10268
918.717	10196
918.828	10188
918.939	10257
919.05	10166
919.161	10116
919.272	9994
919.383	10128
919.494	10253
919.604	10497
919.715	10246
919.826	10131
919.936	10257
920.047	10303
920.157	10234
920.267	10474
920.378	10371
920.488	10249
920.598	10363
920.708	10660
920.818	10447
920.928	10421
921.038	10634
921.148	10607
921.258	10223
921.368	10166
921.477	10090
921.587	10112
921.697	9937
921.806	10204
921.916	10002
922.025	9857
922.134	9888
922.244	9755
922.353	9816
922.462	9667
922.571	9622
922.68	9481
922.789	9397
922.898	9526
923.007	9443
923.116	9599
923.224	9477
923.333	9462
923.442	9397
923.55	9344
923.659	9447
923.767	9424
923.876	9317
923.984	9469
924.092	9264
924.201	9363
924.309	9313
924.417	9298
924.525	9249
924.633	9355
924.741	10219
924.849	9123
924.956	9298
925.064	9195
925.172	9039
925.279	9135
925.387	9157
925.494	9119
925.602	9291
925.709	9207
925.816	9131
925.924	9138
926.031	9230
926.138	9180
926.245	9180
926.352	9074
926.459	9176
926.566	9249
926.673	9036
926.779	9009
926.886	9043
926.993	8864
927.099	8861
927.206	8842
927.312	8834
927.419	8921
927.525	8933
927.631	8933
927.737	8796
927.843	8758
927.95	8674
928.056	8777
928.162	8708
928.267	8861
928.373	9447
928.479	8842
928.585	8625
928.69	8766
928.796	8834
928.901	8693
929.007	8602
929.112	8724
929.218	8644
929.323	8552
929.428	8541
929.533	8705
929.638	8533
929.743	8587
929.848	8629
929.953	8533
930.058	8476
930.163	8358
930.267	8351
930.372	8549
930.477	8309
930.581	8579
930.685	8415
930.79	8317
930.894	8358
930.998	8294
931.103	8412
931.207	8142
931.311	8092
931.415	7944
931.519	7792
931.623	7826
