Data from test_V78500241_2770.txt Node
Date: Fri Mar 25 14:53:00 CST 2022
User: usil
Spectrometer: V785-0024
Trigger mode: 0
Integration Time (sec): 4.000000E-1
Scans to average: 1
Nonlinearity correction enabled: false
Boxcar width: 0
Storing dark spectrum: false
XAxis mode: Wavelengths
Number of Pixels in Spectrum: 1024
>>>>>Begin Spectral Data<<<<<
801.071	22120
801.214	21991
801.356	21648
801.499	21599
801.641	21523
801.783	21454
801.926	21511
802.068	21344
802.211	21355
802.353	21237
802.496	21032
802.638	20929
802.78	20899
802.923	20712
803.065	20712
803.208	20644
803.35	20667
803.492	20887
803.635	20857
803.777	20670
803.919	20697
804.061	21165
804.204	20819
804.346	20552
804.488	20659
804.63	20644
804.773	20644
804.915	20651
805.057	20758
805.199	20674
805.341	20727
805.483	20762
805.626	20758
805.768	20670
805.91	20602
806.052	20682
806.194	20693
806.336	20735
806.478	20682
806.62	20594
806.762	20746
806.904	20899
807.046	20952
807.188	20861
807.33	20906
807.472	21100
807.614	20804
807.756	20849
807.898	20739
808.04	20788
808.182	20724
808.324	20701
808.465	20853
808.607	20872
808.749	20971
808.891	21058
809.033	21142
809.174	21093
809.316	21017
809.458	21001
809.6	21047
809.741	21062
809.883	21093
810.025	21161
810.166	21207
810.308	21195
810.45	21020
810.591	21077
810.733	20830
810.875	20796
811.016	20708
811.158	20556
811.299	20777
811.441	20891
811.582	20842
811.724	20807
811.865	20720
812.007	20773
812.148	20724
812.29	20735
812.431	21013
812.573	21138
812.714	21138
812.855	21211
812.997	21302
813.138	21572
813.279	21435
813.421	21291
813.562	21226
813.703	21017
813.845	20838
813.986	20739
814.127	20522
814.268	20408
814.41	20389
814.551	20404
814.692	20476
814.833	20229
814.974	20286
815.115	20309
815.256	20164
815.397	20218
815.539	20225
815.68	20035
815.821	20027
815.962	20031
816.103	20138
816.244	19887
816.385	19769
816.526	19932
816.666	19597
816.807	19426
816.948	19521
817.089	19552
817.23	19544
817.371	19476
817.512	19464
817.653	19449
817.793	19346
817.934	19449
818.075	19506
818.216	19453
818.356	19304
818.497	19259
818.638	19103
818.778	19141
818.919	19168
819.06	19225
819.2	19206
819.341	19381
819.481	19301
819.622	19544
819.762	19639
819.903	19651
820.043	19384
820.184	19457
820.324	19419
820.465	19548
820.605	19384
820.746	19384
820.886	19327
821.026	19441
821.167	19426
821.307	19537
821.447	19270
821.588	19137
821.728	19168
821.868	19015
822.008	18913
822.149	18760
822.289	18745
822.429	18627
822.569	18467
822.709	18547
822.849	18410
822.99	18350
823.13	18334
823.27	18254
823.41	18247
823.55	18174
823.69	18121
823.83	18140
823.97	18117
824.11	18038
824.25	17961
824.389	17950
824.529	18038
824.669	17836
824.809	18015
824.949	18034
825.089	17988
825.228	17912
825.368	17630
825.508	17802
825.648	17756
825.787	17729
825.927	17737
826.067	17581
826.206	17596
826.346	17653
826.485	17710
826.625	17687
826.765	17741
826.904	17752
827.044	17512
827.183	17452
827.323	17383
827.462	17463
827.601	17417
827.741	17452
827.88	17478
828.02	17383
828.159	17395
828.298	17391
828.437	17478
828.577	17345
828.716	17539
828.855	17433
828.994	17124
829.134	17079
829.273	17143
829.412	17178
829.551	17060
829.69	17113
829.829	17128
829.968	17223
830.107	17113
830.246	17075
830.385	17003
830.524	16991
830.663	17025
830.802	16793
830.941	16786
831.08	16809
831.219	16908
831.357	16805
831.496	16991
831.635	16767
831.774	16687
831.913	16592
832.051	16561
832.19	16538
832.329	16618
832.467	16421
832.606	16375
832.744	16459
832.883	16436
833.022	16405
833.16	16428
833.299	16493
833.437	16519
833.576	16516
833.714	16542
833.852	16599
833.991	16618
834.129	16561
834.267	16626
834.406	16474
834.544	16554
834.682	16443
834.821	16504
834.959	16774
835.097	16447
835.235	16523
835.373	16538
835.511	16538
835.65	16386
835.788	16337
835.926	16253
836.064	16280
836.202	16284
836.34	16451
836.478	16531
836.615	16367
836.753	16356
836.891	16470
837.029	16485
837.167	16367
837.305	16375
837.443	16276
837.58	16177
837.718	16325
837.856	16280
837.993	16192
838.131	16325
838.269	16257
838.406	16181
838.544	16169
838.681	16048
838.819	15892
838.956	15717
839.094	15880
839.231	15842
839.369	15903
839.506	16230
839.643	16078
839.781	15907
839.918	15793
840.055	15838
840.193	15827
840.33	15766
840.467	15842
840.604	15880
840.742	16093
840.879	15819
841.016	15850
841.153	15762
841.29	15865
841.427	15865
841.564	15838
841.701	15895
841.838	15675
841.975	15755
842.112	15713
842.249	15633
842.385	15629
842.522	15838
842.659	15667
842.796	15629
842.933	15591
843.069	15622
843.206	15584
843.343	15766
843.479	15591
843.616	15709
843.752	15496
843.889	15412
844.025	15553
844.162	15393
844.298	15561
844.435	15511
844.571	15428
844.708	15466
844.844	15530
844.98	15561
845.117	15454
845.253	15389
845.389	15313
845.525	15359
845.661	15302
845.798	15176
845.934	15329
846.07	15165
846.206	15370
846.342	15275
846.478	15173
846.614	15062
846.75	14872
846.886	14921
847.022	15112
847.158	14925
847.294	14952
847.429	14963
847.565	14952
847.701	15199
847.837	14773
847.972	14701
848.108	14792
848.244	14754
848.379	14598
848.515	14560
848.65	14583
848.786	14598
848.921	14526
849.057	14587
849.192	14746
849.328	14621
849.463	14541
849.598	14549
849.734	14473
849.869	14454
850.004	14317
850.14	14320
850.275	14347
850.41	14343
850.545	14370
850.68	14358
850.815	14381
850.95	14328
851.085	14560
851.22	14526
851.355	14351
851.49	14374
851.625	14248
851.76	14389
851.895	14256
852.03	14221
852.165	14294
852.299	14347
852.434	14385
852.569	14377
852.703	14275
852.838	14473
852.973	14461
853.107	14484
853.242	14286
853.376	14252
853.511	14123
853.645	14244
853.78	14419
853.914	14366
854.048	14149
854.183	14218
854.317	14244
854.451	14347
854.585	14256
854.72	14183
854.854	14259
854.988	14103
855.122	14210
855.256	14077
855.39	14206
855.524	14282
855.658	14305
855.792	14214
855.926	14313
856.06	14358
856.194	14282
856.327	14259
856.461	14183
856.595	14168
856.729	14240
856.862	14313
856.996	14195
857.13	14263
857.263	14423
857.397	14427
857.53	14275
857.664	14309
857.797	14381
857.931	14389
858.064	14339
858.197	14339
858.331	14240
858.464	14202
858.597	14183
858.731	14301
858.864	14202
858.997	14343
859.13	14271
859.263	14229
859.396	14313
859.529	14218
859.662	14164
859.795	14233
859.928	14298
860.061	14362
860.194	14446
860.327	14290
860.46	14381
860.592	14351
860.725	14434
860.858	14419
860.99	14233
861.123	14282
861.256	14084
861.388	14320
861.521	14933
861.653	14145
861.786	14096
861.918	14176
862.05	14252
862.183	14176
862.315	14187
862.447	14259
862.58	14199
862.712	13989
862.844	13967
862.976	14115
863.108	14054
863.24	14503
863.372	13947
863.504	14024
863.636	13955
863.768	14073
863.9	14202
864.032	13951
864.164	14016
864.296	14119
864.428	14183
864.559	14142
864.691	14153
864.823	14069
864.954	14081
865.086	14088
865.217	14001
865.349	13928
865.48	13963
865.612	14130
865.743	14138
865.875	14096
866.006	13898
866.137	13947
866.269	13951
866.4	14012
866.531	13940
866.662	13909
866.793	14008
866.924	13997
867.055	14027
867.186	13944
867.317	13925
867.448	13967
867.579	13974
867.71	14012
867.841	14020
867.972	13978
868.103	14054
868.233	14050
868.364	14088
868.495	14115
868.625	14145
868.756	14339
868.886	14248
869.017	14237
869.147	14366
869.278	14381
869.408	14210
869.539	14313
869.669	14229
869.799	14233
869.929	14324
870.06	14362
870.19	14667
870.32	14552
870.45	14621
870.58	14697
870.71	14659
870.84	14697
870.97	14682
871.1	14667
871.23	14788
871.36	14826
871.489	14743
871.619	14838
871.749	14826
871.879	14967
872.008	14944
872.138	14857
872.267	14994
872.397	14781
872.526	14708
872.656	14693
872.785	14739
872.915	14910
873.044	14971
873.173	14921
873.303	15020
873.432	14906
873.561	14990
873.69	14982
873.819	14952
873.948	15020
874.077	14872
874.206	14838
874.335	14868
874.464	15043
874.593	15173
874.722	15211
874.851	15283
874.979	15279
875.108	15268
875.237	15241
875.365	15146
875.494	15161
875.623	15302
875.751	15173
875.88	15192
876.008	15336
876.136	15454
876.265	15568
876.393	15903
876.521	15629
876.65	15766
876.778	15671
876.906	15564
877.034	15652
877.162	15656
877.29	15580
877.418	15561
877.546	15755
877.674	15606
877.802	15663
877.93	15804
878.058	15625
878.185	15538
878.313	15580
878.441	15545
878.568	15515
878.696	15603
878.824	15641
878.951	15785
879.079	15800
879.206	15895
879.333	15835
879.461	15713
879.588	15686
879.715	15781
879.842	15960
879.97	15759
880.097	15424
880.224	15580
880.351	15507
880.478	15515
880.605	15321
880.732	15553
880.859	15785
880.986	15545
881.112	15481
881.239	15420
881.366	15245
881.493	15142
881.619	15119
881.746	15218
881.872	15142
881.999	15176
882.125	15116
882.252	15245
882.378	15138
882.505	15294
882.631	15081
882.757	15005
882.883	15116
883.01	15036
883.136	14937
883.262	14796
883.388	14781
883.514	14941
883.64	15039
883.766	14796
883.892	14830
884.018	14796
884.143	14899
884.269	15047
884.395	14678
884.52	14522
884.646	14663
884.772	14533
884.897	14526
885.023	14617
885.148	14682
885.274	14887
885.399	14899
885.524	14670
885.65	14659
885.775	14720
885.9	14705
886.025	14754
886.15	14720
886.275	14636
886.4	14587
886.525	14701
886.65	14606
886.775	14590
886.9	14811
887.025	14853
887.149	14712
887.274	14541
887.399	14469
887.523	14423
887.648	14404
887.773	14301
887.897	14579
888.021	14575
888.146	14480
888.27	14659
888.395	14697
888.519	14606
888.643	14503
888.767	14545
888.891	14419
889.015	14377
889.139	14454
889.263	14377
889.387	14488
889.511	14492
889.635	14480
889.759	14381
889.883	14362
890.006	14301
890.13	14526
890.254	14336
890.377	14389
890.501	14161
890.624	14180
890.748	14199
890.871	14077
890.995	14081
891.118	14020
891.241	14084
891.364	13974
891.488	14199
891.611	14054
891.734	14123
891.857	14123
891.98	14103
892.103	14183
892.226	14123
892.349	14035
892.471	13928
892.594	13997
892.717	14058
892.839	14039
892.962	14020
893.085	14043
893.207	14016
893.33	13974
893.452	13887
893.575	14084
893.697	14096
893.819	14206
893.941	14275
894.064	14233
894.186	14058
894.308	14134
894.43	14256
894.552	14377
894.674	14183
894.796	14084
894.918	14145
895.04	14088
895.161	14271
895.283	14225
895.405	14157
895.526	14237
895.648	14138
895.769	14225
895.891	14309
896.012	14278
896.134	14183
896.255	14218
896.376	14199
896.498	14161
896.619	14339
896.74	14328
896.861	14301
896.982	14629
897.103	14777
897.224	14476
897.345	14488
897.466	14465
897.587	14476
897.708	14629
897.828	14678
897.949	14518
898.07	14408
898.19	14469
898.311	14594
898.431	14541
898.552	14625
898.672	14663
898.792	14670
898.913	14708
899.033	14560
899.153	14438
899.273	14358
899.393	14415
899.513	14484
899.633	14530
899.753	14438
899.873	14419
899.993	14457
900.113	14393
900.232	14457
900.352	14431
900.472	14343
900.591	14244
900.711	14415
900.83	14305
900.95	14434
901.069	14434
901.189	14339
901.308	14027
901.427	13936
901.546	14005
901.665	13978
901.784	13997
901.904	13902
902.023	13761
902.141	13624
902.26	13540
902.379	13601
902.498	13559
902.617	13556
902.735	13575
902.854	13582
902.973	13525
903.091	13251
903.21	13247
903.328	13316
903.446	13114
903.565	13118
903.683	13118
903.801	12951
903.919	13095
904.038	13107
904.156	12966
904.274	13084
904.392	12909
904.51	12928
904.627	13012
904.745	12947
904.863	12962
904.981	12730
905.098	12601
905.216	12650
905.334	12715
905.451	12604
905.569	12669
905.686	12688
905.803	12589
905.921	12452
906.038	12536
906.155	12486
906.272	12308
906.389	12266
906.506	12232
906.623	12190
906.74	12175
906.857	12159
906.974	12026
907.091	12319
907.208	12235
907.324	12308
907.441	12171
907.557	11958
907.674	11942
907.79	11866
907.907	11893
908.023	11984
908.139	11973
908.256	11920
908.372	11920
908.488	11878
908.604	11817
908.72	11649
908.836	11741
908.952	11714
909.068	11684
909.184	11756
909.3	11718
909.415	11771
909.531	11786
909.647	11577
909.762	11459
909.878	11467
909.993	11459
910.108	11490
910.224	11421
910.339	11501
910.454	11372
910.57	11372
910.685	11216
910.8	11570
910.915	11509
911.03	11379
911.145	11242
911.259	11231
911.374	11136
911.489	11143
911.604	11117
911.718	10911
911.833	10942
911.947	10866
912.062	10824
912.176	10949
912.291	10854
912.405	10972
912.519	11124
912.633	11216
912.748	10953
912.862	11037
912.976	10923
913.09	10736
913.204	10824
913.318	10828
913.431	10942
913.545	10911
913.659	10927
913.772	10835
913.886	10744
914	10630
914.113	10820
914.226	10885
914.34	10847
914.453	10664
914.566	10767
914.68	10706
914.793	10664
914.906	10504
915.019	10409
915.132	10402
915.245	10405
915.358	10466
915.47	10497
915.583	10500
915.696	10512
915.809	10542
915.921	10535
916.034	10367
916.146	10417
916.259	10489
916.371	10485
916.483	10493
916.595	10375
916.708	10379
916.82	10386
916.932	10398
917.044	10329
917.156	10375
917.268	10341
917.38	10299
917.491	10234
917.603	10276
917.715	10413
917.826	10432
917.938	10257
918.049	10086
918.161	10268
918.272	10341
918.384	10390
918.495	10337
918.606	10207
918.717	10036
918.828	10192
918.939	10227
919.05	10109
919.161	10219
919.272	9903
919.383	10029
919.494	10246
919.604	10394
919.715	10211
919.826	10128
919.936	10177
920.047	10310
920.157	10211
920.267	10440
920.378	10257
920.488	10204
920.598	10375
920.708	10504
920.818	10329
920.928	10344
921.038	10592
921.148	10523
921.258	10227
921.368	10219
921.477	10067
921.587	10074
921.697	9934
921.806	10063
921.916	10029
922.025	9743
922.134	9713
922.244	9705
922.353	9774
922.462	9713
922.571	9660
922.68	9545
922.789	9488
922.898	9504
923.007	9359
923.116	9450
923.224	9492
923.333	9477
923.442	9359
923.55	9310
923.659	9420
923.767	9363
923.876	9260
923.984	9420
924.092	9325
924.201	9302
924.309	9389
924.417	9363
924.525	9325
924.633	9287
924.741	10086
924.849	9104
924.956	9302
925.064	9176
925.172	9047
925.279	9001
925.387	9108
925.494	9123
925.602	9291
925.709	9214
925.816	9146
925.924	9154
926.031	9192
926.138	9161
926.245	9195
926.352	9062
926.459	9176
926.566	9226
926.673	9081
926.779	9028
926.886	8998
926.993	8864
927.099	8796
927.206	8826
927.312	8804
927.419	8864
927.525	8769
927.631	8918
927.737	8762
927.843	8769
927.95	8651
928.056	8766
928.162	8785
928.267	8815
928.373	9431
928.479	8910
928.585	8587
928.69	8727
928.796	8766
928.901	8648
929.007	8499
929.112	8651
929.218	8587
929.323	8682
929.428	8575
929.533	8724
929.638	8492
929.743	8594
929.848	8564
929.953	8541
930.058	8484
930.163	8332
930.267	8393
930.372	8473
930.477	8294
930.581	8495
930.685	8381
930.79	8275
930.894	8298
930.998	8237
931.103	8469
931.207	8046
931.311	7982
931.415	7913
931.519	7795
931.623	7765
