Data from test_V78500241_570.txt Node
Date: Fri Mar 25 14:37:41 CST 2022
User: usil
Spectrometer: V785-0024
Trigger mode: 0
Integration Time (sec): 4.000000E-1
Scans to average: 1
Nonlinearity correction enabled: false
Boxcar width: 0
Storing dark spectrum: false
XAxis mode: Wavelengths
Number of Pixels in Spectrum: 1024
>>>>>Begin Spectral Data<<<<<
801.071	27519
801.214	27538
801.356	27256
801.499	27317
801.641	26918
801.783	26986
801.926	27043
802.068	27108
802.211	26857
802.353	26716
802.496	26621
802.638	26682
802.78	26583
802.923	26511
803.065	26446
803.208	26583
803.35	26514
803.492	26670
803.635	26583
803.777	26518
803.919	26602
804.061	26986
804.204	26727
804.346	26575
804.488	26556
804.63	26667
804.773	26568
804.915	26644
805.057	26788
805.199	26864
805.341	26994
805.483	27085
805.626	27100
805.768	26921
805.91	27055
806.052	27131
806.194	27074
806.336	27382
806.478	27264
806.62	27427
806.762	27770
806.904	27918
807.046	28390
807.188	28409
807.33	28603
807.472	29041
807.614	29231
807.756	29786
807.898	30163
808.04	31061
808.182	32320
808.324	33644
808.465	35227
808.607	36924
808.749	38545
808.891	39447
809.033	39557
809.174	38480
809.316	36836
809.458	35064
809.6	33211
809.741	32020
809.883	30867
810.025	30155
810.166	29539
810.308	29341
810.45	28892
810.591	28500
810.733	28215
810.875	28078
811.016	27804
811.158	27622
811.299	27701
811.441	27595
811.582	27595
811.724	27336
811.865	27275
812.007	27176
812.148	27272
812.29	27416
812.431	27260
812.573	27405
812.714	27431
812.855	27568
812.997	27587
813.138	27812
813.279	27694
813.421	27386
813.562	27523
813.703	27359
813.845	27233
813.986	26674
814.127	26590
814.268	26552
814.41	26457
814.551	26446
814.692	26419
814.833	26320
814.974	26263
815.115	26328
815.256	26191
815.397	26168
815.539	26138
815.68	26039
815.821	26027
815.962	26031
816.103	26012
816.244	25814
816.385	25742
816.526	25590
816.666	25529
816.807	25422
816.948	25403
817.089	25411
817.23	25270
817.371	25354
817.512	25354
817.653	25194
817.793	25316
817.934	25331
818.075	25255
818.216	25251
818.356	25190
818.497	25110
818.638	24962
818.778	25091
818.919	25053
819.06	25076
819.2	25202
819.341	25266
819.481	25118
819.622	25274
819.762	25601
819.903	25460
820.043	25285
820.184	25236
820.324	25282
820.465	25312
820.605	25255
820.746	25232
820.886	24875
821.026	25141
821.167	25183
821.307	25225
821.447	25148
821.588	25042
821.728	24768
821.868	24715
822.008	24540
822.149	24441
822.289	24464
822.429	24300
822.569	24232
822.709	24068
822.849	24163
822.99	23980
823.13	23931
823.27	23931
823.41	23897
823.55	23764
823.69	23737
823.83	23901
823.97	23661
824.11	23547
824.25	23512
824.389	23566
824.529	23615
824.669	23562
824.809	23615
824.949	23512
825.089	23604
825.228	23528
825.368	23311
825.508	23326
825.648	23265
825.787	23391
825.927	23452
826.067	23212
826.206	23372
826.346	23345
826.485	23322
826.625	23174
826.765	23417
826.904	23364
827.044	23147
827.183	23090
827.323	22896
827.462	23003
827.601	22915
827.741	22934
827.88	22976
828.02	22691
828.159	22991
828.298	22854
828.437	22854
828.577	22820
828.716	23067
828.855	22824
828.994	22721
829.134	22687
829.273	22729
829.412	22577
829.551	22550
829.69	22596
829.829	22675
829.968	22592
830.107	22694
830.246	22660
830.385	22561
830.524	22554
830.663	22497
830.802	22200
830.941	22219
831.08	22363
831.219	22261
831.357	22379
831.496	22443
831.635	22166
831.774	22166
831.913	21972
832.051	21987
832.19	22002
832.329	22135
832.467	21934
832.606	21975
832.744	21911
832.883	21926
833.022	22048
833.16	22040
833.299	22093
833.437	22162
833.576	22295
833.714	22375
833.852	22417
833.991	22504
834.129	22588
834.267	22603
834.406	22538
834.544	22363
834.682	22516
834.821	22379
834.959	22443
835.097	22150
835.235	22299
835.373	22067
835.511	22059
835.65	21964
835.788	21922
835.926	21724
836.064	21542
836.202	21679
836.34	21762
836.478	21930
836.615	21751
836.753	21736
836.891	21770
837.029	21747
837.167	21675
837.305	21656
837.443	21572
837.58	21561
837.718	21614
837.856	21576
837.993	21553
838.131	21458
838.269	21515
838.406	21485
838.544	21401
838.681	21279
838.819	21256
838.956	21032
839.094	20990
839.231	21195
839.369	21112
839.506	21397
839.643	21157
839.781	21017
839.918	20910
840.055	20861
840.193	20868
840.33	20868
840.467	20960
840.604	20788
840.742	21085
840.879	20727
841.016	20815
841.153	20838
841.29	20960
841.427	20956
841.564	20880
841.701	20823
841.838	20853
841.975	20838
842.112	20769
842.249	20640
842.385	20594
842.522	20910
842.659	20705
842.796	20724
842.933	20613
843.069	20697
843.206	20636
843.343	20708
843.479	20701
843.616	20708
843.752	20575
843.889	20659
844.025	20746
844.162	20663
844.298	20712
844.435	20716
844.571	20845
844.708	21039
844.844	21298
844.98	21462
845.117	21785
845.253	22226
845.389	23117
845.525	24795
845.661	27709
845.798	31171
845.934	34173
846.07	35501
846.206	34862
846.342	32393
846.478	28900
846.614	25674
846.75	23421
846.886	22352
847.022	21561
847.158	20975
847.294	20727
847.429	20484
847.565	20385
847.701	20568
847.837	19993
847.972	19944
848.108	20043
848.244	19932
848.379	19757
848.515	19582
848.65	19658
848.786	19651
848.921	19590
849.057	19620
849.192	19647
849.328	19590
849.463	19548
849.598	19556
849.734	19346
849.869	19384
850.004	19263
850.14	19209
850.275	19259
850.41	19232
850.545	19107
850.68	19282
850.815	19270
850.95	19285
851.085	19362
851.22	19187
851.355	19278
851.49	19129
851.625	19206
851.76	19148
851.895	19118
852.03	19164
852.165	19137
852.299	19137
852.434	19259
852.569	19392
852.703	19293
852.838	19251
852.973	19343
853.107	19441
853.242	19206
853.376	19244
853.511	19080
853.645	19080
853.78	19179
853.914	19118
854.048	19179
854.183	19133
854.317	19289
854.451	19365
854.585	19198
854.72	19335
854.854	19297
854.988	19145
855.122	19179
855.256	18970
855.39	19053
855.524	19209
855.658	19122
855.792	18993
855.926	19148
856.06	19137
856.194	19141
856.327	19221
856.461	18913
856.595	18989
856.729	18981
856.862	19038
856.996	19050
857.13	19019
857.263	19038
857.397	19069
857.53	19065
857.664	19042
857.797	19008
857.931	19099
858.064	18932
858.197	19027
858.331	19038
858.464	18958
858.597	18890
858.731	18848
858.864	18905
858.997	18920
859.13	19027
859.263	19015
859.396	19084
859.529	18863
859.662	18905
859.795	18905
859.928	18970
860.061	19031
860.194	19171
860.327	18852
860.46	18848
860.592	19057
860.725	19103
860.858	19012
860.99	18810
861.123	18871
861.256	18802
861.388	18897
861.521	19491
861.653	18745
861.786	18783
861.918	18707
862.05	18882
862.183	18882
862.315	18985
862.447	18932
862.58	18814
862.712	18597
862.844	18665
862.976	18711
863.108	18620
863.24	19046
863.372	18540
863.504	18555
863.636	18631
863.768	18612
863.9	18437
864.032	18483
864.164	18582
864.296	18631
864.428	18696
864.559	18601
864.691	18711
864.823	18604
864.954	18536
865.086	18532
865.217	18620
865.349	18486
865.48	18540
865.612	18467
865.743	18608
865.875	18540
866.006	18429
866.137	18563
866.269	18563
866.4	18528
866.531	18410
866.662	18502
866.793	18426
866.924	18502
867.055	18589
867.186	18437
867.317	18441
867.448	18357
867.579	18399
867.71	18445
867.841	18475
867.972	18410
868.103	18528
868.233	18456
868.364	18407
868.495	18532
868.625	18817
868.756	18696
868.886	18608
869.017	18726
869.147	18844
869.278	18787
869.408	18829
869.539	18608
869.669	18726
869.799	18772
869.929	18844
870.06	18947
870.19	19050
870.32	19069
870.45	19118
870.58	19228
870.71	19304
870.84	19259
870.97	19122
871.1	19251
871.23	19335
871.36	19289
871.489	19190
871.619	19445
871.749	19403
871.879	19419
872.008	19548
872.138	19327
872.267	19255
872.397	19225
872.526	19301
872.656	19282
872.785	19190
872.915	19472
873.044	19529
873.173	19422
873.303	19571
873.432	19480
873.561	19666
873.69	19590
873.819	19563
873.948	19696
874.077	19658
874.206	19426
874.335	19540
874.464	19575
874.593	19928
874.722	19807
874.851	19944
874.979	19909
875.108	20043
875.237	20058
875.365	19928
875.494	19909
875.623	20031
875.751	20058
875.88	20084
876.008	20225
876.136	20343
876.265	20609
876.393	20670
876.521	20712
876.65	20670
876.778	20693
876.906	20689
877.034	20693
877.162	20739
877.29	20739
877.418	20823
877.546	20853
877.674	20663
877.802	20979
877.93	21036
878.058	21039
878.185	21188
878.313	21431
878.441	21595
878.568	21629
878.696	21979
878.824	22363
878.951	23033
879.079	23992
879.206	24966
879.333	26202
879.461	27108
879.588	27747
879.715	27755
879.842	27393
879.97	26100
880.097	24901
880.224	23916
880.351	23345
880.478	23071
880.605	22554
880.732	22512
880.859	22523
880.986	22166
881.112	22063
881.239	21949
881.366	21934
881.493	21774
881.619	21679
881.746	21789
881.872	21857
881.999	21743
882.125	21797
882.252	21869
882.378	21903
882.505	21972
882.631	21816
882.757	21648
882.883	21675
883.01	21743
883.136	21599
883.262	21519
883.388	21496
883.514	21667
883.64	21694
883.766	21492
883.892	21393
884.018	21488
884.143	21595
884.269	21610
884.395	21603
884.52	21214
884.646	21424
884.772	21325
884.897	21245
885.023	21268
885.148	21393
885.274	21374
885.399	21378
885.524	21142
885.65	21154
885.775	21104
885.9	20994
886.025	21005
886.15	20872
886.275	20697
886.4	20549
886.525	20545
886.65	20495
886.775	20294
886.9	20518
887.025	20617
887.149	20427
887.274	20088
887.399	19978
887.523	20077
887.648	19799
887.773	19837
887.897	19879
888.021	19970
888.146	19666
888.27	19811
888.395	19883
888.519	19632
888.643	19799
888.767	19734
888.891	19540
889.015	19411
889.139	19548
889.263	19384
889.387	19445
889.511	19601
889.635	19480
889.759	19457
889.883	19278
890.006	19274
890.13	19373
890.254	19133
890.377	19183
890.501	19080
890.624	18909
890.748	19012
890.871	18894
890.995	18760
891.118	18791
891.241	18783
891.364	18711
891.488	18920
891.611	18715
891.734	18631
891.857	18753
891.98	18642
892.103	18722
892.226	18635
892.349	18555
892.471	18357
892.594	18513
892.717	18509
892.839	18475
892.962	18506
893.085	18593
893.207	18410
893.33	18330
893.452	18418
893.575	18407
893.697	18235
893.819	18509
893.941	18540
894.064	18578
894.186	18311
894.308	18304
894.43	18422
894.552	18342
894.674	18342
894.796	18224
894.918	18190
895.04	18289
895.161	18410
895.283	18270
895.405	18235
895.526	18270
895.648	18243
895.769	18361
895.891	18292
896.012	18350
896.134	18327
896.255	18262
896.376	18350
896.498	18266
896.619	18327
896.74	18224
896.861	18220
896.982	18661
897.103	18715
897.224	18661
897.345	18589
897.466	18388
897.587	18494
897.708	18555
897.828	18517
897.949	18426
898.07	18254
898.19	18311
898.311	18623
898.431	18369
898.552	18418
898.672	18384
898.792	18585
898.913	18376
899.033	18327
899.153	18197
899.273	18197
899.393	18194
899.513	18182
899.633	18182
899.753	18159
899.873	18167
899.993	18171
900.113	18182
900.232	18182
900.352	18273
900.472	18015
900.591	17946
900.711	18015
900.83	17889
900.95	18098
901.069	18049
901.189	18022
901.308	17703
901.427	17543
901.546	17577
901.665	17585
901.784	17581
901.904	17349
902.023	17345
902.141	17220
902.26	17056
902.379	17147
902.498	17052
902.617	16987
902.735	17113
902.854	17018
902.973	16968
903.091	16748
903.21	16793
903.328	16771
903.446	16713
903.565	16664
903.683	16653
903.801	16382
903.919	16588
904.038	16554
904.156	16306
904.274	16436
904.392	16211
904.51	16325
904.627	16284
904.745	16375
904.863	16295
904.981	15941
905.098	16006
905.216	15865
905.334	16086
905.451	15907
905.569	15903
905.686	16032
905.803	15956
905.921	15759
906.038	15857
906.155	15838
906.272	15644
906.389	15656
906.506	15466
906.623	15447
906.74	15507
906.857	15386
906.974	15424
907.091	15545
907.208	15717
907.324	15496
907.441	15340
907.557	15176
907.674	15146
907.79	15135
907.907	15192
908.023	15233
908.139	15157
908.256	15089
908.372	14971
908.488	15081
908.604	14929
908.72	14838
908.836	14941
908.952	14849
909.068	14838
909.184	15062
909.3	14914
909.415	14937
909.531	14899
909.647	14613
909.762	14743
909.878	14545
909.993	14640
910.108	14670
910.224	14617
910.339	14579
910.454	14507
910.57	14442
910.685	14404
910.8	14552
910.915	14564
911.03	14389
911.145	14256
911.259	14214
911.374	14336
911.489	14161
911.604	14126
911.718	13963
911.833	14001
911.947	13795
912.062	13753
912.176	13963
912.291	13993
912.405	13940
912.519	14199
912.633	14134
912.748	13959
912.862	13963
912.976	13830
913.09	13750
913.204	13666
913.318	13871
913.431	13860
913.545	13875
913.659	13898
913.772	13868
913.886	13658
914	13636
914.113	13719
914.226	13822
914.34	13765
914.453	13571
914.566	13651
914.68	13597
914.793	13578
914.906	13453
915.019	13297
915.132	13225
915.245	13331
915.358	13426
915.47	13434
915.583	13282
915.696	13365
915.809	13453
915.921	13449
916.034	13381
916.146	13312
916.259	13187
916.371	13350
916.483	13343
916.595	13164
916.708	13251
916.82	13149
916.932	13278
917.044	13236
917.156	13099
917.268	13046
917.38	13053
917.491	12970
917.603	13126
917.715	13118
917.826	13141
917.938	13008
918.049	12791
918.161	12981
918.272	13061
918.384	13122
918.495	13046
918.606	12844
918.717	12673
918.828	12875
918.939	12897
919.05	12722
919.161	12798
919.272	12460
919.383	12642
919.494	12810
919.604	12947
919.715	12711
919.826	12730
919.936	12795
920.047	12798
920.157	12726
920.267	13034
920.378	12833
920.488	12798
920.598	12897
920.708	13126
920.818	12916
920.928	12947
921.038	13084
921.148	13019
921.258	12772
921.368	12642
921.477	12559
921.587	12555
921.697	12509
921.806	12582
921.916	12475
922.025	12277
922.134	12270
922.244	12083
922.353	12254
922.462	12098
922.571	12019
922.68	11870
922.789	11859
922.898	11832
923.007	11714
923.116	11882
923.224	11878
923.333	11874
923.442	11691
923.55	11775
923.659	11604
923.767	11824
923.876	11657
923.984	11748
924.092	11665
924.201	11653
924.309	11642
924.417	11676
924.525	11604
924.633	11668
924.741	12304
924.849	11410
924.956	11486
925.064	11448
925.172	11288
925.279	11345
925.387	11429
925.494	11353
925.602	11490
925.709	11410
925.816	11292
925.924	11341
926.031	11455
926.138	11379
926.245	11387
926.352	11227
926.459	11425
926.566	11425
926.673	11204
926.779	11220
926.886	11223
926.993	11067
927.099	11045
927.206	10968
927.312	10904
927.419	11037
927.525	11029
927.631	11014
927.737	10881
927.843	10892
927.95	10763
928.056	10824
928.162	10911
928.267	10866
928.373	11383
928.479	10987
928.585	10675
928.69	10763
928.796	10839
928.901	10824
929.007	10634
929.112	10618
929.218	10656
929.323	10668
929.428	10588
929.533	10755
929.638	10531
929.743	10577
929.848	10607
929.953	10565
930.058	10489
930.163	10306
930.267	10402
930.372	10432
930.477	10287
930.581	10535
930.685	10352
930.79	10261
930.894	10204
930.998	10154
931.103	10280
931.207	9968
931.311	9945
931.415	9831
931.519	9625
931.623	9625
