Data from test_V78500241_1357.txt Node
Date: Fri Mar 25 14:43:09 CST 2022
User: usil
Spectrometer: V785-0024
Trigger mode: 0
Integration Time (sec): 4.000000E-1
Scans to average: 1
Nonlinearity correction enabled: false
Boxcar width: 0
Storing dark spectrum: false
XAxis mode: Wavelengths
Number of Pixels in Spectrum: 1024
>>>>>Begin Spectral Data<<<<<
801.071	22493
801.214	22367
801.356	21991
801.499	22021
801.641	21812
801.783	21713
801.926	21800
802.068	21580
802.211	21785
802.353	21595
802.496	21325
802.638	21245
802.78	21222
802.923	21199
803.065	21241
803.208	20960
803.35	21180
803.492	21256
803.635	21226
803.777	21058
803.919	21291
804.061	21606
804.204	21230
804.346	20960
804.488	20963
804.63	21119
804.773	20967
804.915	21104
805.057	21112
805.199	20929
805.341	21001
805.483	21154
805.626	21058
805.768	21009
805.91	21165
806.052	21047
806.194	20979
806.336	21230
806.478	21020
806.62	20929
806.762	21047
806.904	21211
807.046	21542
807.188	21424
807.33	21336
807.472	21355
807.614	21393
807.756	21386
807.898	21310
808.04	21135
808.182	21264
808.324	21127
808.465	21420
808.607	21515
808.749	21671
808.891	21915
809.033	21789
809.174	21812
809.316	21591
809.458	21622
809.6	21561
809.741	21515
809.883	21526
810.025	21648
810.166	21759
810.308	21637
810.45	21629
810.591	21367
810.733	21363
810.875	21272
811.016	21283
811.158	21207
811.299	21382
811.441	21351
811.582	21313
811.724	21207
811.865	21127
812.007	21249
812.148	21298
812.29	21161
812.431	21310
812.573	21443
812.714	21724
812.855	21705
812.997	21667
813.138	21888
813.279	21880
813.421	21751
813.562	21660
813.703	21485
813.845	21393
813.986	21146
814.127	20868
814.268	20861
814.41	20864
814.551	20735
814.692	20792
814.833	20697
814.974	20651
815.115	20754
815.256	20568
815.397	20670
815.539	20609
815.68	20579
815.821	20511
815.962	20541
816.103	20511
816.244	20381
816.385	20336
816.526	20248
816.666	19982
816.807	20073
816.948	20027
817.089	19989
817.23	19906
817.371	19978
817.512	19928
817.653	19849
817.793	19940
817.934	19852
818.075	19993
818.216	19947
818.356	19791
818.497	19811
818.638	19590
818.778	19674
818.919	19643
819.06	19723
819.2	19750
819.341	19685
819.481	19761
819.622	19932
819.762	19902
819.903	20092
820.043	20046
820.184	20016
820.324	19868
820.465	19951
820.605	19944
820.746	19852
820.886	19780
821.026	19856
821.167	19803
821.307	19906
821.447	19807
821.588	19605
821.728	19521
821.868	19441
822.008	19278
822.149	19240
822.289	19183
822.429	19046
822.569	19042
822.709	18985
822.849	18886
822.99	18745
823.13	18768
823.27	18726
823.41	18604
823.55	18544
823.69	18551
823.83	18559
823.97	18437
824.11	18391
824.25	18311
824.389	18471
824.529	18456
824.669	18388
824.809	18532
824.949	18422
825.089	18471
825.228	18422
825.368	18178
825.508	18110
825.648	18152
825.787	18178
825.927	18281
826.067	18224
826.206	18110
826.346	18155
826.485	18270
826.625	18182
826.765	18304
826.904	18235
827.044	17931
827.183	17969
827.323	17851
827.462	17908
827.601	17939
827.741	17779
827.88	17828
828.02	17642
828.159	17817
828.298	17836
828.437	18022
828.577	17695
828.716	17931
828.855	17764
828.994	17634
829.134	17684
829.273	17661
829.412	17543
829.551	17558
829.69	17524
829.829	17714
829.968	17596
830.107	17767
830.246	17596
830.385	17509
830.524	17482
830.663	17414
830.802	17440
830.941	17220
831.08	17254
831.219	17220
831.357	17288
831.496	17395
831.635	17204
831.774	17113
831.913	17098
832.051	16984
832.19	17022
832.329	17094
832.467	16942
832.606	16820
832.744	16877
832.883	16984
833.022	16892
833.16	16942
833.299	16927
833.437	16934
833.576	16927
833.714	16980
833.852	17010
833.991	17033
834.129	16972
834.267	17014
834.406	16995
834.544	16968
834.682	16919
834.821	17018
834.959	17197
835.097	16999
835.235	16972
835.373	16972
835.511	16991
835.65	16900
835.788	16873
835.926	16771
836.064	16679
836.202	16672
836.34	16927
836.478	16984
836.615	16900
836.753	16904
836.891	16862
837.029	16885
837.167	16862
837.305	16771
837.443	16702
837.58	16691
837.718	16835
837.856	16729
837.993	16603
838.131	16717
838.269	16584
838.406	16721
838.544	16538
838.681	16398
838.819	16455
838.956	16314
839.094	16295
839.231	16310
839.369	16421
839.506	16596
839.643	16535
839.781	16322
839.918	16306
840.055	16371
840.193	16287
840.33	16268
840.467	16284
840.604	16257
840.742	16554
840.879	16177
841.016	16158
841.153	16200
841.29	16379
841.427	16455
841.564	16284
841.701	16196
841.838	16242
841.975	16238
842.112	16188
842.249	16192
842.385	16154
842.522	16219
842.659	16055
842.796	15934
842.933	16017
843.069	15979
843.206	16013
843.343	16082
843.479	16071
843.616	16013
843.752	15857
843.889	15880
844.025	15930
844.162	15854
844.298	15968
844.435	15884
844.571	15812
844.708	15861
844.844	15975
844.98	16093
845.117	15930
845.253	15827
845.389	15736
845.525	15797
845.661	15838
845.798	15751
845.934	16002
846.07	15895
846.206	15994
846.342	15979
846.478	15766
846.614	15606
846.75	15477
846.886	15435
847.022	15542
847.158	15408
847.294	15458
847.429	15389
847.565	15317
847.701	15568
847.837	15199
847.972	15097
848.108	15169
848.244	15306
848.379	15085
848.515	14975
848.65	14994
848.786	15001
848.921	15039
849.057	15081
849.192	15123
849.328	15055
849.463	14990
849.598	14937
849.734	14971
849.869	14899
850.004	14727
850.14	14902
850.275	14834
850.41	14632
850.545	14731
850.68	14785
850.815	14758
850.95	14727
851.085	15013
851.22	14815
851.355	14823
851.49	14765
851.625	14785
851.76	14625
851.895	14640
852.03	14689
852.165	14724
852.299	14708
852.434	14819
852.569	14842
852.703	14800
852.838	14838
852.973	14902
853.107	14864
853.242	14674
853.376	14697
853.511	14450
853.645	14617
853.78	14807
853.914	14636
854.048	14727
854.183	14583
854.317	14701
854.451	14765
854.585	14625
854.72	14598
854.854	14583
854.988	14560
855.122	14678
855.256	14454
855.39	14598
855.524	14693
855.658	14724
855.792	14716
855.926	14636
856.06	14708
856.194	14769
856.327	14670
856.461	14564
856.595	14549
856.729	14571
856.862	14769
856.996	14686
857.13	14678
857.263	14754
857.397	14739
857.53	14644
857.664	14667
857.797	14651
857.931	14750
858.064	14701
858.197	14686
858.331	14602
858.464	14697
858.597	14465
858.731	14476
858.864	14670
858.997	14575
859.13	14743
859.263	14686
859.396	14693
859.529	14530
859.662	14598
859.795	14575
859.928	14651
860.061	14811
860.194	14830
860.327	14625
860.46	14594
860.592	14758
860.725	14682
860.858	14777
860.99	14526
861.123	14598
861.256	14621
861.388	14560
861.521	15393
861.653	14522
861.786	14408
861.918	14526
862.05	14568
862.183	14545
862.315	14731
862.447	14686
862.58	14564
862.712	14412
862.844	14309
862.976	14423
863.108	14381
863.24	14815
863.372	14252
863.504	14366
863.636	14351
863.768	14450
863.9	14351
864.032	14396
864.164	14396
864.296	14484
864.428	14537
864.559	14488
864.691	14507
864.823	14499
864.954	14454
865.086	14503
865.217	14355
865.349	14336
865.48	14374
865.612	14396
865.743	14495
865.875	14438
866.006	14309
866.137	14400
866.269	14267
866.4	14332
866.531	14298
866.662	14286
866.793	14225
866.924	14256
867.055	14358
867.186	14393
867.317	14355
867.448	14252
867.579	14351
867.71	14271
867.841	14313
867.972	14358
868.103	14431
868.233	14431
868.364	14301
868.495	14393
868.625	14568
868.756	14758
868.886	14533
869.017	14648
869.147	14724
869.278	14746
869.408	14648
869.539	14632
869.669	14746
869.799	14659
869.929	14773
870.06	14739
870.19	14986
870.32	14925
870.45	14948
870.58	15001
870.71	15161
870.84	15169
870.97	15005
871.1	14990
871.23	15199
871.36	15142
871.489	15150
871.619	15157
871.749	15199
871.879	15233
872.008	15279
872.138	15336
872.267	15211
872.397	15108
872.526	14971
872.656	15112
872.785	15112
872.915	15268
873.044	15298
873.173	15355
873.303	15348
873.432	15325
873.561	15378
873.69	15336
873.819	15249
873.948	15351
874.077	15306
874.206	15252
874.335	15325
874.464	15488
874.593	15580
874.722	15557
874.851	15701
874.979	15736
875.108	15641
875.237	15576
875.365	15507
875.494	15614
875.623	15728
875.751	15576
875.88	15663
876.008	15720
876.136	15766
876.265	16059
876.393	16211
876.521	16158
876.65	16086
876.778	16090
876.906	15998
877.034	15949
877.162	16017
877.29	15991
877.418	16017
877.546	16116
877.674	16128
877.802	16017
877.93	16131
878.058	15964
878.185	15918
878.313	16055
878.441	16071
878.568	16006
878.696	15953
878.824	16154
878.951	16219
879.079	16382
879.206	16459
879.333	16158
879.461	16280
879.588	16360
879.715	16470
879.842	16516
879.97	16185
880.097	15922
880.224	15953
880.351	16006
880.478	16093
880.605	15975
880.732	15994
880.859	16143
880.986	15880
881.112	15975
881.239	15766
881.366	15736
881.493	15599
881.619	15485
881.746	15648
881.872	15538
881.999	15618
882.125	15561
882.252	15663
882.378	15660
882.505	15660
882.631	15603
882.757	15351
882.883	15481
883.01	15408
883.136	15298
883.262	15298
883.388	15180
883.514	15439
883.64	15401
883.766	15321
883.892	15245
884.018	15218
884.143	15287
884.269	15469
884.395	15195
884.52	14967
884.646	15173
884.772	15085
884.897	14925
885.023	15203
885.148	15211
885.274	15332
885.399	15214
885.524	15085
885.65	15138
885.775	15024
885.9	14944
886.025	15169
886.15	15230
886.275	15070
886.4	14971
886.525	15104
886.65	14929
886.775	15001
886.9	15138
887.025	15256
887.149	15176
887.274	14948
887.399	14849
887.523	14998
887.648	14845
887.773	14765
887.897	14921
888.021	14899
888.146	14933
888.27	14967
888.395	15020
888.519	14941
888.643	14883
888.767	14921
888.891	14944
889.015	14655
889.139	14849
889.263	14811
889.387	14853
889.511	14963
889.635	14868
889.759	14746
889.883	14705
890.006	14735
890.13	14849
890.254	14682
890.377	14663
890.501	14560
890.624	14549
890.748	14583
890.871	14431
890.995	14446
891.118	14351
891.241	14374
891.364	14465
891.488	14480
891.611	14457
891.734	14492
891.857	14613
891.98	14457
892.103	14507
892.226	14495
892.349	14442
892.471	14248
892.594	14324
892.717	14423
892.839	14412
892.962	14457
893.085	14431
893.207	14446
893.33	14339
893.452	14362
893.575	14442
893.697	14419
893.819	14442
893.941	14636
894.064	14541
894.186	14305
894.308	14347
894.43	14461
894.552	14594
894.674	14606
894.796	14507
894.918	14537
895.04	14396
895.161	14537
895.283	14469
895.405	14362
895.526	14571
895.648	14514
895.769	14598
895.891	14545
896.012	14617
896.134	14678
896.255	14606
896.376	14541
896.498	14678
896.619	14686
896.74	14579
896.861	14689
896.982	14868
897.103	15039
897.224	14864
897.345	14804
897.466	14815
897.587	14777
897.708	15005
897.828	14941
897.949	14762
898.07	14769
898.19	14796
898.311	14975
898.431	14914
898.552	14842
898.672	14960
898.792	14963
898.913	15005
899.033	14902
899.153	14891
899.273	14689
899.393	14727
899.513	14678
899.633	14834
899.753	14834
899.873	14765
899.993	14792
900.113	14769
900.232	14773
900.352	14682
900.472	14724
900.591	14511
900.711	14640
900.83	14602
900.95	14689
901.069	14731
901.189	14598
901.308	14370
901.427	14248
901.546	14275
901.665	14377
901.784	14343
901.904	14210
902.023	14126
902.141	13928
902.26	13856
902.379	13944
902.498	13894
902.617	13906
902.735	13921
902.854	13822
902.973	13791
903.091	13582
903.21	13575
903.328	13601
903.446	13586
903.565	13434
903.683	13491
903.801	13354
903.919	13460
904.038	13457
904.156	13244
904.274	13327
904.392	13225
904.51	13278
904.627	13240
904.745	13289
904.863	13324
904.981	13084
905.098	12897
905.216	12886
905.334	12996
905.451	12932
905.569	12928
905.686	13019
905.803	12871
905.921	12654
906.038	12833
906.155	12764
906.272	12658
906.389	12757
906.506	12540
906.623	12570
906.74	12544
906.857	12464
906.974	12407
907.091	12612
907.208	12612
907.324	12627
907.441	12407
907.557	12228
907.674	12292
907.79	12247
907.907	12224
908.023	12239
908.139	12224
908.256	12144
908.372	12209
908.488	12133
908.604	12068
908.72	12015
908.836	12034
908.952	11977
909.068	12049
909.184	12087
909.3	11950
909.415	12079
909.531	12019
909.647	11832
909.762	11802
909.878	11707
909.993	11809
910.108	11688
910.224	11729
910.339	11821
910.454	11695
910.57	11688
910.685	11512
910.8	11824
910.915	11775
911.03	11665
911.145	11528
911.259	11417
911.374	11608
911.489	11353
911.604	11246
911.718	11239
911.833	11284
911.947	11193
912.062	11041
912.176	11280
912.291	11193
912.405	11242
912.519	11436
912.633	11474
912.748	11406
912.862	11341
912.976	11117
913.09	11010
913.204	11060
913.318	11132
913.431	11261
913.545	11181
913.659	11216
913.772	11075
913.886	10908
914	11010
914.113	11098
914.226	11037
914.34	11025
914.453	10923
914.566	11109
914.68	10908
914.793	11022
914.906	10809
915.019	10645
915.132	10607
915.245	10691
915.358	10694
915.47	10774
915.583	10744
915.696	10854
915.809	10839
915.921	10816
916.034	10740
916.146	10683
916.259	10714
916.371	10733
916.483	10759
916.595	10630
916.708	10733
916.82	10672
916.932	10592
917.044	10630
917.156	10622
917.268	10535
917.38	10592
917.491	10508
917.603	10550
917.715	10561
917.826	10645
917.938	10402
918.049	10421
918.161	10542
918.272	10664
918.384	10679
918.495	10641
918.606	10481
918.717	10371
918.828	10443
918.939	10512
919.05	10291
919.161	10367
919.272	10207
919.383	10337
919.494	10531
919.604	10596
919.715	10489
919.826	10493
919.936	10375
920.047	10478
920.157	10462
920.267	10603
920.378	10561
920.488	10470
920.598	10664
920.708	10771
920.818	10607
920.928	10618
921.038	10790
921.148	10774
921.258	10394
921.368	10459
921.477	10337
921.587	10344
921.697	10196
921.806	10238
921.916	10173
922.025	10048
922.134	9998
922.244	10010
922.353	10059
922.462	9838
922.571	9812
922.68	9698
922.789	9625
922.898	9717
923.007	9618
923.116	9774
923.224	9625
923.333	9622
923.442	9553
923.55	9549
923.659	9591
923.767	9652
923.876	9477
923.984	9667
924.092	9515
924.201	9477
924.309	9587
924.417	9519
924.525	9500
924.633	9420
924.741	10417
924.849	9298
924.956	9416
925.064	9249
925.172	9222
925.279	9256
925.387	9340
925.494	9374
925.602	9416
925.709	9408
925.816	9287
925.924	9294
926.031	9378
926.138	9317
926.245	9408
926.352	9165
926.459	9412
926.566	9431
926.673	9272
926.779	9165
926.886	9245
926.993	9081
927.099	8990
927.206	8944
927.312	9028
927.419	9104
927.525	9032
927.631	9043
927.737	8910
927.843	8941
927.95	8792
928.056	8925
928.162	8925
928.267	9009
928.373	9622
928.479	8975
928.585	8777
928.69	8895
928.796	8979
928.901	8838
929.007	8686
929.112	8899
929.218	8773
929.323	8724
929.428	8674
929.533	8853
929.638	8670
929.743	8708
929.848	8758
929.953	8705
930.058	8636
930.163	8533
930.267	8469
930.372	8598
930.477	8469
930.581	8735
930.685	8575
930.79	8396
930.894	8419
930.998	8454
931.103	8590
931.207	8248
931.311	8244
931.415	8096
931.519	7936
931.623	7917
