Data from test_V78500241_2701.txt Node
Date: Fri Mar 25 14:52:31 CST 2022
User: usil
Spectrometer: V785-0024
Trigger mode: 0
Integration Time (sec): 4.000000E-1
Scans to average: 1
Nonlinearity correction enabled: false
Boxcar width: 0
Storing dark spectrum: false
XAxis mode: Wavelengths
Number of Pixels in Spectrum: 1024
>>>>>Begin Spectral Data<<<<<
801.071	21983
801.214	21895
801.356	21652
801.499	21477
801.641	21424
801.783	21374
801.926	21435
802.068	21306
802.211	21325
802.353	21154
802.496	20921
802.638	20902
802.78	20762
802.923	20735
803.065	20651
803.208	20697
803.35	20701
803.492	20746
803.635	20826
803.777	20705
803.919	20739
804.061	20960
804.204	20693
804.346	20579
804.488	20632
804.63	20830
804.773	20571
804.915	20632
805.057	20667
805.199	20625
805.341	20712
805.483	20769
805.626	20716
805.768	20476
805.91	20598
806.052	20583
806.194	20560
806.336	20587
806.478	20564
806.62	20568
806.762	20537
806.904	20765
807.046	21085
807.188	20956
807.33	20975
807.472	21020
807.614	20769
807.756	20765
807.898	20701
808.04	20644
808.182	20659
808.324	20762
808.465	20674
808.607	20826
808.749	21085
808.891	20967
809.033	21165
809.174	21039
809.316	20944
809.458	20842
809.6	20864
809.741	20941
809.883	21070
810.025	21081
810.166	21093
810.308	21123
810.45	21043
810.591	20952
810.733	20868
810.875	20804
811.016	20640
811.158	20602
811.299	20762
811.441	20880
811.582	20868
811.724	20750
811.865	20640
812.007	20659
812.148	20762
812.29	20731
812.431	20906
812.573	20990
812.714	21154
812.855	21336
812.997	21336
813.138	21431
813.279	21435
813.421	21081
813.562	21154
813.703	20902
813.845	20792
813.986	20587
814.127	20484
814.268	20298
814.41	20355
814.551	20210
814.692	20328
814.833	20244
814.974	20225
815.115	20240
815.256	20218
815.397	20263
815.539	20206
815.68	20088
815.821	19864
815.962	20084
816.103	20073
816.244	19818
816.385	19784
816.526	19651
816.666	19563
816.807	19411
816.948	19453
817.089	19643
817.23	19415
817.371	19445
817.512	19419
817.653	19384
817.793	19415
817.934	19381
818.075	19559
818.216	19381
818.356	19400
818.497	19293
818.638	19129
818.778	19148
818.919	19141
819.06	19103
819.2	19228
819.341	19225
819.481	19236
819.622	19590
819.762	19575
819.903	19441
820.043	19411
820.184	19304
820.324	19434
820.465	19434
820.605	19403
820.746	19373
820.886	19213
821.026	19369
821.167	19255
821.307	19400
821.447	19274
821.588	19221
821.728	19152
821.868	19038
822.008	18783
822.149	18707
822.289	18760
822.429	18570
822.569	18452
822.709	18642
822.849	18384
822.99	18315
823.13	18140
823.27	18304
823.41	18057
823.55	18022
823.69	18114
823.83	18125
823.97	17939
824.11	17866
824.25	17855
824.389	18041
824.529	18038
824.669	17802
824.809	18049
824.949	17980
825.089	17939
825.228	17920
825.368	17710
825.508	17653
825.648	17726
825.787	17729
825.927	17661
826.067	17611
826.206	17642
826.346	17691
826.485	17600
826.625	17661
826.765	17794
826.904	17714
827.044	17421
827.183	17364
827.323	17372
827.462	17490
827.601	17410
827.741	17220
827.88	17318
828.02	17216
828.159	17425
828.298	17501
828.437	17368
828.577	17353
828.716	17474
828.855	17353
828.994	17189
829.134	17090
829.273	17132
829.412	17083
829.551	17052
829.69	17132
829.829	17288
829.968	17185
830.107	17189
830.246	17121
830.385	17113
830.524	17124
830.663	16987
830.802	16843
830.941	16771
831.08	16755
831.219	16786
831.357	16793
831.496	17022
831.635	16729
831.774	16752
831.913	16717
832.051	16607
832.19	16588
832.329	16675
832.467	16447
832.606	16382
832.744	16390
832.883	16432
833.022	16485
833.16	16478
833.299	16451
833.437	16493
833.576	16428
833.714	16558
833.852	16546
833.991	16459
834.129	16508
834.267	16535
834.406	16519
834.544	16577
834.682	16497
834.821	16573
834.959	16622
835.097	16592
835.235	16634
835.373	16504
835.511	16535
835.65	16390
835.788	16424
835.926	16234
836.064	16306
836.202	16367
836.34	16489
836.478	16424
836.615	16394
836.753	16375
836.891	16508
837.029	16394
837.167	16481
837.305	16329
837.443	16356
837.58	16234
837.718	16272
837.856	16333
837.993	16234
838.131	16329
838.269	16303
838.406	16242
838.544	16143
838.681	16101
838.819	16002
838.956	15926
839.094	15884
839.231	15918
839.369	15975
839.506	16318
839.643	16105
839.781	15899
839.918	15850
840.055	15846
840.193	15876
840.33	15789
840.467	15865
840.604	15968
840.742	16025
840.879	15713
841.016	15876
841.153	15736
841.29	15903
841.427	15808
841.564	15808
841.701	15869
841.838	15888
841.975	15759
842.112	15618
842.249	15682
842.385	15606
842.522	15804
842.659	15739
842.796	15660
842.933	15781
843.069	15610
843.206	15614
843.343	15709
843.479	15751
843.616	15717
843.752	15515
843.889	15477
844.025	15682
844.162	15424
844.298	15549
844.435	15485
844.571	15374
844.708	15485
844.844	15671
844.98	15572
845.117	15447
845.253	15443
845.389	15317
845.525	15424
845.661	15370
845.798	15230
845.934	15241
846.07	15203
846.206	15226
846.342	15321
846.478	15218
846.614	15108
846.75	14994
846.886	14933
847.022	15108
847.158	15074
847.294	15074
847.429	15108
847.565	15001
847.701	15199
847.837	14758
847.972	14739
848.108	14823
848.244	14807
848.379	14667
848.515	14571
848.65	14667
848.786	14625
848.921	14606
849.057	14670
849.192	14804
849.328	14667
849.463	14568
849.598	14587
849.734	14549
849.869	14473
850.004	14396
850.14	14442
850.275	14385
850.41	14263
850.545	14267
850.68	14290
850.815	14446
850.95	14328
851.085	14594
851.22	14480
851.355	14374
851.49	14339
851.625	14328
851.76	14339
851.895	14313
852.03	14408
852.165	14423
852.299	14408
852.434	14385
852.569	14400
852.703	14347
852.838	14469
852.973	14431
853.107	14503
853.242	14381
853.376	14263
853.511	14050
853.645	14202
853.78	14339
853.914	14278
854.048	14191
854.183	14256
854.317	14275
854.451	14320
854.585	14225
854.72	14168
854.854	14267
854.988	14134
855.122	14248
855.256	14187
855.39	14263
855.524	14381
855.658	14309
855.792	14210
855.926	14294
856.06	14206
856.194	14332
856.327	14290
856.461	14187
856.595	14214
856.729	14183
856.862	14259
856.996	14324
857.13	14351
857.263	14328
857.397	14393
857.53	14225
857.664	14313
857.797	14313
857.931	14415
858.064	14309
858.197	14393
858.331	14199
858.464	14187
858.597	14252
858.731	14221
858.864	14214
858.997	14240
859.13	14278
859.263	14339
859.396	14400
859.529	14233
859.662	14256
859.795	14164
859.928	14267
860.061	14408
860.194	14374
860.327	14191
860.46	14290
860.592	14267
860.725	14457
860.858	14393
860.99	14229
861.123	14142
861.256	14130
861.388	14252
861.521	14807
861.653	14176
861.786	14077
861.918	14088
862.05	14199
862.183	14237
862.315	14176
862.447	14252
862.58	14187
862.712	13997
862.844	14031
862.976	14134
863.108	14130
863.24	14526
863.372	13963
863.504	13967
863.636	13978
863.768	14005
863.9	14001
864.032	14024
864.164	13947
864.296	14069
864.428	14191
864.559	14126
864.691	14107
864.823	14092
864.954	14096
865.086	14065
865.217	13947
865.349	13932
865.48	13925
865.612	13963
865.743	14024
865.875	14039
866.006	13917
866.137	14005
866.269	14005
866.4	14016
866.531	14012
866.662	13925
866.793	14012
866.924	13997
867.055	14107
867.186	13967
867.317	13970
867.448	13932
867.579	13955
867.71	13967
867.841	13894
867.972	14096
868.103	13898
868.233	13986
868.364	14077
868.495	14058
868.625	14214
868.756	14324
868.886	14172
869.017	14263
869.147	14427
869.278	14446
869.408	14225
869.539	14290
869.669	14336
869.799	14275
869.929	14362
870.06	14374
870.19	14625
870.32	14564
870.45	14632
870.58	14720
870.71	14708
870.84	14807
870.97	14625
871.1	14625
871.23	14891
871.36	14929
871.489	14758
871.619	14811
871.749	14861
871.879	14990
872.008	14933
872.138	14838
872.267	14773
872.397	14705
872.526	14724
872.656	14686
872.785	14701
872.915	14937
873.044	14925
873.173	14933
873.303	14906
873.432	14887
873.561	14944
873.69	14887
873.819	15024
873.948	15036
874.077	14880
874.206	14887
874.335	14918
874.464	15036
874.593	15214
874.722	15154
874.851	15192
874.979	15348
875.108	15230
875.237	15154
875.365	15070
875.494	15241
875.623	15351
875.751	15222
875.88	15275
876.008	15408
876.136	15542
876.265	15504
876.393	15686
876.521	15641
876.65	15766
876.778	15717
876.906	15599
877.034	15587
877.162	15633
877.29	15580
877.418	15542
877.546	15660
877.674	15595
877.802	15595
877.93	15682
878.058	15507
878.185	15553
878.313	15648
878.441	15622
878.568	15462
878.696	15515
878.824	15720
878.951	15622
879.079	15774
879.206	15983
879.333	15831
879.461	15656
879.588	15705
879.715	15842
879.842	15854
879.97	15743
880.097	15557
880.224	15526
880.351	15439
880.478	15576
880.605	15511
880.732	15450
880.859	15732
880.986	15454
881.112	15473
881.239	15439
881.366	15310
881.493	15203
881.619	15051
881.746	15325
881.872	15138
881.999	15077
882.125	15085
882.252	15275
882.378	15173
882.505	15275
882.631	15077
882.757	14937
882.883	15036
883.01	15001
883.136	14967
883.262	14792
883.388	14716
883.514	15066
883.64	14956
883.766	14933
883.892	14785
884.018	14872
884.143	14971
884.269	15062
884.395	14811
884.52	14686
884.646	14667
884.772	14552
884.897	14598
885.023	14644
885.148	14796
885.274	14864
885.399	14788
885.524	14758
885.65	14686
885.775	14655
885.9	14712
886.025	14815
886.15	14735
886.275	14598
886.4	14552
886.525	14769
886.65	14518
886.775	14556
886.9	14769
887.025	14849
887.149	14686
887.274	14488
887.399	14480
887.523	14495
887.648	14419
887.773	14415
887.897	14541
888.021	14632
888.146	14415
888.27	14621
888.395	14621
888.519	14514
888.643	14587
888.767	14663
888.891	14465
889.015	14370
889.139	14366
889.263	14313
889.387	14503
889.511	14590
889.635	14495
889.759	14374
889.883	14431
890.006	14457
890.13	14503
890.254	14377
890.377	14347
890.501	14134
890.624	14111
890.748	14275
890.871	14161
890.995	13993
891.118	14005
891.241	14039
891.364	14050
891.488	14199
891.611	14039
891.734	14065
891.857	14103
891.98	14206
892.103	14081
892.226	14035
892.349	14145
892.471	13875
892.594	14046
892.717	14058
892.839	14084
892.962	14138
893.085	14119
893.207	14020
893.33	13947
893.452	13909
893.575	14142
893.697	13936
893.819	14305
893.941	14282
894.064	14229
894.186	14073
894.308	13974
894.43	14191
894.552	14294
894.674	14157
894.796	14054
894.918	14058
895.04	14149
895.161	14252
895.283	14259
895.405	14088
895.526	14172
895.648	14202
895.769	14214
895.891	14290
896.012	14259
896.134	14286
896.255	14191
896.376	14252
896.498	14191
896.619	14225
896.74	14275
896.861	14309
896.982	14587
897.103	14697
897.224	14583
897.345	14469
897.466	14442
897.587	14450
897.708	14522
897.828	14537
897.949	14488
898.07	14366
898.19	14488
898.311	14632
898.431	14514
898.552	14549
898.672	14625
898.792	14598
898.913	14587
899.033	14495
899.153	14488
899.273	14408
899.393	14450
899.513	14541
899.633	14355
899.753	14461
899.873	14396
899.993	14465
900.113	14404
900.232	14560
900.352	14385
900.472	14317
900.591	14225
900.711	14259
900.83	14202
900.95	14469
901.069	14343
901.189	14225
901.308	14001
901.427	13970
901.546	13982
901.665	13993
901.784	13898
901.904	13864
902.023	13719
902.141	13586
902.26	13540
902.379	13605
902.498	13468
902.617	13403
902.735	13521
902.854	13552
902.973	13464
903.091	13217
903.21	13282
903.328	13354
903.446	13293
903.565	13190
903.683	13129
903.801	13015
903.919	13164
904.038	13061
904.156	12894
904.274	13004
904.392	12859
904.51	12920
904.627	12970
904.745	12951
904.863	12996
904.981	12776
905.098	12639
905.216	12604
905.334	12646
905.451	12635
905.569	12513
905.686	12650
905.803	12574
905.921	12494
906.038	12483
906.155	12479
906.272	12281
906.389	12330
906.506	12201
906.623	12262
906.74	12178
906.857	12163
906.974	12220
907.091	12281
907.208	12327
907.324	12273
907.441	12060
907.557	11954
907.674	11980
907.79	11912
907.907	11882
908.023	11897
908.139	11984
908.256	11958
908.372	11878
908.488	11840
908.604	11748
908.72	11710
908.836	11790
908.952	11745
909.068	11737
909.184	11824
909.3	11657
909.415	11691
909.531	11691
909.647	11547
909.762	11528
909.878	11474
909.993	11493
910.108	11436
910.224	11444
910.339	11463
910.454	11421
910.57	11326
910.685	11261
910.8	11600
910.915	11512
911.03	11379
911.145	11231
911.259	11280
911.374	11155
911.489	11025
911.604	11109
911.718	10911
911.833	11029
911.947	10866
912.062	10710
912.176	10927
912.291	10942
912.405	10911
912.519	11136
912.633	11083
912.748	10953
912.862	11006
912.976	10877
913.09	10710
913.204	10755
913.318	10854
913.431	10984
913.545	10885
913.659	10942
913.772	10900
913.886	10717
914	10733
914.113	10885
914.226	10752
914.34	10793
914.453	10569
914.566	10843
914.68	10698
914.793	10599
914.906	10478
915.019	10508
915.132	10341
915.245	10436
915.358	10455
915.47	10554
915.583	10493
915.696	10580
915.809	10584
915.921	10611
916.034	10459
916.146	10421
916.259	10379
916.371	10485
916.483	10424
916.595	10424
916.708	10398
916.82	10333
916.932	10375
917.044	10375
917.156	10367
917.268	10188
917.38	10223
917.491	10318
917.603	10268
917.715	10367
917.826	10394
917.938	10280
918.049	10154
918.161	10314
918.272	10485
918.384	10398
918.495	10337
918.606	10227
918.717	10097
918.828	10169
918.939	10158
919.05	10090
919.161	10246
919.272	9956
919.383	9941
919.494	10242
919.604	10398
919.715	10162
919.826	10093
919.936	10185
920.047	10287
920.157	10242
920.267	10440
920.378	10242
920.488	10154
920.598	10379
920.708	10523
920.818	10379
920.928	10337
921.038	10554
921.148	10500
921.258	10242
921.368	10109
921.477	10048
921.587	10029
921.697	9804
921.806	10055
921.916	9991
922.025	9850
922.134	9705
922.244	9663
922.353	9717
922.462	9686
922.571	9606
922.68	9408
922.789	9443
922.898	9466
923.007	9370
923.116	9492
923.224	9450
923.333	9439
923.442	9317
923.55	9253
923.659	9355
923.767	9401
923.876	9313
923.984	9355
924.092	9230
924.201	9256
924.309	9294
924.417	9275
924.525	9294
924.633	9336
924.741	10010
924.849	9116
924.956	9245
925.064	9028
925.172	9028
925.279	9020
925.387	9138
925.494	9062
925.602	9245
925.709	9104
925.816	8998
925.924	9024
926.031	9131
926.138	9100
926.245	9199
926.352	9039
926.459	9176
926.566	9195
926.673	9116
926.779	8952
926.886	8937
926.993	8861
927.099	8842
927.206	8788
927.312	8800
927.419	8811
927.525	8792
927.631	8842
927.737	8720
927.843	8587
927.95	8575
928.056	8648
928.162	8705
928.267	8701
928.373	9355
928.479	8861
928.585	8606
928.69	8697
928.796	8792
928.901	8514
929.007	8530
929.112	8640
929.218	8632
929.323	8571
929.428	8549
929.533	8655
929.638	8541
929.743	8522
929.848	8545
929.953	8549
930.058	8484
930.163	8244
930.267	8248
930.372	8492
930.477	8298
930.581	8454
930.685	8309
930.79	8290
930.894	8229
930.998	8259
931.103	8393
931.207	8046
931.311	7970
931.415	7894
931.519	7765
931.623	7719
