Data from test_V78500241_2109.txt Node
Date: Fri Mar 25 14:48:23 CST 2022
User: usil
Spectrometer: V785-0024
Trigger mode: 0
Integration Time (sec): 4.000000E-1
Scans to average: 1
Nonlinearity correction enabled: false
Boxcar width: 0
Storing dark spectrum: false
XAxis mode: Wavelengths
Number of Pixels in Spectrum: 1024
>>>>>Begin Spectral Data<<<<<
801.071	22200
801.214	21987
801.356	21770
801.499	21713
801.641	21583
801.783	21389
801.926	21435
802.068	21504
802.211	21302
802.353	21161
802.496	20986
802.638	21001
802.78	20941
802.923	20769
803.065	20720
803.208	20769
803.35	20762
803.492	20895
803.635	20914
803.777	20826
803.919	20842
804.061	21211
804.204	20956
804.346	20769
804.488	20758
804.63	20800
804.773	20731
804.915	20743
805.057	20807
805.199	20621
805.341	20811
805.483	20861
805.626	20735
805.768	20686
805.91	20750
806.052	20743
806.194	20602
806.336	20883
806.478	20636
806.62	20701
806.762	20773
806.904	20929
807.046	21142
807.188	21039
807.33	21184
807.472	21077
807.614	20891
807.756	20956
807.898	20857
808.04	20861
808.182	20705
808.324	20864
808.465	20944
808.607	20975
808.749	20979
808.891	21233
809.033	21374
809.174	21245
809.316	21077
809.458	21077
809.6	21036
809.741	21169
809.883	21180
810.025	21275
810.166	21192
810.308	21245
810.45	21237
810.591	21116
810.733	21176
810.875	20933
811.016	20735
811.158	20785
811.299	20982
811.441	20986
811.582	20960
811.724	20845
811.865	20731
812.007	20792
812.148	20777
812.29	20845
812.431	20971
812.573	21123
812.714	21260
812.855	21412
812.997	21397
813.138	21587
813.279	21466
813.421	21332
813.562	21264
813.703	21214
813.845	21108
813.986	20663
814.127	20655
814.268	20461
814.41	20549
814.551	20431
814.692	20484
814.833	20309
814.974	20317
815.115	20370
815.256	20271
815.397	20199
815.539	20305
815.68	20229
815.821	20096
815.962	20187
816.103	20092
816.244	19936
816.385	19917
816.526	19917
816.666	19780
816.807	19628
816.948	19571
817.089	19723
817.23	19571
817.371	19563
817.512	19556
817.653	19544
817.793	19407
817.934	19628
818.075	19510
818.216	19529
818.356	19540
818.497	19491
818.638	19232
818.778	19312
818.919	19274
819.06	19297
819.2	19354
819.341	19327
819.481	19533
819.622	19632
819.762	19795
819.903	19731
820.043	19559
820.184	19521
820.324	19487
820.465	19647
820.605	19674
820.746	19533
820.886	19346
821.026	19502
821.167	19499
821.307	19571
821.447	19480
821.588	19483
821.728	19206
821.868	19019
822.008	18932
822.149	19057
822.289	18909
822.429	18631
822.569	18669
822.709	18589
822.849	18490
822.99	18330
823.13	18422
823.27	18384
823.41	18289
823.55	18041
823.69	18300
823.83	18224
823.97	18194
824.11	18144
824.25	18007
824.389	17965
824.529	18102
824.669	18053
824.809	18114
824.949	18106
825.089	18140
825.228	18057
825.368	17783
825.508	17722
825.648	17901
825.787	17882
825.927	17855
826.067	17859
826.206	17748
826.346	17726
826.485	17756
826.625	17840
826.765	17965
826.904	17767
827.044	17611
827.183	17486
827.323	17524
827.462	17562
827.601	17410
827.741	17493
827.88	17482
828.02	17414
828.159	17425
828.298	17478
828.437	17604
828.577	17501
828.716	17585
828.855	17493
828.994	17235
829.134	17341
829.273	17353
829.412	17208
829.551	17181
829.69	17269
829.829	17254
829.968	17429
830.107	17284
830.246	17242
830.385	17159
830.524	17235
830.663	16999
830.802	17086
830.941	16873
831.08	16927
831.219	16866
831.357	16900
831.496	17166
831.635	16782
831.774	16790
831.913	16835
832.051	16615
832.19	16683
832.329	16812
832.467	16558
832.606	16478
832.744	16577
832.883	16535
833.022	16493
833.16	16508
833.299	16596
833.437	16637
833.576	16550
833.714	16561
833.852	16630
833.991	16668
834.129	16569
834.267	16607
834.406	16569
834.544	16729
834.682	16622
834.821	16569
834.959	16611
835.097	16516
835.235	16778
835.373	16748
835.511	16493
835.65	16493
835.788	16535
835.926	16405
836.064	16314
836.202	16398
836.34	16645
836.478	16599
836.615	16493
836.753	16573
836.891	16573
837.029	16554
837.167	16424
837.305	16508
837.443	16459
837.58	16367
837.718	16447
837.856	16367
837.993	16348
838.131	16428
838.269	16272
838.406	16466
838.544	16246
838.681	16139
838.819	16097
838.956	15937
839.094	15972
839.231	15983
839.369	16071
839.506	16299
839.643	16238
839.781	15956
839.918	15926
840.055	15983
840.193	15953
840.33	15899
840.467	15960
840.604	15953
840.742	16082
840.879	15797
841.016	15895
841.153	15812
841.29	16055
841.427	15949
841.564	15994
841.701	16017
841.838	15907
841.975	15793
842.112	15755
842.249	15804
842.385	15781
842.522	15899
842.659	15709
842.796	15637
842.933	15694
843.069	15591
843.206	15728
843.343	15842
843.479	15717
843.616	15819
843.752	15561
843.889	15420
844.025	15694
844.162	15428
844.298	15637
844.435	15534
844.571	15466
844.708	15538
844.844	15618
844.98	15599
845.117	15701
845.253	15386
845.389	15363
845.525	15431
845.661	15344
845.798	15325
845.934	15332
846.07	15226
846.206	15355
846.342	15435
846.478	15416
846.614	15154
846.75	15104
846.886	14986
847.022	15154
847.158	15032
847.294	15150
847.429	15119
847.565	15047
847.701	15260
847.837	14872
847.972	14743
848.108	14800
848.244	14800
848.379	14777
848.515	14659
848.65	14727
848.786	14727
848.921	14705
849.057	14712
849.192	14902
849.328	14720
849.463	14636
849.598	14610
849.734	14530
849.869	14583
850.004	14442
850.14	14499
850.275	14431
850.41	14385
850.545	14400
850.68	14339
850.815	14412
850.95	14351
851.085	14606
851.22	14549
851.355	14438
851.49	14484
851.625	14442
851.76	14396
851.895	14355
852.03	14328
852.165	14438
852.299	14404
852.434	14590
852.569	14488
852.703	14442
852.838	14537
852.973	14560
853.107	14571
853.242	14408
853.376	14339
853.511	14130
853.645	14317
853.78	14389
853.914	14282
854.048	14240
854.183	14309
854.317	14332
854.451	14461
854.585	14263
854.72	14252
854.854	14370
854.988	14282
855.122	14240
855.256	14237
855.39	14252
855.524	14320
855.658	14294
855.792	14320
855.926	14278
856.06	14366
856.194	14484
856.327	14320
856.461	14275
856.595	14191
856.729	14278
856.862	14377
856.996	14320
857.13	14313
857.263	14465
857.397	14450
857.53	14305
857.664	14450
857.797	14518
857.931	14412
858.064	14328
858.197	14438
858.331	14343
858.464	14259
858.597	14180
858.731	14374
858.864	14347
858.997	14347
859.13	14317
859.263	14358
859.396	14465
859.529	14252
859.662	14309
859.795	14305
859.928	14366
860.061	14450
860.194	14537
860.327	14351
860.46	14351
860.592	14385
860.725	14412
860.858	14442
860.99	14290
861.123	14229
861.256	14309
861.388	14313
861.521	14902
861.653	14191
861.786	14130
861.918	14214
862.05	14225
862.183	14358
862.315	14218
862.447	14377
862.58	14419
862.712	14119
862.844	14054
862.976	14164
863.108	14130
863.24	14518
863.372	14058
863.504	14168
863.636	14054
863.768	14123
863.9	14073
864.032	14050
864.164	14084
864.296	14191
864.428	14164
864.559	14332
864.691	14240
864.823	14210
864.954	14123
865.086	14073
865.217	14149
865.349	14138
865.48	14218
865.612	14130
865.743	14282
865.875	14088
866.006	14168
866.137	14111
866.269	14145
866.4	14115
866.531	14008
866.662	13986
866.793	14119
866.924	14031
867.055	14119
867.186	14054
867.317	14130
867.448	14100
867.579	14035
867.71	14069
867.841	14020
867.972	14084
868.103	14035
868.233	14100
868.364	13997
868.495	14157
868.625	14381
868.756	14419
868.886	14275
869.017	14362
869.147	14545
869.278	14461
869.408	14286
869.539	14282
869.669	14381
869.799	14438
869.929	14518
870.06	14492
870.19	14648
870.32	14663
870.45	14758
870.58	14682
870.71	14849
870.84	14826
870.97	14712
871.1	14716
871.23	14975
871.36	14895
871.489	14876
871.619	14918
871.749	14811
871.879	14960
872.008	15070
872.138	15135
872.267	14971
872.397	14819
872.526	14693
872.656	14773
872.785	14857
872.915	15066
873.044	15028
873.173	14941
873.303	15051
873.432	14933
873.561	15062
873.69	14971
873.819	15047
873.948	15112
874.077	15074
874.206	14971
874.335	15051
874.464	15279
874.593	15363
874.722	15199
874.851	15291
874.979	15237
875.108	15332
875.237	15256
875.365	15146
875.494	15313
875.623	15336
875.751	15321
875.88	15416
876.008	15454
876.136	15553
876.265	15701
876.393	15850
876.521	15865
876.65	15884
876.778	15869
876.906	15679
877.034	15660
877.162	15679
877.29	15690
877.418	15751
877.546	15709
877.674	15660
877.802	15717
877.93	15701
878.058	15736
878.185	15629
878.313	15743
878.441	15759
878.568	15561
878.696	15648
878.824	15743
878.951	15770
879.079	15926
879.206	16021
879.333	15960
879.461	15812
879.588	15899
879.715	15831
879.842	16086
879.97	15838
880.097	15637
880.224	15538
880.351	15568
880.478	15545
880.605	15378
880.732	15507
880.859	15770
880.986	15663
881.112	15591
881.239	15389
881.366	15344
881.493	15313
881.619	15268
881.746	15294
881.872	15291
881.999	15302
882.125	15192
882.252	15275
882.378	15344
882.505	15329
882.631	15256
882.757	15043
882.883	15066
883.01	15051
883.136	15013
883.262	14944
883.388	14906
883.514	15104
883.64	15081
883.766	15024
883.892	14895
884.018	14777
884.143	14975
884.269	15097
884.395	14788
884.52	14727
884.646	14754
884.772	14727
884.897	14651
885.023	14838
885.148	14788
885.274	14948
885.399	14979
885.524	14697
885.65	14750
885.775	14686
885.9	14788
886.025	14902
886.15	14800
886.275	14731
886.4	14739
886.525	14781
886.65	14575
886.775	14727
886.9	14792
887.025	14960
887.149	14758
887.274	14537
887.399	14530
887.523	14564
887.648	14457
887.773	14488
887.897	14526
888.021	14651
888.146	14590
888.27	14705
888.395	14735
888.519	14674
888.643	14636
888.767	14743
888.891	14469
889.015	14434
889.139	14552
889.263	14419
889.387	14526
889.511	14606
889.635	14564
889.759	14484
889.883	14454
890.006	14419
890.13	14560
890.254	14320
890.377	14454
890.501	14267
890.624	14145
890.748	14298
890.871	14218
890.995	14058
891.118	14107
891.241	14210
891.364	14142
891.488	14294
891.611	14149
891.734	14210
891.857	14183
891.98	14202
892.103	14252
892.226	14168
892.349	14119
892.471	14054
892.594	14065
892.717	14157
892.839	14092
892.962	14168
893.085	14275
893.207	14069
893.33	14088
893.452	14035
893.575	14138
893.697	14130
893.819	14343
893.941	14301
894.064	14301
894.186	14119
894.308	14119
894.43	14252
894.552	14404
894.674	14263
894.796	14145
894.918	14180
895.04	14214
895.161	14313
895.283	14339
895.405	14092
895.526	14275
895.648	14267
895.769	14218
895.891	14332
896.012	14355
896.134	14396
896.255	14343
896.376	14229
896.498	14252
896.619	14366
896.74	14412
896.861	14351
896.982	14651
897.103	14758
897.224	14682
897.345	14556
897.466	14457
897.587	14556
897.708	14648
897.828	14663
897.949	14568
898.07	14503
898.19	14556
898.311	14678
898.431	14564
898.552	14644
898.672	14800
898.792	14674
898.913	14811
899.033	14598
899.153	14507
899.273	14370
899.393	14503
899.513	14556
899.633	14457
899.753	14575
899.873	14484
899.993	14564
900.113	14526
900.232	14549
900.352	14480
900.472	14495
900.591	14374
900.711	14328
900.83	14362
900.95	14393
901.069	14533
901.189	14290
901.308	14024
901.427	14035
901.546	14062
901.665	14180
901.784	14088
901.904	13932
902.023	13879
902.141	13624
902.26	13719
902.379	13632
902.498	13662
902.617	13616
902.735	13575
902.854	13594
902.973	13575
903.091	13369
903.21	13354
903.328	13339
903.446	13289
903.565	13156
903.683	13129
903.801	13099
903.919	13145
904.038	13152
904.156	13065
904.274	13034
904.392	13107
904.51	12905
904.627	12943
904.745	13038
904.863	13053
904.981	12814
905.098	12604
905.216	12688
905.334	12722
905.451	12726
905.569	12662
905.686	12707
905.803	12734
905.921	12475
906.038	12662
906.155	12494
906.272	12384
906.389	12414
906.506	12304
906.623	12376
906.74	12220
906.857	12136
906.974	12163
907.091	12338
907.208	12445
907.324	12330
907.441	12209
907.557	12140
907.674	11988
907.79	11927
907.907	11980
908.023	12083
908.139	12030
908.256	12015
908.372	11977
908.488	11961
908.604	11832
908.72	11714
908.836	11737
908.952	11798
909.068	11729
909.184	11889
909.3	11832
909.415	11889
909.531	11813
909.647	11589
909.762	11516
909.878	11535
909.993	11592
910.108	11532
910.224	11581
910.339	11611
910.454	11448
910.57	11429
910.685	11315
910.8	11653
910.915	11532
911.03	11490
911.145	11239
911.259	11303
911.374	11124
911.489	11185
911.604	11094
911.718	11048
911.833	11045
911.947	10942
912.062	10793
912.176	10999
912.291	11045
912.405	11048
912.519	11201
912.633	11151
912.748	11128
912.862	11075
912.976	10869
913.09	10714
913.204	10889
913.318	10957
913.431	10961
913.545	10949
913.659	10957
913.772	10938
913.886	10801
914	10782
914.113	10801
914.226	10858
914.34	10801
914.453	10721
914.566	10835
914.68	10721
914.793	10729
914.906	10668
915.019	10500
915.132	10424
915.245	10504
915.358	10592
915.47	10519
915.583	10565
915.696	10580
915.809	10694
915.921	10626
916.034	10535
916.146	10474
916.259	10382
916.371	10603
916.483	10512
916.595	10489
916.708	10489
916.82	10474
916.932	10485
917.044	10363
917.156	10348
917.268	10344
917.38	10394
917.491	10284
917.603	10390
917.715	10455
917.826	10455
917.938	10363
918.049	10219
918.161	10371
918.272	10500
918.384	10512
918.495	10390
918.606	10238
918.717	10238
918.828	10234
918.939	10253
919.05	10093
919.161	10211
919.272	10055
919.383	10097
919.494	10341
919.604	10485
919.715	10238
919.826	10143
919.936	10219
920.047	10409
920.157	10318
920.267	10474
920.378	10306
920.488	10234
920.598	10500
920.708	10573
920.818	10470
920.928	10440
921.038	10637
921.148	10603
921.258	10253
921.368	10192
921.477	10097
921.587	10101
921.697	9975
921.806	10086
921.916	9941
922.025	9789
922.134	9842
922.244	9804
922.353	9895
922.462	9701
922.571	9603
922.68	9545
922.789	9507
922.898	9549
923.007	9374
923.116	9538
923.224	9507
923.333	9507
923.442	9393
923.55	9351
923.659	9389
923.767	9466
923.876	9344
923.984	9405
924.092	9310
924.201	9370
924.309	9401
924.417	9340
924.525	9294
924.633	9298
924.741	10196
924.849	9180
924.956	9310
925.064	9131
925.172	9135
925.279	9161
925.387	9169
925.494	9123
925.602	9291
925.709	9241
925.816	9142
925.924	9249
926.031	9226
926.138	9180
926.245	9188
926.352	9093
926.459	9279
926.566	9359
926.673	9157
926.779	9062
926.886	9017
926.993	8857
927.099	8845
927.206	8838
927.312	8811
927.419	8944
927.525	8876
927.631	8914
927.737	8811
927.843	8834
927.95	8727
928.056	8769
928.162	8861
928.267	8838
928.373	9561
928.479	8880
928.585	8644
928.69	8716
928.796	8887
928.901	8659
929.007	8541
929.112	8781
929.218	8648
929.323	8651
929.428	8568
929.533	8785
929.638	8606
929.743	8552
929.848	8644
929.953	8590
930.058	8484
930.163	8377
930.267	8370
930.372	8492
930.477	8332
930.581	8621
930.685	8427
930.79	8301
930.894	8381
930.998	8267
931.103	8446
931.207	8153
931.311	8096
931.415	7986
931.519	7818
931.623	7807
