Data from test_V78500241_1144.txt Node
Date: Fri Mar 25 14:41:40 CST 2022
User: usil
Spectrometer: V785-0024
Trigger mode: 0
Integration Time (sec): 4.000000E-1
Scans to average: 1
Nonlinearity correction enabled: false
Boxcar width: 0
Storing dark spectrum: false
XAxis mode: Wavelengths
Number of Pixels in Spectrum: 1024
>>>>>Begin Spectral Data<<<<<
801.071	22508
801.214	22424
801.356	22078
801.499	22131
801.641	21968
801.783	21861
801.926	21983
802.068	21781
802.211	21785
802.353	21709
802.496	21462
802.638	21447
802.78	21374
802.923	21351
803.065	21222
803.208	21180
803.35	21367
803.492	21370
803.635	21367
803.777	21233
803.919	21428
804.061	21679
804.204	21264
804.346	21260
804.488	21207
804.63	21287
804.773	21001
804.915	21222
805.057	21252
805.199	21039
805.341	21199
805.483	21435
805.626	21192
805.768	21066
805.91	21085
806.052	21112
806.194	21096
806.336	21405
806.478	21173
806.62	21062
806.762	21188
806.904	21405
807.046	21599
807.188	21583
807.33	21557
807.472	21580
807.614	21511
807.756	21496
807.898	21538
808.04	21287
808.182	21325
808.324	21458
808.465	21412
808.607	21622
808.749	21724
808.891	21888
809.033	21915
809.174	21880
809.316	21660
809.458	21739
809.6	21652
809.741	21694
809.883	21827
810.025	21907
810.166	21819
810.308	21785
810.45	21770
810.591	21682
810.733	21523
810.875	21538
811.016	21321
811.158	21408
811.299	21370
811.441	21572
811.582	21591
811.724	21313
811.865	21310
812.007	21268
812.148	21268
812.29	21526
812.431	21420
812.573	21732
812.714	21743
812.855	21926
812.997	21941
813.138	22032
813.279	22082
813.421	21876
813.562	21732
813.703	21739
813.845	21496
813.986	21317
814.127	21146
814.268	21070
814.41	20956
814.551	20918
814.692	20998
814.833	20929
814.974	20705
815.115	21028
815.256	20644
815.397	20800
815.539	20651
815.68	20762
815.821	20625
815.962	20705
816.103	20640
816.244	20552
816.385	20351
816.526	20393
816.666	20286
816.807	20180
816.948	20248
817.089	20229
817.23	20016
817.371	20024
817.512	20001
817.653	20016
817.793	20024
817.934	20050
818.075	19986
818.216	20016
818.356	19944
818.497	19887
818.638	19727
818.778	19712
818.919	19647
819.06	19643
819.2	19814
819.341	19925
819.481	19970
819.622	20077
819.762	20412
819.903	20221
820.043	20027
820.184	20126
820.324	20058
820.465	20142
820.605	19871
820.746	20050
820.886	19986
821.026	20043
821.167	19982
821.307	20012
821.447	19902
821.588	19944
821.728	19769
821.868	19635
822.008	19506
822.149	19514
822.289	19426
822.429	19236
822.569	19099
822.709	19179
822.849	19027
822.99	19000
823.13	18905
823.27	18920
823.41	18730
823.55	18745
823.69	18738
823.83	18776
823.97	18715
824.11	18574
824.25	18517
824.389	18513
824.529	18620
824.669	18544
824.809	18692
824.949	18589
825.089	18631
825.228	18528
825.368	18323
825.508	18262
825.648	18315
825.787	18418
825.927	18414
826.067	18292
826.206	18243
826.346	18216
826.485	18350
826.625	18281
826.765	18395
826.904	18334
827.044	18114
827.183	18098
827.323	17958
827.462	18083
827.601	17996
827.741	18068
827.88	18098
828.02	17874
828.159	17969
828.298	18034
828.437	18049
828.577	17965
828.716	18079
828.855	17927
828.994	17870
829.134	17851
829.273	17802
829.412	17710
829.551	17653
829.69	17676
829.829	17817
829.968	17870
830.107	17904
830.246	17813
830.385	17722
830.524	17604
830.663	17630
830.802	17406
830.941	17288
831.08	17299
831.219	17493
831.357	17493
831.496	17665
831.635	17303
831.774	17307
831.913	17288
832.051	17136
832.19	17212
832.329	17170
832.467	16957
832.606	17113
832.744	17098
832.883	17178
833.022	17045
833.16	17166
833.299	17105
833.437	17220
833.576	17159
833.714	17185
833.852	17170
833.991	17216
834.129	17200
834.267	17204
834.406	17105
834.544	17105
834.682	17178
834.821	17155
834.959	17212
835.097	17075
835.235	17189
835.373	17185
835.511	17170
835.65	17033
835.788	17052
835.926	16854
836.064	16786
836.202	16908
836.34	17094
836.478	17166
836.615	16972
836.753	17109
836.891	17132
837.029	17124
837.167	17052
837.305	16866
837.443	16965
837.58	16828
837.718	17022
837.856	16968
837.993	16919
838.131	16873
838.269	16831
838.406	16710
838.544	16679
838.681	16596
838.819	16561
838.956	16382
839.094	16428
839.231	16459
839.369	16565
839.506	16850
839.643	16736
839.781	16527
839.918	16348
840.055	16459
840.193	16379
840.33	16504
840.467	16478
840.604	16421
840.742	16702
840.879	16185
841.016	16352
841.153	16363
841.29	16561
841.427	16443
841.564	16519
841.701	16455
841.838	16382
841.975	16325
842.112	16325
842.249	16352
842.385	16173
842.522	16386
842.659	16318
842.796	16242
842.933	16246
843.069	16234
843.206	16143
843.343	16352
843.479	16253
843.616	16173
843.752	16055
843.889	15983
844.025	16097
844.162	16025
844.298	16139
844.435	15991
844.571	16021
844.708	16086
844.844	16226
844.98	16185
845.117	16192
845.253	16017
845.389	15941
845.525	16143
845.661	16044
845.798	15994
845.934	16109
846.07	16105
846.206	16059
846.342	16128
846.478	15949
846.614	15660
846.75	15625
846.886	15641
847.022	15705
847.158	15690
847.294	15595
847.429	15622
847.565	15603
847.701	15747
847.837	15313
847.972	15264
848.108	15443
848.244	15359
848.379	15264
848.515	15233
848.65	15157
848.786	15146
848.921	15287
849.057	15344
849.192	15260
849.328	15100
849.463	15329
849.598	15165
849.734	15108
849.869	15058
850.004	14933
850.14	14975
850.275	14895
850.41	14826
850.545	14891
850.68	14971
850.815	15001
850.95	14937
851.085	15062
851.22	14986
851.355	14994
851.49	14910
851.625	14823
851.76	14944
851.895	14933
852.03	14754
852.165	14792
852.299	15005
852.434	15039
852.569	15039
852.703	14956
852.838	15093
852.973	15173
853.107	15138
853.242	14967
853.376	14785
853.511	14670
853.645	14743
853.78	14990
853.914	14895
854.048	14727
854.183	14758
854.317	14724
854.451	15005
854.585	14853
854.72	14705
854.854	14861
854.988	14743
855.122	14754
855.256	14689
855.39	14823
855.524	14941
855.658	14785
855.792	14864
855.926	14921
856.06	14834
856.194	14910
856.327	14902
856.461	14849
856.595	14792
856.729	14800
856.862	14849
856.996	14815
857.13	14864
857.263	14944
857.397	14902
857.53	14910
857.664	14887
857.797	14925
857.931	14960
858.064	14697
858.197	14956
858.331	14804
858.464	14788
858.597	14762
858.731	14750
858.864	14830
858.997	14792
859.13	14826
859.263	14819
859.396	14826
859.529	14765
859.662	14720
859.795	14819
859.928	14754
860.061	14921
860.194	15070
860.327	14902
860.46	14765
860.592	14811
860.725	14872
860.858	14845
860.99	14773
861.123	14686
861.256	14834
861.388	14845
861.521	15412
861.653	14765
861.786	14575
861.918	14708
862.05	14743
862.183	14701
862.315	14777
862.447	14845
862.58	14674
862.712	14610
862.844	14480
862.976	14629
863.108	14613
863.24	15047
863.372	14442
863.504	14648
863.636	14545
863.768	14629
863.9	14610
864.032	14625
864.164	14571
864.296	14514
864.428	14667
864.559	14625
864.691	14686
864.823	14621
864.954	14686
865.086	14667
865.217	14438
865.349	14571
865.48	14613
865.612	14552
865.743	14724
865.875	14511
866.006	14518
866.137	14644
866.269	14484
866.4	14545
866.531	14587
866.662	14511
866.793	14526
866.924	14533
867.055	14537
867.186	14537
867.317	14545
867.448	14476
867.579	14583
867.71	14511
867.841	14412
867.972	14495
868.103	14545
868.233	14537
868.364	14579
868.495	14663
868.625	14800
868.756	14838
868.886	14785
869.017	14861
869.147	15039
869.278	14902
869.408	14834
869.539	14754
869.669	14941
869.799	14773
869.929	14910
870.06	14944
870.19	15097
870.32	15085
870.45	15085
870.58	15252
870.71	15310
870.84	15321
870.97	15138
871.1	15214
871.23	15416
871.36	15389
871.489	15233
871.619	15348
871.749	15405
871.879	15386
872.008	15568
872.138	15397
872.267	15401
872.397	15287
872.526	15104
872.656	15142
872.785	15237
872.915	15359
873.044	15485
873.173	15412
873.303	15435
873.432	15545
873.561	15644
873.69	15473
873.819	15439
873.948	15572
874.077	15454
874.206	15393
874.335	15530
874.464	15603
874.593	15762
874.722	15705
874.851	15907
874.979	15785
875.108	15808
875.237	15766
875.365	15694
875.494	15747
875.623	15819
875.751	15701
875.88	15774
876.008	15838
876.136	16074
876.265	16071
876.393	16356
876.521	16303
876.65	16207
876.778	16234
876.906	16078
877.034	16105
877.162	16124
877.29	16082
877.418	16162
877.546	16112
877.674	16120
877.802	16219
877.93	16185
878.058	16048
878.185	16112
878.313	16181
878.441	16131
878.568	16109
878.696	16036
878.824	16177
878.951	16230
879.079	16428
879.206	16504
879.333	16386
879.461	16253
879.588	16402
879.715	16470
879.842	16660
879.97	16306
880.097	16086
880.224	16067
880.351	16150
880.478	16188
880.605	16029
880.732	16055
880.859	16299
880.986	16101
881.112	16196
881.239	15987
881.366	15926
881.493	15804
881.619	15808
881.746	15667
881.872	15800
881.999	15732
882.125	15751
882.252	15743
882.378	15743
882.505	15827
882.631	15701
882.757	15492
882.883	15591
883.01	15587
883.136	15496
883.262	15439
883.388	15412
883.514	15473
883.64	15591
883.766	15462
883.892	15306
884.018	15374
884.143	15469
884.269	15587
884.395	15313
884.52	15192
884.646	15222
884.772	15184
884.897	15116
885.023	15214
885.148	15378
885.274	15412
885.399	15298
885.524	15241
885.65	15306
885.775	15207
885.9	15222
886.025	15355
886.15	15218
886.275	15127
886.4	15062
886.525	15119
886.65	15112
886.775	15032
886.9	15256
887.025	15359
887.149	15306
887.274	15043
887.399	15093
887.523	15024
887.648	14895
887.773	14948
887.897	15180
888.021	15058
888.146	14956
888.27	15066
888.395	15104
888.519	15116
888.643	15017
888.767	15093
888.891	14933
889.015	14899
889.139	14887
889.263	14967
889.387	14960
889.511	15043
889.635	14910
889.759	14849
889.883	14937
890.006	14952
890.13	15001
890.254	14796
890.377	14777
890.501	14689
890.624	14590
890.748	14708
890.871	14632
890.995	14549
891.118	14454
891.241	14484
891.364	14537
891.488	14674
891.611	14564
891.734	14594
891.857	14590
891.98	14587
892.103	14712
892.226	14663
892.349	14473
892.471	14366
892.594	14431
892.717	14648
892.839	14446
892.962	14579
893.085	14682
893.207	14663
893.33	14415
893.452	14514
893.575	14667
893.697	14476
893.819	14750
893.941	14804
894.064	14712
894.186	14549
894.308	14492
894.43	14602
894.552	14819
894.674	14689
894.796	14473
894.918	14613
895.04	14621
895.161	14701
895.283	14613
895.405	14659
895.526	14606
895.648	14651
895.769	14674
895.891	14765
896.012	14777
896.134	14724
896.255	14754
896.376	14571
896.498	14644
896.619	14735
896.74	14727
896.861	14765
896.982	15058
897.103	15184
897.224	15032
897.345	14994
897.466	14952
897.587	14944
897.708	15116
897.828	15001
897.949	14963
898.07	14948
898.19	14952
898.311	15077
898.431	14944
898.552	15024
898.672	15150
898.792	15150
898.913	14982
899.033	14994
899.153	14876
899.273	14735
899.393	14929
899.513	14982
899.633	14937
899.753	14921
899.873	14845
899.993	14891
900.113	14826
900.232	14941
900.352	14826
900.472	14823
900.591	14636
900.711	14788
900.83	14651
900.95	14804
901.069	14777
901.189	14731
901.308	14545
901.427	14374
901.546	14305
901.665	14400
901.784	14457
901.904	14366
902.023	14149
902.141	14046
902.26	13986
902.379	14012
902.498	13997
902.617	13902
902.735	14001
902.854	13970
902.973	13864
903.091	13757
903.21	13719
903.328	13704
903.446	13647
903.565	13521
903.683	13563
903.801	13441
903.919	13499
904.038	13407
904.156	13392
904.274	13411
904.392	13308
904.51	13285
904.627	13278
904.745	13362
904.863	13312
904.981	13175
905.098	13015
905.216	13034
905.334	13065
905.451	12939
905.569	13023
905.686	13004
905.803	12996
905.921	12833
906.038	12932
906.155	12886
906.272	12795
906.389	12726
906.506	12578
906.623	12627
906.74	12616
906.857	12509
906.974	12494
907.091	12719
907.208	12749
907.324	12662
907.441	12589
907.557	12357
907.674	12273
907.79	12403
907.907	12350
908.023	12464
908.139	12418
908.256	12292
908.372	12308
908.488	12209
908.604	12129
908.72	12106
908.836	12034
908.952	12171
909.068	12106
909.184	12201
909.3	12068
909.415	12216
909.531	12167
909.647	11870
909.762	11874
909.878	11904
909.993	11870
910.108	11863
910.224	11939
910.339	11885
910.454	11783
910.57	11764
910.685	11649
910.8	11980
910.915	11893
911.03	11813
911.145	11592
911.259	11501
911.374	11585
911.489	11585
911.604	11429
911.718	11258
911.833	11387
911.947	11197
912.062	11140
912.176	11239
912.291	11318
912.405	11292
912.519	11524
912.633	11486
912.748	11242
912.862	11322
912.976	11083
913.09	11067
913.204	11151
913.318	11083
913.431	11307
913.545	11288
913.659	11322
913.772	11136
913.886	11109
914	11052
914.113	11197
914.226	11242
914.34	11136
914.453	10976
914.566	11227
914.68	11018
914.793	11022
914.906	10835
915.019	10786
915.132	10740
915.245	10824
915.358	10862
915.47	10847
915.583	10847
915.696	10850
915.809	10919
915.921	10976
916.034	10835
916.146	10782
916.259	10843
916.371	10904
916.483	10759
916.595	10782
916.708	10782
916.82	10755
916.932	10698
917.044	10702
917.156	10736
917.268	10603
917.38	10634
917.491	10626
917.603	10675
917.715	10801
917.826	10752
917.938	10679
918.049	10584
918.161	10710
918.272	10816
918.384	10812
918.495	10763
918.606	10558
918.717	10508
918.828	10558
918.939	10611
919.05	10443
919.161	10535
919.272	10287
919.383	10421
919.494	10546
919.604	10812
919.715	10573
919.826	10512
919.936	10607
920.047	10584
920.157	10489
920.267	10801
920.378	10615
920.488	10584
920.598	10744
920.708	10904
920.818	10774
920.928	10740
921.038	11003
921.148	10843
921.258	10531
921.368	10432
921.477	10447
921.587	10382
921.697	10268
921.806	10455
921.916	10249
922.025	10166
922.134	10128
922.244	9968
922.353	10173
922.462	9903
922.571	9899
922.68	9816
922.789	9770
922.898	9793
923.007	9766
923.116	9831
923.224	9762
923.333	9774
923.442	9682
923.55	9652
923.659	9652
923.767	9709
923.876	9610
923.984	9701
924.092	9622
924.201	9622
924.309	9682
924.417	9637
924.525	9568
924.633	9553
924.741	10295
924.849	9454
924.956	9599
925.064	9447
925.172	9336
925.279	9424
925.387	9473
925.494	9386
925.602	9549
925.709	9492
925.816	9363
925.924	9382
926.031	9549
926.138	9416
926.245	9462
926.352	9348
926.459	9466
926.566	9515
926.673	9393
926.779	9351
926.886	9283
926.993	9119
927.099	9146
927.206	9077
927.312	9112
927.419	9123
927.525	9150
927.631	9203
927.737	9039
927.843	9020
927.95	8902
928.056	9013
928.162	9017
928.267	9032
928.373	9671
928.479	9112
928.585	8830
928.69	9043
928.796	9020
928.901	8910
929.007	8792
929.112	8925
929.218	8891
929.323	8895
929.428	8872
929.533	8937
929.638	8823
929.743	8823
929.848	8906
929.953	8773
930.058	8811
930.163	8629
930.267	8610
930.372	8754
930.477	8514
930.581	8758
930.685	8712
930.79	8610
930.894	8632
930.998	8503
931.103	8640
931.207	8320
931.311	8244
931.415	8244
931.519	7989
931.623	7951
