Data from test_V78500241_3116.txt Node
Date: Fri Mar 25 14:55:24 CST 2022
User: usil
Spectrometer: V785-0024
Trigger mode: 0
Integration Time (sec): 4.000000E-1
Scans to average: 1
Nonlinearity correction enabled: false
Boxcar width: 0
Storing dark spectrum: false
XAxis mode: Wavelengths
Number of Pixels in Spectrum: 1024
>>>>>Begin Spectral Data<<<<<
801.071	22021
801.214	21956
801.356	21739
801.499	21614
801.641	21439
801.783	21477
801.926	21545
802.068	21492
802.211	21359
802.353	21268
802.496	20994
802.638	20845
802.78	20811
802.923	20902
803.065	20758
803.208	20636
803.35	20750
803.492	20807
803.635	20861
803.777	20689
803.919	20800
804.061	21104
804.204	20944
804.346	20686
804.488	20651
804.63	20746
804.773	20648
804.915	20705
805.057	20857
805.199	20594
805.341	20720
805.483	20788
805.626	20629
805.768	20674
805.91	20796
806.052	20682
806.194	20579
806.336	20754
806.478	20587
806.62	20670
806.762	20659
806.904	20975
807.046	21157
807.188	21142
807.33	20918
807.472	20971
807.614	20891
807.756	20990
807.898	20807
808.04	20743
808.182	20655
808.324	20792
808.465	20815
808.607	20921
808.749	21058
808.891	21195
809.033	21211
809.174	20998
809.316	21017
809.458	21009
809.6	21043
809.741	21104
809.883	21051
810.025	21287
810.166	21123
810.308	21203
810.45	21055
810.591	21077
810.733	20975
810.875	20952
811.016	20724
811.158	20743
811.299	20876
811.441	20830
811.582	20956
811.724	20800
811.865	20739
812.007	20667
812.148	20716
812.29	20785
812.431	20906
812.573	20994
812.714	21214
812.855	21336
812.997	21458
813.138	21507
813.279	21504
813.421	21344
813.562	21207
813.703	21009
813.845	21020
813.986	20739
814.127	20499
814.268	20408
814.41	20336
814.551	20415
814.692	20434
814.833	20176
814.974	20263
815.115	20305
815.256	20252
815.397	20172
815.539	20130
815.68	20065
815.821	20039
815.962	19978
816.103	19978
816.244	19928
816.385	19746
816.526	19936
816.666	19674
816.807	19464
816.948	19639
817.089	19586
817.23	19449
817.371	19483
817.512	19476
817.653	19415
817.793	19434
817.934	19434
818.075	19430
818.216	19419
818.356	19415
818.497	19358
818.638	19160
818.778	19122
818.919	19198
819.06	19206
819.2	19255
819.341	19362
819.481	19247
819.622	19491
819.762	19704
819.903	19620
820.043	19460
820.184	19438
820.324	19419
820.465	19449
820.605	19499
820.746	19430
820.886	19377
821.026	19354
821.167	19449
821.307	19472
821.447	19301
821.588	19304
821.728	19023
821.868	19034
822.008	18791
822.149	18840
822.289	18722
822.429	18555
822.569	18547
822.709	18528
822.849	18372
822.99	18330
823.13	18350
823.27	18281
823.41	18174
823.55	18098
823.69	18087
823.83	18083
823.97	18213
824.11	17836
824.25	17901
824.389	17843
824.529	17999
824.669	17946
824.809	18053
824.949	17969
825.089	17954
825.228	17866
825.368	17718
825.508	17764
825.648	17798
825.787	17737
825.927	17813
826.067	17623
826.206	17638
826.346	17726
826.485	17680
826.625	17638
826.765	17767
826.904	17714
827.044	17429
827.183	17455
827.323	17391
827.462	17387
827.601	17402
827.741	17318
827.88	17414
828.02	17239
828.159	17345
828.298	17414
828.437	17356
828.577	17315
828.716	17463
828.855	17277
828.994	17121
829.134	17151
829.273	17269
829.412	17102
829.551	17022
829.69	17029
829.829	17105
829.968	17181
830.107	17212
830.246	17124
830.385	17041
830.524	17014
830.663	16896
830.802	16793
830.941	16767
831.08	16816
831.219	16755
831.357	16797
831.496	16854
831.635	16752
831.774	16637
831.913	16653
832.051	16470
832.19	16641
832.329	16554
832.467	16379
832.606	16424
832.744	16352
832.883	16405
833.022	16394
833.16	16428
833.299	16481
833.437	16394
833.576	16531
833.714	16531
833.852	16497
833.991	16478
834.129	16561
834.267	16474
834.406	16546
834.544	16474
834.682	16470
834.821	16546
834.959	16588
835.097	16508
835.235	16561
835.373	16500
835.511	16504
835.65	16322
835.788	16379
835.926	16181
836.064	16223
836.202	16188
836.34	16428
836.478	16436
836.615	16447
836.753	16432
836.891	16428
837.029	16398
837.167	16462
837.305	16287
837.443	16246
837.58	16196
837.718	16367
837.856	16242
837.993	16211
838.131	16230
838.269	16211
838.406	16154
838.544	16051
838.681	15941
838.819	16006
838.956	15755
839.094	15785
839.231	15804
839.369	15926
839.506	16173
839.643	16040
839.781	15846
839.918	15857
840.055	15842
840.193	15762
840.33	15766
840.467	15876
840.604	15850
840.742	16109
840.879	15580
841.016	15663
841.153	15682
841.29	15945
841.427	15713
841.564	15838
841.701	15762
841.838	15686
841.975	15534
842.112	15747
842.249	15591
842.385	15545
842.522	15789
842.659	15507
842.796	15652
842.933	15625
843.069	15519
843.206	15515
843.343	15580
843.479	15614
843.616	15504
843.752	15408
843.889	15351
844.025	15519
844.162	15310
844.298	15443
844.435	15294
844.571	15214
844.708	15348
844.844	15599
844.98	15485
845.117	15374
845.253	15386
845.389	15184
845.525	15256
845.661	15237
845.798	15138
845.934	15283
846.07	15070
846.206	15150
846.342	15237
846.478	15169
846.614	14982
846.75	14861
846.886	14842
847.022	14975
847.158	15024
847.294	15013
847.429	14994
847.565	14906
847.701	15180
847.837	14735
847.972	14674
848.108	14739
848.244	14804
848.379	14549
848.515	14484
848.65	14598
848.786	14514
848.921	14450
849.057	14606
849.192	14583
849.328	14507
849.463	14522
849.598	14457
849.734	14503
849.869	14377
850.004	14377
850.14	14393
850.275	14317
850.41	14221
850.545	14324
850.68	14290
850.815	14244
850.95	14408
851.085	14465
851.22	14389
851.355	14343
851.49	14275
851.625	14355
851.76	14263
851.895	14157
852.03	14199
852.165	14187
852.299	14328
852.434	14244
852.569	14377
852.703	14351
852.838	14480
852.973	14442
853.107	14389
853.242	14237
853.376	14168
853.511	14065
853.645	14115
853.78	14301
853.914	14195
854.048	14180
854.183	14103
854.317	14126
854.451	14286
854.585	14142
854.72	14218
854.854	14237
854.988	14100
855.122	14107
855.256	13947
855.39	14202
855.524	14290
855.658	14286
855.792	14172
855.926	14149
856.06	14240
856.194	14286
856.327	14134
856.461	14107
856.595	14088
856.729	14225
856.862	14248
856.996	14267
857.13	14221
857.263	14271
857.397	14256
857.53	14248
857.664	14168
857.797	14404
857.931	14263
858.064	14202
858.197	14286
858.331	14187
858.464	14123
858.597	14005
858.731	14180
858.864	14096
858.997	14107
859.13	14187
859.263	14130
859.396	14347
859.529	14202
859.662	14126
859.795	14115
859.928	14145
860.061	14286
860.194	14309
860.327	14153
860.46	14176
860.592	14313
860.725	14221
860.858	14290
860.99	14100
861.123	14119
861.256	14046
861.388	14214
861.521	14876
861.653	14103
861.786	13986
861.918	13967
862.05	14183
862.183	14115
862.315	14187
862.447	14294
862.58	14081
862.712	13913
862.844	13909
862.976	14043
863.108	14035
863.24	14343
863.372	13883
863.504	14005
863.636	14058
863.768	14027
863.9	14012
864.032	13906
864.164	13845
864.296	14024
864.428	14077
864.559	14107
864.691	14058
864.823	13947
864.954	13963
865.086	13970
865.217	13974
865.349	13913
865.48	13951
865.612	13951
865.743	14119
865.875	13928
866.006	13833
866.137	13944
866.269	13909
866.4	13925
866.531	13814
866.662	13879
866.793	13875
866.924	13913
867.055	13944
867.186	13967
867.317	13871
867.448	13807
867.579	13811
867.71	13890
867.841	13860
867.972	13887
868.103	13921
868.233	14035
868.364	13959
868.495	14024
868.625	14138
868.756	14267
868.886	14145
869.017	14183
869.147	14278
869.278	14233
869.408	14138
869.539	14119
869.669	14301
869.799	14263
869.929	14377
870.06	14252
870.19	14465
870.32	14492
870.45	14568
870.58	14473
870.71	14701
870.84	14655
870.97	14621
871.1	14545
871.23	14762
871.36	14667
871.489	14739
871.619	14762
871.749	14868
871.879	14895
872.008	14979
872.138	14788
872.267	14754
872.397	14549
872.526	14659
872.656	14579
872.785	14598
872.915	14788
873.044	14868
873.173	14834
873.303	14864
873.432	14773
873.561	14895
873.69	14864
873.819	14823
873.948	14906
874.077	14845
874.206	14849
874.335	14899
874.464	15051
874.593	15138
874.722	15119
874.851	15211
874.979	15218
875.108	15192
875.237	15123
875.365	14982
875.494	15173
875.623	15192
875.751	15093
875.88	15291
876.008	15279
876.136	15469
876.265	15496
876.393	15720
876.521	15576
876.65	15656
876.778	15595
876.906	15507
877.034	15515
877.162	15504
877.29	15450
877.418	15526
877.546	15637
877.674	15561
877.802	15523
877.93	15637
878.058	15469
878.185	15477
878.313	15469
878.441	15591
878.568	15416
878.696	15405
878.824	15580
878.951	15606
879.079	15770
879.206	15930
879.333	15705
879.461	15595
879.588	15660
879.715	15644
879.842	15880
879.97	15633
880.097	15363
880.224	15420
880.351	15386
880.478	15450
880.605	15416
880.732	15447
880.859	15599
880.986	15389
881.112	15431
881.239	15294
881.366	15287
881.493	15192
881.619	15169
881.746	15150
881.872	15108
881.999	15020
882.125	15036
882.252	15119
882.378	15154
882.505	15275
882.631	15032
882.757	14937
882.883	14906
883.01	14891
883.136	14872
883.262	14621
883.388	14781
883.514	14883
883.64	14990
883.766	14807
883.892	14720
884.018	14731
884.143	14845
884.269	14918
884.395	14762
884.52	14663
884.646	14621
884.772	14568
884.897	14484
885.023	14606
885.148	14712
885.274	14758
885.399	14720
885.524	14670
885.65	14659
885.775	14587
885.9	14560
886.025	14705
886.15	14674
886.275	14495
886.4	14469
886.525	14476
886.65	14495
886.775	14473
886.9	14769
887.025	14857
887.149	14590
887.274	14423
887.399	14336
887.523	14389
887.648	14202
887.773	14347
887.897	14556
888.021	14579
888.146	14415
888.27	14476
888.395	14583
888.519	14526
888.643	14522
888.767	14427
888.891	14427
889.015	14374
889.139	14355
889.263	14317
889.387	14339
889.511	14575
889.635	14476
889.759	14278
889.883	14259
890.006	14336
890.13	14423
890.254	14202
890.377	14202
890.501	14100
890.624	14088
890.748	14153
890.871	14046
890.995	13993
891.118	13955
891.241	13936
891.364	14035
891.488	14153
891.611	14046
891.734	14081
891.857	14054
891.98	14054
892.103	14065
892.226	14001
892.349	13894
892.471	13852
892.594	14031
892.717	14008
892.839	14005
892.962	13982
893.085	14107
893.207	13967
893.33	13974
893.452	13906
893.575	14058
893.697	14012
893.819	14180
893.941	14195
894.064	14111
894.186	13982
894.308	13944
894.43	14096
894.552	14313
894.674	14115
894.796	13917
894.918	14130
895.04	13982
895.161	14187
895.283	14221
895.405	14024
895.526	14149
895.648	14111
895.769	14043
895.891	14130
896.012	14187
896.134	14248
896.255	14164
896.376	14142
896.498	14149
896.619	14282
896.74	14138
896.861	14202
896.982	14495
897.103	14701
897.224	14457
897.345	14404
897.466	14370
897.587	14427
897.708	14552
897.828	14533
897.949	14419
898.07	14328
898.19	14446
898.311	14689
898.431	14457
898.552	14480
898.672	14610
898.792	14610
898.913	14632
899.033	14492
899.153	14450
899.273	14263
899.393	14366
899.513	14415
899.633	14419
899.753	14465
899.873	14362
899.993	14412
900.113	14347
900.232	14408
900.352	14336
900.472	14290
900.591	14172
900.711	14320
900.83	14221
900.95	14377
901.069	14457
901.189	14149
901.308	14005
901.427	13875
901.546	13875
901.665	13917
901.784	13959
901.904	13833
902.023	13822
902.141	13533
902.26	13499
902.379	13616
902.498	13567
902.617	13510
902.735	13605
902.854	13476
902.973	13400
903.091	13202
903.21	13266
903.328	13194
903.446	13076
903.565	13126
903.683	13168
903.801	12935
903.919	13050
904.038	13031
904.156	12878
904.274	12966
904.392	12901
904.51	12905
904.627	12852
904.745	12932
904.863	12932
904.981	12749
905.098	12574
905.216	12608
905.334	12525
905.451	12620
905.569	12521
905.686	12582
905.803	12574
905.921	12483
906.038	12551
906.155	12418
906.272	12254
906.389	12365
906.506	12136
906.623	12254
906.74	12125
906.857	12003
906.974	12140
907.091	12270
907.208	12357
907.324	12228
907.441	12041
907.557	11878
907.674	11836
907.79	11779
907.907	11882
908.023	11897
908.139	11931
908.256	11992
908.372	11805
908.488	11866
908.604	11722
908.72	11668
908.836	11691
908.952	11676
909.068	11752
909.184	11779
909.3	11703
909.415	11779
909.531	11668
909.647	11429
909.762	11433
909.878	11410
909.993	11406
910.108	11364
910.224	11410
910.339	11493
910.454	11421
910.57	11292
910.685	11178
910.8	11547
910.915	11383
911.03	11364
911.145	11242
911.259	11143
911.374	11121
911.489	11018
911.604	11018
911.718	10999
911.833	10949
911.947	10854
912.062	10831
912.176	10809
912.291	10850
912.405	10904
912.519	11086
912.633	11193
912.748	11025
912.862	10900
912.976	10797
913.09	10710
913.204	10774
913.318	10774
913.431	10869
913.545	10892
913.659	10885
913.772	10812
913.886	10736
914	10637
914.113	10763
914.226	10771
914.34	10759
914.453	10660
914.566	10748
914.68	10592
914.793	10592
914.906	10451
915.019	10363
915.132	10428
915.245	10394
915.358	10386
915.47	10409
915.583	10432
915.696	10497
915.809	10554
915.921	10599
916.034	10417
916.146	10367
916.259	10314
916.371	10440
916.483	10398
916.595	10360
916.708	10360
916.82	10402
916.932	10303
917.044	10341
917.156	10280
917.268	10265
917.38	10227
917.491	10188
917.603	10246
917.715	10230
917.826	10443
917.938	10200
918.049	10074
918.161	10329
918.272	10344
918.384	10394
918.495	10375
918.606	10181
918.717	10109
918.828	10105
918.939	10223
919.05	10029
919.161	10173
919.272	9937
919.383	10017
919.494	10147
919.604	10360
919.715	10135
919.826	10090
919.936	10090
920.047	10196
920.157	10139
920.267	10303
920.378	10249
920.488	10173
920.598	10470
920.708	10466
920.818	10382
920.928	10261
921.038	10527
921.148	10459
921.258	10154
921.368	10055
921.477	10055
921.587	10006
921.697	9869
921.806	9987
921.916	9937
922.025	9770
922.134	9675
922.244	9610
922.353	9743
922.462	9561
922.571	9477
922.68	9481
922.789	9454
922.898	9397
923.007	9386
923.116	9447
923.224	9340
923.333	9405
923.442	9310
923.55	9302
923.659	9253
923.767	9336
923.876	9272
923.984	9340
924.092	9214
924.201	9313
924.309	9287
924.417	9336
924.525	9230
924.633	9256
924.741	10105
924.849	9123
924.956	9192
925.064	9062
925.172	9055
925.279	9066
925.387	9043
925.494	9104
925.602	9146
925.709	9165
925.816	9017
925.924	9036
926.031	9157
926.138	9089
926.245	9108
926.352	9005
926.459	9161
926.566	9188
926.673	9066
926.779	8872
926.886	8941
926.993	8811
927.099	8830
927.206	8785
927.312	8644
927.419	8788
927.525	8842
927.631	8823
927.737	8644
927.843	8693
927.95	8571
928.056	8629
928.162	8731
928.267	8720
928.373	9142
928.479	8788
928.585	8552
928.69	8743
928.796	8686
928.901	8602
929.007	8499
929.112	8621
929.218	8617
929.323	8556
929.428	8400
929.533	8613
929.638	8381
929.743	8415
929.848	8526
929.953	8564
930.058	8370
930.163	8233
930.267	8324
930.372	8434
930.477	8248
930.581	8507
930.685	8290
930.79	8176
930.894	8324
930.998	8153
931.103	8339
931.207	8020
931.311	7989
931.415	7830
931.519	7704
931.623	7738
