Data from test_V78500241_1238.txt Node
Date: Fri Mar 25 14:42:20 CST 2022
User: usil
Spectrometer: V785-0024
Trigger mode: 0
Integration Time (sec): 4.000000E-1
Scans to average: 1
Nonlinearity correction enabled: false
Boxcar width: 0
Storing dark spectrum: false
XAxis mode: Wavelengths
Number of Pixels in Spectrum: 1024
>>>>>Begin Spectral Data<<<<<
801.071	22500
801.214	22261
801.356	21994
801.499	21987
801.641	21869
801.783	21736
801.926	21819
802.068	21797
802.211	21663
802.353	21572
802.496	21428
802.638	21363
802.78	21283
802.923	21135
803.065	21169
803.208	21127
803.35	21222
803.492	21268
803.635	21294
803.777	21055
803.919	21291
804.061	21447
804.204	21230
804.346	21112
804.488	21001
804.63	20971
804.773	21001
804.915	21176
805.057	21233
805.199	21081
805.341	21066
805.483	21184
805.626	21165
805.768	20960
805.91	21104
806.052	21138
806.194	20921
806.336	21146
806.478	21047
806.62	21100
806.762	21119
806.904	21325
807.046	21351
807.188	21386
807.33	21374
807.472	21504
807.614	21310
807.756	21389
807.898	21249
808.04	21245
808.182	21230
808.324	21199
808.465	21249
808.607	21439
808.749	21507
808.891	21576
809.033	21587
809.174	21545
809.316	21519
809.458	21351
809.6	21450
809.741	21568
809.883	21477
810.025	21606
810.166	21606
810.308	21542
810.45	21488
810.591	21568
810.733	21291
810.875	21199
811.016	21116
811.158	21173
811.299	21359
811.441	21332
811.582	21287
811.724	21233
811.865	21169
812.007	21165
812.148	21176
812.29	21150
812.431	21256
812.573	21549
812.714	21507
812.855	21698
812.997	21819
813.138	21816
813.279	21587
813.421	21762
813.562	21595
813.703	21603
813.845	21291
813.986	21112
814.127	20914
814.268	20781
814.41	20929
814.551	20693
814.692	20807
814.833	20674
814.974	20689
815.115	20788
815.256	20465
815.397	20625
815.539	20674
815.68	20545
815.821	20358
815.962	20393
816.103	20351
816.244	20259
816.385	20153
816.526	20290
816.666	20130
816.807	19845
816.948	19970
817.089	20134
817.23	19906
817.371	19925
817.512	19982
817.653	19947
817.793	19772
817.934	20001
818.075	20043
818.216	19940
818.356	19799
818.497	19772
818.638	19491
818.778	19616
818.919	19601
819.06	19731
819.2	19639
819.341	19791
819.481	19689
819.622	19913
819.762	20130
819.903	20062
820.043	19982
820.184	19921
820.324	19833
820.465	19978
820.605	19970
820.746	19997
820.886	19723
821.026	19864
821.167	19814
821.307	20008
821.447	19898
821.588	19780
821.728	19616
821.868	19480
822.008	19384
822.149	19263
822.289	19255
822.429	19012
822.569	19072
822.709	19034
822.849	18894
822.99	18715
823.13	18806
823.27	18719
823.41	18604
823.55	18528
823.69	18589
823.83	18578
823.97	18509
824.11	18342
824.25	18380
824.389	18350
824.529	18456
824.669	18319
824.809	18460
824.949	18445
825.089	18456
825.228	18319
825.368	18247
825.508	18228
825.648	18216
825.787	18304
825.927	18220
826.067	18186
826.206	18155
826.346	18125
826.485	18209
826.625	18213
826.765	18220
826.904	18117
827.044	17843
827.183	17851
827.323	17779
827.462	17908
827.601	17863
827.741	17790
827.88	17946
828.02	17817
828.159	17783
828.298	17813
828.437	17893
828.577	17851
828.716	17946
828.855	17908
828.994	17649
829.134	17668
829.273	17627
829.412	17505
829.551	17627
829.69	17630
829.829	17573
829.968	17760
830.107	17691
830.246	17630
830.385	17619
830.524	17589
830.663	17455
830.802	17337
830.941	17136
831.08	17132
831.219	17356
831.357	17330
831.496	17547
831.635	17174
831.774	17029
831.913	17045
832.051	17056
832.19	17067
832.329	17022
832.467	16965
832.606	16976
832.744	16809
832.883	16999
833.022	16930
833.16	16923
833.299	16965
833.437	16938
833.576	16957
833.714	16911
833.852	16965
833.991	17033
834.129	17079
834.267	17014
834.406	16889
834.544	17064
834.682	17094
834.821	17018
834.959	17079
835.097	16892
835.235	17048
835.373	16934
835.511	17041
835.65	16930
835.788	16911
835.926	16736
836.064	16679
836.202	16683
836.34	16942
836.478	16942
836.615	16816
836.753	16957
836.891	17025
837.029	17003
837.167	16869
837.305	16820
837.443	16793
837.58	16790
837.718	16881
837.856	16809
837.993	16805
838.131	16812
838.269	16710
838.406	16797
838.544	16637
838.681	16466
838.819	16440
838.956	16329
839.094	16352
839.231	16382
839.369	16497
839.506	16717
839.643	16531
839.781	16436
839.918	16181
840.055	16314
840.193	16382
840.33	16249
840.467	16325
840.604	16367
840.742	16565
840.879	16082
841.016	16238
841.153	16169
841.29	16394
841.427	16284
841.564	16310
841.701	16333
841.838	16291
841.975	16158
842.112	16261
842.249	16215
842.385	16063
842.522	16287
842.659	16116
842.796	16059
842.933	16109
843.069	16078
843.206	16017
843.343	16219
843.479	16112
843.616	16139
843.752	15903
843.889	15850
844.025	16040
844.162	15854
844.298	16010
844.435	15876
844.571	15831
844.708	15945
844.844	16048
844.98	16036
845.117	16002
845.253	15842
845.389	15789
845.525	15812
845.661	15808
845.798	15690
845.934	15766
846.07	15751
846.206	15831
846.342	15888
846.478	15759
846.614	15614
846.75	15473
846.886	15306
847.022	15485
847.158	15488
847.294	15431
847.429	15473
847.565	15454
847.701	15717
847.837	15180
847.972	15245
848.108	15294
848.244	15332
848.379	15104
848.515	15116
848.65	15062
848.786	14971
848.921	15123
849.057	15192
849.192	15085
849.328	15043
849.463	15104
849.598	15070
849.734	14861
849.869	15005
850.004	14807
850.14	14899
850.275	14769
850.41	14720
850.545	14716
850.68	14743
850.815	14906
850.95	14887
851.085	15047
851.22	14887
851.355	14887
851.49	14746
851.625	14750
851.76	14838
851.895	14648
852.03	14773
852.165	14750
852.299	14845
852.434	14876
852.569	14804
852.703	14883
852.838	14853
852.973	14887
853.107	14899
853.242	14727
853.376	14743
853.511	14549
853.645	14750
853.78	14785
853.914	14663
854.048	14613
854.183	14663
854.317	14830
854.451	14891
854.585	14705
854.72	14594
854.854	14750
854.988	14613
855.122	14610
855.256	14495
855.39	14629
855.524	14724
855.658	14621
855.792	14613
855.926	14686
856.06	14781
856.194	14823
856.327	14636
856.461	14606
856.595	14556
856.729	14693
856.862	14735
856.996	14781
857.13	14781
857.263	14811
857.397	14674
857.53	14648
857.664	14655
857.797	14796
857.931	14765
858.064	14678
858.197	14853
858.331	14613
858.464	14659
858.597	14632
858.731	14667
858.864	14712
858.997	14571
859.13	14632
859.263	14659
859.396	14724
859.529	14648
859.662	14651
859.795	14594
859.928	14629
860.061	14842
860.194	14807
860.327	14670
860.46	14568
860.592	14743
860.725	14834
860.858	14834
860.99	14610
861.123	14564
861.256	14632
861.388	14697
861.521	15401
861.653	14511
861.786	14461
861.918	14560
862.05	14606
862.183	14598
862.315	14765
862.447	14663
862.58	14621
862.712	14488
862.844	14370
862.976	14587
863.108	14533
863.24	14887
863.372	14351
863.504	14454
863.636	14454
863.768	14465
863.9	14434
864.032	14324
864.164	14385
864.296	14355
864.428	14499
864.559	14552
864.691	14522
864.823	14450
864.954	14473
865.086	14454
865.217	14415
865.349	14301
865.48	14377
865.612	14404
865.743	14590
865.875	14454
866.006	14320
866.137	14438
866.269	14492
866.4	14366
866.531	14358
866.662	14328
866.793	14240
866.924	14336
867.055	14404
867.186	14450
867.317	14332
867.448	14339
867.579	14385
867.71	14320
867.841	14370
867.972	14442
868.103	14427
868.233	14499
868.364	14469
868.495	14484
868.625	14727
868.756	14701
868.886	14564
869.017	14636
869.147	14708
869.278	14804
869.408	14701
869.539	14640
869.669	14705
869.799	14590
869.929	14819
870.06	14826
870.19	14910
870.32	14948
870.45	14971
870.58	15028
870.71	15192
870.84	15169
870.97	15043
871.1	15009
871.23	15161
871.36	15241
871.489	15089
871.619	15233
871.749	15252
871.879	15283
872.008	15355
872.138	15275
872.267	15393
872.397	15150
872.526	15127
872.656	15047
872.785	15135
872.915	15294
873.044	15389
873.173	15321
873.303	15397
873.432	15412
873.561	15420
873.69	15310
873.819	15359
873.948	15416
874.077	15332
874.206	15378
874.335	15351
874.464	15496
874.593	15698
874.722	15523
874.851	15679
874.979	15622
875.108	15751
875.237	15603
875.365	15553
875.494	15595
875.623	15656
875.751	15534
875.88	15606
876.008	15755
876.136	15861
876.265	16067
876.393	16268
876.521	16185
876.65	16162
876.778	16036
876.906	15915
877.034	15979
877.162	15987
877.29	16002
877.418	16002
877.546	16032
877.674	15987
877.802	16002
877.93	16097
878.058	15953
878.185	15972
878.313	15941
878.441	16067
878.568	15838
878.696	15964
878.824	16021
878.951	16158
879.079	16139
879.206	16485
879.333	16169
879.461	16135
879.588	16166
879.715	16295
879.842	16322
879.97	16166
880.097	15979
880.224	15865
880.351	15941
880.478	15838
880.605	15903
880.732	15846
880.859	16109
880.986	15926
881.112	15979
881.239	15755
881.366	15660
881.493	15633
881.619	15553
881.746	15553
881.872	15450
881.999	15534
882.125	15492
882.252	15595
882.378	15572
882.505	15759
882.631	15610
882.757	15317
882.883	15408
883.01	15374
883.136	15249
883.262	15150
883.388	15097
883.514	15412
883.64	15367
883.766	15317
883.892	15104
884.018	15169
884.143	15268
884.269	15466
884.395	15138
884.52	15104
884.646	15097
884.772	15085
884.897	15013
885.023	15039
885.148	15104
885.274	15150
885.399	15199
885.524	14975
885.65	15039
885.775	15104
885.9	15062
886.025	15222
886.15	15165
886.275	14986
886.4	14979
886.525	15032
886.65	14948
886.775	15070
886.9	15142
887.025	15249
887.149	15112
887.274	14857
887.399	14891
887.523	14849
887.648	14777
887.773	14765
887.897	14883
888.021	15020
888.146	14899
888.27	15036
888.395	14963
888.519	14914
888.643	14906
888.767	14891
888.891	14777
889.015	14712
889.139	14735
889.263	14777
889.387	14887
889.511	14876
889.635	14906
889.759	14693
889.883	14777
890.006	14807
890.13	14792
890.254	14678
890.377	14735
890.501	14541
890.624	14461
890.748	14549
890.871	14393
890.995	14431
891.118	14286
891.241	14431
891.364	14431
891.488	14503
891.611	14412
891.734	14488
891.857	14476
891.98	14362
892.103	14564
892.226	14442
892.349	14419
892.471	14332
892.594	14408
892.717	14332
892.839	14419
892.962	14393
893.085	14484
893.207	14415
893.33	14362
893.452	14317
893.575	14537
893.697	14465
893.819	14606
893.941	14560
894.064	14617
894.186	14336
894.308	14434
894.43	14484
894.552	14632
894.674	14507
894.796	14488
894.918	14381
895.04	14404
895.161	14560
895.283	14610
895.405	14446
895.526	14438
895.648	14530
895.769	14606
895.891	14613
896.012	14537
896.134	14678
896.255	14689
896.376	14575
896.498	14568
896.619	14640
896.74	14590
896.861	14571
896.982	14982
897.103	15047
897.224	14891
897.345	14830
897.466	14762
897.587	14960
897.708	14952
897.828	14948
897.949	14830
898.07	14785
898.19	14762
898.311	15009
898.431	14933
898.552	14937
898.672	14960
898.792	15020
898.913	14933
899.033	14883
899.153	14815
899.273	14644
899.393	14712
899.513	14785
899.633	14769
899.753	14838
899.873	14758
899.993	14895
900.113	14743
900.232	14758
900.352	14731
900.472	14720
900.591	14549
900.711	14610
900.83	14632
900.95	14716
901.069	14785
901.189	14613
901.308	14301
901.427	14267
901.546	14282
901.665	14233
901.784	14275
901.904	14195
902.023	14149
902.141	13860
902.26	13875
902.379	13986
902.498	13841
902.617	13833
902.735	13932
902.854	13807
902.973	13780
903.091	13632
903.21	13597
903.328	13666
903.446	13521
903.565	13392
903.683	13449
903.801	13445
903.919	13335
904.038	13419
904.156	13285
904.274	13335
904.392	13213
904.51	13190
904.627	13171
904.745	13274
904.863	13301
904.981	13050
905.098	12947
905.216	12951
905.334	12989
905.451	12894
905.569	12970
905.686	12951
905.803	12920
905.921	12745
906.038	12852
906.155	12715
906.272	12658
906.389	12711
906.506	12460
906.623	12536
906.74	12513
906.857	12426
906.974	12471
907.091	12597
907.208	12593
907.324	12521
907.441	12410
907.557	12304
907.674	12384
907.79	12224
907.907	12213
908.023	12254
908.139	12228
908.256	12216
908.372	12133
908.488	12133
908.604	12076
908.72	12030
908.836	12007
908.952	12053
909.068	11965
909.184	12159
909.3	12019
909.415	12155
909.531	11942
909.647	11790
909.762	11733
909.878	11783
909.993	11710
910.108	11707
910.224	11722
910.339	11786
910.454	11741
910.57	11619
910.685	11570
910.8	11809
910.915	11904
911.03	11688
911.145	11471
911.259	11471
911.374	11478
911.489	11459
911.604	11349
911.718	11197
911.833	11322
911.947	11201
912.062	11067
912.176	11201
912.291	11303
912.405	11311
912.519	11433
912.633	11486
912.748	11258
912.862	11261
912.976	11159
913.09	10972
913.204	11052
913.318	11159
913.431	11178
913.545	11235
913.659	11246
913.772	11075
913.886	11143
914	10995
914.113	11060
914.226	11098
914.34	11067
914.453	10995
914.566	11060
914.68	10927
914.793	10892
914.906	10782
915.019	10752
915.132	10717
915.245	10698
915.358	10717
915.47	10687
915.583	10824
915.696	10797
915.809	10873
915.921	10976
916.034	10706
916.146	10744
916.259	10634
916.371	10824
916.483	10740
916.595	10660
916.708	10687
916.82	10740
916.932	10694
917.044	10668
917.156	10588
917.268	10516
917.38	10527
917.491	10592
917.603	10554
917.715	10630
917.826	10637
917.938	10558
918.049	10459
918.161	10516
918.272	10740
918.384	10694
918.495	10603
918.606	10382
918.717	10424
918.828	10432
918.939	10459
919.05	10329
919.161	10405
919.272	10196
919.383	10265
919.494	10417
919.604	10634
919.715	10470
919.826	10329
919.936	10390
920.047	10550
920.157	10478
920.267	10634
920.378	10421
920.488	10390
920.598	10637
920.708	10847
920.818	10721
920.928	10599
921.038	10763
921.148	10839
921.258	10421
921.368	10436
921.477	10352
921.587	10253
921.697	10204
921.806	10371
921.916	10196
922.025	10036
922.134	9949
922.244	9953
922.353	10063
922.462	9842
922.571	9869
922.68	9728
922.789	9686
922.898	9686
923.007	9667
923.116	9740
923.224	9671
923.333	9584
923.442	9477
923.55	9656
923.659	9526
923.767	9542
923.876	9553
923.984	9644
924.092	9542
924.201	9511
924.309	9629
924.417	9519
924.525	9584
924.633	9431
924.741	10249
924.849	9340
924.956	9458
925.064	9336
925.172	9237
925.279	9298
925.387	9386
925.494	9298
925.602	9492
925.709	9428
925.816	9237
925.924	9355
926.031	9416
926.138	9370
926.245	9329
926.352	9268
926.459	9405
926.566	9393
926.673	9260
926.779	9150
926.886	9199
926.993	9104
927.099	8963
927.206	9024
927.312	8925
927.419	9131
927.525	9100
927.631	9005
927.737	8998
927.843	8948
927.95	8815
928.056	8906
928.162	8967
928.267	8990
928.373	9530
928.479	9013
928.585	8796
928.69	8857
928.796	9005
928.901	8864
929.007	8724
929.112	8800
929.218	8887
929.323	8811
929.428	8731
929.533	8796
929.638	8678
929.743	8655
929.848	8720
929.953	8735
930.058	8644
930.163	8556
930.267	8533
930.372	8632
930.477	8507
930.581	8648
930.685	8514
930.79	8473
930.894	8484
930.998	8412
931.103	8602
931.207	8214
931.311	8206
931.415	8157
931.519	7970
931.623	8001
