Data from test_V78500241_602.txt Node
Date: Fri Mar 25 14:37:54 CST 2022
User: usil
Spectrometer: V785-0024
Trigger mode: 0
Integration Time (sec): 4.000000E-1
Scans to average: 1
Nonlinearity correction enabled: false
Boxcar width: 0
Storing dark spectrum: false
XAxis mode: Wavelengths
Number of Pixels in Spectrum: 1024
>>>>>Begin Spectral Data<<<<<
801.071	27922
801.214	27743
801.356	27694
801.499	27420
801.641	27363
801.783	27329
801.926	27291
802.068	27218
802.211	27062
802.353	27081
802.496	26868
802.638	26967
802.78	26804
802.923	26834
803.065	26807
803.208	26788
803.35	26834
803.492	26853
803.635	27020
803.777	27001
803.919	27161
804.061	27336
804.204	27036
804.346	26967
804.488	26902
804.63	27161
804.773	26971
804.915	27161
805.057	27291
805.199	27176
805.341	27291
805.483	27332
805.626	27462
805.768	27370
805.91	27568
806.052	27641
806.194	27599
806.336	27949
806.478	27842
806.62	28002
806.762	28310
806.904	28599
807.046	29075
807.188	29143
807.33	29497
807.472	30007
807.614	30403
807.756	30836
807.898	31750
808.04	32819
808.182	34093
808.324	35950
808.465	37868
808.607	40238
808.749	42186
808.891	43552
809.033	43613
809.174	42174
809.316	40261
809.458	37860
809.6	35524
809.741	33804
809.883	32381
810.025	31400
810.166	30791
810.308	29969
810.45	29634
810.591	29303
810.733	28767
810.875	28649
811.016	28367
811.158	28112
811.299	28253
811.441	28204
811.582	28013
811.724	27934
811.865	27785
812.007	27701
812.148	27694
812.29	27553
812.431	27698
812.573	27816
812.714	27736
812.855	27983
812.997	27907
813.138	28196
813.279	28036
813.421	27842
813.562	27857
813.703	27610
813.845	27405
813.986	27188
814.127	26921
814.268	26811
814.41	26785
814.551	26625
814.692	26864
814.833	26587
814.974	26507
815.115	26552
815.256	26484
815.397	26442
815.539	26434
815.68	26389
815.821	26214
815.962	26286
816.103	26100
816.244	26103
816.385	25997
816.526	26039
816.666	25738
816.807	25655
816.948	25704
817.089	25807
817.23	25662
817.371	25578
817.512	25609
817.653	25472
817.793	25487
817.934	25472
818.075	25510
818.216	25514
818.356	25263
818.497	25350
818.638	25183
818.778	25320
818.919	25358
819.06	25301
819.2	25255
819.341	25270
819.481	25343
819.622	25616
819.762	25700
819.903	25757
820.043	25457
820.184	25407
820.324	25563
820.465	25510
820.605	25422
820.746	25369
820.886	25301
821.026	25422
821.167	25365
821.307	25468
821.447	25266
821.588	24954
821.728	24962
821.868	24829
822.008	24772
822.149	24772
822.289	24715
822.429	24391
822.569	24467
822.709	24346
822.849	24239
822.99	24129
823.13	24114
823.27	24022
823.41	23889
823.55	23832
823.69	24049
823.83	24030
823.97	23885
824.11	23512
824.25	23668
824.389	23615
824.529	23691
824.669	23657
824.809	23775
824.949	23741
825.089	23665
825.228	23668
825.368	23471
825.508	23410
825.648	23566
825.787	23467
825.927	23486
826.067	23414
826.206	23440
826.346	23512
826.485	23406
826.625	23387
826.765	23455
826.904	23474
827.044	23208
827.183	23261
827.323	23094
827.462	23086
827.601	23102
827.741	23117
827.88	23102
828.02	22961
828.159	23109
828.298	23033
828.437	23121
828.577	23010
828.716	23212
828.855	23052
828.994	22778
829.134	22942
829.273	22911
829.412	22729
829.551	22683
829.69	22694
829.829	22717
829.968	22816
830.107	22843
830.246	22786
830.385	22828
830.524	22626
830.663	22782
830.802	22440
830.941	22398
831.08	22230
831.219	22436
831.357	22352
831.496	22596
831.635	22348
831.774	22284
831.913	22390
832.051	22234
832.19	22169
832.329	22173
832.467	22181
832.606	22055
832.744	22185
832.883	22150
833.022	22131
833.16	22306
833.299	22348
833.437	22577
833.576	22596
833.714	22519
833.852	22660
833.991	22812
834.129	22934
834.267	22866
834.406	22881
834.544	22862
834.682	22748
834.821	22500
834.959	22744
835.097	22402
835.235	22527
835.373	22204
835.511	22333
835.65	22055
835.788	22059
835.926	21869
836.064	21835
836.202	21865
836.34	21953
836.478	21956
836.615	21854
836.753	21937
836.891	21888
837.029	21835
837.167	21690
837.305	21675
837.443	21549
837.58	21572
837.718	21728
837.856	21690
837.993	21667
838.131	21682
838.269	21519
838.406	21599
838.544	21519
838.681	21302
838.819	21321
838.956	21146
839.094	21199
839.231	21119
839.369	21230
839.506	21568
839.643	21298
839.781	21085
839.918	20952
840.055	21047
840.193	21005
840.33	21043
840.467	20880
840.604	21058
840.742	21272
840.879	20826
841.016	21009
841.153	20941
841.29	21116
841.427	20994
841.564	21028
841.701	20986
841.838	20880
841.975	20781
842.112	20872
842.249	20883
842.385	20781
842.522	21009
842.659	20792
842.796	20849
842.933	20773
843.069	20842
843.206	20887
843.343	20823
843.479	20906
843.616	20914
843.752	20678
843.889	20758
844.025	20868
844.162	20785
844.298	20960
844.435	20872
844.571	20998
844.708	21420
844.844	21686
844.98	22063
845.117	22344
845.253	22980
845.389	24007
845.525	26480
845.661	30357
845.798	35105
845.934	38632
846.07	39987
846.206	39370
846.342	36258
846.478	31613
846.614	27332
846.75	24608
846.886	23006
847.022	22044
847.158	21523
847.294	21058
847.429	20758
847.565	20499
847.701	20800
847.837	20195
847.972	20050
848.108	20248
848.244	20130
848.379	19890
848.515	19799
848.65	19715
848.786	19651
848.921	19677
849.057	19807
849.192	19788
849.328	19639
849.463	19632
849.598	19658
849.734	19556
849.869	19552
850.004	19362
850.14	19396
850.275	19343
850.41	19263
850.545	19324
850.68	19407
850.815	19320
850.95	19270
851.085	19666
851.22	19407
851.355	19350
851.49	19312
851.625	19396
851.76	19358
851.895	19297
852.03	19198
852.165	19335
852.299	19422
852.434	19430
852.569	19453
852.703	19343
852.838	19491
852.973	19533
853.107	19529
853.242	19518
853.376	19362
853.511	19179
853.645	19244
853.78	19586
853.914	19426
854.048	19449
854.183	19358
854.317	19483
854.451	19666
854.585	19476
854.72	19415
854.854	19457
854.988	19209
855.122	19324
855.256	19320
855.39	19297
855.524	19407
855.658	19392
855.792	19297
855.926	19236
856.06	19297
856.194	19358
856.327	19244
856.461	19225
856.595	19122
856.729	19247
856.862	19244
856.996	19198
857.13	19285
857.263	19202
857.397	19247
857.53	19244
857.664	19168
857.797	19076
857.931	19187
858.064	19148
858.197	19137
858.331	19129
858.464	19038
858.597	19072
858.731	19065
858.864	19194
858.997	19091
859.13	18970
859.263	19114
859.396	19160
859.529	18970
859.662	18966
859.795	18882
859.928	19065
860.061	19202
860.194	19137
860.327	19050
860.46	19057
860.592	19122
860.725	19221
860.858	19187
860.99	19031
861.123	18935
861.256	18916
861.388	18966
861.521	19601
861.653	18989
861.786	18730
861.918	18814
862.05	18970
862.183	18951
862.315	19019
862.447	19110
862.58	19061
862.712	18856
862.844	18795
862.976	18840
863.108	18703
863.24	19057
863.372	18684
863.504	18798
863.636	18726
863.768	18700
863.9	18741
864.032	18654
864.164	18601
864.296	18783
864.428	18776
864.559	18776
864.691	18795
864.823	18730
864.954	18665
865.086	18787
865.217	18646
865.349	18502
865.48	18570
865.612	18608
865.743	18806
865.875	18696
866.006	18544
866.137	18589
866.269	18688
866.4	18536
866.531	18521
866.662	18540
866.793	18536
866.924	18631
867.055	18635
867.186	18517
867.317	18536
867.448	18544
867.579	18452
867.71	18532
867.841	18433
867.972	18536
868.103	18498
868.233	18582
868.364	18608
868.495	18669
868.625	18703
868.756	18833
868.886	18715
869.017	18772
869.147	18928
869.278	18943
869.408	18920
869.539	18802
869.669	18894
869.799	18856
869.929	19069
870.06	18993
870.19	19198
870.32	19053
870.45	19266
870.58	19133
870.71	19415
870.84	19384
870.97	19343
871.1	19263
871.23	19384
871.36	19453
871.489	19434
871.619	19441
871.749	19575
871.879	19502
872.008	19689
872.138	19521
872.267	19480
872.397	19396
872.526	19358
872.656	19369
872.785	19419
872.915	19571
873.044	19685
873.173	19620
873.303	19734
873.432	19696
873.561	19632
873.69	19624
873.819	19700
873.948	19860
874.077	19803
874.206	19803
874.335	19830
874.464	19963
874.593	20020
874.722	20062
874.851	20259
874.979	20161
875.108	20202
875.237	20138
875.365	20134
875.494	20229
875.623	20400
875.751	20191
875.88	20313
876.008	20476
876.136	20583
876.265	20792
876.393	21081
876.521	20933
876.65	20967
876.778	20921
876.906	20899
877.034	20929
877.162	21055
877.29	21055
877.418	21176
877.546	21180
877.674	21355
877.802	21454
877.93	21473
878.058	21462
878.185	21488
878.313	21941
878.441	22116
878.568	22207
878.696	22793
878.824	23212
878.951	24011
879.079	25168
879.206	26712
879.333	28044
879.461	29204
879.588	30015
879.715	30129
879.842	29433
879.97	28162
880.097	26499
880.224	25472
880.351	24536
880.478	24087
880.605	23600
880.732	23292
880.859	23402
880.986	23067
881.112	22972
881.239	22839
881.366	22687
881.493	22531
881.619	22489
881.746	22599
881.872	22573
881.999	22554
882.125	22550
882.252	22626
882.378	22702
882.505	22755
882.631	22622
882.757	22618
882.883	22622
883.01	22310
883.136	22402
883.262	22348
883.388	22158
883.514	22497
883.64	22478
883.766	22394
883.892	22363
884.018	22238
884.143	22405
884.269	22519
884.395	22356
884.52	22101
884.646	22204
884.772	22055
884.897	22074
885.023	22124
885.148	22261
885.274	22234
885.399	22059
885.524	21987
885.65	21857
885.775	21736
885.9	21698
886.025	21857
886.15	21622
886.275	21386
886.4	21214
886.525	21135
886.65	21112
886.775	21066
886.9	21104
887.025	21165
887.149	20811
887.274	20541
887.399	20511
887.523	20564
887.648	20385
887.773	20275
887.897	20442
888.021	20240
888.146	20138
888.27	20263
888.395	20324
888.519	20161
888.643	20077
888.767	19959
888.891	19928
889.015	19731
889.139	19841
889.263	19795
889.387	19841
889.511	19967
889.635	19784
889.759	19670
889.883	19655
890.006	19639
890.13	19689
890.254	19597
890.377	19525
890.501	19335
890.624	19240
890.748	19209
890.871	19168
890.995	19095
891.118	19057
891.241	19129
891.364	19034
891.488	19095
891.611	18977
891.734	18966
891.857	19046
891.98	18989
892.103	19027
892.226	19015
892.349	18810
892.471	18684
892.594	18692
892.717	18859
892.839	18707
892.962	18700
893.085	18848
893.207	18589
893.33	18429
893.452	18585
893.575	18760
893.697	18467
893.819	18738
893.941	18669
894.064	18639
894.186	18475
894.308	18418
894.43	18593
894.552	18661
894.674	18597
894.796	18418
894.918	18460
895.04	18437
895.161	18612
895.283	18612
895.405	18323
895.526	18410
895.648	18289
895.769	18460
895.891	18426
896.012	18589
896.134	18471
896.255	18433
896.376	18399
896.498	18521
896.619	18467
896.74	18437
896.861	18426
896.982	18738
897.103	18867
897.224	18650
897.345	18707
897.466	18544
897.587	18578
897.708	18719
897.828	18631
897.949	18525
898.07	18437
898.19	18528
898.311	18528
898.431	18589
898.552	18650
898.672	18650
898.792	18585
898.913	18635
899.033	18532
899.153	18403
899.273	18281
899.393	18342
899.513	18353
899.633	18350
899.753	18323
899.873	18380
899.993	18441
900.113	18346
900.232	18403
900.352	18372
900.472	18163
900.591	18125
900.711	18277
900.83	18117
900.95	18182
901.069	18247
901.189	18026
901.308	17779
901.427	17821
901.546	17847
901.665	17741
901.784	17779
901.904	17512
902.023	17551
902.141	17277
902.26	17159
902.379	17318
902.498	17220
902.617	17071
902.735	17345
902.854	17060
902.973	17200
903.091	16892
903.21	16793
903.328	16816
903.446	16626
903.565	16668
903.683	16713
903.801	16474
903.919	16626
904.038	16634
904.156	16363
904.274	16417
904.392	16512
904.51	16440
904.627	16409
904.745	16382
904.863	16398
904.981	16128
905.098	16082
905.216	16074
905.334	16071
905.451	16048
905.569	16067
905.686	16051
905.803	16051
905.921	15797
906.038	15854
906.155	15869
906.272	15694
906.389	15724
906.506	15568
906.623	15584
906.74	15511
906.857	15416
906.974	15439
907.091	15572
907.208	15614
907.324	15656
907.441	15488
907.557	15283
907.674	15264
907.79	15108
907.907	15138
908.023	15325
908.139	15241
908.256	15169
908.372	15123
908.488	15100
908.604	14986
908.72	14956
908.836	14929
908.952	14994
909.068	15066
909.184	15112
909.3	14975
909.415	15074
909.531	14971
909.647	14708
909.762	14686
909.878	14598
909.993	14613
910.108	14743
910.224	14556
910.339	14724
910.454	14518
910.57	14507
910.685	14419
910.8	14712
910.915	14659
911.03	14575
911.145	14396
911.259	14259
911.374	14370
911.489	14229
911.604	14157
911.718	14012
911.833	14103
911.947	13944
912.062	13909
912.176	13978
912.291	14024
912.405	13982
912.519	14263
912.633	14214
912.748	14069
912.862	13986
912.976	14008
913.09	13704
913.204	13791
913.318	13826
913.431	13993
913.545	13986
913.659	13993
913.772	13776
913.886	13826
914	13670
914.113	13822
914.226	13871
914.34	13791
914.453	13597
914.566	13689
914.68	13658
914.793	13575
914.906	13506
915.019	13407
915.132	13377
915.245	13422
915.358	13441
915.47	13415
915.583	13403
915.696	13464
915.809	13594
915.921	13468
916.034	13293
916.146	13343
916.259	13289
916.371	13445
916.483	13384
916.595	13320
916.708	13320
916.82	13327
916.932	13255
917.044	13308
917.156	13289
917.268	13137
917.38	13206
917.491	13160
917.603	13164
917.715	13202
917.826	13213
917.938	13069
918.049	12920
918.161	13072
918.272	13126
918.384	13263
918.495	13012
918.606	12985
918.717	12878
918.828	12916
918.939	12916
919.05	12757
919.161	12791
919.272	12741
919.383	12810
919.494	12973
919.604	13008
919.715	12817
919.826	12757
919.936	12787
920.047	12958
920.157	12852
920.267	13012
920.378	12867
920.488	12886
920.598	12943
920.708	13168
920.818	13012
920.928	13069
921.038	13171
921.148	13084
921.258	12810
921.368	12719
921.477	12585
921.587	12593
921.697	12464
921.806	12616
921.916	12399
922.025	12285
922.134	12296
922.244	12235
922.353	12327
922.462	12117
922.571	12026
922.68	12022
922.789	11931
922.898	11958
923.007	11897
923.116	11999
923.224	11923
923.333	11931
923.442	11809
923.55	11691
923.659	11779
923.767	11824
923.876	11688
923.984	11824
924.092	11668
924.201	11688
924.309	11707
924.417	11726
924.525	11611
924.633	11638
924.741	12410
924.849	11463
924.956	11642
925.064	11459
925.172	11356
925.279	11448
925.387	11467
925.494	11448
925.602	11646
925.709	11493
925.816	11330
925.924	11436
926.031	11448
926.138	11368
926.245	11455
926.352	11246
926.459	11455
926.566	11353
926.673	11284
926.779	11235
926.886	11235
926.993	11018
927.099	11037
927.206	11025
927.312	10987
927.419	11109
927.525	11041
927.631	11029
927.737	10980
927.843	10835
927.95	10839
928.056	10839
928.162	10850
928.267	10991
928.373	11417
928.479	10961
928.585	10740
928.69	10896
928.796	10892
928.901	10824
929.007	10641
929.112	10801
929.218	10744
929.323	10736
929.428	10596
929.533	10809
929.638	10580
929.743	10645
929.848	10645
929.953	10615
930.058	10470
930.163	10249
930.267	10398
930.372	10504
930.477	10314
930.581	10531
930.685	10485
930.79	10314
930.894	10246
930.998	10249
931.103	10447
931.207	10017
931.311	9983
931.415	9937
931.519	9713
931.623	9663
