Data from test_V78500241_2364.txt Node
Date: Fri Mar 25 14:50:10 CST 2022
User: usil
Spectrometer: V785-0024
Trigger mode: 0
Integration Time (sec): 4.000000E-1
Scans to average: 1
Nonlinearity correction enabled: false
Boxcar width: 0
Storing dark spectrum: false
XAxis mode: Wavelengths
Number of Pixels in Spectrum: 1024
>>>>>Begin Spectral Data<<<<<
801.071	22124
801.214	22063
801.356	21793
801.499	21682
801.641	21618
801.783	21504
801.926	21534
802.068	21443
802.211	21401
802.353	21207
802.496	20963
802.638	21066
802.78	20876
802.923	20823
803.065	20826
803.208	20792
803.35	20944
803.492	21001
803.635	20986
803.777	20902
803.919	20971
804.061	21135
804.204	20880
804.346	20754
804.488	20575
804.63	20804
804.773	20678
804.915	20788
805.057	20899
805.199	20701
805.341	20796
805.483	20971
805.626	20804
805.768	20765
805.91	20682
806.052	20788
806.194	20750
806.336	21009
806.478	20834
806.62	20754
806.762	20804
806.904	21043
807.046	21157
807.188	20982
807.33	21093
807.472	21199
807.614	21013
807.756	21051
807.898	20845
808.04	20849
808.182	20765
808.324	20910
808.465	20910
808.607	21085
808.749	21157
808.891	21252
809.033	21412
809.174	21249
809.316	21089
809.458	21138
809.6	21188
809.741	21252
809.883	21150
810.025	21294
810.166	21389
810.308	21302
810.45	21298
810.591	21176
810.733	21104
810.875	20899
811.016	20899
811.158	20792
811.299	20895
811.441	21066
811.582	20986
811.724	20929
811.865	20876
812.007	20948
812.148	20800
812.29	20868
812.431	21005
812.573	21275
812.714	21424
812.855	21378
812.997	21538
813.138	21732
813.279	21591
813.421	21431
813.562	21416
813.703	21279
813.845	21055
813.986	20792
814.127	20594
814.268	20602
814.41	20503
814.551	20480
814.692	20454
814.833	20412
814.974	20465
815.115	20423
815.256	20434
815.397	20278
815.539	20244
815.68	20275
815.821	20103
815.962	20282
816.103	20218
816.244	20046
816.385	19944
816.526	19826
816.666	19670
816.807	19616
816.948	19674
817.089	19738
817.23	19487
817.371	19533
817.512	19559
817.653	19552
817.793	19563
817.934	19575
818.075	19685
818.216	19552
818.356	19502
818.497	19441
818.638	19335
818.778	19278
818.919	19255
819.06	19365
819.2	19449
819.341	19369
819.481	19381
819.622	19567
819.762	19826
819.903	19628
820.043	19658
820.184	19620
820.324	19609
820.465	19658
820.605	19624
820.746	19529
820.886	19400
821.026	19620
821.167	19438
821.307	19643
821.447	19350
821.588	19377
821.728	19327
821.868	19160
822.008	18947
822.149	18943
822.289	18954
822.429	18612
822.569	18623
822.709	18692
822.849	18532
822.99	18437
823.13	18467
823.27	18483
823.41	18357
823.55	18289
823.69	18311
823.83	18342
823.97	18232
824.11	18083
824.25	18003
824.389	17912
824.529	18049
824.669	18003
824.809	18171
824.949	18083
825.089	18034
825.228	18144
825.368	17863
825.508	17878
825.648	17889
825.787	17851
825.927	17847
826.067	17767
826.206	17790
826.346	17824
826.485	17843
826.625	17707
826.765	17988
826.904	17851
827.044	17566
827.183	17619
827.323	17524
827.462	17547
827.601	17501
827.741	17497
827.88	17471
828.02	17421
828.159	17570
828.298	17490
828.437	17581
828.577	17406
828.716	17592
828.855	17433
828.994	17197
829.134	17220
829.273	17242
829.412	17212
829.551	17193
829.69	17235
829.829	17265
829.968	17307
830.107	17315
830.246	17193
830.385	17143
830.524	17090
830.663	16980
830.802	16946
830.941	16824
831.08	16771
831.219	16854
831.357	16919
831.496	17003
831.635	16782
831.774	16687
831.913	16694
832.051	16603
832.19	16736
832.329	16656
832.467	16588
832.606	16485
832.744	16504
832.883	16519
833.022	16497
833.16	16542
833.299	16550
833.437	16580
833.576	16546
833.714	16531
833.852	16577
833.991	16603
834.129	16679
834.267	16577
834.406	16584
834.544	16550
834.682	16584
834.821	16622
834.959	16801
835.097	16489
835.235	16615
835.373	16660
835.511	16592
835.65	16550
835.788	16466
835.926	16424
836.064	16310
836.202	16466
836.34	16538
836.478	16611
836.615	16478
836.753	16447
836.891	16558
837.029	16577
837.167	16447
837.305	16493
837.443	16333
837.58	16246
837.718	16447
837.856	16371
837.993	16318
838.131	16413
838.269	16318
838.406	16310
838.544	16150
838.681	16059
838.819	15972
838.956	15857
839.094	15892
839.231	15888
839.369	15968
839.506	16291
839.643	16139
839.781	15915
839.918	15854
840.055	15972
840.193	15907
840.33	15739
840.467	15926
840.604	15895
840.742	16166
840.879	15739
841.016	15888
841.153	15789
841.29	16044
841.427	16002
841.564	15907
841.701	16006
841.838	15850
841.975	15774
842.112	15743
842.249	15705
842.385	15606
842.522	15930
842.659	15667
842.796	15705
842.933	15743
843.069	15591
843.206	15648
843.343	15781
843.479	15785
843.616	15679
843.752	15568
843.889	15507
844.025	15717
844.162	15447
844.298	15625
844.435	15428
844.571	15450
844.708	15564
844.844	15603
844.98	15625
845.117	15576
845.253	15386
845.389	15260
845.525	15363
845.661	15310
845.798	15214
845.934	15275
846.07	15283
846.206	15355
846.342	15431
846.478	15211
846.614	15047
846.75	14982
846.886	15036
847.022	15218
847.158	15074
847.294	15070
847.429	15093
847.565	15005
847.701	15211
847.837	14739
847.972	14807
848.108	14891
848.244	14834
848.379	14636
848.515	14568
848.65	14552
848.786	14579
848.921	14613
849.057	14883
849.192	14796
849.328	14705
849.463	14823
849.598	14606
849.734	14579
849.869	14545
850.004	14492
850.14	14457
850.275	14336
850.41	14351
850.545	14393
850.68	14332
850.815	14476
850.95	14320
851.085	14545
851.22	14393
851.355	14358
851.49	14408
851.625	14473
851.76	14351
851.895	14233
852.03	14248
852.165	14389
852.299	14438
852.434	14552
852.569	14377
852.703	14476
852.838	14526
852.973	14575
853.107	14450
853.242	14278
853.376	14366
853.511	14115
853.645	14183
853.78	14434
853.914	14290
854.048	14225
854.183	14199
854.317	14358
854.451	14465
854.585	14225
854.72	14244
854.854	14313
854.988	14176
855.122	14298
855.256	14134
855.39	14309
855.524	14339
855.658	14339
855.792	14286
855.926	14351
856.06	14256
856.194	14404
856.327	14263
856.461	14176
856.595	14263
856.729	14252
856.862	14328
856.996	14366
857.13	14290
857.263	14396
857.397	14374
857.53	14259
857.664	14362
857.797	14339
857.931	14454
858.064	14320
858.197	14476
858.331	14320
858.464	14180
858.597	14172
858.731	14298
858.864	14301
858.997	14267
859.13	14237
859.263	14259
859.396	14339
859.529	14248
859.662	14237
859.795	14142
859.928	14370
860.061	14488
860.194	14423
860.327	14244
860.46	14290
860.592	14415
860.725	14393
860.858	14370
860.99	14343
861.123	14187
861.256	14183
861.388	14237
861.521	14796
861.653	14138
861.786	14100
861.918	14157
862.05	14168
862.183	14256
862.315	14180
862.447	14351
862.58	14172
862.712	14096
862.844	13932
862.976	14092
863.108	14115
863.24	14400
863.372	14043
863.504	14084
863.636	14031
863.768	14126
863.9	14062
864.032	14005
864.164	14065
864.296	14225
864.428	14153
864.559	14248
864.691	14263
864.823	14069
864.954	14084
865.086	14016
865.217	14012
865.349	13936
865.48	14039
865.612	14111
865.743	14161
865.875	14035
866.006	13951
866.137	14069
866.269	14084
866.4	13970
866.531	14058
866.662	13982
866.793	13944
866.924	14046
867.055	14050
867.186	14115
867.317	13955
867.448	13944
867.579	13974
867.71	13936
867.841	13940
867.972	13997
868.103	14035
868.233	14103
868.364	14100
868.495	14119
868.625	14301
868.756	14366
868.886	14275
869.017	14263
869.147	14377
869.278	14434
869.408	14275
869.539	14229
869.669	14347
869.799	14385
869.929	14423
870.06	14374
870.19	14640
870.32	14541
870.45	14606
870.58	14629
870.71	14746
870.84	14743
870.97	14693
871.1	14686
871.23	14887
871.36	14902
871.489	14857
871.619	14838
871.749	14891
871.879	14952
872.008	15001
872.138	14910
872.267	14906
872.397	14731
872.526	14705
872.656	14708
872.785	14727
872.915	14910
873.044	14941
873.173	15036
873.303	15024
873.432	14986
873.561	15085
873.69	14963
873.819	14975
873.948	15005
874.077	14963
874.206	14899
874.335	14887
874.464	15055
874.593	15184
874.722	15146
874.851	15260
874.979	15306
875.108	15233
875.237	15192
875.365	15131
875.494	15237
875.623	15359
875.751	15237
875.88	15283
876.008	15367
876.136	15443
876.265	15637
876.393	15797
876.521	15736
876.65	15778
876.778	15724
876.906	15660
877.034	15667
877.162	15686
877.29	15614
877.418	15648
877.546	15599
877.674	15736
877.802	15637
877.93	15652
878.058	15622
878.185	15488
878.313	15641
878.441	15644
878.568	15584
878.696	15576
878.824	15705
878.951	15690
879.079	15812
879.206	15964
879.333	15846
879.461	15656
879.588	15747
879.715	15918
879.842	15892
879.97	15694
880.097	15504
880.224	15545
880.351	15523
880.478	15477
880.605	15397
880.732	15405
880.859	15736
880.986	15561
881.112	15530
881.239	15321
881.366	15275
881.493	15214
881.619	15131
881.746	15325
881.872	15119
881.999	15161
882.125	15089
882.252	15291
882.378	15222
882.505	15317
882.631	15119
882.757	15005
882.883	14933
883.01	14994
883.136	15001
883.262	14929
883.388	14796
883.514	15039
883.64	15070
883.766	14967
883.892	14811
884.018	14842
884.143	14937
884.269	15089
884.395	14788
884.52	14670
884.646	14697
884.772	14697
884.897	14552
885.023	14716
885.148	14777
885.274	14861
885.399	14754
885.524	14720
885.65	14670
885.775	14613
885.9	14636
886.025	14762
886.15	14727
886.275	14545
886.4	14598
886.525	14632
886.65	14629
886.775	14640
886.9	14864
887.025	14876
887.149	14602
887.274	14530
887.399	14526
887.523	14545
887.648	14427
887.773	14427
887.897	14530
888.021	14579
888.146	14560
888.27	14587
888.395	14693
888.519	14560
888.643	14492
888.767	14571
888.891	14495
889.015	14351
889.139	14469
889.263	14271
889.387	14514
889.511	14545
889.635	14473
889.759	14278
889.883	14336
890.006	14427
890.13	14469
890.254	14294
890.377	14358
890.501	14153
890.624	14183
890.748	14347
890.871	14035
890.995	14065
891.118	14016
891.241	14062
891.364	14164
891.488	14252
891.611	14103
891.734	14088
891.857	14084
891.98	14168
892.103	14145
892.226	14096
892.349	14081
892.471	13894
892.594	14054
892.717	14149
892.839	14077
892.962	13997
893.085	14073
893.207	14164
893.33	13967
893.452	14008
893.575	14210
893.697	14043
893.819	14248
893.941	14301
894.064	14263
894.186	14062
894.308	14031
894.43	14229
894.552	14370
894.674	14195
894.796	14027
894.918	14054
895.04	14187
895.161	14290
895.283	14168
895.405	14123
895.526	14107
895.648	14240
895.769	14248
895.891	14282
896.012	14415
896.134	14313
896.255	14248
896.376	14267
896.498	14210
896.619	14374
896.74	14298
896.861	14351
896.982	14636
897.103	14663
897.224	14518
897.345	14537
897.466	14419
897.587	14552
897.708	14560
897.828	14663
897.949	14484
898.07	14438
898.19	14450
898.311	14667
898.431	14579
898.552	14533
898.672	14739
898.792	14746
898.913	14621
899.033	14613
899.153	14370
899.273	14271
899.393	14366
899.513	14518
899.633	14438
899.753	14469
899.873	14381
899.993	14514
900.113	14309
900.232	14488
900.352	14419
900.472	14457
900.591	14374
900.711	14347
900.83	14153
900.95	14385
901.069	14488
901.189	14320
901.308	14138
901.427	14016
901.546	13944
901.665	14016
901.784	14027
901.904	13917
902.023	13879
902.141	13655
902.26	13613
902.379	13552
902.498	13575
902.617	13616
902.735	13620
902.854	13567
902.973	13476
903.091	13327
903.21	13278
903.328	13346
903.446	13202
903.565	13126
903.683	13202
903.801	13072
903.919	13114
904.038	13118
904.156	13004
904.274	13141
904.392	12977
904.51	12981
904.627	12913
904.745	13099
904.863	13061
904.981	12764
905.098	12646
905.216	12707
905.334	12616
905.451	12658
905.569	12555
905.686	12681
905.803	12681
905.921	12540
906.038	12608
906.155	12467
906.272	12403
906.389	12456
906.506	12247
906.623	12243
906.74	12232
906.857	12178
906.974	12194
907.091	12304
907.208	12350
907.324	12220
907.441	12186
907.557	12095
907.674	11996
907.79	11916
907.907	11908
908.023	11984
908.139	11946
908.256	11885
908.372	11973
908.488	11870
908.604	11817
908.72	11707
908.836	11672
908.952	11672
909.068	11756
909.184	11893
909.3	11703
909.415	11783
909.531	11756
909.647	11589
909.762	11444
909.878	11471
909.993	11471
910.108	11497
910.224	11471
910.339	11562
910.454	11383
910.57	11360
910.685	11292
910.8	11608
910.915	11547
911.03	11406
911.145	11212
911.259	11140
911.374	11220
911.489	11174
911.604	11083
911.718	10984
911.833	11041
911.947	10816
912.062	10755
912.176	10957
912.291	10965
912.405	10919
912.519	11231
912.633	11147
912.748	10957
912.862	10987
912.976	10850
913.09	10725
913.204	10889
913.318	10892
913.431	10923
913.545	10923
913.659	11025
913.772	10805
913.886	10679
914	10649
914.113	10847
914.226	10839
914.34	10858
914.453	10637
914.566	10748
914.68	10714
914.793	10687
914.906	10504
915.019	10417
915.132	10443
915.245	10405
915.358	10481
915.47	10478
915.583	10398
915.696	10485
915.809	10607
915.921	10748
916.034	10478
916.146	10436
916.259	10432
916.371	10550
916.483	10580
916.595	10405
916.708	10478
916.82	10371
916.932	10443
917.044	10398
917.156	10413
917.268	10177
917.38	10234
917.491	10291
917.603	10371
917.715	10398
917.826	10436
917.938	10303
918.049	10295
918.161	10310
918.272	10462
918.384	10474
918.495	10379
918.606	10227
918.717	10150
918.828	10192
918.939	10227
919.05	10048
919.161	10124
919.272	9873
919.383	10067
919.494	10287
919.604	10398
919.715	10204
919.826	10166
919.936	10188
920.047	10306
920.157	10265
920.267	10417
920.378	10242
920.488	10207
920.598	10421
920.708	10508
920.818	10451
920.928	10360
921.038	10592
921.148	10481
921.258	10253
921.368	10219
921.477	10131
921.587	10086
921.697	9960
921.806	10063
921.916	9918
922.025	9865
922.134	9762
922.244	9690
922.353	9816
922.462	9732
922.571	9591
922.68	9466
922.789	9393
922.898	9393
923.007	9367
923.116	9561
923.224	9473
923.333	9447
923.442	9351
923.55	9359
923.659	9386
923.767	9431
923.876	9344
923.984	9389
924.092	9317
924.201	9310
924.309	9287
924.417	9351
924.525	9313
924.633	9264
924.741	10074
924.849	9112
924.956	9241
925.064	9093
925.172	9028
925.279	9100
925.387	9077
925.494	9081
925.602	9268
925.709	9214
925.816	9116
925.924	9058
926.031	9211
926.138	9104
926.245	9135
926.352	9093
926.459	9127
926.566	9176
926.673	9131
926.779	9013
926.886	8929
926.993	8864
927.099	8815
927.206	8739
927.312	8773
927.419	8925
927.525	8830
927.631	8880
927.737	8766
927.843	8739
927.95	8659
928.056	8735
928.162	8705
928.267	8819
928.373	9355
928.479	8849
928.585	8575
928.69	8682
928.796	8750
928.901	8655
929.007	8552
929.112	8716
929.218	8674
929.323	8518
929.428	8526
929.533	8731
929.638	8461
929.743	8533
929.848	8511
929.953	8564
930.058	8495
930.163	8301
930.267	8355
930.372	8499
930.477	8294
930.581	8476
930.685	8381
930.79	8221
930.894	8256
930.998	8305
931.103	8347
931.207	8043
931.311	7982
931.415	7947
931.519	7826
931.623	7757
