Data from test_V78500241_976.txt Node
Date: Fri Mar 25 14:40:30 CST 2022
User: usil
Spectrometer: V785-0024
Trigger mode: 0
Integration Time (sec): 4.000000E-1
Scans to average: 1
Nonlinearity correction enabled: false
Boxcar width: 0
Storing dark spectrum: false
XAxis mode: Wavelengths
Number of Pixels in Spectrum: 1024
>>>>>Begin Spectral Data<<<<<
801.071	23490
801.214	23162
801.356	22995
801.499	22778
801.641	22675
801.783	22725
801.926	22721
802.068	22592
802.211	22588
802.353	22497
802.496	22158
802.638	22169
802.78	22139
802.923	22246
803.065	21945
803.208	22074
803.35	22013
803.492	22219
803.635	22150
803.777	22040
803.919	22067
804.061	22314
804.204	22215
804.346	21983
804.488	21880
804.63	21975
804.773	21895
804.915	22120
805.057	22169
805.199	21930
805.341	21968
805.483	22139
805.626	22131
805.768	21968
805.91	22048
806.052	22025
806.194	21922
806.336	22257
806.478	22059
806.62	22021
806.762	22105
806.904	22314
807.046	22607
807.188	22436
807.33	22611
807.472	22721
807.614	22542
807.756	22664
807.898	22824
808.04	22588
808.182	22725
808.324	23140
808.465	23273
808.607	23649
808.749	24034
808.891	24155
809.033	24281
809.174	23889
809.316	23760
809.458	23459
809.6	23170
809.741	23132
809.883	22896
810.025	22850
810.166	22896
810.308	22968
810.45	22637
810.591	22729
810.733	22550
810.875	22436
811.016	22333
811.158	22242
811.299	22402
811.441	22436
811.582	22344
811.724	22261
811.865	22280
812.007	22253
812.148	22147
812.29	22173
812.431	22432
812.573	22531
812.714	22607
812.855	22637
812.997	22847
813.138	22972
813.279	22968
813.421	22706
813.562	22596
813.703	22386
813.845	22382
813.986	22166
814.127	21911
814.268	21831
814.41	21827
814.551	21690
814.692	21747
814.833	21724
814.974	21663
815.115	21808
815.256	21545
815.397	21462
815.539	21553
815.68	21469
815.821	21439
815.962	21587
816.103	21530
816.244	21264
816.385	21123
816.526	21249
816.666	21039
816.807	20967
816.948	21036
817.089	20982
817.23	20979
817.371	20952
817.512	20838
817.653	20918
817.793	20872
817.934	20849
818.075	20842
818.216	21055
818.356	20853
818.497	20651
818.638	20636
818.778	20537
818.919	20473
819.06	20625
819.2	20682
819.341	20716
819.481	20773
819.622	20864
819.762	21104
819.903	20986
820.043	20979
820.184	20785
820.324	20785
820.465	20853
820.605	20823
820.746	20834
820.886	20811
821.026	20804
821.167	20857
821.307	20941
821.447	20777
821.588	20625
821.728	20431
821.868	20385
822.008	20336
822.149	20252
822.289	20187
822.429	19974
822.569	19909
822.709	19856
822.849	19731
822.99	19761
823.13	19651
823.27	19578
823.41	19662
823.55	19419
823.69	19544
823.83	19556
823.97	19381
824.11	19228
824.25	19240
824.389	19335
824.529	19270
824.669	19251
824.809	19460
824.949	19388
825.089	19362
825.228	19316
825.368	19209
825.508	19038
825.648	19088
825.787	19156
825.927	19023
826.067	19065
826.206	19152
826.346	19091
826.485	19099
826.625	19019
826.765	19175
826.904	19103
827.044	18833
827.183	18776
827.323	18817
827.462	18787
827.601	18791
827.741	18791
827.88	18787
828.02	18631
828.159	18757
828.298	18715
828.437	18707
828.577	18749
828.716	18806
828.855	18715
828.994	18441
829.134	18525
829.273	18551
829.412	18407
829.551	18437
829.69	18441
829.829	18509
829.968	18528
830.107	18513
830.246	18483
830.385	18361
830.524	18418
830.663	18304
830.802	18239
830.941	18068
831.08	18057
831.219	18106
831.357	18136
831.496	18300
831.635	18110
831.774	18022
831.913	18117
832.051	17901
832.19	17950
832.329	17779
832.467	17756
832.606	17748
832.744	17843
832.883	17847
833.022	17760
833.16	17828
833.299	17870
833.437	17840
833.576	17771
833.714	17996
833.852	17863
833.991	18057
834.129	17950
834.267	17961
834.406	17961
834.544	17939
834.682	17931
834.821	17786
834.959	18007
835.097	17805
835.235	17984
835.373	17863
835.511	17775
835.65	17771
835.788	17771
835.926	17638
836.064	17600
836.202	17543
836.34	17767
836.478	17866
836.615	17668
836.753	17657
836.891	17748
837.029	17737
837.167	17646
837.305	17649
837.443	17608
837.58	17630
837.718	17608
837.856	17600
837.993	17543
838.131	17543
838.269	17482
838.406	17501
838.544	17372
838.681	17197
838.819	17189
838.956	17197
839.094	17033
839.231	17193
839.369	17189
839.506	17501
839.643	17402
839.781	17155
839.918	17056
840.055	16976
840.193	17105
840.33	17178
840.467	17071
840.604	17197
840.742	17307
840.879	16904
841.016	17018
841.153	16835
841.29	17242
841.427	17014
841.564	17094
841.701	16987
841.838	17010
841.975	16949
842.112	16957
842.249	16854
842.385	16957
842.522	17025
842.659	16831
842.796	16839
842.933	16850
843.069	16774
843.206	16816
843.343	16919
843.479	16877
843.616	16774
843.752	16588
843.889	16577
844.025	16831
844.162	16577
844.298	16778
844.435	16630
844.571	16637
844.708	16778
844.844	16850
844.98	16980
845.117	16854
845.253	16847
845.389	16862
845.525	17102
845.661	17436
845.798	17927
845.934	18399
846.07	18464
846.206	18365
846.342	18258
846.478	17539
846.614	16999
846.75	16683
846.886	16447
847.022	16474
847.158	16363
847.294	16280
847.429	16287
847.565	16162
847.701	16402
847.837	15964
847.972	15930
848.108	16021
848.244	16124
848.379	15804
848.515	15770
848.65	15835
848.786	15785
848.921	15797
849.057	15888
849.192	15823
849.328	15903
849.463	15797
849.598	15747
849.734	15660
849.869	15538
850.004	15542
850.14	15492
850.275	15424
850.41	15389
850.545	15488
850.68	15561
850.815	15500
850.95	15542
851.085	15667
851.22	15477
851.355	15469
851.49	15469
851.625	15439
851.76	15469
851.895	15397
852.03	15435
852.165	15458
852.299	15511
852.434	15622
852.569	15507
852.703	15557
852.838	15587
852.973	15614
853.107	15663
853.242	15454
853.376	15374
853.511	15313
853.645	15359
853.78	15469
853.914	15485
854.048	15370
854.183	15424
854.317	15348
854.451	15568
854.585	15408
854.72	15469
854.854	15481
854.988	15272
855.122	15363
855.256	15287
855.39	15237
855.524	15500
855.658	15382
855.792	15428
855.926	15431
856.06	15435
856.194	15439
856.327	15367
856.461	15306
856.595	15313
856.729	15332
856.862	15576
856.996	15412
857.13	15420
857.263	15618
857.397	15511
857.53	15412
857.664	15355
857.797	15355
857.931	15523
858.064	15408
858.197	15481
858.331	15367
858.464	15245
858.597	15306
858.731	15367
858.864	15233
858.997	15252
859.13	15447
859.263	15348
859.396	15401
859.529	15325
859.662	15351
859.795	15310
859.928	15435
860.061	15473
860.194	15542
860.327	15370
860.46	15393
860.592	15473
860.725	15466
860.858	15519
860.99	15355
861.123	15207
861.256	15329
861.388	15367
861.521	15972
861.653	15131
861.786	15260
861.918	15138
862.05	15192
862.183	15306
862.315	15294
862.447	15443
862.58	15237
862.712	15074
862.844	14944
862.976	15131
863.108	15268
863.24	15641
863.372	15100
863.504	15081
863.636	15058
863.768	15135
863.9	15157
864.032	15032
864.164	15074
864.296	15184
864.428	15135
864.559	15214
864.691	15169
864.823	15173
864.954	15184
865.086	15150
865.217	15043
865.349	15028
865.48	15123
865.612	15043
865.743	15321
865.875	15180
866.006	15074
866.137	15081
866.269	15051
866.4	15070
866.531	15024
866.662	15077
866.793	14952
866.924	14941
867.055	15150
867.186	14990
867.317	15032
867.448	14929
867.579	15074
867.71	15039
867.841	15043
867.972	15077
868.103	15127
868.233	14975
868.364	15142
868.495	15104
868.625	15203
868.756	15447
868.886	15195
869.017	15306
869.147	15416
869.278	15462
869.408	15336
869.539	15272
869.669	15443
869.799	15443
869.929	15408
870.06	15606
870.19	15637
870.32	15698
870.45	15694
870.58	15797
870.71	15804
870.84	15751
870.97	15633
871.1	15755
871.23	15884
871.36	15907
871.489	15892
871.619	15884
871.749	15953
871.879	16025
872.008	15994
872.138	15956
872.267	15941
872.397	15812
872.526	15743
872.656	15679
872.785	15762
872.915	15838
873.044	16105
873.173	15884
873.303	15979
873.432	16067
873.561	15994
873.69	15998
873.819	16021
873.948	16032
874.077	15941
874.206	15983
874.335	15953
874.464	16147
874.593	16310
874.722	16226
874.851	16291
874.979	16215
875.108	16394
875.237	16337
875.365	16135
875.494	16211
875.623	16287
875.751	16287
875.88	16348
876.008	16592
876.136	16546
876.265	16725
876.393	16866
876.521	16839
876.65	16801
876.778	16843
876.906	16717
877.034	16778
877.162	16721
877.29	16607
877.418	16793
877.546	16816
877.674	16767
877.802	16812
877.93	16744
878.058	16786
878.185	16698
878.313	16816
878.441	16919
878.568	16805
878.696	16828
878.824	16949
878.951	17140
879.079	17318
879.206	17665
879.333	17596
879.461	17653
879.588	17779
879.715	17783
879.842	17988
879.97	17623
880.097	17223
880.224	17064
880.351	17003
880.478	16934
880.605	16839
880.732	16847
880.859	17052
880.986	16984
881.112	16873
881.239	16679
881.366	16573
881.493	16489
881.619	16451
881.746	16462
881.872	16485
881.999	16443
882.125	16478
882.252	16538
882.378	16542
882.505	16565
882.631	16493
882.757	16249
882.883	16325
883.01	16268
883.136	16181
883.262	16200
883.388	16002
883.514	16295
883.64	16333
883.766	16200
883.892	16086
884.018	16150
884.143	16261
884.269	16322
884.395	16055
884.52	15911
884.646	16086
884.772	15888
884.897	15915
885.023	15937
885.148	16116
885.274	16166
885.399	16036
885.524	15930
885.65	15979
885.775	15983
885.9	15949
886.025	16090
886.15	15884
886.275	15915
886.4	15778
886.525	15812
886.65	15808
886.775	15770
886.9	15953
887.025	16074
887.149	15831
887.274	15812
887.399	15568
887.523	15610
887.648	15568
887.773	15561
887.897	15732
888.021	15576
888.146	15667
888.27	15778
888.395	15694
888.519	15644
888.643	15671
888.767	15751
888.891	15534
889.015	15424
889.139	15382
889.263	15389
889.387	15564
889.511	15675
889.635	15637
889.759	15370
889.883	15450
890.006	15507
890.13	15549
890.254	15332
890.377	15386
890.501	15302
890.624	15127
890.748	15226
890.871	15211
890.995	15047
891.118	15055
891.241	15150
891.364	15180
891.488	15230
891.611	15051
891.734	14994
891.857	15176
891.98	15161
892.103	15195
892.226	15085
892.349	15127
892.471	14960
892.594	15032
892.717	15070
892.839	14998
892.962	14994
893.085	15131
893.207	14994
893.33	14967
893.452	15001
893.575	15081
893.697	15032
893.819	15127
893.941	15146
894.064	15306
894.186	15043
894.308	14975
894.43	15146
894.552	15211
894.674	15230
894.796	14994
894.918	15077
895.04	15070
895.161	15180
895.283	15233
895.405	14925
895.526	15089
895.648	15055
895.769	15161
895.891	15211
896.012	15169
896.134	15180
896.255	15116
896.376	15211
896.498	15028
896.619	15298
896.74	15272
896.861	15218
896.982	15454
897.103	15705
897.224	15507
897.345	15447
897.466	15355
897.587	15405
897.708	15622
897.828	15515
897.949	15424
898.07	15439
898.19	15454
898.311	15481
898.431	15515
898.552	15504
898.672	15584
898.792	15625
898.913	15652
899.033	15416
899.153	15424
899.273	15378
899.393	15374
899.513	15367
899.633	15412
899.753	15325
899.873	15420
899.993	15458
900.113	15348
900.232	15401
900.352	15355
900.472	15260
900.591	15161
900.711	15226
900.83	15176
900.95	15397
901.069	15405
901.189	15199
901.308	14990
901.427	14750
901.546	15005
901.665	14925
901.784	14929
901.904	14777
902.023	14754
902.141	14590
902.26	14526
902.379	14579
902.498	14404
902.617	14404
902.735	14377
902.854	14305
902.973	14415
903.091	14206
903.21	14115
903.328	14115
903.446	14065
903.565	13906
903.683	14016
903.801	13868
903.919	14005
904.038	13959
904.156	13765
904.274	13845
904.392	13742
904.51	13765
904.627	13780
904.745	13769
904.863	13837
904.981	13457
905.098	13426
905.216	13468
905.334	13510
905.451	13457
905.569	13464
905.686	13377
905.803	13480
905.921	13145
906.038	13247
906.155	13278
906.272	13076
906.389	13221
906.506	13061
906.623	13107
906.74	13000
906.857	12905
906.974	12973
907.091	12996
907.208	13126
907.324	13069
907.441	12916
907.557	12814
907.674	12722
907.79	12749
907.907	12764
908.023	12715
908.139	12757
908.256	12700
908.372	12684
908.488	12711
908.604	12513
908.72	12437
908.836	12506
908.952	12486
909.068	12498
909.184	12612
909.3	12486
909.415	12467
909.531	12540
909.647	12350
909.762	12232
909.878	12148
909.993	12292
910.108	12239
910.224	12209
910.339	12273
910.454	12114
910.57	12114
910.685	12072
910.8	12369
910.915	12281
911.03	12072
911.145	11950
911.259	11874
911.374	11984
911.489	11908
911.604	11836
911.718	11771
911.833	11729
911.947	11566
912.062	11532
912.176	11691
912.291	11665
912.405	11684
912.519	11836
912.633	11832
912.748	11729
912.862	11695
912.976	11532
913.09	11402
913.204	11486
913.318	11600
913.431	11646
913.545	11707
913.659	11684
913.772	11554
913.886	11452
914	11414
914.113	11535
914.226	11554
914.34	11448
914.453	11345
914.566	11474
914.68	11360
914.793	11349
914.906	11231
915.019	11128
915.132	11136
915.245	11128
915.358	11220
915.47	11151
915.583	11170
915.696	11239
915.809	11227
915.921	11326
916.034	11193
916.146	11060
916.259	11102
916.371	11265
916.483	11140
916.595	10991
916.708	11109
916.82	11075
916.932	11010
917.044	11105
917.156	11102
917.268	10942
917.38	10999
917.491	10911
917.603	11006
917.715	10980
917.826	11022
917.938	10987
918.049	10843
918.161	10942
918.272	11185
918.384	11064
918.495	11029
918.606	10831
918.717	10691
918.828	10854
918.939	10862
919.05	10793
919.161	10717
919.272	10599
919.383	10634
919.494	10835
919.604	11094
919.715	10782
919.826	10698
919.936	10801
920.047	10843
920.157	10889
920.267	10991
920.378	10858
920.488	10778
920.598	11052
920.708	11174
920.818	11105
920.928	10957
921.038	11197
921.148	11197
921.258	10839
921.368	10797
921.477	10668
921.587	10634
921.697	10599
921.806	10660
921.916	10637
922.025	10382
922.134	10325
922.244	10310
922.353	10356
922.462	10246
922.571	10188
922.68	10071
922.789	10025
922.898	10021
923.007	9956
923.116	10109
923.224	10036
923.333	9998
923.442	9972
923.55	9899
923.659	9903
923.767	9987
923.876	9804
923.984	9960
924.092	9915
924.201	9922
924.309	9895
924.417	9869
924.525	9850
924.633	9895
924.741	10725
924.849	9660
924.956	9781
925.064	9644
925.172	9648
925.279	9637
925.387	9679
925.494	9610
925.602	9800
925.709	9720
925.816	9557
925.924	9701
926.031	9759
926.138	9690
926.245	9698
926.352	9618
926.459	9759
926.566	9759
926.673	9606
926.779	9507
926.886	9572
926.993	9401
927.099	9298
927.206	9294
927.312	9351
927.419	9397
927.525	9363
927.631	9466
927.737	9279
927.843	9253
927.95	9176
928.056	9264
928.162	9253
928.267	9332
928.373	9751
928.479	9310
928.585	9097
928.69	9241
928.796	9291
928.901	9123
929.007	9051
929.112	9173
929.218	9154
929.323	9081
929.428	9028
929.533	9226
929.638	9074
929.743	9036
929.848	9131
929.953	9039
930.058	8899
930.163	8857
930.267	8853
930.372	8960
930.477	8792
930.581	9093
930.685	8937
930.79	8804
930.894	8727
930.998	8735
931.103	8899
931.207	8564
931.311	8537
931.415	8374
931.519	8267
931.623	8256
