Data from test_V78500241_1407.txt Node
Date: Fri Mar 25 14:43:30 CST 2022
User: usil
Spectrometer: V785-0024
Trigger mode: 0
Integration Time (sec): 4.000000E-1
Scans to average: 1
Nonlinearity correction enabled: false
Boxcar width: 0
Storing dark spectrum: false
XAxis mode: Wavelengths
Number of Pixels in Spectrum: 1024
>>>>>Begin Spectral Data<<<<<
801.071	22466
801.214	22474
801.356	22101
801.499	21983
801.641	21895
801.783	21781
801.926	21930
802.068	21762
802.211	21732
802.353	21663
802.496	21412
802.638	21283
802.78	21340
802.923	21214
803.065	21138
803.208	21127
803.35	21218
803.492	21332
803.635	21230
803.777	21180
803.919	21184
804.061	21576
804.204	21329
804.346	21222
804.488	21020
804.63	21112
804.773	21017
804.915	21176
805.057	21279
805.199	20963
805.341	21180
805.483	21256
805.626	21074
805.768	21108
805.91	21138
806.052	21150
806.194	21039
806.336	21279
806.478	21104
806.62	21032
806.762	21039
806.904	21329
807.046	21587
807.188	21534
807.33	21458
807.472	21572
807.614	21424
807.756	21420
807.898	21397
808.04	21245
808.182	21348
808.324	21401
808.465	21378
808.607	21526
808.749	21675
808.891	21861
809.033	21979
809.174	21724
809.316	21644
809.458	21660
809.6	21568
809.741	21675
809.883	21652
810.025	21713
810.166	21618
810.308	21728
810.45	21606
810.591	21466
810.733	21321
810.875	21325
811.016	21157
811.158	21058
811.299	21302
811.441	21462
811.582	21393
811.724	21233
811.865	21249
812.007	21275
812.148	21279
812.29	21268
812.431	21530
812.573	21553
812.714	21641
812.855	21728
812.997	21861
813.138	21998
813.279	21934
813.421	21857
813.562	21698
813.703	21515
813.845	21447
813.986	21104
814.127	21009
814.268	20918
814.41	20944
814.551	20815
814.692	20902
814.833	20842
814.974	20648
815.115	20868
815.256	20598
815.397	20606
815.539	20788
815.68	20541
815.821	20484
815.962	20693
816.103	20415
816.244	20218
816.385	20343
816.526	20263
816.666	20126
816.807	19951
816.948	20195
817.089	20134
817.23	19967
817.371	19982
817.512	19925
817.653	19959
817.793	19978
817.934	19982
818.075	20081
818.216	20001
818.356	19795
818.497	19738
818.638	19552
818.778	19693
818.919	19700
819.06	19632
819.2	19791
819.341	19799
819.481	19898
819.622	19925
819.762	20119
819.903	20058
820.043	19944
820.184	19906
820.324	19932
820.465	20107
820.605	19871
820.746	19898
820.886	19772
821.026	19894
821.167	19856
821.307	19967
821.447	19883
821.588	19788
821.728	19666
821.868	19544
822.008	19335
822.149	19259
822.289	19304
822.429	19072
822.569	18954
822.709	18909
822.849	18840
822.99	18798
823.13	18772
823.27	18749
823.41	18684
823.55	18578
823.69	18700
823.83	18620
823.97	18578
824.11	18467
824.25	18330
824.389	18323
824.529	18585
824.669	18369
824.809	18513
824.949	18559
825.089	18513
825.228	18471
825.368	18213
825.508	18262
825.648	18262
825.787	18296
825.927	18304
826.067	18072
826.206	18205
826.346	18076
826.485	18125
826.625	18140
826.765	18292
826.904	18171
827.044	17958
827.183	17889
827.323	17840
827.462	17992
827.601	17878
827.741	17901
827.88	17912
828.02	17737
828.159	17851
828.298	17935
828.437	17954
828.577	17874
828.716	17923
828.855	17745
828.994	17581
829.134	17657
829.273	17748
829.412	17596
829.551	17668
829.69	17665
829.829	17748
829.968	17752
830.107	17767
830.246	17627
830.385	17566
830.524	17452
830.663	17440
830.802	17433
830.941	17353
831.08	17212
831.219	17337
831.357	17330
831.496	17471
831.635	17311
831.774	17052
831.913	17185
832.051	16991
832.19	17006
832.329	17086
832.467	16984
832.606	16839
832.744	16873
832.883	16885
833.022	16843
833.16	17003
833.299	16942
833.437	17014
833.576	16938
833.714	16999
833.852	17052
833.991	16938
834.129	16949
834.267	17045
834.406	16976
834.544	17022
834.682	17060
834.821	16927
834.959	17220
835.097	16885
835.235	17098
835.373	16991
835.511	17079
835.65	16892
835.788	16801
835.926	16778
836.064	16649
836.202	16698
836.34	16946
836.478	16938
836.615	16866
836.753	16908
836.891	16961
837.029	16942
837.167	16831
837.305	16805
837.443	16850
837.58	16797
837.718	16835
837.856	16828
837.993	16759
838.131	16801
838.269	16637
838.406	16679
838.544	16596
838.681	16466
838.819	16462
838.956	16333
839.094	16219
839.231	16295
839.369	16455
839.506	16626
839.643	16603
839.781	16257
839.918	16230
840.055	16341
840.193	16371
840.33	16192
840.467	16280
840.604	16265
840.742	16611
840.879	16207
841.016	16200
841.153	16219
841.29	16489
841.427	16325
841.564	16280
841.701	16398
841.838	16204
841.975	16207
842.112	16257
842.249	16120
842.385	16074
842.522	16200
842.659	16063
842.796	15987
842.933	16017
843.069	16032
843.206	16010
843.343	16158
843.479	16032
843.616	16032
843.752	15918
843.889	15842
844.025	16101
844.162	15861
844.298	15956
844.435	15956
844.571	15857
844.708	15804
844.844	16036
844.98	16013
845.117	16029
845.253	15907
845.389	15781
845.525	15842
845.661	15911
845.798	15823
845.934	16029
846.07	15857
846.206	15968
846.342	16032
846.478	15865
846.614	15572
846.75	15507
846.886	15405
847.022	15538
847.158	15431
847.294	15515
847.429	15370
847.565	15462
847.701	15675
847.837	15230
847.972	15207
848.108	15294
848.244	15233
848.379	15051
848.515	15024
848.65	15013
848.786	15020
848.921	15089
849.057	14998
849.192	15146
849.328	15104
849.463	15051
849.598	15001
849.734	14975
849.869	14887
850.004	14823
850.14	14861
850.275	14807
850.41	14785
850.545	14693
850.68	14788
850.815	14921
850.95	14887
851.085	15001
851.22	14815
851.355	14777
851.49	14720
851.625	14754
851.76	14792
851.895	14693
852.03	14617
852.165	14731
852.299	14864
852.434	14758
852.569	14849
852.703	14807
852.838	14788
852.973	14914
853.107	14982
853.242	14777
853.376	14720
853.511	14476
853.645	14537
853.78	14720
853.914	14663
854.048	14678
854.183	14583
854.317	14693
854.451	14895
854.585	14678
854.72	14632
854.854	14727
854.988	14606
855.122	14670
855.256	14480
855.39	14507
855.524	14731
855.658	14590
855.792	14785
855.926	14659
856.06	14693
856.194	14758
856.327	14602
856.461	14526
856.595	14488
856.729	14610
856.862	14743
856.996	14648
857.13	14796
857.263	14686
857.397	14724
857.53	14552
857.664	14758
857.797	14849
857.931	14720
858.064	14705
858.197	14777
858.331	14689
858.464	14564
858.597	14537
858.731	14655
858.864	14606
858.997	14602
859.13	14727
859.263	14697
859.396	14701
859.529	14552
859.662	14621
859.795	14598
859.928	14686
860.061	14785
860.194	14781
860.327	14587
860.46	14480
860.592	14762
860.725	14682
860.858	14823
860.99	14720
861.123	14629
861.256	14610
861.388	14644
861.521	15416
861.653	14518
861.786	14423
861.918	14541
862.05	14560
862.183	14613
862.315	14644
862.447	14617
862.58	14560
862.712	14454
862.844	14385
862.976	14393
863.108	14461
863.24	14883
863.372	14301
863.504	14533
863.636	14370
863.768	14495
863.9	14400
864.032	14339
864.164	14431
864.296	14438
864.428	14560
864.559	14568
864.691	14473
864.823	14469
864.954	14412
865.086	14377
865.217	14431
865.349	14305
865.48	14393
865.612	14389
865.743	14476
865.875	14465
866.006	14362
866.137	14404
866.269	14355
866.4	14423
866.531	14408
866.662	14332
866.793	14320
866.924	14385
867.055	14343
867.186	14415
867.317	14355
867.448	14248
867.579	14374
867.71	14305
867.841	14317
867.972	14431
868.103	14389
868.233	14415
868.364	14438
868.495	14431
868.625	14640
868.756	14754
868.886	14560
869.017	14545
869.147	14765
869.278	14781
869.408	14693
869.539	14560
869.669	14693
869.799	14693
869.929	14826
870.06	14788
870.19	14918
870.32	14960
870.45	14979
870.58	15051
870.71	15138
870.84	15146
870.97	15028
871.1	15089
871.23	15264
871.36	15112
871.489	15135
871.619	15195
871.749	15241
871.879	15241
872.008	15325
872.138	15317
872.267	15252
872.397	14994
872.526	15051
872.656	15089
872.785	15051
872.915	15203
873.044	15298
873.173	15245
873.303	15302
873.432	15302
873.561	15329
873.69	15058
873.819	15230
873.948	15370
874.077	15329
874.206	15291
874.335	15298
874.464	15454
874.593	15595
874.722	15538
874.851	15584
874.979	15576
875.108	15690
875.237	15549
875.365	15500
875.494	15507
875.623	15762
875.751	15663
875.88	15614
876.008	15804
876.136	15778
876.265	15979
876.393	16188
876.521	16173
876.65	16128
876.778	16093
876.906	15937
877.034	16040
877.162	15945
877.29	15953
877.418	15987
877.546	16078
877.674	16002
877.802	15987
877.93	16074
878.058	15968
878.185	15953
878.313	15918
878.441	16051
878.568	15854
878.696	16067
878.824	16120
878.951	16082
879.079	16169
879.206	16440
879.333	16344
879.461	16162
879.588	16295
879.715	16413
879.842	16398
879.97	16215
880.097	15994
880.224	15930
880.351	15934
880.478	15930
880.605	15888
880.732	15937
880.859	16063
880.986	15899
881.112	15922
881.239	15663
881.366	15606
881.493	15637
881.619	15553
881.746	15561
881.872	15534
881.999	15477
882.125	15511
882.252	15637
882.378	15690
882.505	15675
882.631	15511
882.757	15336
882.883	15488
883.01	15310
883.136	15363
883.262	15241
883.388	15123
883.514	15348
883.64	15458
883.766	15340
883.892	15154
884.018	15146
884.143	15332
884.269	15397
884.395	15127
884.52	14990
884.646	15039
884.772	14982
884.897	14994
885.023	15047
885.148	15169
885.274	15180
885.399	15112
885.524	15074
885.65	15055
885.775	15104
885.9	14967
886.025	15176
886.15	15154
886.275	15051
886.4	14944
886.525	14994
886.65	14925
886.775	14941
886.9	15211
887.025	15313
887.149	14925
887.274	14921
887.399	14887
887.523	14857
887.648	14826
887.773	14720
887.897	14941
888.021	14887
888.146	14883
888.27	14910
888.395	14956
888.519	14872
888.643	14925
888.767	14876
888.891	14830
889.015	14765
889.139	14754
889.263	14762
889.387	14777
889.511	14868
889.635	14937
889.759	14716
889.883	14758
890.006	14788
890.13	14819
890.254	14606
890.377	14697
890.501	14530
890.624	14480
890.748	14613
890.871	14396
890.995	14336
891.118	14298
891.241	14336
891.364	14324
891.488	14564
891.611	14484
891.734	14446
891.857	14461
891.98	14358
892.103	14366
892.226	14457
892.349	14419
892.471	14275
892.594	14393
892.717	14446
892.839	14412
892.962	14431
893.085	14549
893.207	14415
893.33	14271
893.452	14286
893.575	14393
893.697	14347
893.819	14533
893.941	14568
894.064	14579
894.186	14336
894.308	14267
894.43	14583
894.552	14670
894.674	14480
894.796	14336
894.918	14533
895.04	14404
895.161	14503
895.283	14522
895.405	14412
895.526	14499
895.648	14461
895.769	14560
895.891	14495
896.012	14651
896.134	14507
896.255	14549
896.376	14530
896.498	14488
896.619	14587
896.74	14590
896.861	14629
896.982	14902
897.103	14921
897.224	14800
897.345	14796
897.466	14689
897.587	14727
897.708	14914
897.828	14956
897.949	14769
898.07	14693
898.19	14845
898.311	14918
898.431	14876
898.552	14933
898.672	14956
898.792	14948
898.913	14948
899.033	14720
899.153	14796
899.273	14686
899.393	14663
899.513	14910
899.633	14705
899.753	14724
899.873	14750
899.993	14720
900.113	14735
900.232	14716
900.352	14720
900.472	14712
900.591	14526
900.711	14720
900.83	14655
900.95	14689
901.069	14621
901.189	14522
901.308	14339
901.427	14240
901.546	14305
901.665	14248
901.784	14366
901.904	14191
902.023	14043
902.141	13989
902.26	13852
902.379	13986
902.498	13940
902.617	13799
902.735	13864
902.854	13841
902.973	13727
903.091	13529
903.21	13620
903.328	13521
903.446	13544
903.565	13415
903.683	13365
903.801	13255
903.919	13373
904.038	13373
904.156	13259
904.274	13247
904.392	13206
904.51	13190
904.627	13099
904.745	13282
904.863	13289
904.981	13099
905.098	12920
905.216	12920
905.334	13004
905.451	12886
905.569	12890
905.686	13008
905.803	12856
905.921	12760
906.038	12852
906.155	12684
906.272	12650
906.389	12547
906.506	12574
906.623	12479
906.74	12498
906.857	12452
906.974	12414
907.091	12631
907.208	12582
907.324	12532
907.441	12410
907.557	12388
907.674	12266
907.79	12129
907.907	12182
908.023	12308
908.139	12266
908.256	12152
908.372	12186
908.488	12213
908.604	12041
908.72	11931
908.836	12068
908.952	12057
909.068	12041
909.184	12022
909.3	11958
909.415	12034
909.531	11980
909.647	11802
909.762	11790
909.878	11630
909.993	11786
910.108	11741
910.224	11745
910.339	11786
910.454	11680
910.57	11596
910.685	11535
910.8	11832
910.915	11760
911.03	11615
911.145	11543
911.259	11455
911.374	11440
911.489	11440
911.604	11318
911.718	11197
911.833	11208
911.947	11083
912.062	11052
912.176	11208
912.291	11155
912.405	11223
912.519	11421
912.633	11360
912.748	11273
912.862	11239
912.976	11109
913.09	11056
913.204	11025
913.318	11060
913.431	11265
913.545	11128
913.659	11178
913.772	11086
913.886	11010
914	10972
914.113	11048
914.226	11067
914.34	11128
914.453	10854
914.566	11086
914.68	10847
914.793	10953
914.906	10755
915.019	10664
915.132	10603
915.245	10645
915.358	10702
915.47	10706
915.583	10763
915.696	10733
915.809	10809
915.921	10862
916.034	10649
916.146	10675
916.259	10577
916.371	10736
916.483	10755
916.595	10603
916.708	10664
916.82	10645
916.932	10603
917.044	10592
917.156	10611
917.268	10447
917.38	10561
917.491	10436
917.603	10546
917.715	10630
917.826	10603
917.938	10455
918.049	10314
918.161	10573
918.272	10653
918.384	10694
918.495	10588
918.606	10360
918.717	10329
918.828	10478
918.939	10440
919.05	10333
919.161	10451
919.272	10249
919.383	10314
919.494	10493
919.604	10573
919.715	10405
919.826	10360
919.936	10367
920.047	10489
920.157	10485
920.267	10573
920.378	10428
920.488	10344
920.598	10584
920.708	10782
920.818	10634
920.928	10637
921.038	10763
921.148	10755
921.258	10405
921.368	10310
921.477	10238
921.587	10249
921.697	10116
921.806	10306
921.916	10150
922.025	10010
922.134	9918
922.244	9960
922.353	10006
922.462	9915
922.571	9781
922.68	9686
922.789	9580
922.898	9701
923.007	9663
923.116	9698
923.224	9641
923.333	9614
923.442	9564
923.55	9447
923.659	9454
923.767	9656
923.876	9420
923.984	9625
924.092	9492
924.201	9545
924.309	9519
924.417	9599
924.525	9469
924.633	9534
924.741	10394
924.849	9260
924.956	9466
925.064	9275
925.172	9260
925.279	9226
925.387	9351
925.494	9294
925.602	9382
925.709	9302
925.816	9211
925.924	9241
926.031	9367
926.138	9291
926.245	9332
926.352	9214
926.459	9386
926.566	9408
926.673	9237
926.779	9188
926.886	9195
926.993	9032
927.099	9047
927.206	8914
927.312	8918
927.419	8963
927.525	9036
927.631	8979
927.737	8887
927.843	8921
927.95	8773
928.056	8819
928.162	8925
928.267	8929
928.373	9561
928.479	8998
928.585	8739
928.69	8891
928.796	8937
928.901	8750
929.007	8625
929.112	8758
929.218	8777
929.323	8720
929.428	8724
929.533	8807
929.638	8663
929.743	8678
929.848	8762
929.953	8743
930.058	8617
930.163	8473
930.267	8450
930.372	8663
930.477	8461
930.581	8617
930.685	8556
930.79	8393
930.894	8434
930.998	8412
931.103	8564
931.207	8237
931.311	8096
931.415	8149
931.519	7887
931.623	7852
