Data from test_V78500241_154.txt Node
Date: Fri Mar 25 14:34:47 CST 2022
User: usil
Spectrometer: V785-0024
Trigger mode: 0
Integration Time (sec): 4.000000E-1
Scans to average: 1
Nonlinearity correction enabled: false
Boxcar width: 0
Storing dark spectrum: false
XAxis mode: Wavelengths
Number of Pixels in Spectrum: 1024
>>>>>Begin Spectral Data<<<<<
801.071	28999
801.214	28915
801.356	28797
801.499	28637
801.641	28405
801.783	28375
801.926	28470
802.068	28367
802.211	28314
802.353	28295
802.496	28150
802.638	28116
802.78	28063
802.923	28055
803.065	28067
803.208	28093
803.35	28010
803.492	28253
803.635	28284
803.777	28139
803.919	28375
804.061	28740
804.204	28352
804.346	28238
804.488	28265
804.63	28295
804.773	28215
804.915	28360
805.057	28462
805.199	28356
805.341	28428
805.483	28447
805.626	28481
805.768	28523
805.91	28462
806.052	28565
806.194	28596
806.336	28786
806.478	28801
806.62	28790
806.762	28911
806.904	29041
807.046	29349
807.188	29387
807.33	29554
807.472	29729
807.614	29699
807.756	30011
807.898	30338
808.04	30612
808.182	31160
808.324	32024
808.465	32651
808.607	33625
808.749	34497
808.891	34862
809.033	34744
809.174	34337
809.316	33485
809.458	32533
809.6	31658
809.741	31278
809.883	30642
810.025	30601
810.166	30239
810.308	30076
810.45	29771
810.591	29573
810.733	29296
810.875	29265
811.016	29117
811.158	29083
811.299	29250
811.441	29113
811.582	29071
811.724	28942
811.865	28816
812.007	28987
812.148	28961
812.29	28904
812.431	28987
812.573	29140
812.714	29227
812.855	29296
812.997	29417
813.138	29562
813.279	29284
813.421	29292
813.562	29265
813.703	28991
813.845	28866
813.986	28675
814.127	28542
814.268	28485
814.41	28417
814.551	28291
814.692	28325
814.833	28249
814.974	28226
815.115	28268
815.256	28230
815.397	28055
815.539	28154
815.68	28059
815.821	27865
815.962	27991
816.103	27956
816.244	27922
816.385	27633
816.526	27785
816.666	27507
816.807	27481
816.948	27443
817.089	27534
817.23	27473
817.371	27310
817.512	27355
817.653	27192
817.793	27298
817.934	27340
818.075	27252
818.216	27302
818.356	27313
818.497	27272
818.638	27127
818.778	27043
818.919	27070
819.06	27233
819.2	27058
819.341	27252
819.481	27237
819.622	27439
819.762	27504
819.903	27587
820.043	27367
820.184	27287
820.324	27370
820.465	27374
820.605	27268
820.746	27173
820.886	27085
821.026	27157
821.167	27268
821.307	27203
821.447	27089
821.588	27077
821.728	26948
821.868	26769
822.008	26530
822.149	26667
822.289	26507
822.429	26298
822.569	26202
822.709	26244
822.849	26088
822.99	26092
823.13	26073
823.27	26008
823.41	25879
823.55	25734
823.69	25909
823.83	25928
823.97	25890
824.11	25639
824.25	25651
824.389	25632
824.529	25620
824.669	25689
824.809	25776
824.949	25605
825.089	25753
825.228	25685
825.368	25556
825.508	25491
825.648	25499
825.787	25514
825.927	25422
826.067	25324
826.206	25521
826.346	25578
826.485	25628
826.625	25422
826.765	25491
826.904	25487
827.044	25145
827.183	25202
827.323	25114
827.462	25247
827.601	25137
827.741	24992
827.88	25107
828.02	25080
828.159	25015
828.298	25141
828.437	25129
828.577	24989
828.716	25198
828.855	24958
828.994	24837
829.134	24928
829.273	24867
829.412	24817
829.551	24726
829.69	24719
829.829	24719
829.968	24779
830.107	24734
830.246	24806
830.385	24734
830.524	24776
830.663	24563
830.802	24429
830.941	24365
831.08	24365
831.219	24437
831.357	24471
831.496	24460
831.635	24380
831.774	24235
831.913	24190
832.051	24190
832.19	24057
832.329	24133
832.467	24087
832.606	24022
832.744	23950
832.883	24205
833.022	24136
833.16	24125
833.299	24045
833.437	24098
833.576	24235
833.714	24209
833.852	24254
833.991	24277
834.129	24410
834.267	24323
834.406	24163
834.544	24327
834.682	24102
834.821	24209
834.959	24403
835.097	24064
835.235	24144
835.373	24186
835.511	24018
835.65	23866
835.788	23779
835.926	23680
836.064	23661
836.202	23608
836.34	23817
836.478	23935
836.615	23771
836.753	23870
836.891	23843
837.029	23866
837.167	23684
837.305	23813
837.443	23745
837.58	23608
837.718	23684
837.856	23653
837.993	23531
838.131	23748
838.269	23406
838.406	23573
838.544	23398
838.681	23284
838.819	23197
838.956	23086
839.094	23025
839.231	23128
839.369	23200
839.506	23512
839.643	23269
839.781	23083
839.918	22900
840.055	22987
840.193	23037
840.33	22908
840.467	22900
840.604	22957
840.742	23170
840.879	22805
841.016	22915
841.153	22885
841.29	23151
841.427	22961
841.564	22980
841.701	22869
841.838	22862
841.975	22713
842.112	22889
842.249	22767
842.385	22637
842.522	22805
842.659	22721
842.796	22702
842.933	22691
843.069	22641
843.206	22706
843.343	22847
843.479	22710
843.616	22664
843.752	22538
843.889	22485
844.025	22516
844.162	22542
844.298	22691
844.435	22550
844.571	22634
844.708	22729
844.844	22938
844.98	23060
845.117	23128
845.253	23330
845.389	23589
845.525	24479
845.661	25712
845.798	27538
845.934	28923
846.07	29425
846.206	29170
846.342	28135
846.478	26480
846.614	24646
846.75	23638
846.886	23079
847.022	22713
847.158	22363
847.294	22265
847.429	22246
847.565	22086
847.701	22318
847.837	21831
847.972	21644
848.108	21816
848.244	21759
848.379	21629
848.515	21545
848.65	21469
848.786	21519
848.921	21595
849.057	21538
849.192	21549
849.328	21538
849.463	21454
849.598	21386
849.734	21279
849.869	21249
850.004	21142
850.14	21207
850.275	21108
850.41	21135
850.545	21096
850.68	21085
850.815	21207
850.95	21218
851.085	21294
851.22	21157
851.355	21135
851.49	21135
851.625	21066
851.76	21176
851.895	21085
852.03	21055
852.165	21169
852.299	21199
852.434	21294
852.569	21207
852.703	21119
852.838	21161
852.973	21325
853.107	21344
853.242	21203
853.376	20990
853.511	20883
853.645	21020
853.78	21192
853.914	21077
854.048	21077
854.183	21020
854.317	20998
854.451	21336
854.585	21028
854.72	21093
854.854	20975
854.988	21028
855.122	20872
855.256	20944
855.39	20895
855.524	21138
855.658	21024
855.792	21058
855.926	21001
856.06	20921
856.194	21036
856.327	20918
856.461	20982
856.595	20769
856.729	20941
856.862	21032
856.996	21047
857.13	20891
857.263	21024
857.397	20979
857.53	20845
857.664	21051
857.797	20971
857.931	20971
858.064	20944
858.197	20994
858.331	20788
858.464	20933
858.597	20811
858.731	20868
858.864	20872
858.997	20819
859.13	20906
859.263	20941
859.396	20861
859.529	20811
859.662	20754
859.795	20765
859.928	20914
860.061	21017
860.194	21089
860.327	20842
860.46	20910
860.592	20838
860.725	20948
860.858	20746
860.99	20796
861.123	20602
861.256	20674
861.388	20826
861.521	21568
861.653	20781
861.786	20568
861.918	20644
862.05	20815
862.183	20864
862.315	20785
862.447	20944
862.58	20826
862.712	20678
862.844	20545
862.976	20678
863.108	20678
863.24	20845
863.372	20533
863.504	20518
863.636	20632
863.768	20617
863.9	20602
864.032	20488
864.164	20484
864.296	20522
864.428	20667
864.559	20598
864.691	20579
864.823	20533
864.954	20549
865.086	20438
865.217	20419
865.349	20438
865.48	20412
865.612	20332
865.743	20648
865.875	20465
866.006	20336
866.137	20419
866.269	20339
866.4	20499
866.531	20377
866.662	20328
866.793	20366
866.924	20381
867.055	20389
867.186	20495
867.317	20324
867.448	20259
867.579	20374
867.71	20290
867.841	20320
867.972	20347
868.103	20389
868.233	20366
868.364	20393
868.495	20434
868.625	20621
868.756	20526
868.886	20408
869.017	20461
869.147	20754
869.278	20579
869.408	20670
869.539	20522
869.669	20686
869.799	20583
869.929	20697
870.06	20670
870.19	20746
870.32	20819
870.45	20876
870.58	20967
870.71	21081
870.84	21077
870.97	20906
871.1	20944
871.23	21161
871.36	21135
871.489	21093
871.619	21184
871.749	21214
871.879	21252
872.008	21332
872.138	21241
872.267	21233
872.397	21161
872.526	21104
872.656	21005
872.785	21077
872.915	21264
873.044	21123
873.173	21237
873.303	21275
873.432	21287
873.561	21291
873.69	21279
873.819	21241
873.948	21272
874.077	21332
874.206	21329
874.335	21370
874.464	21477
874.593	21519
874.722	21519
874.851	21488
874.979	21583
875.108	21690
875.237	21641
875.365	21583
875.494	21580
875.623	21682
875.751	21739
875.88	21648
876.008	21751
876.136	21956
876.265	22173
876.393	22185
876.521	22204
876.65	22272
876.778	22177
876.906	22116
877.034	22074
877.162	22219
877.29	22147
877.418	22226
877.546	22291
877.674	22280
877.802	22436
877.93	22333
878.058	22299
878.185	22428
878.313	22493
878.441	22679
878.568	22546
878.696	22771
878.824	22987
878.951	23387
879.079	23748
879.206	24311
879.333	24814
879.461	25183
879.588	25453
879.715	25620
879.842	25616
879.97	24806
880.097	24060
880.224	23710
880.351	23322
880.478	23029
880.605	22991
880.732	22702
880.859	23033
880.986	22767
881.112	22767
881.239	22577
881.366	22531
881.493	22531
881.619	22310
881.746	22512
881.872	22386
881.999	22303
882.125	22386
882.252	22504
882.378	22363
882.505	22500
882.631	22268
882.757	22105
882.883	22360
883.01	22322
883.136	22120
883.262	21953
883.388	22010
883.514	22097
883.64	22261
883.766	22093
883.892	21915
884.018	21991
884.143	22120
884.269	22074
884.395	21804
884.52	21762
884.646	21785
884.772	21800
884.897	21679
885.023	21743
885.148	21941
885.274	21899
885.399	21732
885.524	21720
885.65	21743
885.775	21690
885.9	21553
886.025	21576
886.15	21622
886.275	21408
886.4	21386
886.525	21447
886.65	21310
886.775	21412
886.9	21351
887.025	21519
887.149	21173
887.274	21093
887.399	20998
887.523	21024
887.648	21020
887.773	20864
887.897	21043
888.021	21062
888.146	20921
888.27	20880
888.395	21108
888.519	21036
888.643	20929
888.767	20769
888.891	20617
889.015	20701
889.139	20773
889.263	20617
889.387	20651
889.511	20796
889.635	20826
889.759	20488
889.883	20575
890.006	20541
890.13	20606
890.254	20389
890.377	20336
890.501	20191
890.624	20233
890.748	20259
890.871	20100
890.995	20081
891.118	20001
891.241	20096
891.364	20062
891.488	20168
891.611	20020
891.734	19947
891.857	20024
891.98	20069
892.103	19955
892.226	20065
892.349	19830
892.471	19871
892.594	19906
892.717	19852
892.839	19841
892.962	19959
893.085	19871
893.207	19902
893.33	19788
893.452	19765
893.575	19879
893.697	19799
893.819	19955
893.941	19974
894.064	20016
894.186	19784
894.308	19715
894.43	19871
894.552	19982
894.674	19898
894.796	19632
894.918	19655
895.04	19791
895.161	19803
895.283	19803
895.405	19769
895.526	19807
895.648	19712
895.769	19734
895.891	19799
896.012	19685
896.134	19734
896.255	19681
896.376	19803
896.498	19639
896.619	19807
896.74	19731
896.861	19731
896.982	19944
897.103	20168
897.224	19974
897.345	19788
897.466	19955
897.587	19822
897.708	20103
897.828	19993
897.949	19784
898.07	19772
898.19	19818
898.311	19951
898.431	19967
898.552	19776
898.672	19955
898.792	19860
898.913	19875
899.033	19712
899.153	19571
899.273	19483
899.393	19582
899.513	19548
899.633	19632
899.753	19662
899.873	19582
899.993	19674
900.113	19457
900.232	19601
900.352	19597
900.472	19441
900.591	19377
900.711	19430
900.83	19365
900.95	19533
901.069	19601
901.189	19278
901.308	19148
901.427	19015
901.546	18875
901.665	18951
901.784	19069
901.904	18901
902.023	18738
902.141	18578
902.26	18448
902.379	18509
902.498	18536
902.617	18372
902.735	18555
902.854	18334
902.973	18433
903.091	18186
903.21	18159
903.328	18098
903.446	17961
903.565	17939
903.683	18026
903.801	17828
903.919	17927
904.038	17931
904.156	17733
904.274	17840
904.392	17764
904.51	17756
904.627	17577
904.745	17813
904.863	17767
904.981	17505
905.098	17376
905.216	17402
905.334	17471
905.451	17410
905.569	17337
905.686	17444
905.803	17414
905.921	17132
906.038	17269
906.155	17162
906.272	17079
906.389	17117
906.506	16869
906.623	16831
906.74	16805
906.857	16869
906.974	16778
907.091	16869
907.208	16889
907.324	16812
907.441	16824
907.557	16778
907.674	16675
907.79	16489
907.907	16561
908.023	16641
908.139	16569
908.256	16497
908.372	16474
908.488	16379
908.604	16379
908.72	16322
908.836	16344
908.952	16280
909.068	16314
909.184	16443
909.3	16341
909.415	16242
909.531	16303
909.647	16013
909.762	16067
909.878	15937
909.993	15968
910.108	15949
910.224	15816
910.339	15949
910.454	15835
910.57	15831
910.685	15728
910.8	15972
910.915	16010
911.03	15747
911.145	15549
911.259	15526
911.374	15644
911.489	15530
911.604	15450
911.718	15355
911.833	15264
911.947	15184
912.062	15100
912.176	15287
912.291	15310
912.405	15237
912.519	15485
912.633	15500
912.748	15428
912.862	15382
912.976	15249
913.09	15058
913.204	15062
913.318	15062
913.431	15211
913.545	15287
913.659	15241
913.772	15062
913.886	14952
914	14883
914.113	15036
914.226	15097
914.34	15020
914.453	14918
914.566	14982
914.68	14864
914.793	14826
914.906	14610
915.019	14571
915.132	14533
915.245	14648
915.358	14655
915.47	14636
915.583	14644
915.696	14617
915.809	14689
915.921	14731
916.034	14564
916.146	14495
916.259	14503
916.371	14575
916.483	14549
916.595	14351
916.708	14389
916.82	14400
916.932	14355
917.044	14404
917.156	14347
917.268	14252
917.38	14271
917.491	14244
917.603	14294
917.715	14347
917.826	14351
917.938	14115
918.049	14077
918.161	14111
918.272	14355
918.384	14259
918.495	14161
918.606	14020
918.717	13967
918.828	14020
918.939	14008
919.05	13940
919.161	14001
919.272	13738
919.383	13959
919.494	14065
919.604	14210
919.715	13906
919.826	13928
919.936	13879
920.047	14008
920.157	13951
920.267	14157
920.378	13898
920.488	13982
920.598	14225
920.708	14225
920.818	14031
920.928	14134
921.038	14244
921.148	14161
921.258	13906
921.368	13750
921.477	13746
921.587	13685
921.697	13518
921.806	13628
921.916	13514
922.025	13350
922.134	13266
922.244	13251
922.353	13381
922.462	13168
922.571	13107
922.68	12996
922.789	12966
922.898	13015
923.007	12886
923.116	13008
923.224	12943
923.333	12848
923.442	12791
923.55	12757
923.659	12810
923.767	12894
923.876	12730
923.984	12852
924.092	12745
924.201	12783
924.309	12692
924.417	12810
924.525	12639
924.633	12635
924.741	13559
924.849	12467
924.956	12574
925.064	12528
925.172	12319
925.279	12467
925.387	12422
925.494	12407
925.602	12502
925.709	12437
925.816	12319
925.924	12304
926.031	12517
926.138	12353
926.245	12498
926.352	12243
926.459	12422
926.566	12296
926.673	12262
926.779	12114
926.886	12171
926.993	12102
927.099	12034
927.206	11984
927.312	11992
927.419	11961
927.525	11965
927.631	11961
927.737	11855
927.843	11779
927.95	11771
928.056	11832
928.162	11779
928.267	11874
928.373	12346
928.479	11866
928.585	11688
928.69	11729
928.796	11764
928.901	11638
929.007	11543
929.112	11600
929.218	11634
929.323	11547
929.428	11539
929.533	11642
929.638	11509
929.743	11459
929.848	11566
929.953	11528
930.058	11368
930.163	11231
930.267	11212
930.372	11296
930.477	11094
930.581	11455
930.685	11250
930.79	11155
930.894	11132
930.998	11041
931.103	11147
931.207	10858
931.311	10797
931.415	10736
931.519	10538
931.623	10470
