Data from test_V78500241_3222.txt Node
Date: Fri Mar 25 14:56:09 CST 2022
User: usil
Spectrometer: V785-0024
Trigger mode: 0
Integration Time (sec): 4.000000E-1
Scans to average: 1
Nonlinearity correction enabled: false
Boxcar width: 0
Storing dark spectrum: false
XAxis mode: Wavelengths
Number of Pixels in Spectrum: 1024
>>>>>Begin Spectral Data<<<<<
801.071	21789
801.214	21827
801.356	21603
801.499	21610
801.641	21473
801.783	21397
801.926	21492
802.068	21382
802.211	21222
802.353	21085
802.496	21058
802.638	20845
802.78	20838
802.923	20754
803.065	20686
803.208	20655
803.35	20731
803.492	20849
803.635	20925
803.777	20727
803.919	20777
804.061	20963
804.204	20689
804.346	20678
804.488	20594
804.63	20670
804.773	20518
804.915	20689
805.057	20705
805.199	20659
805.341	20644
805.483	20716
805.626	20659
805.768	20613
805.91	20613
806.052	20564
806.194	20568
806.336	20640
806.478	20549
806.62	20545
806.762	20568
806.904	20834
807.046	20887
807.188	20895
807.33	20948
807.472	20921
807.614	20914
807.756	21005
807.898	20800
808.04	20727
808.182	20765
808.324	20693
808.465	20750
808.607	20872
808.749	20914
808.891	21119
809.033	21081
809.174	20948
809.316	20902
809.458	20880
809.6	20956
809.741	21039
809.883	21024
810.025	21108
810.166	21043
810.308	21062
810.45	21077
810.591	20982
810.733	20834
810.875	20720
811.016	20754
811.158	20678
811.299	20743
811.441	20918
811.582	20811
811.724	20716
811.865	20815
812.007	20625
812.148	20765
812.29	20792
812.431	20918
812.573	21043
812.714	21108
812.855	21214
812.997	21367
813.138	21397
813.279	21389
813.421	21207
813.562	21047
813.703	20982
813.845	20811
813.986	20648
814.127	20484
814.268	20396
814.41	20286
814.551	20248
814.692	20381
814.833	20039
814.974	20275
815.115	20298
815.256	20092
815.397	20191
815.539	20092
815.68	19986
815.821	19970
815.962	20126
816.103	20016
816.244	19833
816.385	19757
816.526	19830
816.666	19689
816.807	19377
816.948	19529
817.089	19499
817.23	19415
817.371	19548
817.512	19434
817.653	19411
817.793	19384
817.934	19411
818.075	19483
818.216	19369
818.356	19335
818.497	19122
818.638	19194
818.778	19110
818.919	19050
819.06	19004
819.2	19217
819.341	19316
819.481	19308
819.622	19445
819.762	19556
819.903	19449
820.043	19464
820.184	19369
820.324	19343
820.465	19510
820.605	19396
820.746	19320
820.886	19259
821.026	19282
821.167	19240
821.307	19407
821.447	19316
821.588	19183
821.728	19061
821.868	18928
822.008	18722
822.149	18878
822.289	18764
822.429	18555
822.569	18498
822.709	18483
822.849	18292
822.99	18262
823.13	18243
823.27	18163
823.41	18087
823.55	17950
823.69	18125
823.83	18232
823.97	18076
824.11	17805
824.25	17737
824.389	17836
824.529	17889
824.669	17798
824.809	17885
824.949	17961
825.089	18038
825.228	17817
825.368	17581
825.508	17562
825.648	17695
825.787	17676
825.927	17665
826.067	17573
826.206	17585
826.346	17718
826.485	17764
826.625	17566
826.765	17710
826.904	17623
827.044	17455
827.183	17303
827.323	17349
827.462	17330
827.601	17406
827.741	17356
827.88	17296
828.02	17227
828.159	17269
828.298	17269
828.437	17330
828.577	17246
828.716	17353
828.855	17246
828.994	17067
829.134	16995
829.273	17045
829.412	17056
829.551	17041
829.69	17029
829.829	17147
829.968	17128
830.107	17132
830.246	16976
830.385	17105
830.524	16980
830.663	16923
830.802	16797
830.941	16755
831.08	16649
831.219	16759
831.357	16797
831.496	16892
831.635	16717
831.774	16538
831.913	16527
832.051	16481
832.19	16592
832.329	16542
832.467	16382
832.606	16375
832.744	16409
832.883	16303
833.022	16287
833.16	16462
833.299	16462
833.437	16500
833.576	16443
833.714	16322
833.852	16379
833.991	16459
834.129	16436
834.267	16348
834.406	16504
834.544	16512
834.682	16481
834.821	16455
834.959	16527
835.097	16367
835.235	16470
835.373	16489
835.511	16558
835.65	16405
835.788	16375
835.926	16185
836.064	16158
836.202	16086
836.34	16352
836.478	16402
836.615	16295
836.753	16356
836.891	16367
837.029	16371
837.167	16303
837.305	16268
837.443	16215
837.58	16230
837.718	16409
837.856	16238
837.993	16242
838.131	16253
838.269	16166
838.406	16128
838.544	16135
838.681	15979
838.819	15876
838.956	15781
839.094	15774
839.231	15800
839.369	15911
839.506	16173
839.643	16071
839.781	15739
839.918	15656
840.055	15778
840.193	15736
840.33	15690
840.467	15720
840.604	15899
840.742	15949
840.879	15595
841.016	15549
841.153	15641
841.29	15937
841.427	15838
841.564	15819
841.701	15827
841.838	15717
841.975	15682
842.112	15705
842.249	15694
842.385	15504
842.522	15686
842.659	15595
842.796	15507
842.933	15580
843.069	15504
843.206	15504
843.343	15584
843.479	15557
843.616	15515
843.752	15367
843.889	15367
844.025	15439
844.162	15211
844.298	15515
844.435	15393
844.571	15180
844.708	15408
844.844	15443
844.98	15584
845.117	15450
845.253	15272
845.389	15176
845.525	15249
845.661	15195
845.798	15066
845.934	15226
846.07	15104
846.206	15123
846.342	15252
846.478	15222
846.614	14982
846.75	14941
846.886	14845
847.022	15013
847.158	14842
847.294	14960
847.429	14929
847.565	14861
847.701	15214
847.837	14750
847.972	14621
848.108	14720
848.244	14739
848.379	14606
848.515	14484
848.65	14476
848.786	14434
848.921	14629
849.057	14644
849.192	14568
849.328	14499
849.463	14492
849.598	14587
849.734	14400
849.869	14385
850.004	14271
850.14	14237
850.275	14343
850.41	14275
850.545	14191
850.68	14214
850.815	14278
850.95	14225
851.085	14400
851.22	14328
851.355	14301
851.49	14210
851.625	14229
851.76	14290
851.895	14202
852.03	14161
852.165	14187
852.299	14290
852.434	14347
852.569	14305
852.703	14221
852.838	14366
852.973	14484
853.107	14408
853.242	14149
853.376	14180
853.511	14020
853.645	14145
853.78	14225
853.914	14164
854.048	14161
854.183	14145
854.317	14081
854.451	14309
854.585	14191
854.72	14149
854.854	14191
854.988	14024
855.122	14123
855.256	13955
855.39	14065
855.524	14138
855.658	14195
855.792	14180
855.926	14176
856.06	14168
856.194	14294
856.327	14084
856.461	14107
856.595	14123
856.729	14096
856.862	14313
856.996	14180
857.13	14221
857.263	14282
857.397	14206
857.53	14123
857.664	14153
857.797	14244
857.931	14218
858.064	14142
858.197	14275
858.331	14191
858.464	14107
858.597	14111
858.731	14088
858.864	14123
858.997	14081
859.13	14134
859.263	14168
859.396	14206
859.529	14145
859.662	14119
859.795	14134
859.928	14278
860.061	14423
860.194	14377
860.327	14145
860.46	14199
860.592	14214
860.725	14434
860.858	14214
860.99	14164
861.123	14001
861.256	14027
861.388	14214
861.521	14975
861.653	14100
861.786	14039
861.918	14027
862.05	14119
862.183	14244
862.315	14126
862.447	14180
862.58	14050
862.712	13959
862.844	13951
862.976	14012
863.108	14012
863.24	14355
863.372	13868
863.504	14005
863.636	13902
863.768	14020
863.9	13909
864.032	13917
864.164	13894
864.296	13947
864.428	13978
864.559	14043
864.691	14054
864.823	13959
864.954	14012
865.086	14043
865.217	13944
865.349	13909
865.48	14046
865.612	13906
865.743	14126
865.875	13959
866.006	13982
866.137	13955
866.269	13917
866.4	14016
866.531	13951
866.662	13963
866.793	13986
866.924	14043
867.055	14024
867.186	14027
867.317	13841
867.448	13871
867.579	13921
867.71	13856
867.841	13856
867.972	13913
868.103	13997
868.233	14035
868.364	13894
868.495	14005
868.625	14229
868.756	14336
868.886	14153
869.017	14103
869.147	14381
869.278	14374
869.408	14157
869.539	14202
869.669	14275
869.799	14275
869.929	14275
870.06	14305
870.19	14549
870.32	14488
870.45	14530
870.58	14621
870.71	14758
870.84	14712
870.97	14610
871.1	14549
871.23	14754
871.36	14777
871.489	14705
871.619	14781
871.749	14800
871.879	14845
872.008	14918
872.138	14765
872.267	14819
872.397	14651
872.526	14598
872.656	14583
872.785	14667
872.915	14804
873.044	14899
873.173	14792
873.303	14792
873.432	14868
873.561	14895
873.69	14845
873.819	14891
873.948	14937
874.077	14975
874.206	14823
874.335	14883
874.464	14971
874.593	15127
874.722	15074
874.851	15252
874.979	15135
875.108	15272
875.237	15089
875.365	15058
875.494	15188
875.623	15279
875.751	15169
875.88	15230
876.008	15317
876.136	15374
876.265	15580
876.393	15622
876.521	15675
876.65	15679
876.778	15686
876.906	15526
877.034	15572
877.162	15564
877.29	15469
877.418	15549
877.546	15591
877.674	15568
877.802	15576
877.93	15485
878.058	15507
878.185	15545
878.313	15591
878.441	15576
878.568	15435
878.696	15504
878.824	15603
878.951	15625
879.079	15728
879.206	15918
879.333	15705
879.461	15614
879.588	15686
879.715	15797
879.842	15842
879.97	15618
880.097	15450
880.224	15481
880.351	15443
880.478	15443
880.605	15306
880.732	15462
880.859	15747
880.986	15500
881.112	15466
881.239	15291
881.366	15150
881.493	15051
881.619	15100
881.746	15100
881.872	15097
881.999	15028
882.125	15039
882.252	15142
882.378	15184
882.505	15272
882.631	15058
882.757	14883
882.883	14963
883.01	14948
883.136	14910
883.262	14830
883.388	14788
883.514	14902
883.64	14994
883.766	14762
883.892	14644
884.018	14735
884.143	14918
884.269	14914
884.395	14617
884.52	14590
884.646	14651
884.772	14492
884.897	14442
885.023	14632
885.148	14670
885.274	14804
885.399	14716
885.524	14686
885.65	14568
885.775	14689
885.9	14648
886.025	14785
886.15	14678
886.275	14640
886.4	14473
886.525	14644
886.65	14537
886.775	14583
886.9	14758
887.025	14918
887.149	14678
887.274	14423
887.399	14358
887.523	14412
887.648	14343
887.773	14362
887.897	14541
888.021	14533
888.146	14473
888.27	14564
888.395	14526
888.519	14575
888.643	14549
888.767	14583
888.891	14355
889.015	14347
889.139	14427
889.263	14393
889.387	14351
889.511	14575
889.635	14465
889.759	14324
889.883	14339
890.006	14339
890.13	14396
890.254	14240
890.377	14294
890.501	14252
890.624	14065
890.748	14100
890.871	13967
890.995	13940
891.118	13890
891.241	14043
891.364	13967
891.488	14142
891.611	14096
891.734	13970
891.857	14031
891.98	14111
892.103	14069
892.226	14065
892.349	13925
892.471	13947
892.594	14039
892.717	14001
892.839	13974
892.962	14027
893.085	13963
893.207	14054
893.33	13906
893.452	14043
893.575	14050
893.697	14024
893.819	14191
893.941	14210
894.064	14123
894.186	13963
894.308	13978
894.43	14134
894.552	14199
894.674	14123
894.796	14077
894.918	14027
895.04	14050
895.161	14126
895.283	14077
895.405	14065
895.526	14069
895.648	14172
895.769	14229
895.891	14164
896.012	14324
896.134	14267
896.255	14164
896.376	14153
896.498	14123
896.619	14214
896.74	14225
896.861	14252
896.982	14530
897.103	14678
897.224	14427
897.345	14522
897.466	14427
897.587	14514
897.708	14495
897.828	14457
897.949	14442
898.07	14290
898.19	14457
898.311	14632
898.431	14480
898.552	14579
898.672	14686
898.792	14629
898.913	14541
899.033	14533
899.153	14484
899.273	14271
899.393	14396
899.513	14488
899.633	14476
899.753	14511
899.873	14271
899.993	14381
900.113	14396
900.232	14457
900.352	14412
900.472	14370
900.591	14206
900.711	14320
900.83	14225
900.95	14294
901.069	14389
901.189	14081
901.308	14050
901.427	13898
901.546	14043
901.665	14012
901.784	14001
901.904	13860
902.023	13681
902.141	13639
902.26	13525
902.379	13628
902.498	13620
902.617	13449
902.735	13563
902.854	13647
902.973	13438
903.091	13263
903.21	13263
903.328	13171
903.446	13099
903.565	13065
903.683	13160
903.801	12989
903.919	13042
904.038	13027
904.156	12970
904.274	12947
904.392	12833
904.51	12932
904.627	12806
904.745	12916
904.863	12970
904.981	12715
905.098	12589
905.216	12612
905.334	12578
905.451	12597
905.569	12593
905.686	12593
905.803	12597
905.921	12380
906.038	12486
906.155	12414
906.272	12216
906.389	12258
906.506	12258
906.623	12258
906.74	12182
906.857	12087
906.974	12064
907.091	12251
907.208	12319
907.324	12197
907.441	12087
907.557	11939
907.674	11954
907.79	11954
907.907	11882
908.023	12003
908.139	11923
908.256	11851
908.372	11794
908.488	11805
908.604	11764
908.72	11619
908.836	11760
908.952	11570
909.068	11699
909.184	11707
909.3	11672
909.415	11729
909.531	11680
909.647	11512
909.762	11467
909.878	11433
909.993	11452
910.108	11478
910.224	11436
910.339	11482
910.454	11330
910.57	11326
910.685	11269
910.8	11589
910.915	11459
911.03	11303
911.145	11151
911.259	11201
911.374	11242
911.489	11048
911.604	11067
911.718	10896
911.833	10896
911.947	10858
912.062	10812
912.176	10862
912.291	10896
912.405	10854
912.519	11033
912.633	11041
912.748	10968
912.862	10866
912.976	10782
913.09	10782
913.204	10733
913.318	10812
913.431	10877
913.545	10816
913.659	10942
913.772	10759
913.886	10687
914	10660
914.113	10847
914.226	10892
914.34	10786
914.453	10554
914.566	10714
914.68	10649
914.793	10615
914.906	10455
915.019	10363
915.132	10344
915.245	10386
915.358	10478
915.47	10417
915.583	10474
915.696	10440
915.809	10561
915.921	10584
916.034	10386
916.146	10421
916.259	10306
916.371	10508
916.483	10417
916.595	10348
916.708	10379
916.82	10333
916.932	10379
917.044	10341
917.156	10341
917.268	10253
917.38	10284
917.491	10230
917.603	10227
917.715	10295
917.826	10367
917.938	10230
918.049	10139
918.161	10238
918.272	10455
918.384	10356
918.495	10299
918.606	10192
918.717	10059
918.828	10185
918.939	10192
919.05	10002
919.161	10105
919.272	9949
919.383	9998
919.494	10162
919.604	10478
919.715	10177
919.826	10154
919.936	9983
920.047	10207
920.157	10131
920.267	10375
920.378	10219
920.488	10097
920.598	10341
920.708	10497
920.818	10341
920.928	10379
921.038	10512
921.148	10424
921.258	10188
921.368	10143
921.477	9991
921.587	9972
921.697	9873
921.806	10025
921.916	9915
922.025	9656
922.134	9568
922.244	9652
922.353	9755
922.462	9603
922.571	9538
922.68	9485
922.789	9386
922.898	9416
923.007	9416
923.116	9466
923.224	9405
923.333	9428
923.442	9329
923.55	9272
923.659	9298
923.767	9374
923.876	9249
923.984	9340
924.092	9222
924.201	9291
924.309	9256
924.417	9283
924.525	9195
924.633	9264
924.741	10166
924.849	9020
924.956	9184
925.064	9036
925.172	8979
925.279	8986
925.387	9085
925.494	9058
925.602	9233
925.709	9157
925.816	9028
925.924	9085
926.031	9230
926.138	9070
926.245	9138
926.352	8914
926.459	9146
926.566	9184
926.673	9001
926.779	8960
926.886	8864
926.993	8811
927.099	8830
927.206	8762
927.312	8823
927.419	8830
927.525	8819
927.631	8853
927.737	8708
927.843	8648
927.95	8579
928.056	8697
928.162	8648
928.267	8815
928.373	9279
928.479	8777
928.585	8613
928.69	8712
928.796	8735
928.901	8606
929.007	8511
929.112	8629
929.218	8670
929.323	8526
929.428	8556
929.533	8648
929.638	8507
929.743	8461
929.848	8564
929.953	8537
930.058	8442
930.163	8290
930.267	8328
930.372	8408
930.477	8248
930.581	8564
930.685	8389
930.79	8225
930.894	8267
930.998	8271
931.103	8347
931.207	8065
931.311	8001
931.415	7913
931.519	7753
931.623	7715
