Data from test_V78500241_2603.txt Node
Date: Fri Mar 25 14:51:50 CST 2022
User: usil
Spectrometer: V785-0024
Trigger mode: 0
Integration Time (sec): 4.000000E-1
Scans to average: 1
Nonlinearity correction enabled: false
Boxcar width: 0
Storing dark spectrum: false
XAxis mode: Wavelengths
Number of Pixels in Spectrum: 1024
>>>>>Begin Spectral Data<<<<<
801.071	22021
801.214	21911
801.356	21717
801.499	21557
801.641	21401
801.783	21359
801.926	21542
802.068	21332
802.211	21214
802.353	21116
802.496	20956
802.638	20933
802.78	20800
802.923	20731
803.065	20659
803.208	20689
803.35	20743
803.492	20739
803.635	20769
803.777	20644
803.919	20807
804.061	21017
804.204	20830
804.346	20689
804.488	20598
804.63	20708
804.773	20530
804.915	20651
805.057	20804
805.199	20499
805.341	20667
805.483	20853
805.626	20697
805.768	20571
805.91	20590
806.052	20609
806.194	20454
806.336	20708
806.478	20499
806.62	20564
806.762	20651
806.904	20823
807.046	21043
807.188	20982
807.33	20948
807.472	20960
807.614	20830
807.756	20823
807.898	20705
808.04	20621
808.182	20621
808.324	20724
808.465	20571
808.607	20967
808.749	21017
808.891	21169
809.033	21241
809.174	20937
809.316	20963
809.458	21020
809.6	20845
809.741	20998
809.883	20906
810.025	21096
810.166	21074
810.308	21077
810.45	21047
810.591	20929
810.733	20857
810.875	20788
811.016	20625
811.158	20670
811.299	20845
811.441	20918
811.582	20925
811.724	20765
811.865	20678
812.007	20689
812.148	20762
812.29	20708
812.431	20823
812.573	21036
812.714	21252
812.855	21119
812.997	21412
813.138	21431
813.279	21370
813.421	21249
813.562	21188
813.703	20880
813.845	20823
813.986	20606
814.127	20374
814.268	20374
814.41	20309
814.551	20256
814.692	20415
814.833	20214
814.974	20278
815.115	20180
815.256	20111
815.397	20172
815.539	20130
815.68	20126
815.821	19902
815.962	20039
816.103	19936
816.244	19978
816.385	19841
816.526	19719
816.666	19510
816.807	19438
816.948	19544
817.089	19464
817.23	19472
817.371	19354
817.512	19369
817.653	19392
817.793	19396
817.934	19419
818.075	19525
818.216	19339
818.356	19411
818.497	19156
818.638	19061
818.778	19095
818.919	19198
819.06	19076
819.2	19236
819.341	19308
819.481	19331
819.622	19403
819.762	19685
819.903	19472
820.043	19540
820.184	19373
820.324	19453
820.465	19411
820.605	19430
820.746	19263
820.886	19145
821.026	19339
821.167	19278
821.307	19495
821.447	19285
821.588	19183
821.728	19126
821.868	18962
822.008	18795
822.149	18905
822.289	18795
822.429	18612
822.569	18498
822.709	18521
822.849	18395
822.99	18369
823.13	18384
823.27	18296
823.41	18117
823.55	18049
823.69	18171
823.83	18133
823.97	17980
824.11	17870
824.25	17794
824.389	17882
824.529	17855
824.669	17760
824.809	17965
824.949	18026
825.089	17965
825.228	17832
825.368	17672
825.508	17627
825.648	17646
825.787	17707
825.927	17771
826.067	17554
826.206	17687
826.346	17760
826.485	17649
826.625	17764
826.765	17767
826.904	17676
827.044	17402
827.183	17440
827.323	17402
827.462	17532
827.601	17436
827.741	17410
827.88	17330
828.02	17216
828.159	17372
828.298	17376
828.437	17326
828.577	17223
828.716	17509
828.855	17280
828.994	17155
829.134	17033
829.273	17147
829.412	17067
829.551	17022
829.69	17033
829.829	17212
829.968	17280
830.107	17178
830.246	17132
830.385	17029
830.524	16995
830.663	17003
830.802	16869
830.941	16755
831.08	16618
831.219	16961
831.357	16790
831.496	16873
831.635	16748
831.774	16645
831.913	16694
832.051	16538
832.19	16565
832.329	16637
832.467	16402
832.606	16363
832.744	16447
832.883	16371
833.022	16322
833.16	16542
833.299	16531
833.437	16451
833.576	16550
833.714	16561
833.852	16618
833.991	16462
834.129	16622
834.267	16554
834.406	16493
834.544	16538
834.682	16519
834.821	16527
834.959	16664
835.097	16466
835.235	16580
835.373	16474
835.511	16558
835.65	16554
835.788	16432
835.926	16329
836.064	16200
836.202	16139
836.34	16481
836.478	16504
836.615	16306
836.753	16367
836.891	16481
837.029	16516
837.167	16276
837.305	16421
837.443	16409
837.58	16375
837.718	16280
837.856	16413
837.993	16253
838.131	16367
838.269	16238
838.406	16188
838.544	16226
838.681	16071
838.819	16063
838.956	15759
839.094	15842
839.231	15770
839.369	15915
839.506	16238
839.643	16128
839.781	15876
839.918	15762
840.055	15819
840.193	15854
840.33	15789
840.467	15892
840.604	15865
840.742	16128
840.879	15720
841.016	15766
841.153	15781
841.29	15964
841.427	15903
841.564	15884
841.701	15865
841.838	15781
841.975	15762
842.112	15671
842.249	15637
842.385	15500
842.522	15789
842.659	15633
842.796	15629
842.933	15587
843.069	15576
843.206	15545
843.343	15690
843.479	15644
843.616	15667
843.752	15405
843.889	15382
844.025	15587
844.162	15298
844.298	15462
844.435	15393
844.571	15378
844.708	15439
844.844	15435
844.98	15504
845.117	15515
845.253	15348
845.389	15310
845.525	15348
845.661	15344
845.798	15233
845.934	15332
846.07	15180
846.206	15249
846.342	15386
846.478	15199
846.614	14982
846.75	15009
846.886	14944
847.022	15058
847.158	14937
847.294	14929
847.429	15051
847.565	14883
847.701	15138
847.837	14705
847.972	14697
848.108	14765
848.244	14785
848.379	14705
848.515	14571
848.65	14514
848.786	14503
848.921	14587
849.057	14720
849.192	14739
849.328	14632
849.463	14629
849.598	14457
849.734	14549
849.869	14450
850.004	14332
850.14	14511
850.275	14298
850.41	14259
850.545	14263
850.68	14298
850.815	14286
850.95	14301
851.085	14545
851.22	14431
851.355	14366
851.49	14290
851.625	14332
851.76	14286
851.895	14187
852.03	14176
852.165	14370
852.299	14366
852.434	14427
852.569	14351
852.703	14393
852.838	14427
852.973	14518
853.107	14461
853.242	14267
853.376	14225
853.511	14145
853.645	14138
853.78	14305
853.914	14187
854.048	14077
854.183	14206
854.317	14214
854.451	14332
854.585	14237
854.72	14138
854.854	14202
854.988	14134
855.122	14206
855.256	14020
855.39	14240
855.524	14358
855.658	14320
855.792	14240
855.926	14237
856.06	14282
856.194	14442
856.327	14183
856.461	14218
856.595	14202
856.729	14164
856.862	14233
856.996	14237
857.13	14404
857.263	14381
857.397	14218
857.53	14176
857.664	14199
857.797	14278
857.931	14313
858.064	14183
858.197	14313
858.331	14210
858.464	14142
858.597	14103
858.731	14218
858.864	14248
858.997	14145
859.13	14210
859.263	14233
859.396	14263
859.529	14240
859.662	14206
859.795	14168
859.928	14263
860.061	14389
860.194	14408
860.327	14240
860.46	14202
860.592	14244
860.725	14355
860.858	14275
860.99	14180
861.123	14012
861.256	14115
861.388	14233
861.521	14765
861.653	14134
861.786	14027
861.918	14027
862.05	14195
862.183	14210
862.315	14103
862.447	14202
862.58	14176
862.712	13944
862.844	13978
862.976	14062
863.108	14024
863.24	14476
863.372	13887
863.504	13932
863.636	14012
863.768	14084
863.9	13936
864.032	13879
864.164	13917
864.296	14016
864.428	14168
864.559	14058
864.691	14103
864.823	14020
864.954	13993
865.086	13947
865.217	13963
865.349	13928
865.48	14005
865.612	14020
865.743	14103
865.875	13909
866.006	13913
866.137	14043
866.269	13947
866.4	13955
866.531	13890
866.662	13932
866.793	13955
866.924	13928
867.055	13932
867.186	14005
867.317	13967
867.448	13951
867.579	13951
867.71	13925
867.841	13818
867.972	13963
868.103	14008
868.233	13974
868.364	13967
868.495	14062
868.625	14252
868.756	14343
868.886	14282
869.017	14206
869.147	14343
869.278	14393
869.408	14282
869.539	14320
869.669	14298
869.799	14324
869.929	14396
870.06	14286
870.19	14522
870.32	14602
870.45	14552
870.58	14594
870.71	14777
870.84	14701
870.97	14674
871.1	14621
871.23	14758
871.36	14849
871.489	14648
871.619	14819
871.749	14872
871.879	14887
872.008	14944
872.138	14876
872.267	14788
872.397	14743
872.526	14754
872.656	14659
872.785	14712
872.915	14998
873.044	15051
873.173	14872
873.303	14902
873.432	14960
873.561	14933
873.69	14986
873.819	14819
873.948	14963
874.077	14994
874.206	14902
874.335	14979
874.464	15070
874.593	15325
874.722	15150
874.851	15226
874.979	15283
875.108	15416
875.237	15104
875.365	15142
875.494	15252
875.623	15317
875.751	15184
875.88	15298
876.008	15416
876.136	15481
876.265	15610
876.393	15808
876.521	15770
876.65	15644
876.778	15622
876.906	15587
877.034	15625
877.162	15610
877.29	15587
877.418	15705
877.546	15656
877.674	15534
877.802	15652
877.93	15686
878.058	15610
878.185	15469
878.313	15698
878.441	15633
878.568	15515
878.696	15599
878.824	15549
878.951	15759
879.079	15789
879.206	15994
879.333	15857
879.461	15675
879.588	15667
879.715	15846
879.842	15918
879.97	15797
880.097	15416
880.224	15481
880.351	15561
880.478	15488
880.605	15488
880.732	15477
880.859	15766
880.986	15511
881.112	15568
881.239	15378
881.366	15218
881.493	15283
881.619	15180
881.746	15184
881.872	15097
881.999	15154
882.125	15173
882.252	15233
882.378	15104
882.505	15382
882.631	15131
882.757	15009
882.883	14979
883.01	15043
883.136	14883
883.262	14823
883.388	14834
883.514	14914
883.64	14925
883.766	14986
883.892	14758
884.018	14773
884.143	14921
884.269	14982
884.395	14796
884.52	14693
884.646	14765
884.772	14568
884.897	14663
885.023	14777
885.148	14781
885.274	14804
885.399	14792
885.524	14758
885.65	14686
885.775	14678
885.9	14648
886.025	14807
886.15	14765
886.275	14610
886.4	14598
886.525	14632
886.65	14625
886.775	14583
886.9	14769
887.025	14979
887.149	14667
887.274	14488
887.399	14476
887.523	14545
887.648	14457
887.773	14298
887.897	14522
888.021	14507
888.146	14465
888.27	14594
888.395	14727
888.519	14621
888.643	14610
888.767	14590
888.891	14465
889.015	14320
889.139	14396
889.263	14377
889.387	14530
889.511	14533
889.635	14541
889.759	14336
889.883	14275
890.006	14507
890.13	14514
890.254	14358
890.377	14263
890.501	14176
890.624	14123
890.748	14183
890.871	14035
890.995	13967
891.118	13951
891.241	14115
891.364	14164
891.488	14142
891.611	14050
891.734	14020
891.857	14111
891.98	14054
892.103	14145
892.226	14096
892.349	14058
892.471	13951
892.594	13970
892.717	14100
892.839	14142
892.962	14168
893.085	14054
893.207	14046
893.33	14020
893.452	13982
893.575	14138
893.697	14088
893.819	14237
893.941	14336
894.064	14210
894.186	14180
894.308	14043
894.43	14183
894.552	14294
894.674	14221
894.796	14073
894.918	14225
895.04	14084
895.161	14225
895.283	14221
895.405	14134
895.526	14138
895.648	14149
895.769	14183
895.891	14145
896.012	14339
896.134	14301
896.255	14263
896.376	14282
896.498	14259
896.619	14351
896.74	14172
896.861	14305
896.982	14606
897.103	14781
897.224	14598
897.345	14480
897.466	14480
897.587	14427
897.708	14606
897.828	14537
897.949	14457
898.07	14370
898.19	14442
898.311	14632
898.431	14469
898.552	14575
898.672	14655
898.792	14670
898.913	14587
899.033	14526
899.153	14533
899.273	14313
899.393	14431
899.513	14446
899.633	14549
899.753	14396
899.873	14450
899.993	14492
900.113	14423
900.232	14488
900.352	14438
900.472	14271
900.591	14267
900.711	14355
900.83	14244
900.95	14446
901.069	14427
901.189	14252
901.308	14012
901.427	13944
901.546	13944
901.665	13947
901.784	14012
901.904	13932
902.023	13849
902.141	13533
902.26	13537
902.379	13689
902.498	13552
902.617	13514
902.735	13514
902.854	13502
902.973	13491
903.091	13236
903.21	13259
903.328	13255
903.446	13206
903.565	13145
903.683	13110
903.801	13076
903.919	13149
904.038	13053
904.156	12951
904.274	13008
904.392	12924
904.51	12954
904.627	12913
904.745	13053
904.863	12951
904.981	12669
905.098	12658
905.216	12669
905.334	12635
905.451	12608
905.569	12612
905.686	12623
905.803	12650
905.921	12456
906.038	12532
906.155	12521
906.272	12334
906.389	12319
906.506	12254
906.623	12243
906.74	12251
906.857	12087
906.974	12136
907.091	12289
907.208	12407
907.324	12273
907.441	12114
907.557	11980
907.674	11992
907.79	11878
907.907	11946
908.023	11999
908.139	11980
908.256	11889
908.372	11855
908.488	11946
908.604	11779
908.72	11665
908.836	11691
908.952	11653
909.068	11691
909.184	11889
909.3	11748
909.415	11760
909.531	11752
909.647	11505
909.762	11425
909.878	11425
909.993	11566
910.108	11512
910.224	11486
910.339	11463
910.454	11376
910.57	11318
910.685	11292
910.8	11532
910.915	11592
911.03	11337
911.145	11254
911.259	11208
911.374	11208
911.489	11109
911.604	11067
911.718	10923
911.833	10968
911.947	10828
912.062	10774
912.176	10953
912.291	10938
912.405	10949
912.519	11143
912.633	11159
912.748	11121
912.862	10972
912.976	10801
913.09	10733
913.204	10778
913.318	10854
913.431	10942
913.545	10923
913.659	11060
913.772	10839
913.886	10755
914	10702
914.113	10847
914.226	10828
914.34	10714
914.453	10645
914.566	10672
914.68	10675
914.793	10706
914.906	10481
915.019	10497
915.132	10341
915.245	10481
915.358	10432
915.47	10516
915.583	10504
915.696	10516
915.809	10588
915.921	10599
916.034	10523
916.146	10402
916.259	10394
916.371	10542
916.483	10504
916.595	10417
916.708	10371
916.82	10348
916.932	10443
917.044	10337
917.156	10257
917.268	10207
917.38	10341
917.491	10265
917.603	10303
917.715	10424
917.826	10382
917.938	10230
918.049	10215
918.161	10344
918.272	10421
918.384	10489
918.495	10348
918.606	10162
918.717	10074
918.828	10200
918.939	10181
919.05	10109
919.161	10135
919.272	9956
919.383	10067
919.494	10257
919.604	10417
919.715	10139
919.826	10135
919.936	10169
920.047	10329
920.157	10234
920.267	10478
920.378	10200
920.488	10192
920.598	10405
920.708	10558
920.818	10432
920.928	10382
921.038	10538
921.148	10470
921.258	10211
921.368	10124
921.477	10162
921.587	10048
921.697	9915
921.806	10059
921.916	9983
922.025	9720
922.134	9755
922.244	9724
922.353	9770
922.462	9679
922.571	9584
922.68	9462
922.789	9454
922.898	9511
923.007	9325
923.116	9545
923.224	9462
923.333	9447
923.442	9340
923.55	9340
923.659	9336
923.767	9389
923.876	9306
923.984	9355
924.092	9256
924.201	9260
924.309	9329
924.417	9321
924.525	9283
924.633	9291
924.741	10021
924.849	9104
924.956	9264
925.064	9142
925.172	9024
925.279	9017
925.387	9066
925.494	9135
925.602	9241
925.709	9195
925.816	9017
925.924	9085
926.031	9154
926.138	9097
926.245	9104
926.352	9017
926.459	9180
926.566	9249
926.673	9051
926.779	9009
926.886	8979
926.993	8876
927.099	8819
927.206	8781
927.312	8762
927.419	8838
927.525	8785
927.631	8948
927.737	8777
927.843	8708
927.95	8526
928.056	8678
928.162	8697
928.267	8739
928.373	9310
928.479	8800
928.585	8579
928.69	8693
928.796	8731
928.901	8549
929.007	8423
929.112	8705
929.218	8590
929.323	8568
929.428	8545
929.533	8621
929.638	8480
929.743	8442
929.848	8514
929.953	8522
930.058	8473
930.163	8282
930.267	8305
930.372	8442
930.477	8271
930.581	8507
930.685	8400
930.79	8259
930.894	8267
930.998	8256
931.103	8320
931.207	7974
931.311	7932
931.415	7951
931.519	7803
931.623	7750
