Data from test_V78500241_3398.txt Node
Date: Fri Mar 25 14:57:22 CST 2022
User: usil
Spectrometer: V785-0024
Trigger mode: 0
Integration Time (sec): 4.000000E-1
Scans to average: 1
Nonlinearity correction enabled: false
Boxcar width: 0
Storing dark spectrum: false
XAxis mode: Wavelengths
Number of Pixels in Spectrum: 1024
>>>>>Begin Spectral Data<<<<<
801.071	22059
801.214	21736
801.356	21568
801.499	21614
801.641	21416
801.783	21336
801.926	21321
802.068	21214
802.211	21272
802.353	21150
802.496	20887
802.638	20781
802.78	20701
802.923	20754
803.065	20609
803.208	20514
803.35	20640
803.492	20670
803.635	20754
803.777	20629
803.919	20708
804.061	20944
804.204	20712
804.346	20530
804.488	20552
804.63	20587
804.773	20484
804.915	20484
805.057	20712
805.199	20583
805.341	20602
805.483	20556
805.626	20499
805.768	20511
805.91	20530
806.052	20556
806.194	20446
806.336	20758
806.478	20571
806.62	20469
806.762	20579
806.904	20727
807.046	20895
807.188	20895
807.33	20785
807.472	20792
807.614	20807
807.756	20765
807.898	20648
808.04	20564
808.182	20530
808.324	20530
808.465	20609
808.607	20743
808.749	20883
808.891	20971
809.033	21036
809.174	20921
809.316	20792
809.458	20891
809.6	20754
809.741	20849
809.883	20906
810.025	21081
810.166	21058
810.308	20902
810.45	20921
810.591	20807
810.733	20708
810.875	20659
811.016	20579
811.158	20423
811.299	20613
811.441	20769
811.582	20670
811.724	20579
811.865	20560
812.007	20575
812.148	20708
812.29	20609
812.431	20769
812.573	20937
812.714	21161
812.855	21207
812.997	21146
813.138	21260
813.279	21344
813.421	21176
813.562	21089
813.703	21020
813.845	20910
813.986	20488
814.127	20275
814.268	20294
814.41	20259
814.551	20225
814.692	20180
814.833	20161
814.974	20100
815.115	20195
815.256	20073
815.397	19989
815.539	19951
815.68	19902
815.821	19799
815.962	19936
816.103	19849
816.244	19746
816.385	19601
816.526	19639
816.666	19491
816.807	19297
816.948	19369
817.089	19354
817.23	19320
817.371	19411
817.512	19362
817.653	19244
817.793	19255
817.934	19320
818.075	19297
818.216	19301
818.356	19354
818.497	19148
818.638	19000
818.778	18932
818.919	18985
819.06	19103
819.2	19126
819.341	19251
819.481	19282
819.622	19331
819.762	19449
819.903	19422
820.043	19381
820.184	19346
820.324	19293
820.465	19247
820.605	19259
820.746	19206
820.886	19206
821.026	19206
821.167	19282
821.307	19240
821.447	19255
821.588	19110
821.728	19042
821.868	18886
822.008	18726
822.149	18757
822.289	18608
822.429	18525
822.569	18361
822.709	18452
822.849	18182
822.99	18167
823.13	18106
823.27	18068
823.41	17954
823.55	17897
823.69	17996
823.83	17973
823.97	17878
824.11	17798
824.25	17748
824.389	17836
824.529	17855
824.669	17828
824.809	17923
824.949	17859
825.089	17729
825.228	17745
825.368	17809
825.508	17649
825.648	17554
825.787	17539
825.927	17649
826.067	17440
826.206	17638
826.346	17585
826.485	17596
826.625	17524
826.765	17589
826.904	17585
827.044	17322
827.183	17292
827.323	17159
827.462	17406
827.601	17356
827.741	17227
827.88	17326
828.02	17041
828.159	17231
828.298	17269
828.437	17315
828.577	17181
828.716	17360
828.855	17288
828.994	17075
829.134	16991
829.273	17022
829.412	16999
829.551	16850
829.69	16987
829.829	17105
829.968	17102
830.107	17048
830.246	17014
830.385	16949
830.524	16942
830.663	16828
830.802	16790
830.941	16748
831.08	16577
831.219	16679
831.357	16687
831.496	16919
831.635	16675
831.774	16561
831.913	16508
832.051	16447
832.19	16478
832.329	16466
832.467	16280
832.606	16287
832.744	16306
832.883	16405
833.022	16325
833.16	16447
833.299	16356
833.437	16398
833.576	16424
833.714	16325
833.852	16474
833.991	16436
834.129	16493
834.267	16440
834.406	16432
834.544	16436
834.682	16447
834.821	16443
834.959	16645
835.097	16257
835.235	16478
835.373	16405
835.511	16394
835.65	16253
835.788	16284
835.926	16109
836.064	16173
836.202	16128
836.34	16314
836.478	16352
836.615	16120
836.753	16276
836.891	16306
837.029	16371
837.167	16352
837.305	16185
837.443	16158
837.58	16207
837.718	16341
837.856	16158
837.993	16219
838.131	16166
838.269	16185
838.406	16124
838.544	16040
838.681	15949
838.819	15846
838.956	15797
839.094	15682
839.231	15842
839.369	15808
839.506	16196
839.643	15937
839.781	15785
839.918	15606
840.055	15739
840.193	15701
840.33	15686
840.467	15797
840.604	15739
840.742	15964
840.879	15686
841.016	15743
841.153	15698
841.29	15880
841.427	15770
841.564	15781
841.701	15671
841.838	15656
841.975	15690
842.112	15713
842.249	15568
842.385	15450
842.522	15709
842.659	15564
842.796	15462
842.933	15515
843.069	15454
843.206	15553
843.343	15576
843.479	15545
843.616	15500
843.752	15321
843.889	15329
844.025	15466
844.162	15370
844.298	15458
844.435	15344
844.571	15207
844.708	15359
844.844	15519
844.98	15458
845.117	15359
845.253	15294
845.389	15218
845.525	15233
845.661	15237
845.798	15146
845.934	15203
846.07	15089
846.206	15085
846.342	15226
846.478	15116
846.614	14941
846.75	14861
846.886	14823
847.022	14941
847.158	14925
847.294	14941
847.429	14880
847.565	14902
847.701	15119
847.837	14602
847.972	14473
848.108	14735
848.244	14731
848.379	14598
848.515	14552
848.65	14431
848.786	14480
848.921	14461
849.057	14571
849.192	14640
849.328	14552
849.463	14492
849.598	14415
849.734	14431
849.869	14495
850.004	14328
850.14	14256
850.275	14221
850.41	14168
850.545	14259
850.68	14202
850.815	14271
850.95	14313
851.085	14423
851.22	14355
851.355	14240
851.49	14191
851.625	14210
851.76	14210
851.895	14126
852.03	14168
852.165	14218
852.299	14317
852.434	14362
852.569	14282
852.703	14301
852.838	14351
852.973	14408
853.107	14427
853.242	14187
853.376	14248
853.511	13997
853.645	14096
853.78	14259
853.914	14100
854.048	14115
854.183	14065
854.317	14123
854.451	14218
854.585	14027
854.72	14103
854.854	14187
854.988	14031
855.122	13989
855.256	13947
855.39	14062
855.524	14282
855.658	14176
855.792	14172
855.926	14290
856.06	14183
856.194	14278
856.327	14199
856.461	14008
856.595	14069
856.729	14138
856.862	14168
856.996	14115
857.13	14172
857.263	14240
857.397	14252
857.53	14119
857.664	14183
857.797	14180
857.931	14309
858.064	14176
858.197	14259
858.331	14172
858.464	14111
858.597	13970
858.731	14069
858.864	14111
858.997	14073
859.13	14161
859.263	14126
859.396	14142
859.529	14084
859.662	14092
859.795	14100
859.928	14126
860.061	14332
860.194	14225
860.327	14149
860.46	14123
860.592	14271
860.725	14347
860.858	14180
860.99	14130
861.123	14001
861.256	14050
861.388	14180
861.521	14887
861.653	14031
861.786	13989
861.918	14107
862.05	14073
862.183	14183
862.315	14088
862.447	14027
862.58	14065
862.712	13955
862.844	13890
862.976	13951
863.108	13963
863.24	14419
863.372	13753
863.504	13894
863.636	13864
863.768	13909
863.9	13830
864.032	13822
864.164	13898
864.296	13845
864.428	14031
864.559	14016
864.691	13932
864.823	13978
864.954	13925
865.086	13936
865.217	13951
865.349	13841
865.48	13898
865.612	13906
865.743	13967
865.875	13921
866.006	13894
866.137	13925
866.269	13913
866.4	13822
866.531	13845
866.662	13902
866.793	13925
866.924	13860
867.055	13921
867.186	13989
867.317	13837
867.448	13879
867.579	13898
867.71	13864
867.841	13818
867.972	13921
868.103	13883
868.233	13856
868.364	13837
868.495	13959
868.625	14088
868.756	14176
868.886	14069
869.017	14145
869.147	14324
869.278	14225
869.408	14138
869.539	14191
869.669	14202
869.799	14237
869.929	14225
870.06	14195
870.19	14526
870.32	14404
870.45	14450
870.58	14465
870.71	14686
870.84	14613
870.97	14571
871.1	14465
871.23	14785
871.36	14743
871.489	14594
871.619	14659
871.749	14724
871.879	14788
872.008	14872
872.138	14724
872.267	14689
872.397	14644
872.526	14545
872.656	14530
872.785	14617
872.915	14902
873.044	14861
873.173	14731
873.303	14845
873.432	14823
873.561	14804
873.69	14868
873.819	14819
873.948	14838
874.077	14811
874.206	14765
874.335	14918
874.464	14895
874.593	15123
874.722	15036
874.851	15173
874.979	15211
875.108	15207
875.237	14998
875.365	15097
875.494	14986
875.623	15268
875.751	15093
875.88	15070
876.008	15211
876.136	15321
876.265	15549
876.393	15713
876.521	15694
876.65	15743
876.778	15549
876.906	15462
877.034	15466
877.162	15511
877.29	15500
877.418	15614
877.546	15500
877.674	15572
877.802	15519
877.93	15572
878.058	15572
878.185	15363
878.313	15469
878.441	15515
878.568	15485
878.696	15420
878.824	15561
878.951	15660
879.079	15762
879.206	15808
879.333	15686
879.461	15595
879.588	15694
879.715	15732
879.842	15778
879.97	15675
880.097	15351
880.224	15268
880.351	15416
880.478	15340
880.605	15439
880.732	15363
880.859	15705
880.986	15439
881.112	15408
881.239	15336
881.366	15154
881.493	15093
881.619	15039
881.746	15142
881.872	14914
881.999	14944
882.125	14982
882.252	15127
882.378	15119
882.505	15165
882.631	15043
882.757	14864
882.883	14960
883.01	14925
883.136	14796
883.262	14667
883.388	14632
883.514	14921
883.64	14826
883.766	14823
883.892	14701
884.018	14697
884.143	14785
884.269	14986
884.395	14682
884.52	14575
884.646	14526
884.772	14408
884.897	14465
885.023	14522
885.148	14590
885.274	14781
885.399	14651
885.524	14511
885.65	14530
885.775	14564
885.9	14530
886.025	14701
886.15	14625
886.275	14556
886.4	14446
886.525	14476
886.65	14396
886.775	14389
886.9	14629
887.025	14883
887.149	14511
887.274	14377
887.399	14393
887.523	14393
887.648	14431
887.773	14389
887.897	14408
888.021	14412
888.146	14370
888.27	14530
888.395	14560
888.519	14454
888.643	14469
888.767	14499
888.891	14362
889.015	14278
889.139	14278
889.263	14259
889.387	14309
889.511	14427
889.635	14343
889.759	14248
889.883	14214
890.006	14328
890.13	14358
890.254	14142
890.377	14305
890.501	14024
890.624	14096
890.748	14191
890.871	14008
890.995	13963
891.118	13887
891.241	13986
891.364	13902
891.488	13982
891.611	13822
891.734	13906
891.857	14020
891.98	14035
892.103	14043
892.226	13970
892.349	13963
892.471	13856
892.594	13909
892.717	14039
892.839	13936
892.962	14027
893.085	14077
893.207	13944
893.33	13898
893.452	13913
893.575	13947
893.697	13879
893.819	14142
893.941	14195
894.064	14138
894.186	13970
894.308	13963
894.43	14199
894.552	14107
894.674	14100
894.796	13830
894.918	14126
895.04	14084
895.161	14084
895.283	14069
895.405	13993
895.526	14081
895.648	14065
895.769	14062
895.891	14157
896.012	14225
896.134	14077
896.255	14145
896.376	14103
896.498	14176
896.619	14256
896.74	14256
896.861	14164
896.982	14507
897.103	14678
897.224	14484
897.345	14381
897.466	14362
897.587	14408
897.708	14476
897.828	14499
897.949	14434
898.07	14252
898.19	14374
898.311	14552
898.431	14427
898.552	14446
898.672	14613
898.792	14560
898.913	14560
899.033	14396
899.153	14362
899.273	14195
899.393	14298
899.513	14332
899.633	14351
899.753	14358
899.873	14419
899.993	14442
900.113	14385
900.232	14446
900.352	14290
900.472	14263
900.591	14096
900.711	14183
900.83	14138
900.95	14317
901.069	14282
901.189	14096
901.308	13917
901.427	13788
901.546	13887
901.665	13909
901.784	13856
901.904	13837
902.023	13681
902.141	13518
902.26	13400
902.379	13476
902.498	13445
902.617	13472
902.735	13529
902.854	13472
902.973	13411
903.091	13190
903.21	13065
903.328	13198
903.446	13114
903.565	13072
903.683	13091
903.801	12935
903.919	13027
904.038	13000
904.156	12840
904.274	13012
904.392	12894
904.51	12787
904.627	12894
904.745	12897
904.863	12947
904.981	12662
905.098	12544
905.216	12547
905.334	12525
905.451	12582
905.569	12612
905.686	12570
905.803	12521
905.921	12376
906.038	12555
906.155	12323
906.272	12228
906.389	12270
906.506	12045
906.623	12175
906.74	12076
906.857	12045
906.974	12022
907.091	12175
907.208	12251
907.324	12129
907.441	12091
907.557	11882
907.674	11912
907.79	11832
907.907	11908
908.023	11969
908.139	11874
908.256	11904
908.372	11798
908.488	11805
908.604	11680
908.72	11657
908.836	11589
908.952	11615
909.068	11688
909.184	11775
909.3	11710
909.415	11680
909.531	11668
909.647	11482
909.762	11436
909.878	11406
909.993	11425
910.108	11421
910.224	11387
910.339	11516
910.454	11296
910.57	11330
910.685	11155
910.8	11539
910.915	11417
911.03	11341
911.145	11185
911.259	11124
911.374	11159
911.489	11064
911.604	11018
911.718	10820
911.833	10873
911.947	10831
912.062	10706
912.176	10854
912.291	10889
912.405	10831
912.519	11189
912.633	11090
912.748	11010
912.862	11018
912.976	10774
913.09	10584
913.204	10691
913.318	10740
913.431	10930
913.545	10812
913.659	10889
913.772	10812
913.886	10603
914	10550
914.113	10736
914.226	10828
914.34	10687
914.453	10607
914.566	10767
914.68	10516
914.793	10584
914.906	10356
915.019	10367
915.132	10314
915.245	10299
915.358	10348
915.47	10398
915.583	10459
915.696	10417
915.809	10516
915.921	10550
916.034	10367
916.146	10318
916.259	10341
916.371	10440
916.483	10409
916.595	10310
916.708	10337
916.82	10299
916.932	10329
917.044	10390
917.156	10295
917.268	10215
917.38	10207
917.491	10272
917.603	10295
917.715	10234
917.826	10310
917.938	10223
918.049	10173
918.161	10249
918.272	10405
918.384	10382
918.495	10246
918.606	10082
918.717	10074
918.828	10143
918.939	10101
919.05	10013
919.161	10006
919.272	9930
919.383	10017
919.494	10215
919.604	10367
919.715	10166
919.826	10101
919.936	10109
920.047	10154
920.157	10109
920.267	10337
920.378	10162
920.488	10109
920.598	10303
920.708	10466
920.818	10325
920.928	10287
921.038	10409
921.148	10428
921.258	10135
921.368	10040
921.477	10002
921.587	9945
921.697	9892
921.806	9968
921.916	9846
922.025	9717
922.134	9637
922.244	9660
922.353	9709
922.462	9606
922.571	9519
922.68	9424
922.789	9351
922.898	9367
923.007	9367
923.116	9393
923.224	9405
923.333	9306
923.442	9237
923.55	9275
923.659	9264
923.767	9336
923.876	9203
923.984	9226
924.092	9173
924.201	9222
924.309	9283
924.417	9214
924.525	9214
924.633	9211
924.741	10128
924.849	9055
924.956	9211
925.064	9047
925.172	9032
925.279	9001
925.387	9112
925.494	9062
925.602	9241
925.709	9123
925.816	9020
925.924	9100
926.031	9108
926.138	9005
926.245	9047
926.352	9028
926.459	9127
926.566	9150
926.673	9028
926.779	8887
926.886	8937
926.993	8804
927.099	8735
927.206	8659
927.312	8716
927.419	8845
927.525	8727
927.631	8830
927.737	8670
927.843	8575
927.95	8617
928.056	8693
928.162	8617
928.267	8670
928.373	9325
928.479	8766
928.585	8518
928.69	8640
928.796	8743
928.901	8518
929.007	8400
929.112	8587
929.218	8556
929.323	8457
929.428	8465
929.533	8625
929.638	8415
929.743	8465
929.848	8552
929.953	8495
930.058	8419
930.163	8259
930.267	8259
930.372	8374
930.477	8221
930.581	8385
930.685	8377
930.79	8172
930.894	8195
930.998	8168
931.103	8336
931.207	8035
931.311	7928
931.415	7887
931.519	7651
931.623	7712
