Data from test_V78500241_2416.txt Node
Date: Fri Mar 25 14:50:32 CST 2022
User: usil
Spectrometer: V785-0024
Trigger mode: 0
Integration Time (sec): 4.000000E-1
Scans to average: 1
Nonlinearity correction enabled: false
Boxcar width: 0
Storing dark spectrum: false
XAxis mode: Wavelengths
Number of Pixels in Spectrum: 1024
>>>>>Begin Spectral Data<<<<<
801.071	22158
801.214	22002
801.356	21808
801.499	21667
801.641	21526
801.783	21458
801.926	21473
802.068	21401
802.211	21405
802.353	21245
802.496	20982
802.638	20960
802.78	20857
802.923	20826
803.065	20735
803.208	20727
803.35	20887
803.492	20823
803.635	20853
803.777	20811
803.919	21066
804.061	21199
804.204	20910
804.346	20785
804.488	20727
804.63	20811
804.773	20762
804.915	20819
805.057	20861
805.199	20773
805.341	20773
805.483	20994
805.626	20731
805.768	20648
805.91	20697
806.052	20731
806.194	20583
806.336	20845
806.478	20830
806.62	20674
806.762	20750
806.904	20796
807.046	21214
807.188	20994
807.33	21127
807.472	21176
807.614	20921
807.756	21001
807.898	20796
808.04	20762
808.182	20765
808.324	20800
808.465	20804
808.607	20998
808.749	21142
808.891	21294
809.033	21264
809.174	21131
809.316	21127
809.458	21062
809.6	21169
809.741	21203
809.883	21169
810.025	21283
810.166	21230
810.308	21317
810.45	21154
810.591	21096
810.733	20944
810.875	20982
811.016	20743
811.158	20910
811.299	20948
811.441	21017
811.582	21024
811.724	20868
811.865	20887
812.007	20842
812.148	20823
812.29	20944
812.431	21074
812.573	21074
812.714	21268
812.855	21321
812.997	21530
813.138	21610
813.279	21549
813.421	21420
813.562	21268
813.703	21123
813.845	20998
813.986	20750
814.127	20727
814.268	20590
814.41	20560
814.551	20320
814.692	20518
814.833	20396
814.974	20431
815.115	20377
815.256	20286
815.397	20343
815.539	20271
815.68	20237
815.821	20119
815.962	20107
816.103	20202
816.244	20024
816.385	19894
816.526	19913
816.666	19666
816.807	19715
816.948	19681
817.089	19613
817.23	19620
817.371	19613
817.512	19571
817.653	19586
817.793	19518
817.934	19609
818.075	19594
818.216	19499
818.356	19506
818.497	19362
818.638	19228
818.778	19190
818.919	19202
819.06	19308
819.2	19468
819.341	19422
819.481	19426
819.622	19708
819.762	19822
819.903	19666
820.043	19658
820.184	19761
820.324	19510
820.465	19521
820.605	19582
820.746	19628
820.886	19343
821.026	19525
821.167	19590
821.307	19544
821.447	19472
821.588	19476
821.728	19308
821.868	19152
822.008	18920
822.149	18932
822.289	18894
822.429	18722
822.569	18639
822.709	18498
822.849	18433
822.99	18506
823.13	18452
823.27	18365
823.41	18273
823.55	18194
823.69	18258
823.83	18194
823.97	18163
824.11	18068
824.25	18011
824.389	17878
824.529	18163
824.669	17980
824.809	18194
824.949	18015
825.089	18079
825.228	18007
825.368	17840
825.508	17859
825.648	17870
825.787	17843
825.927	17942
826.067	17710
826.206	17809
826.346	17866
826.485	17760
826.625	17710
826.765	17908
826.904	17870
827.044	17570
827.183	17634
827.323	17467
827.462	17570
827.601	17364
827.741	17444
827.88	17467
828.02	17368
828.159	17368
828.298	17455
828.437	17570
828.577	17414
828.716	17482
828.855	17425
828.994	17322
829.134	17265
829.273	17322
829.412	17147
829.551	17181
829.69	17235
829.829	17231
829.968	17326
830.107	17345
830.246	17140
830.385	17086
830.524	17193
830.663	17048
830.802	16923
830.941	16854
831.08	16812
831.219	16953
831.357	16877
831.496	16987
831.635	16824
831.774	16824
831.913	16752
832.051	16630
832.19	16729
832.329	16710
832.467	16493
832.606	16588
832.744	16474
832.883	16516
833.022	16538
833.16	16554
833.299	16558
833.437	16519
833.576	16478
833.714	16573
833.852	16634
833.991	16626
834.129	16592
834.267	16596
834.406	16584
834.544	16561
834.682	16622
834.821	16489
834.959	16733
835.097	16660
835.235	16626
835.373	16500
835.511	16558
835.65	16459
835.788	16535
835.926	16318
836.064	16322
836.202	16344
836.34	16558
836.478	16542
836.615	16466
836.753	16474
836.891	16527
837.029	16462
837.167	16531
837.305	16405
837.443	16367
837.58	16344
837.718	16398
837.856	16348
837.993	16207
838.131	16344
838.269	16253
838.406	16287
838.544	16230
838.681	16192
838.819	16036
838.956	15812
839.094	15857
839.231	16025
839.369	16040
839.506	16185
839.643	16116
839.781	15854
839.918	15831
840.055	15876
840.193	15941
840.33	15781
840.467	15884
840.604	15903
840.742	16097
840.879	15759
841.016	15846
841.153	15797
841.29	15937
841.427	15880
841.564	15918
841.701	15922
841.838	15819
841.975	15808
842.112	15755
842.249	15747
842.385	15701
842.522	15778
842.659	15720
842.796	15667
842.933	15679
843.069	15610
843.206	15614
843.343	15789
843.479	15686
843.616	15720
843.752	15458
843.889	15458
844.025	15568
844.162	15405
844.298	15511
844.435	15473
844.571	15424
844.708	15561
844.844	15717
844.98	15568
845.117	15568
845.253	15450
845.389	15412
845.525	15420
845.661	15386
845.798	15268
845.934	15325
846.07	15260
846.206	15329
846.342	15389
846.478	15260
846.614	15100
846.75	15047
846.886	14921
847.022	15135
847.158	15055
847.294	15013
847.429	15001
847.565	15005
847.701	15264
847.837	14762
847.972	14701
848.108	14948
848.244	14895
848.379	14556
848.515	14640
848.65	14571
848.786	14648
848.921	14739
849.057	14758
849.192	14701
849.328	14674
849.463	14629
849.598	14674
849.734	14503
849.869	14518
850.004	14507
850.14	14427
850.275	14400
850.41	14317
850.545	14336
850.68	14370
850.815	14488
850.95	14339
851.085	14598
851.22	14530
851.355	14427
851.49	14362
851.625	14446
851.76	14427
851.895	14256
852.03	14233
852.165	14381
852.299	14423
852.434	14400
852.569	14400
852.703	14476
852.838	14598
852.973	14663
853.107	14507
853.242	14320
853.376	14320
853.511	14176
853.645	14309
853.78	14404
853.914	14309
854.048	14317
854.183	14301
854.317	14290
854.451	14450
854.585	14259
854.72	14210
854.854	14294
854.988	14275
855.122	14347
855.256	14195
855.39	14374
855.524	14313
855.658	14309
855.792	14309
855.926	14355
856.06	14419
856.194	14507
856.327	14328
856.461	14271
856.595	14286
856.729	14286
856.862	14476
856.996	14298
857.13	14332
857.263	14355
857.397	14389
857.53	14290
857.664	14343
857.797	14503
857.931	14328
858.064	14389
858.197	14358
858.331	14400
858.464	14313
858.597	14195
858.731	14290
858.864	14278
858.997	14180
859.13	14278
859.263	14328
859.396	14423
859.529	14233
859.662	14240
859.795	14180
859.928	14370
860.061	14396
860.194	14473
860.327	14309
860.46	14210
860.592	14336
860.725	14370
860.858	14347
860.99	14328
861.123	14199
861.256	14305
861.388	14351
861.521	14921
861.653	14195
861.786	14107
861.918	14130
862.05	14214
862.183	14267
862.315	14370
862.447	14358
862.58	14161
862.712	14073
862.844	13989
862.976	14092
863.108	14157
863.24	14419
863.372	13974
863.504	14069
863.636	14081
863.768	14172
863.9	14069
864.032	13997
864.164	14115
864.296	14020
864.428	14229
864.559	14218
864.691	14275
864.823	14069
864.954	14088
865.086	14199
865.217	14088
865.349	14020
865.48	14012
865.612	14039
865.743	14259
865.875	14138
866.006	13997
866.137	14027
866.269	14027
866.4	14016
866.531	13978
866.662	14020
866.793	13951
866.924	14005
867.055	14084
867.186	14111
867.317	14035
867.448	13906
867.579	13978
867.71	14062
867.841	13909
867.972	14168
868.103	14092
868.233	14088
868.364	14012
868.495	14161
868.625	14332
868.756	14389
868.886	14191
869.017	14336
869.147	14381
869.278	14393
869.408	14271
869.539	14332
869.669	14366
869.799	14427
869.929	14385
870.06	14442
870.19	14583
870.32	14663
870.45	14541
870.58	14583
870.71	14838
870.84	14876
870.97	14640
871.1	14731
871.23	14902
871.36	14941
871.489	14727
871.619	14872
871.749	14925
871.879	15005
872.008	15062
872.138	14880
872.267	14937
872.397	14830
872.526	14712
872.656	14739
872.785	14758
872.915	14880
873.044	14979
873.173	15028
873.303	14994
873.432	14967
873.561	15131
873.69	14998
873.819	14948
873.948	14975
874.077	14952
874.206	14929
874.335	14967
874.464	15062
874.593	15260
874.722	15135
874.851	15279
874.979	15279
875.108	15264
875.237	15165
875.365	15207
875.494	15218
875.623	15374
875.751	15222
875.88	15321
876.008	15389
876.136	15511
876.265	15656
876.393	15804
876.521	15679
876.65	15671
876.778	15618
876.906	15641
877.034	15675
877.162	15686
877.29	15534
877.418	15644
877.546	15648
877.674	15641
877.802	15682
877.93	15690
878.058	15682
878.185	15549
878.313	15667
878.441	15656
878.568	15504
878.696	15633
878.824	15629
878.951	15690
879.079	15827
879.206	16021
879.333	15869
879.461	15869
879.588	15755
879.715	15873
879.842	15884
879.97	15709
880.097	15492
880.224	15553
880.351	15641
880.478	15610
880.605	15473
880.732	15572
880.859	15770
880.986	15614
881.112	15572
881.239	15447
881.366	15169
881.493	15256
881.619	15138
881.746	15203
881.872	15146
881.999	15127
882.125	15188
882.252	15173
882.378	15222
882.505	15374
882.631	15154
882.757	15135
882.883	15005
883.01	15013
883.136	14826
883.262	14845
883.388	14891
883.514	14944
883.64	15036
883.766	14914
883.892	14861
884.018	14842
884.143	14963
884.269	15074
884.395	14823
884.52	14651
884.646	14655
884.772	14640
884.897	14552
885.023	14773
885.148	14785
885.274	14925
885.399	14918
885.524	14762
885.65	14705
885.775	14644
885.9	14750
886.025	14735
886.15	14792
886.275	14636
886.4	14689
886.525	14568
886.65	14602
886.775	14659
886.9	14811
887.025	15020
887.149	14648
887.274	14511
887.399	14560
887.523	14507
887.648	14480
887.773	14469
887.897	14579
888.021	14674
888.146	14476
888.27	14613
888.395	14560
888.519	14579
888.643	14549
888.767	14629
888.891	14537
889.015	14450
889.139	14355
889.263	14328
889.387	14488
889.511	14678
889.635	14549
889.759	14488
889.883	14355
890.006	14332
890.13	14549
890.254	14248
890.377	14370
890.501	14180
890.624	14157
890.748	14267
890.871	14202
890.995	14081
891.118	14073
891.241	14145
891.364	14126
891.488	14237
891.611	14012
891.734	14119
891.857	14214
891.98	14096
892.103	14180
892.226	14153
892.349	14054
892.471	13947
892.594	14073
892.717	14077
892.839	14164
892.962	14046
893.085	14149
893.207	14103
893.33	13986
893.452	13947
893.575	14126
893.697	14142
893.819	14305
893.941	14290
894.064	14221
894.186	14092
894.308	14035
894.43	14252
894.552	14408
894.674	14233
894.796	14103
894.918	14142
895.04	14054
895.161	14317
895.283	14225
895.405	14084
895.526	14248
895.648	14313
895.769	14199
895.891	14206
896.012	14377
896.134	14313
896.255	14305
896.376	14221
896.498	14320
896.619	14351
896.74	14214
896.861	14294
896.982	14571
897.103	14731
897.224	14571
897.345	14499
897.466	14438
897.587	14530
897.708	14712
897.828	14613
897.949	14499
898.07	14328
898.19	14400
898.311	14648
898.431	14648
898.552	14594
898.672	14697
898.792	14701
898.913	14655
899.033	14545
899.153	14427
899.273	14393
899.393	14473
899.513	14461
899.633	14415
899.753	14518
899.873	14469
899.993	14541
900.113	14575
900.232	14556
900.352	14423
900.472	14415
900.591	14256
900.711	14301
900.83	14389
900.95	14507
901.069	14404
901.189	14267
901.308	13989
901.427	13944
901.546	13997
901.665	14100
901.784	13978
901.904	13902
902.023	13868
902.141	13670
902.26	13556
902.379	13636
902.498	13586
902.617	13510
902.735	13624
902.854	13521
902.973	13578
903.091	13331
903.21	13251
903.328	13255
903.446	13244
903.565	13236
903.683	13095
903.801	13183
903.919	12973
904.038	13145
904.156	13008
904.274	13145
904.392	13038
904.51	12837
904.627	12993
904.745	12993
904.863	13000
904.981	12791
905.098	12654
905.216	12726
905.334	12692
905.451	12646
905.569	12604
905.686	12719
905.803	12681
905.921	12467
906.038	12627
906.155	12509
906.272	12376
906.389	12414
906.506	12273
906.623	12262
906.74	12243
906.857	12129
906.974	12194
907.091	12292
907.208	12429
907.324	12304
907.441	12163
907.557	11958
907.674	11965
907.79	11904
907.907	11942
908.023	12015
908.139	12072
908.256	11923
908.372	11939
908.488	11878
908.604	11764
908.72	11699
908.836	11794
908.952	11764
909.068	11840
909.184	11859
909.3	11646
909.415	11775
909.531	11783
909.647	11501
909.762	11509
909.878	11516
909.993	11524
910.108	11463
910.224	11520
910.339	11433
910.454	11421
910.57	11364
910.685	11239
910.8	11509
910.915	11490
911.03	11429
911.145	11212
911.259	11174
911.374	11197
911.489	11140
911.604	11117
911.718	10965
911.833	10911
911.947	10835
912.062	10843
912.176	10919
912.291	10972
912.405	10911
912.519	11124
912.633	11212
912.748	11071
912.862	11003
912.976	10839
913.09	10706
913.204	10801
913.318	10828
913.431	10976
913.545	10972
913.659	10953
913.772	10862
913.886	10786
914	10694
914.113	10809
914.226	10858
914.34	10824
914.453	10675
914.566	10847
914.68	10675
914.793	10679
914.906	10573
915.019	10459
915.132	10371
915.245	10462
915.358	10516
915.47	10516
915.583	10504
915.696	10504
915.809	10672
915.921	10626
916.034	10466
916.146	10390
916.259	10504
916.371	10584
916.483	10508
916.595	10409
916.708	10512
916.82	10478
916.932	10379
917.044	10363
917.156	10333
917.268	10291
917.38	10318
917.491	10261
917.603	10360
917.715	10413
917.826	10394
917.938	10386
918.049	10246
918.161	10318
918.272	10402
918.384	10447
918.495	10379
918.606	10219
918.717	10139
918.828	10215
918.939	10204
919.05	10200
919.161	10173
919.272	10002
919.383	10040
919.494	10246
919.604	10402
919.715	10249
919.826	10131
919.936	10211
920.047	10268
920.157	10204
920.267	10432
920.378	10230
920.488	10200
920.598	10455
920.708	10561
920.818	10379
920.928	10371
921.038	10538
921.148	10436
921.258	10265
921.368	10162
921.477	10086
921.587	10082
921.697	9911
921.806	10078
921.916	10032
922.025	9812
922.134	9740
922.244	9724
922.353	9835
922.462	9587
922.571	9580
922.68	9496
922.789	9382
922.898	9473
923.007	9389
923.116	9538
923.224	9568
923.333	9393
923.442	9344
923.55	9336
923.659	9431
923.767	9412
923.876	9321
923.984	9431
924.092	9340
924.201	9332
924.309	9393
924.417	9393
924.525	9374
924.633	9348
924.741	10036
924.849	9074
924.956	9199
925.064	9173
925.172	9017
925.279	9058
925.387	9173
925.494	9135
925.602	9176
925.709	9192
925.816	9104
925.924	9127
926.031	9203
926.138	9173
926.245	9272
926.352	8960
926.459	9131
926.566	9214
926.673	9066
926.779	9032
926.886	9058
926.993	8937
927.099	8823
927.206	8796
927.312	8758
927.419	8876
927.525	8872
927.631	8948
927.737	8689
927.843	8720
927.95	8541
928.056	8788
928.162	8746
928.267	8807
928.373	9382
928.479	8804
928.585	8575
928.69	8762
928.796	8689
928.901	8644
929.007	8552
929.112	8644
929.218	8682
929.323	8579
929.428	8541
929.533	8594
929.638	8488
929.743	8545
929.848	8564
929.953	8495
930.058	8389
930.163	8282
930.267	8317
930.372	8476
930.477	8275
930.581	8518
930.685	8484
930.79	8218
930.894	8320
930.998	8233
931.103	8374
931.207	8027
931.311	8020
931.415	7898
931.519	7731
931.623	7761
