Data from test_V78500241_371.txt Node
Date: Fri Mar 25 14:36:18 CST 2022
User: usil
Spectrometer: V785-0024
Trigger mode: 0
Integration Time (sec): 4.000000E-1
Scans to average: 1
Nonlinearity correction enabled: false
Boxcar width: 0
Storing dark spectrum: false
XAxis mode: Wavelengths
Number of Pixels in Spectrum: 1024
>>>>>Begin Spectral Data<<<<<
801.071	26842
801.214	26697
801.356	26514
801.499	26461
801.641	26187
801.783	26214
801.926	26199
802.068	26153
802.211	26126
802.353	25989
802.496	25833
802.638	25833
802.78	25909
802.923	25746
803.065	25620
803.208	25628
803.35	25655
803.492	25746
803.635	25746
803.777	25830
803.919	25799
804.061	25986
804.204	25928
804.346	25708
804.488	25757
804.63	25833
804.773	25601
804.915	25803
805.057	25864
805.199	25822
805.341	25769
805.483	25875
805.626	25833
805.768	25750
805.91	25723
806.052	25734
806.194	25731
806.336	25959
806.478	25883
806.62	25734
806.762	25822
806.904	26039
807.046	26290
807.188	26103
807.33	26077
807.472	26233
807.614	26191
807.756	26195
807.898	25986
808.04	25860
808.182	25890
808.324	25947
808.465	26016
808.607	26206
808.749	26332
808.891	26355
809.033	26503
809.174	26309
809.316	26309
809.458	26252
809.6	26187
809.741	26199
809.883	26317
810.025	26438
810.166	26507
810.308	26301
810.45	26552
810.591	26263
810.733	26180
810.875	26191
811.016	26134
811.158	26001
811.299	26191
811.441	26180
811.582	26366
811.724	26069
811.865	26046
812.007	26035
812.148	26145
812.29	26221
812.431	26115
812.573	26396
812.714	26457
812.855	26484
812.997	26716
813.138	26792
813.279	26773
813.421	26651
813.562	26552
813.703	26476
813.845	26278
813.986	25963
814.127	25830
814.268	25651
814.41	25700
814.551	25712
814.692	25693
814.833	25540
814.974	25670
815.115	25533
815.256	25548
815.397	25677
815.539	25552
815.68	25434
815.821	25445
815.962	25487
816.103	25320
816.244	25095
816.385	25103
816.526	25012
816.666	25061
816.807	24871
816.948	24867
817.089	24848
817.23	24878
817.371	24935
817.512	24875
817.653	24916
817.793	24703
817.934	24802
818.075	24772
818.216	24844
818.356	24787
818.497	24513
818.638	24593
818.778	24502
818.919	24574
819.06	24601
819.2	24741
819.341	24700
819.481	24707
819.622	24856
819.762	24992
819.903	24844
820.043	24970
820.184	24779
820.324	24924
820.465	24779
820.605	24779
820.746	24871
820.886	24563
821.026	24757
821.167	24722
821.307	24798
821.447	24688
821.588	24707
821.728	24498
821.868	24266
822.008	24121
822.149	24038
822.289	24136
822.429	23973
822.569	23828
822.709	23893
822.849	23573
822.99	23596
823.13	23630
823.27	23520
823.41	23345
823.55	23356
823.69	23402
823.83	23349
823.97	23239
824.11	23174
824.25	23044
824.389	23090
824.529	23090
824.669	23242
824.809	23212
824.949	23242
825.089	23235
825.228	23204
825.368	22957
825.508	22968
825.648	22915
825.787	22927
825.927	23037
826.067	23010
826.206	22953
826.346	22816
826.485	22946
826.625	22911
826.765	22850
826.904	22866
827.044	22778
827.183	22679
827.323	22615
827.462	22641
827.601	22668
827.741	22611
827.88	22698
828.02	22485
828.159	22630
828.298	22615
828.437	22645
828.577	22531
828.716	22706
828.855	22596
828.994	22276
829.134	22272
829.273	22367
829.412	22246
829.551	22246
829.69	22280
829.829	22306
829.968	22394
830.107	22207
830.246	22344
830.385	22329
830.524	22177
830.663	22078
830.802	22010
830.941	21861
831.08	21842
831.219	21854
831.357	21861
831.496	22032
831.635	21873
831.774	21842
831.913	21713
832.051	21633
832.19	21637
832.329	21705
832.467	21534
832.606	21496
832.744	21477
832.883	21583
833.022	21519
833.16	21428
833.299	21504
833.437	21431
833.576	21641
833.714	21641
833.852	21576
833.991	21545
834.129	21656
834.267	21660
834.406	21443
834.544	21534
834.682	21542
834.821	21534
834.959	21667
835.097	21351
835.235	21576
835.373	21583
835.511	21545
835.65	21348
835.788	21435
835.926	21157
836.064	21203
836.202	21268
836.34	21355
836.478	21447
836.615	21207
836.753	21310
836.891	21526
837.029	21401
837.167	21313
837.305	21355
837.443	21241
837.58	21112
837.718	21424
837.856	21188
837.993	21207
838.131	21332
838.269	21051
838.406	21051
838.544	21192
838.681	20781
838.819	20948
838.956	20785
839.094	20678
839.231	20762
839.369	20743
839.506	21039
839.643	20773
839.781	20632
839.918	20625
840.055	20575
840.193	20678
840.33	20560
840.467	20575
840.604	20697
840.742	20868
840.879	20396
841.016	20541
841.153	20473
841.29	20564
841.427	20575
841.564	20644
841.701	20476
841.838	20549
841.975	20465
842.112	20522
842.249	20358
842.385	20290
842.522	20469
842.659	20290
842.796	20282
842.933	20328
843.069	20317
843.206	20256
843.343	20393
843.479	20248
843.616	20305
843.752	19997
843.889	20107
844.025	20172
844.162	20065
844.298	20073
844.435	20077
844.571	20050
844.708	20081
844.844	20256
844.98	20100
845.117	20122
845.253	20020
845.389	19879
845.525	19940
845.661	19898
845.798	19868
845.934	19868
846.07	19784
846.206	19826
846.342	19921
846.478	19849
846.614	19685
846.75	19445
846.886	19457
847.022	19700
847.158	19655
847.294	19578
847.429	19499
847.565	19472
847.701	19780
847.837	19324
847.972	19331
848.108	19282
848.244	19350
848.379	19179
848.515	19008
848.65	19145
848.786	19091
848.921	19053
849.057	19183
849.192	19240
849.328	19012
849.463	18962
849.598	18966
849.734	18905
849.869	18981
850.004	18958
850.14	18932
850.275	18772
850.41	18779
850.545	18707
850.68	18817
850.815	18829
850.95	18916
851.085	18989
851.22	18871
851.355	18779
851.49	18768
851.625	18833
851.76	18730
851.895	18760
852.03	18692
852.165	18696
852.299	18776
852.434	18848
852.569	18833
852.703	18757
852.838	18821
852.973	18913
853.107	18894
853.242	18829
853.376	18684
853.511	18601
853.645	18467
853.78	18791
853.914	18642
854.048	18582
854.183	18502
854.317	18707
854.451	18760
854.585	18593
854.72	18585
854.854	18684
854.988	18563
855.122	18528
855.256	18448
855.39	18620
855.524	18715
855.658	18711
855.792	18673
855.926	18730
856.06	18627
856.194	18829
856.327	18658
856.461	18627
856.595	18517
856.729	18525
856.862	18772
856.996	18707
857.13	18703
857.263	18646
857.397	18715
857.53	18597
857.664	18650
857.797	18730
857.931	18722
858.064	18604
858.197	18726
858.331	18623
858.464	18532
858.597	18521
858.731	18616
858.864	18528
858.997	18612
859.13	18738
859.263	18593
859.396	18642
859.529	18521
859.662	18620
859.795	18597
859.928	18559
860.061	18867
860.194	18837
860.327	18570
860.46	18597
860.592	18722
860.725	18658
860.858	18791
860.99	18585
861.123	18551
861.256	18544
861.388	18612
861.521	19411
861.653	18494
861.786	18429
861.918	18551
862.05	18612
862.183	18517
862.315	18696
862.447	18654
862.58	18486
862.712	18494
862.844	18372
862.976	18448
863.108	18300
863.24	18924
863.372	18292
863.504	18311
863.636	18395
863.768	18384
863.9	18292
864.032	18159
864.164	18258
864.296	18201
864.428	18391
864.559	18395
864.691	18429
864.823	18319
864.954	18296
865.086	18277
865.217	18277
865.349	18270
865.48	18254
865.612	18224
865.743	18315
865.875	18346
866.006	18186
866.137	18319
866.269	18350
866.4	18133
866.531	18224
866.662	18232
866.793	18114
866.924	18209
867.055	18186
867.186	18235
867.317	18194
867.448	18011
867.579	18163
867.71	18038
867.841	18144
867.972	18205
868.103	18201
868.233	18216
868.364	18114
868.495	18289
868.625	18410
868.756	18475
868.886	18376
869.017	18464
869.147	18441
869.278	18506
869.408	18429
869.539	18426
869.669	18517
869.799	18471
869.929	18445
870.06	18467
870.19	18764
870.32	18661
870.45	18688
870.58	18878
870.71	18901
870.84	18867
870.97	18852
871.1	18722
871.23	18989
871.36	19088
871.489	19034
871.619	19023
871.749	18947
871.879	19099
872.008	19187
872.138	18882
872.267	19034
872.397	18848
872.526	18760
872.656	18772
872.785	18821
872.915	19012
873.044	19240
873.173	19031
873.303	19046
873.432	19084
873.561	19221
873.69	19042
873.819	19050
873.948	19050
874.077	19038
874.206	18966
874.335	18966
874.464	19107
874.593	19247
874.722	19206
874.851	19381
874.979	19289
875.108	19434
875.237	19263
875.365	19343
875.494	19369
875.623	19445
875.751	19285
875.88	19217
876.008	19415
876.136	19438
876.265	19658
876.393	19826
876.521	19719
876.65	19909
876.778	19712
876.906	19643
877.034	19567
877.162	19643
877.29	19674
877.418	19799
877.546	19693
877.674	19655
877.802	19632
877.93	19708
878.058	19616
878.185	19556
878.313	19658
878.441	19693
878.568	19514
878.696	19594
878.824	19616
878.951	19738
879.079	19833
879.206	19986
879.333	19852
879.461	19723
879.588	19864
879.715	19959
879.842	20020
879.97	19868
880.097	19533
880.224	19628
880.351	19689
880.478	19464
880.605	19502
880.732	19556
880.859	19727
880.986	19578
881.112	19594
881.239	19449
881.366	19449
881.493	19301
881.619	19168
881.746	19110
881.872	19225
881.999	19015
882.125	19190
882.252	19187
882.378	19240
882.505	19343
882.631	19088
882.757	19069
882.883	18993
883.01	18993
883.136	18829
883.262	18810
883.388	18882
883.514	18958
883.64	18958
883.766	18871
883.892	18726
884.018	18711
884.143	18966
884.269	18989
884.395	18791
884.52	18593
884.646	18582
884.772	18578
884.897	18452
885.023	18639
885.148	18772
885.274	18658
885.399	18707
885.524	18635
885.65	18589
885.775	18547
885.9	18589
886.025	18669
886.15	18601
886.275	18551
886.4	18467
886.525	18498
886.65	18483
886.775	18544
886.9	18715
887.025	18738
887.149	18563
887.274	18372
887.399	18414
887.523	18365
887.648	18270
887.773	18289
887.897	18334
888.021	18338
888.146	18327
888.27	18391
888.395	18498
888.519	18437
888.643	18327
888.767	18334
888.891	18254
889.015	18178
889.139	18281
889.263	18144
889.387	18266
889.511	18285
889.635	18201
889.759	18136
889.883	18102
890.006	18258
890.13	18296
890.254	18030
890.377	18155
890.501	17897
890.624	17969
890.748	18011
890.871	17897
890.995	17741
891.118	17718
891.241	17771
891.364	17729
891.488	17809
891.611	17752
891.734	17783
891.857	17817
891.98	17733
892.103	17904
892.226	17855
892.349	17756
892.471	17573
892.594	17699
892.717	17718
892.839	17726
892.962	17680
893.085	17745
893.207	17691
893.33	17699
893.452	17535
893.575	17691
893.697	17672
893.819	17817
893.941	17893
894.064	17847
894.186	17695
894.308	17638
894.43	17771
894.552	17904
894.674	17809
894.796	17714
894.918	17680
895.04	17630
895.161	17737
895.283	17832
895.405	17691
895.526	17623
895.648	17764
895.769	17710
895.891	17672
896.012	17874
896.134	17794
896.255	17764
896.376	17729
896.498	17783
896.619	17840
896.74	17821
896.861	17821
896.982	18064
897.103	18258
897.224	17984
897.345	18015
897.466	17946
897.587	17965
897.708	18083
897.828	18155
897.949	17988
898.07	17863
898.19	17980
898.311	18060
898.431	17942
898.552	18022
898.672	18076
898.792	18129
898.913	18045
899.033	17927
899.153	17847
899.273	17729
899.393	17824
899.513	17878
899.633	17805
899.753	17889
899.873	17722
899.993	17767
900.113	17752
900.232	17737
900.352	17691
900.472	17665
900.591	17486
900.711	17608
900.83	17490
900.95	17733
901.069	17710
901.189	17551
901.308	17288
901.427	17330
901.546	17212
901.665	17307
901.784	17318
901.904	17079
902.023	17064
902.141	16793
902.26	16850
902.379	16904
902.498	16831
902.617	16694
902.735	16839
902.854	16687
902.973	16577
903.091	16398
903.21	16466
903.328	16447
903.446	16367
903.565	16325
903.683	16276
903.801	16204
903.919	16276
904.038	16253
904.156	16036
904.274	16090
904.392	16006
904.51	16029
904.627	16032
904.745	16143
904.863	16101
904.981	15838
905.098	15751
905.216	15728
905.334	15816
905.451	15747
905.569	15709
905.686	15679
905.803	15755
905.921	15504
906.038	15648
906.155	15576
906.272	15340
906.389	15321
906.506	15176
906.623	15260
906.74	15260
906.857	15207
906.974	15131
907.091	15310
907.208	15393
907.324	15241
907.441	15184
907.557	15085
907.674	15051
907.79	15028
907.907	14948
908.023	14982
908.139	14960
908.256	14956
908.372	14838
908.488	14887
908.604	14773
908.72	14823
908.836	14754
908.952	14632
909.068	14743
909.184	14811
909.3	14640
909.415	14644
909.531	14750
909.647	14400
909.762	14434
909.878	14298
909.993	14343
910.108	14309
910.224	14347
910.339	14320
910.454	14278
910.57	14183
910.685	14138
910.8	14446
910.915	14381
911.03	14202
911.145	14016
911.259	14065
911.374	14016
911.489	13940
911.604	14016
911.718	13723
911.833	13799
911.947	13666
912.062	13521
912.176	13746
912.291	13712
912.405	13727
912.519	13936
912.633	13963
912.748	13868
912.862	13727
912.976	13651
913.09	13506
913.204	13571
913.318	13590
913.431	13674
913.545	13616
913.659	13704
913.772	13578
913.886	13499
914	13407
914.113	13613
914.226	13636
914.34	13586
914.453	13354
914.566	13499
914.68	13396
914.793	13365
914.906	13175
915.019	13122
915.132	13084
915.245	13069
915.358	13126
915.47	13129
915.583	13232
915.696	13168
915.809	13247
915.921	13236
916.034	13038
916.146	12973
916.259	13031
916.371	13198
916.483	13145
916.595	13004
916.708	13008
916.82	12932
916.932	12928
917.044	12958
917.156	12840
917.268	12753
917.38	12798
917.491	12753
917.603	12897
917.715	12947
917.826	12905
917.938	12757
918.049	12642
918.161	12806
918.272	12939
918.384	12993
918.495	12741
918.606	12650
918.717	12597
918.828	12684
918.939	12616
919.05	12486
919.161	12650
919.272	12380
919.383	12536
919.494	12608
919.604	12707
919.715	12593
919.826	12604
919.936	12589
920.047	12665
920.157	12563
920.267	12848
920.378	12593
920.488	12464
920.598	12768
920.708	12856
920.818	12734
920.928	12692
921.038	12894
921.148	12886
921.258	12642
921.368	12445
921.477	12372
921.587	12357
921.697	12300
921.806	12384
921.916	12270
922.025	12155
922.134	12019
922.244	12079
922.353	12102
922.462	11927
922.571	11832
922.68	11726
922.789	11718
922.898	11680
923.007	11668
923.116	11745
923.224	11684
923.333	11722
923.442	11577
923.55	11543
923.659	11570
923.767	11611
923.876	11524
923.984	11554
924.092	11509
924.201	11532
924.309	11429
924.417	11490
924.525	11440
924.633	11414
924.741	12384
924.849	11303
924.956	11372
925.064	11303
925.172	11231
925.279	11201
925.387	11227
925.494	11269
925.602	11391
925.709	11406
925.816	11090
925.924	11246
926.031	11364
926.138	11105
926.245	11254
926.352	11102
926.459	11292
926.566	11208
926.673	11159
926.779	11014
926.886	11022
926.993	10942
927.099	10873
927.206	10866
927.312	10866
927.419	10957
927.525	10919
927.631	10904
927.737	10740
927.843	10740
927.95	10580
928.056	10774
928.162	10683
928.267	10767
928.373	11387
928.479	10763
928.585	10573
928.69	10694
928.796	10656
928.901	10634
929.007	10474
929.112	10630
929.218	10554
929.323	10485
929.428	10428
929.533	10596
929.638	10363
929.743	10436
929.848	10546
929.953	10398
930.058	10329
930.163	10227
930.267	10306
930.372	10375
930.477	10215
930.581	10405
930.685	10303
930.79	10139
930.894	10071
930.998	10067
931.103	10207
931.207	9850
931.311	9789
931.415	9732
931.519	9507
931.623	9553
