Data from test_V78500241_1371.txt Node
Date: Fri Mar 25 14:43:15 CST 2022
User: usil
Spectrometer: V785-0024
Trigger mode: 0
Integration Time (sec): 4.000000E-1
Scans to average: 1
Nonlinearity correction enabled: false
Boxcar width: 0
Storing dark spectrum: false
XAxis mode: Wavelengths
Number of Pixels in Spectrum: 1024
>>>>>Begin Spectral Data<<<<<
801.071	22497
801.214	22363
801.356	22147
801.499	22017
801.641	21797
801.783	21797
801.926	21804
802.068	21846
802.211	21553
802.353	21466
802.496	21363
802.638	21279
802.78	21184
802.923	21245
803.065	21051
803.208	20899
803.35	21142
803.492	21222
803.635	21340
803.777	21070
803.919	21203
804.061	21370
804.204	21108
804.346	21024
804.488	21032
804.63	21036
804.773	20952
804.915	21081
805.057	21165
805.199	21081
805.341	21096
805.483	21268
805.626	21154
805.768	21028
805.91	20982
806.052	21036
806.194	20944
806.336	21199
806.478	21013
806.62	21005
806.762	21161
806.904	21180
807.046	21382
807.188	21477
807.33	21443
807.472	21477
807.614	21443
807.756	21355
807.898	21332
808.04	21184
808.182	21302
808.324	21317
808.465	21294
808.607	21458
808.749	21698
808.891	21800
809.033	21819
809.174	21698
809.316	21572
809.458	21641
809.6	21538
809.741	21564
809.883	21576
810.025	21606
810.166	21644
810.308	21656
810.45	21530
810.591	21530
810.733	21249
810.875	21112
811.016	21157
811.158	21173
811.299	21393
811.441	21405
811.582	21275
811.724	21317
811.865	21233
812.007	21146
812.148	21260
812.29	21332
812.431	21340
812.573	21629
812.714	21564
812.855	21701
812.997	21797
813.138	21835
813.279	21827
813.421	21816
813.562	21637
813.703	21557
813.845	21447
813.986	21055
814.127	20876
814.268	20830
814.41	20823
814.551	20804
814.692	20899
814.833	20746
814.974	20644
815.115	20838
815.256	20571
815.397	20575
815.539	20644
815.68	20545
815.821	20556
815.962	20545
816.103	20476
816.244	20423
816.385	20214
816.526	20233
816.666	20145
816.807	20031
816.948	19986
817.089	20081
817.23	19917
817.371	19887
817.512	20020
817.653	19814
817.793	19940
817.934	19944
818.075	19902
818.216	19913
818.356	19841
818.497	19746
818.638	19639
818.778	19609
818.919	19594
819.06	19613
819.2	19776
819.341	19841
819.481	19715
819.622	19807
819.762	20046
819.903	20020
820.043	20088
820.184	19989
820.324	19997
820.465	19887
820.605	19833
820.746	19883
820.886	19753
821.026	19833
821.167	19879
821.307	19875
821.447	19841
821.588	19765
821.728	19628
821.868	19396
822.008	19274
822.149	19320
822.289	19209
822.429	19042
822.569	18973
822.709	19046
822.849	18772
822.99	18806
823.13	18722
823.27	18696
823.41	18719
823.55	18582
823.69	18604
823.83	18711
823.97	18566
824.11	18342
824.25	18308
824.389	18361
824.529	18410
824.669	18380
824.809	18376
824.949	18593
825.089	18494
825.228	18285
825.368	18106
825.508	18064
825.648	18220
825.787	18106
825.927	18197
826.067	18216
826.206	18098
826.346	18144
826.485	18152
826.625	18060
826.765	18182
826.904	18136
827.044	17916
827.183	17912
827.323	17718
827.462	17840
827.601	17843
827.741	17798
827.88	17817
828.02	17729
828.159	17855
828.298	17870
828.437	17927
828.577	17733
828.716	18068
828.855	17821
828.994	17611
829.134	17649
829.273	17665
829.412	17474
829.551	17566
829.69	17649
829.829	17551
829.968	17710
830.107	17630
830.246	17703
830.385	17630
830.524	17406
830.663	17391
830.802	17284
830.941	17193
831.08	17162
831.219	17444
831.357	17303
831.496	17512
831.635	17155
831.774	17174
831.913	17067
832.051	16965
832.19	16915
832.329	17067
832.467	16938
832.606	16927
832.744	16908
832.883	16835
833.022	16965
833.16	16839
833.299	17003
833.437	16869
833.576	16968
833.714	16995
833.852	16999
833.991	17086
834.129	17033
834.267	17006
834.406	16965
834.544	16980
834.682	16938
834.821	16919
834.959	17064
835.097	16934
835.235	17064
835.373	17003
835.511	16995
835.65	16771
835.788	16980
835.926	16736
836.064	16725
836.202	16748
836.34	16835
836.478	16957
836.615	16782
836.753	16984
836.891	16900
837.029	16908
837.167	16778
837.305	16759
837.443	16805
837.58	16702
837.718	16835
837.856	16816
837.993	16687
838.131	16771
838.269	16592
838.406	16706
838.544	16599
838.681	16436
838.819	16325
838.956	16310
839.094	16299
839.231	16333
839.369	16318
839.506	16622
839.643	16497
839.781	16280
839.918	16226
840.055	16375
840.193	16249
840.33	16211
840.467	16261
840.604	16276
840.742	16531
840.879	16162
841.016	16131
841.153	16166
841.29	16459
841.427	16177
841.564	16295
841.701	16265
841.838	16291
841.975	16139
842.112	16219
842.249	16090
842.385	16002
842.522	16238
842.659	16093
842.796	16048
842.933	16074
843.069	16044
843.206	16021
843.343	16166
843.479	16048
843.616	16036
843.752	15884
843.889	15956
844.025	16017
844.162	15865
844.298	15941
844.435	15842
844.571	15812
844.708	15903
844.844	16059
844.98	16055
845.117	15949
845.253	15846
845.389	15762
845.525	15926
845.661	15850
845.798	15854
845.934	15922
846.07	15949
846.206	16013
846.342	16048
846.478	15842
846.614	15633
846.75	15428
846.886	15355
847.022	15428
847.158	15477
847.294	15488
847.429	15450
847.565	15488
847.701	15606
847.837	15142
847.972	15123
848.108	15214
848.244	15188
848.379	15093
848.515	14998
848.65	14925
848.786	14956
848.921	14956
849.057	15108
849.192	15146
849.328	14929
849.463	14986
849.598	14975
849.734	14906
849.869	14914
850.004	14758
850.14	14796
850.275	14739
850.41	14731
850.545	14670
850.68	14712
850.815	14705
850.95	14716
851.085	14941
851.22	14868
851.355	14800
851.49	14777
851.625	14765
851.76	14708
851.895	14674
852.03	14629
852.165	14720
852.299	14765
852.434	14777
852.569	14788
852.703	14796
852.838	14845
852.973	14826
853.107	14929
853.242	14735
853.376	14693
853.511	14587
853.645	14583
853.78	14773
853.914	14598
854.048	14587
854.183	14670
854.317	14640
854.451	14864
854.585	14590
854.72	14670
854.854	14807
854.988	14590
855.122	14655
855.256	14457
855.39	14533
855.524	14716
855.658	14701
855.792	14712
855.926	14735
856.06	14686
856.194	14773
856.327	14579
856.461	14598
856.595	14655
856.729	14606
856.862	14765
856.996	14632
857.13	14720
857.263	14785
857.397	14754
857.53	14579
857.664	14590
857.797	14727
857.931	14750
858.064	14629
858.197	14731
858.331	14682
858.464	14606
858.597	14568
858.731	14613
858.864	14716
858.997	14648
859.13	14674
859.263	14625
859.396	14731
859.529	14564
859.662	14640
859.795	14602
859.928	14648
860.061	14785
860.194	14834
860.327	14705
860.46	14674
860.592	14773
860.725	14811
860.858	14746
860.99	14701
861.123	14492
861.256	14636
861.388	14587
861.521	15378
861.653	14514
861.786	14476
861.918	14480
862.05	14556
862.183	14594
862.315	14568
862.447	14632
862.58	14610
862.712	14412
862.844	14355
862.976	14511
863.108	14400
863.24	14746
863.372	14332
863.504	14393
863.636	14446
863.768	14431
863.9	14461
864.032	14374
864.164	14442
864.296	14450
864.428	14556
864.559	14469
864.691	14438
864.823	14446
864.954	14412
865.086	14461
865.217	14347
865.349	14317
865.48	14396
865.612	14339
865.743	14499
865.875	14484
866.006	14385
866.137	14419
866.269	14450
866.4	14442
866.531	14351
866.662	14317
866.793	14347
866.924	14358
867.055	14370
867.186	14415
867.317	14381
867.448	14202
867.579	14259
867.71	14271
867.841	14351
867.972	14415
868.103	14362
868.233	14393
868.364	14408
868.495	14469
868.625	14533
868.756	14720
868.886	14526
869.017	14651
869.147	14667
869.278	14750
869.408	14644
869.539	14549
869.669	14667
869.799	14697
869.929	14632
870.06	14796
870.19	14910
870.32	14921
870.45	15077
870.58	14986
870.71	15116
870.84	15112
870.97	15001
871.1	15074
871.23	15188
871.36	15195
871.489	15104
871.619	15127
871.749	15188
871.879	15218
872.008	15275
872.138	15222
872.267	15169
872.397	15154
872.526	15055
872.656	14921
872.785	14986
872.915	15272
873.044	15336
873.173	15283
873.303	15272
873.432	15351
873.561	15454
873.69	15154
873.819	15226
873.948	15336
874.077	15275
874.206	15268
874.335	15351
874.464	15439
874.593	15599
874.722	15545
874.851	15671
874.979	15625
875.108	15603
875.237	15496
875.365	15500
875.494	15633
875.623	15587
875.751	15549
875.88	15698
876.008	15694
876.136	15823
876.265	15960
876.393	16200
876.521	16051
876.65	16032
876.778	16036
876.906	15915
877.034	15960
877.162	15937
877.29	15953
877.418	16032
877.546	15892
877.674	16097
877.802	16010
877.93	16029
878.058	15934
878.185	15911
878.313	15975
878.441	16090
878.568	15876
878.696	16021
878.824	16051
878.951	16124
879.079	16276
879.206	16413
879.333	16280
879.461	16169
879.588	16322
879.715	16436
879.842	16432
879.97	16147
880.097	15987
880.224	15873
880.351	15934
880.478	15937
880.605	15789
880.732	15895
880.859	16032
880.986	15918
881.112	16021
881.239	15770
881.366	15641
881.493	15675
881.619	15519
881.746	15572
881.872	15526
881.999	15526
882.125	15580
882.252	15545
882.378	15663
882.505	15667
882.631	15450
882.757	15336
882.883	15485
883.01	15332
883.136	15264
883.262	15279
883.388	15207
883.514	15389
883.64	15450
883.766	15321
883.892	15283
884.018	15283
884.143	15359
884.269	15386
884.395	15100
884.52	15047
884.646	15074
884.772	15070
884.897	14944
885.023	15085
885.148	15097
885.274	15161
885.399	15108
885.524	15062
885.65	15097
885.775	15131
885.9	15066
886.025	15230
886.15	15146
886.275	15062
886.4	14876
886.525	15013
886.65	14990
886.775	15043
886.9	15188
887.025	15226
887.149	15020
887.274	14811
887.399	14838
887.523	14842
887.648	14838
887.773	14739
887.897	14948
888.021	14975
888.146	14872
888.27	14960
888.395	14952
888.519	14895
888.643	14952
888.767	15005
888.891	14781
889.015	14769
889.139	14796
889.263	14724
889.387	14868
889.511	14781
889.635	14830
889.759	14663
889.883	14735
890.006	14758
890.13	14781
890.254	14533
890.377	14648
890.501	14583
890.624	14480
890.748	14606
890.871	14450
890.995	14438
891.118	14351
891.241	14511
891.364	14465
891.488	14511
891.611	14381
891.734	14396
891.857	14396
891.98	14412
892.103	14412
892.226	14374
892.349	14427
892.471	14206
892.594	14408
892.717	14351
892.839	14355
892.962	14320
893.085	14568
893.207	14339
893.33	14320
893.452	14336
893.575	14393
893.697	14358
893.819	14598
893.941	14594
894.064	14655
894.186	14408
894.308	14305
894.43	14594
894.552	14514
894.674	14583
894.796	14332
894.918	14415
895.04	14408
895.161	14568
895.283	14560
895.405	14476
895.526	14514
895.648	14571
895.769	14469
895.891	14655
896.012	14708
896.134	14606
896.255	14602
896.376	14617
896.498	14511
896.619	14613
896.74	14644
896.861	14701
896.982	14952
897.103	15043
897.224	14910
897.345	14872
897.466	14746
897.587	14921
897.708	15017
897.828	14902
897.949	14834
898.07	14743
898.19	14811
898.311	14982
898.431	14891
898.552	14986
898.672	15036
898.792	14944
898.913	14975
899.033	14864
899.153	14826
899.273	14712
899.393	14769
899.513	14773
899.633	14765
899.753	14864
899.873	14800
899.993	14887
900.113	14769
900.232	14876
900.352	14769
900.472	14670
900.591	14568
900.711	14705
900.83	14571
900.95	14629
901.069	14804
901.189	14629
901.308	14385
901.427	14278
901.546	14328
901.665	14317
901.784	14370
901.904	14229
902.023	14100
902.141	14027
902.26	13856
902.379	14005
902.498	13894
902.617	13909
902.735	13898
902.854	13852
902.973	13841
903.091	13613
903.21	13613
903.328	13628
903.446	13514
903.565	13468
903.683	13521
903.801	13308
903.919	13457
904.038	13411
904.156	13221
904.274	13346
904.392	13285
904.51	13278
904.627	13194
904.745	13270
904.863	13312
904.981	13133
905.098	12916
905.216	12920
905.334	12932
905.451	12970
905.569	12856
905.686	13027
905.803	13004
905.921	12726
906.038	12776
906.155	12753
906.272	12684
906.389	12726
906.506	12555
906.623	12555
906.74	12570
906.857	12483
906.974	12486
907.091	12612
907.208	12700
907.324	12642
907.441	12540
907.557	12300
907.674	12350
907.79	12216
907.907	12277
908.023	12251
908.139	12334
908.256	12247
908.372	12194
908.488	12220
908.604	12049
908.72	11999
908.836	12038
908.952	11980
909.068	12003
909.184	12106
909.3	11973
909.415	12072
909.531	12026
909.647	11828
909.762	11821
909.878	11783
909.993	11855
910.108	11756
910.224	11798
910.339	11741
910.454	11767
910.57	11684
910.685	11539
910.8	11954
910.915	11775
911.03	11680
911.145	11501
911.259	11554
911.374	11566
911.489	11368
911.604	11364
911.718	11265
911.833	11280
911.947	11155
912.062	11048
912.176	11284
912.291	11307
912.405	11250
912.519	11395
912.633	11398
912.748	11277
912.862	11273
912.976	11197
913.09	11079
913.204	11056
913.318	11098
913.431	11162
913.545	11174
913.659	11254
913.772	11132
913.886	11060
914	11003
914.113	11064
914.226	11109
914.34	11105
914.453	10961
914.566	11075
914.68	11025
914.793	10965
914.906	10809
915.019	10679
915.132	10679
915.245	10759
915.358	10706
915.47	10786
915.583	10721
915.696	10782
915.809	10889
915.921	10900
916.034	10736
916.146	10748
916.259	10702
916.371	10805
916.483	10786
916.595	10660
916.708	10626
916.82	10637
916.932	10683
917.044	10675
917.156	10603
917.268	10512
917.38	10558
917.491	10611
917.603	10641
917.715	10649
917.826	10687
917.938	10577
918.049	10459
918.161	10512
918.272	10759
918.384	10611
918.495	10615
918.606	10413
918.717	10451
918.828	10451
918.939	10421
919.05	10337
919.161	10459
919.272	10223
919.383	10291
919.494	10474
919.604	10691
919.715	10447
919.826	10382
919.936	10379
920.047	10565
920.157	10455
920.267	10588
920.378	10470
920.488	10462
920.598	10725
920.708	10843
920.818	10596
920.928	10592
921.038	10862
921.148	10790
921.258	10421
921.368	10405
921.477	10325
921.587	10276
921.697	10185
921.806	10310
921.916	10162
922.025	10006
922.134	10059
922.244	9956
922.353	10071
922.462	9899
922.571	9842
922.68	9679
922.789	9701
922.898	9751
923.007	9660
923.116	9667
923.224	9675
923.333	9660
923.442	9610
923.55	9572
923.659	9557
923.767	9618
923.876	9542
923.984	9606
924.092	9519
924.201	9549
924.309	9545
924.417	9553
924.525	9568
924.633	9530
924.741	10485
924.849	9298
924.956	9466
925.064	9264
925.172	9226
925.279	9287
925.387	9336
925.494	9351
925.602	9374
925.709	9454
925.816	9294
925.924	9428
926.031	9397
926.138	9317
926.245	9340
926.352	9214
926.459	9378
926.566	9424
926.673	9218
926.779	9226
926.886	9165
926.993	8975
927.099	9081
927.206	9036
927.312	8994
927.419	9085
927.525	9077
927.631	9051
927.737	8883
927.843	8982
927.95	8739
928.056	8967
928.162	8948
928.267	8979
928.373	9568
928.479	8998
928.585	8842
928.69	8906
928.796	8952
928.901	8826
929.007	8678
929.112	8819
929.218	8819
929.323	8807
929.428	8788
929.533	8941
929.638	8731
929.743	8750
929.848	8766
929.953	8724
930.058	8598
930.163	8507
930.267	8503
930.372	8617
930.477	8518
930.581	8705
930.685	8606
930.79	8465
930.894	8415
930.998	8469
931.103	8545
931.207	8252
931.311	8271
931.415	8103
931.519	7951
931.623	7982
