Data from test_V78500241_3316.txt Node
Date: Fri Mar 25 14:56:48 CST 2022
User: usil
Spectrometer: V785-0024
Trigger mode: 0
Integration Time (sec): 4.000000E-1
Scans to average: 1
Nonlinearity correction enabled: false
Boxcar width: 0
Storing dark spectrum: false
XAxis mode: Wavelengths
Number of Pixels in Spectrum: 1024
>>>>>Begin Spectral Data<<<<<
801.071	21903
801.214	21869
801.356	21542
801.499	21549
801.641	21313
801.783	21313
801.926	21272
802.068	21230
802.211	21321
802.353	21195
802.496	20921
802.638	20826
802.78	20716
802.923	20716
803.065	20655
803.208	20682
803.35	20682
803.492	20701
803.635	20754
803.777	20724
803.919	20724
804.061	20994
804.204	20754
804.346	20590
804.488	20564
804.63	20541
804.773	20541
804.915	20556
805.057	20686
805.199	20530
805.341	20564
805.483	20640
805.626	20632
805.768	20541
805.91	20568
806.052	20632
806.194	20484
806.336	20762
806.478	20545
806.62	20492
806.762	20644
806.904	20735
807.046	20967
807.188	20849
807.33	20937
807.472	20876
807.614	20724
807.756	20765
807.898	20720
808.04	20541
808.182	20609
808.324	20594
808.465	20727
808.607	20872
808.749	20891
808.891	21043
809.033	21077
809.174	21005
809.316	21112
809.458	20804
809.6	20815
809.741	20910
809.883	20998
810.025	21135
810.166	21070
810.308	21039
810.45	20933
810.591	20998
810.733	20716
810.875	20777
811.016	20632
811.158	20522
811.299	20731
811.441	20811
811.582	20823
811.724	20659
811.865	20549
812.007	20629
812.148	20689
812.29	20701
812.431	20853
812.573	21001
812.714	21070
812.855	21135
812.997	21222
813.138	21450
813.279	21291
813.421	21108
813.562	21142
813.703	20880
813.845	20697
813.986	20545
814.127	20374
814.268	20237
814.41	20339
814.551	20191
814.692	20339
814.833	20069
814.974	20199
815.115	20111
815.256	20062
815.397	20035
815.539	20016
815.68	19989
815.821	19978
815.962	19913
816.103	19742
816.244	19799
816.385	19761
816.526	19571
816.666	19533
816.807	19419
816.948	19487
817.089	19495
817.23	19457
817.371	19297
817.512	19270
817.653	19293
817.793	19316
817.934	19335
818.075	19403
818.216	19304
818.356	19270
818.497	19114
818.638	19023
818.778	19015
818.919	18951
819.06	18966
819.2	19042
819.341	19228
819.481	19194
819.622	19335
819.762	19563
819.903	19480
820.043	19308
820.184	19301
820.324	19358
820.465	19445
820.605	19289
820.746	19369
820.886	19080
821.026	19346
821.167	19324
821.307	19396
821.447	19263
821.588	19187
821.728	18981
821.868	18905
822.008	18798
822.149	18719
822.289	18681
822.429	18509
822.569	18315
822.709	18486
822.849	18239
822.99	18171
823.13	18232
823.27	18220
823.41	18034
823.55	18003
823.69	18049
823.83	18007
823.97	17904
824.11	17805
824.25	17699
824.389	17874
824.529	17908
824.669	17714
824.809	17973
824.949	17866
825.089	17847
825.228	17756
825.368	17570
825.508	17604
825.648	17661
825.787	17668
825.927	17638
826.067	17520
826.206	17535
826.346	17562
826.485	17630
826.625	17558
826.765	17695
826.904	17600
827.044	17341
827.183	17337
827.323	17269
827.462	17326
827.601	17261
827.741	17231
827.88	17360
828.02	17128
828.159	17318
828.298	17292
828.437	17265
828.577	17227
828.716	17341
828.855	17162
828.994	16987
829.134	16930
829.273	17083
829.412	16900
829.551	17006
829.69	16961
829.829	17029
829.968	17086
830.107	17064
830.246	17086
830.385	16949
830.524	16930
830.663	16919
830.802	16801
830.941	16725
831.08	16569
831.219	16744
831.357	16706
831.496	16919
831.635	16641
831.774	16641
831.913	16561
832.051	16459
832.19	16462
832.329	16440
832.467	16344
832.606	16306
832.744	16402
832.883	16409
833.022	16337
833.16	16329
833.299	16386
833.437	16318
833.576	16485
833.714	16390
833.852	16443
833.991	16504
834.129	16474
834.267	16459
834.406	16382
834.544	16398
834.682	16519
834.821	16421
834.959	16577
835.097	16310
835.235	16504
835.373	16478
835.511	16390
835.65	16352
835.788	16284
835.926	16219
836.064	16082
836.202	16169
836.34	16402
836.478	16474
836.615	16276
836.753	16386
836.891	16470
837.029	16344
837.167	16211
837.305	16341
837.443	16234
837.58	16173
837.718	16246
837.856	16226
837.993	16150
838.131	16223
838.269	16200
838.406	16223
838.544	16071
838.681	15945
838.819	15838
838.956	15785
839.094	15739
839.231	15934
839.369	15816
839.506	16150
839.643	15945
839.781	15732
839.918	15720
840.055	15770
840.193	15724
840.33	15698
840.467	15766
840.604	15819
840.742	16048
840.879	15595
841.016	15690
841.153	15633
841.29	15831
841.427	15835
841.564	15766
841.701	15808
841.838	15682
841.975	15648
842.112	15648
842.249	15542
842.385	15481
842.522	15720
842.659	15580
842.796	15481
842.933	15553
843.069	15553
843.206	15561
843.343	15580
843.479	15610
843.616	15599
843.752	15325
843.889	15298
844.025	15549
844.162	15287
844.298	15389
844.435	15325
844.571	15230
844.708	15466
844.844	15454
844.98	15519
845.117	15405
845.253	15203
845.389	15287
845.525	15222
845.661	15291
845.798	15142
845.934	15142
846.07	15081
846.206	15157
846.342	15184
846.478	15161
846.614	14948
846.75	15009
846.886	14967
847.022	14963
847.158	14906
847.294	14982
847.429	14929
847.565	14895
847.701	15108
847.837	14743
847.972	14602
848.108	14693
848.244	14845
848.379	14533
848.515	14533
848.65	14324
848.786	14518
848.921	14503
849.057	14518
849.192	14549
849.328	14571
849.463	14549
849.598	14469
849.734	14374
849.869	14370
850.004	14313
850.14	14290
850.275	14339
850.41	14237
850.545	14100
850.68	14332
850.815	14313
850.95	14256
851.085	14473
851.22	14332
851.355	14248
851.49	14225
851.625	14221
851.76	14180
851.895	14077
852.03	14142
852.165	14267
852.299	14286
852.434	14408
852.569	14286
852.703	14259
852.838	14389
852.973	14427
853.107	14385
853.242	14176
853.376	14183
853.511	14020
853.645	14130
853.78	14294
853.914	14134
854.048	14130
854.183	14111
854.317	14210
854.451	14347
854.585	14111
854.72	14183
854.854	14153
854.988	14050
855.122	14134
855.256	14020
855.39	14195
855.524	14214
855.658	14195
855.792	14081
855.926	14164
856.06	14180
856.194	14183
856.327	14199
856.461	14164
856.595	14062
856.729	14050
856.862	14183
856.996	14161
857.13	14305
857.263	14271
857.397	14332
857.53	14145
857.664	14081
857.797	14164
857.931	14233
858.064	14210
858.197	14259
858.331	14054
858.464	14149
858.597	14069
858.731	14149
858.864	14088
858.997	14039
859.13	14126
859.263	14183
859.396	14271
859.529	14107
859.662	14164
859.795	14138
859.928	14199
860.061	14370
860.194	14313
860.327	14221
860.46	14168
860.592	14294
860.725	14317
860.858	14191
860.99	14233
861.123	14157
861.256	14031
861.388	14100
861.521	14887
861.653	14046
861.786	13978
861.918	14027
862.05	14043
862.183	14157
862.315	14180
862.447	14176
862.58	14035
862.712	14035
862.844	13871
862.976	13917
863.108	13951
863.24	14301
863.372	13902
863.504	13932
863.636	13951
863.768	13982
863.9	14073
864.032	13894
864.164	13951
864.296	13921
864.428	14043
864.559	14119
864.691	14111
864.823	14020
864.954	14050
865.086	14001
865.217	13852
865.349	13818
865.48	13811
865.612	13932
865.743	14031
865.875	13917
866.006	13852
866.137	13898
866.269	13868
866.4	13875
866.531	13936
866.662	13921
866.793	13776
866.924	13841
867.055	13883
867.186	13822
867.317	13765
867.448	13875
867.579	13852
867.71	13826
867.841	13822
867.972	13909
868.103	13928
868.233	13967
868.364	13951
868.495	14024
868.625	14084
868.756	14202
868.886	14081
869.017	14126
869.147	14237
869.278	14256
869.408	14214
869.539	14161
869.669	14271
869.799	14149
869.929	14278
870.06	14324
870.19	14495
870.32	14461
870.45	14522
870.58	14518
870.71	14556
870.84	14739
870.97	14602
871.1	14556
871.23	14758
871.36	14682
871.489	14674
871.619	14701
871.749	14727
871.879	14834
872.008	14906
872.138	14796
872.267	14735
872.397	14644
872.526	14648
872.656	14693
872.785	14697
872.915	14796
873.044	14872
873.173	14796
873.303	14868
873.432	14823
873.561	14872
873.69	14880
873.819	14773
873.948	14933
874.077	14937
874.206	14834
874.335	14872
874.464	14864
874.593	15051
874.722	15100
874.851	15214
874.979	15142
875.108	15268
875.237	15119
875.365	14990
875.494	15108
875.623	15184
875.751	15119
875.88	15165
876.008	15367
876.136	15374
876.265	15519
876.393	15701
876.521	15701
876.65	15641
876.778	15652
876.906	15515
877.034	15584
877.162	15469
877.29	15542
877.418	15644
877.546	15591
877.674	15568
877.802	15515
877.93	15557
878.058	15435
878.185	15378
878.313	15462
878.441	15477
878.568	15359
878.696	15523
878.824	15679
878.951	15667
879.079	15675
879.206	15797
879.333	15717
879.461	15633
879.588	15599
879.715	15804
879.842	15854
879.97	15545
880.097	15408
880.224	15435
880.351	15477
880.478	15481
880.605	15317
880.732	15374
880.859	15717
880.986	15481
881.112	15367
881.239	15252
881.366	15241
881.493	15157
881.619	15150
881.746	15138
881.872	15146
881.999	14975
882.125	15043
882.252	15222
882.378	15150
882.505	15291
882.631	15085
882.757	14918
882.883	14880
883.01	14960
883.136	14899
883.262	14819
883.388	14724
883.514	14986
883.64	14979
883.766	14895
883.892	14708
884.018	14792
884.143	14929
884.269	15089
884.395	14743
884.52	14724
884.646	14777
884.772	14621
884.897	14503
885.023	14758
885.148	14621
885.274	14800
885.399	14682
885.524	14724
885.65	14644
885.775	14640
885.9	14530
886.025	14708
886.15	14701
886.275	14602
886.4	14511
886.525	14606
886.65	14526
886.775	14465
886.9	14693
887.025	14838
887.149	14670
887.274	14473
887.399	14476
887.523	14324
887.648	14393
887.773	14301
887.897	14533
888.021	14400
888.146	14488
888.27	14503
888.395	14537
888.519	14465
888.643	14594
888.767	14541
888.891	14434
889.015	14320
889.139	14332
889.263	14309
889.387	14446
889.511	14522
889.635	14457
889.759	14256
889.883	14320
890.006	14370
890.13	14461
890.254	14355
890.377	14259
890.501	14126
890.624	14168
890.748	14290
890.871	13951
890.995	13963
891.118	13890
891.241	14001
891.364	14008
891.488	14130
891.611	14050
891.734	14054
891.857	14054
891.98	14092
892.103	14065
892.226	14084
892.349	13993
892.471	13875
892.594	13959
892.717	14050
892.839	13978
892.962	14050
893.085	14031
893.207	13974
893.33	13887
893.452	13928
893.575	14142
893.697	13940
893.819	14210
893.941	14301
894.064	14176
894.186	13982
894.308	13947
894.43	14062
894.552	14267
894.674	14225
894.796	14065
894.918	13974
895.04	14024
895.161	14172
895.283	14100
895.405	14088
895.526	14126
895.648	14039
895.769	14153
895.891	14183
896.012	14202
896.134	14282
896.255	14149
896.376	14115
896.498	14263
896.619	14176
896.74	14103
896.861	14157
896.982	14526
897.103	14712
897.224	14507
897.345	14446
897.466	14400
897.587	14503
897.708	14545
897.828	14552
897.949	14484
898.07	14358
898.19	14389
898.311	14568
898.431	14446
898.552	14503
898.672	14533
898.792	14602
898.913	14564
899.033	14438
899.153	14408
899.273	14244
899.393	14339
899.513	14412
899.633	14332
899.753	14465
899.873	14473
899.993	14423
900.113	14442
900.232	14454
900.352	14343
900.472	14301
900.591	14225
900.711	14313
900.83	14290
900.95	14320
901.069	14381
901.189	14240
901.308	13974
901.427	13917
901.546	13963
901.665	13963
901.784	13993
901.904	13841
902.023	13776
902.141	13559
902.26	13472
902.379	13525
902.498	13525
902.617	13396
902.735	13544
902.854	13567
902.973	13400
903.091	13320
903.21	13244
903.328	13274
903.446	13183
903.565	13076
903.683	13149
903.801	12981
903.919	13038
904.038	13023
904.156	12966
904.274	12905
904.392	12913
904.51	12928
904.627	12859
904.745	12848
904.863	13084
904.981	12696
905.098	12608
905.216	12589
905.334	12620
905.451	12559
905.569	12589
905.686	12620
905.803	12696
905.921	12353
906.038	12528
906.155	12479
906.272	12216
906.389	12391
906.506	12167
906.623	12228
906.74	12144
906.857	12129
906.974	12083
907.091	12155
907.208	12296
907.324	12224
907.441	12091
907.557	11973
907.674	12045
907.79	11904
907.907	11999
908.023	11927
908.139	12068
908.256	11923
908.372	11889
908.488	11855
908.604	11703
908.72	11680
908.836	11703
908.952	11657
909.068	11684
909.184	11843
909.3	11642
909.415	11779
909.531	11695
909.647	11490
909.762	11490
909.878	11345
909.993	11444
910.108	11417
910.224	11417
910.339	11356
910.454	11326
910.57	11349
910.685	11216
910.8	11486
910.915	11421
911.03	11269
911.145	11189
911.259	11143
911.374	11197
911.489	11075
911.604	11136
911.718	10908
911.833	11022
911.947	10873
912.062	10786
912.176	10896
912.291	10999
912.405	10957
912.519	11128
912.633	11227
912.748	10968
912.862	10953
912.976	10824
913.09	10679
913.204	10759
913.318	10839
913.431	10873
913.545	10881
913.659	10965
913.772	10790
913.886	10641
914	10733
914.113	10839
914.226	10774
914.34	10733
914.453	10611
914.566	10755
914.68	10634
914.793	10630
914.906	10432
915.019	10394
915.132	10329
915.245	10432
915.358	10455
915.47	10474
915.583	10455
915.696	10466
915.809	10596
915.921	10558
916.034	10421
916.146	10379
916.259	10424
916.371	10455
916.483	10443
916.595	10329
916.708	10344
916.82	10329
916.932	10314
917.044	10299
917.156	10299
917.268	10284
917.38	10261
917.491	10303
917.603	10303
917.715	10341
917.826	10325
917.938	10280
918.049	10097
918.161	10238
918.272	10455
918.384	10417
918.495	10276
918.606	10207
918.717	10029
918.828	10143
918.939	10219
919.05	10078
919.161	10082
919.272	9960
919.383	10048
919.494	10261
919.604	10352
919.715	10162
919.826	10078
919.936	10196
920.047	10272
920.157	10154
920.267	10329
920.378	10249
920.488	10169
920.598	10348
920.708	10455
920.818	10318
920.928	10386
921.038	10493
921.148	10470
921.258	10227
921.368	10082
921.477	10010
921.587	9998
921.697	9987
921.806	9998
921.916	9941
922.025	9774
922.134	9705
922.244	9675
922.353	9736
922.462	9660
922.571	9606
922.68	9485
922.789	9363
922.898	9492
923.007	9359
923.116	9420
923.224	9386
923.333	9439
923.442	9199
923.55	9336
923.659	9279
923.767	9408
923.876	9218
923.984	9412
924.092	9249
924.201	9313
924.309	9310
924.417	9283
924.525	9241
924.633	9233
924.741	10135
924.849	9017
924.956	9195
925.064	9119
925.172	9051
925.279	9013
925.387	9081
925.494	9161
925.602	9176
925.709	9184
925.816	9013
925.924	9093
926.031	9161
926.138	9062
926.245	9123
926.352	9043
926.459	9112
926.566	9138
926.673	9074
926.779	8872
926.886	8929
926.993	8826
927.099	8819
927.206	8716
927.312	8766
927.419	8853
927.525	8804
927.631	8826
927.737	8754
927.843	8667
927.95	8579
928.056	8727
928.162	8716
928.267	8754
928.373	9348
928.479	8773
928.585	8568
928.69	8663
928.796	8731
928.901	8579
929.007	8476
929.112	8648
929.218	8587
929.323	8499
929.428	8511
929.533	8625
929.638	8442
929.743	8511
929.848	8579
929.953	8511
930.058	8431
930.163	8282
930.267	8309
930.372	8427
930.477	8301
930.581	8495
930.685	8332
930.79	8180
930.894	8282
930.998	8240
931.103	8332
931.207	8012
931.311	7936
931.415	7909
931.519	7742
931.623	7757
