Data from test_V78500241_1969.txt Node
Date: Fri Mar 25 14:47:25 CST 2022
User: usil
Spectrometer: V785-0024
Trigger mode: 0
Integration Time (sec): 4.000000E-1
Scans to average: 1
Nonlinearity correction enabled: false
Boxcar width: 0
Storing dark spectrum: false
XAxis mode: Wavelengths
Number of Pixels in Spectrum: 1024
>>>>>Begin Spectral Data<<<<<
801.071	22116
801.214	21953
801.356	21819
801.499	21622
801.641	21382
801.783	21428
801.926	21355
802.068	21294
802.211	21291
802.353	21374
802.496	21074
802.638	20971
802.78	20773
802.923	20861
803.065	20807
803.208	20830
803.35	20720
803.492	20864
803.635	20963
803.777	20746
803.919	20826
804.061	21039
804.204	20933
804.346	20640
804.488	20746
804.63	20746
804.773	20587
804.915	20807
805.057	20765
805.199	20708
805.341	20754
805.483	20895
805.626	20678
805.768	20587
805.91	20727
806.052	20773
806.194	20674
806.336	20857
806.478	20575
806.62	20621
806.762	20705
806.904	20902
807.046	21051
807.188	21070
807.33	21058
807.472	21169
807.614	20891
807.756	20887
807.898	20868
808.04	20743
808.182	20739
808.324	20712
808.465	20819
808.607	20998
808.749	20925
808.891	21096
809.033	21222
809.174	21135
809.316	21058
809.458	20990
809.6	21089
809.741	21116
809.883	21157
810.025	21218
810.166	21226
810.308	21260
810.45	21176
810.591	20967
810.733	20990
810.875	20944
811.016	20712
811.158	20788
811.299	20807
811.441	20918
811.582	20960
811.724	20868
811.865	20785
812.007	20826
812.148	20819
812.29	20796
812.431	21070
812.573	21180
812.714	21230
812.855	21310
812.997	21545
813.138	21469
813.279	21439
813.421	21272
813.562	21173
813.703	21165
813.845	20937
813.986	20682
814.127	20457
814.268	20465
814.41	20492
814.551	20400
814.692	20514
814.833	20408
814.974	20393
815.115	20404
815.256	20134
815.397	20218
815.539	20180
815.68	20081
815.821	20065
815.962	20199
816.103	20035
816.244	20008
816.385	19803
816.526	19647
816.666	19635
816.807	19578
816.948	19670
817.089	19643
817.23	19502
817.371	19502
817.512	19559
817.653	19567
817.793	19499
817.934	19586
818.075	19487
818.216	19480
818.356	19487
818.497	19282
818.638	19141
818.778	19152
818.919	19240
819.06	19274
819.2	19301
819.341	19422
819.481	19434
819.622	19548
819.762	19601
819.903	19685
820.043	19521
820.184	19540
820.324	19518
820.465	19537
820.605	19521
820.746	19339
820.886	19339
821.026	19468
821.167	19487
821.307	19502
821.447	19430
821.588	19377
821.728	19312
821.868	19107
822.008	18920
822.149	18996
822.289	18878
822.429	18738
822.569	18563
822.709	18700
822.849	18494
822.99	18353
823.13	18327
823.27	18296
823.41	18232
823.55	18194
823.69	18277
823.83	18277
823.97	18205
824.11	18038
824.25	17904
824.389	17954
824.529	18003
824.669	18095
824.809	18117
824.949	18041
825.089	17980
825.228	18022
825.368	17775
825.508	17897
825.648	17798
825.787	17889
825.927	17760
826.067	17748
826.206	17676
826.346	17775
826.485	17779
826.625	17699
826.765	17965
826.904	17809
827.044	17573
827.183	17516
827.323	17474
827.462	17562
827.601	17512
827.741	17402
827.88	17505
828.02	17372
828.159	17482
828.298	17505
828.437	17532
828.577	17478
828.716	17532
828.855	17417
828.994	17174
829.134	17254
829.273	17246
829.412	17159
829.551	17094
829.69	17250
829.829	17185
829.968	17269
830.107	17284
830.246	17292
830.385	17132
830.524	17064
830.663	17018
830.802	16927
830.941	16968
831.08	16812
831.219	16896
831.357	16847
831.496	17083
831.635	16839
831.774	16809
831.913	16664
832.051	16611
832.19	16672
832.329	16733
832.467	16634
832.606	16474
832.744	16478
832.883	16569
833.022	16508
833.16	16592
833.299	16664
833.437	16558
833.576	16569
833.714	16527
833.852	16588
833.991	16584
834.129	16675
834.267	16649
834.406	16580
834.544	16698
834.682	16493
834.821	16607
834.959	16744
835.097	16637
835.235	16683
835.373	16485
835.511	16584
835.65	16523
835.788	16550
835.926	16333
836.064	16348
836.202	16310
836.34	16493
836.478	16588
836.615	16512
836.753	16554
836.891	16626
837.029	16626
837.167	16546
837.305	16504
837.443	16447
837.58	16421
837.718	16493
837.856	16371
837.993	16337
838.131	16348
838.269	16367
838.406	16287
838.544	16234
838.681	16116
838.819	15983
838.956	15975
839.094	15949
839.231	15998
839.369	16074
839.506	16333
839.643	16215
839.781	16010
839.918	15968
840.055	15975
840.193	15975
840.33	15934
840.467	15987
840.604	15975
840.742	16196
840.879	15743
841.016	15899
841.153	15922
841.29	16078
841.427	15907
841.564	15903
841.701	15972
841.838	15743
841.975	15888
842.112	15778
842.249	15778
842.385	15629
842.522	15903
842.659	15724
842.796	15633
842.933	15778
843.069	15705
843.206	15675
843.343	15728
843.479	15663
843.616	15739
843.752	15542
843.889	15568
844.025	15576
844.162	15549
844.298	15663
844.435	15424
844.571	15454
844.708	15545
844.844	15720
844.98	15679
845.117	15686
845.253	15538
845.389	15507
845.525	15454
845.661	15496
845.798	15363
845.934	15332
846.07	15268
846.206	15408
846.342	15447
846.478	15306
846.614	15169
846.75	15097
846.886	15100
847.022	15184
847.158	15036
847.294	15055
847.429	15127
847.565	15013
847.701	15252
847.837	14861
847.972	14800
848.108	14857
848.244	14857
848.379	14765
848.515	14720
848.65	14697
848.786	14648
848.921	14689
849.057	14845
849.192	14845
849.328	14708
849.463	14686
849.598	14686
849.734	14629
849.869	14495
850.004	14522
850.14	14450
850.275	14423
850.41	14393
850.545	14377
850.68	14476
850.815	14537
850.95	14522
851.085	14625
851.22	14518
851.355	14514
851.49	14480
851.625	14427
851.76	14358
851.895	14275
852.03	14374
852.165	14427
852.299	14583
852.434	14511
852.569	14541
852.703	14454
852.838	14575
852.973	14663
853.107	14575
853.242	14374
853.376	14370
853.511	14214
853.645	14267
853.78	14427
853.914	14332
854.048	14294
854.183	14309
854.317	14305
854.451	14514
854.585	14377
854.72	14267
854.854	14370
854.988	14191
855.122	14294
855.256	14237
855.39	14317
855.524	14492
855.658	14290
855.792	14324
855.926	14320
856.06	14396
856.194	14358
856.327	14339
856.461	14233
856.595	14244
856.729	14328
856.862	14404
856.996	14427
857.13	14317
857.263	14351
857.397	14393
857.53	14366
857.664	14313
857.797	14412
857.931	14408
858.064	14343
858.197	14404
858.331	14328
858.464	14343
858.597	14343
858.731	14298
858.864	14271
858.997	14278
859.13	14339
859.263	14469
859.396	14484
859.529	14202
859.662	14240
859.795	14221
859.928	14358
860.061	14400
860.194	14537
860.327	14415
860.46	14423
860.592	14381
860.725	14419
860.858	14434
860.99	14355
861.123	14237
861.256	14256
861.388	14221
861.521	15005
861.653	14168
861.786	14180
861.918	14248
862.05	14248
862.183	14328
862.315	14381
862.447	14389
862.58	14134
862.712	14050
862.844	14058
862.976	14206
863.108	14214
863.24	14514
863.372	13974
863.504	14100
863.636	14149
863.768	14142
863.9	14027
864.032	14035
864.164	14130
864.296	14092
864.428	14161
864.559	14233
864.691	14309
864.823	14206
864.954	14062
865.086	14237
865.217	14138
865.349	13898
865.48	14088
865.612	14145
865.743	14237
865.875	14046
866.006	14088
866.137	14145
866.269	14069
866.4	14115
866.531	14081
866.662	14001
866.793	14111
866.924	14123
867.055	14164
867.186	14092
867.317	13982
867.448	14016
867.579	14020
867.71	14050
867.841	13944
867.972	14096
868.103	14073
868.233	14077
868.364	14103
868.495	14195
868.625	14286
868.756	14404
868.886	14286
869.017	14195
869.147	14480
869.278	14552
869.408	14419
869.539	14324
869.669	14248
869.799	14419
869.929	14385
870.06	14412
870.19	14678
870.32	14632
870.45	14689
870.58	14758
870.71	14845
870.84	14857
870.97	14727
871.1	14796
871.23	14948
871.36	14872
871.489	14880
871.619	14952
871.749	14952
871.879	15055
872.008	15070
872.138	14990
872.267	14967
872.397	14872
872.526	14834
872.656	14777
872.785	14746
872.915	14925
873.044	14982
873.173	14948
873.303	14948
873.432	15047
873.561	15028
873.69	15039
873.819	14979
873.948	15066
874.077	14914
874.206	15009
874.335	14967
874.464	15222
874.593	15256
874.722	15279
874.851	15408
874.979	15351
875.108	15302
875.237	15275
875.365	15127
875.494	15275
875.623	15408
875.751	15256
875.88	15378
876.008	15325
876.136	15542
876.265	15759
876.393	15800
876.521	15838
876.65	15762
876.778	15713
876.906	15694
877.034	15671
877.162	15762
877.29	15603
877.418	15641
877.546	15652
877.674	15698
877.802	15808
877.93	15656
878.058	15644
878.185	15549
878.313	15709
878.441	15618
878.568	15477
878.696	15663
878.824	15842
878.951	15736
879.079	15895
879.206	15941
879.333	15895
879.461	15743
879.588	15816
879.715	15907
879.842	16044
879.97	15789
880.097	15561
880.224	15580
880.351	15599
880.478	15603
880.605	15500
880.732	15500
880.859	15774
880.986	15637
881.112	15557
881.239	15401
881.366	15348
881.493	15268
881.619	15298
881.746	15230
881.872	15260
881.999	15310
882.125	15195
882.252	15237
882.378	15291
882.505	15374
882.631	15188
882.757	15093
882.883	15112
883.01	15032
883.136	14986
883.262	14834
883.388	14899
883.514	14933
883.64	15135
883.766	15001
883.892	14804
884.018	14910
884.143	14910
884.269	15036
884.395	14769
884.52	14785
884.646	14731
884.772	14682
884.897	14693
885.023	14758
885.148	14899
885.274	14891
885.399	14906
885.524	14834
885.65	14823
885.775	14743
885.9	14731
886.025	14902
886.15	14800
886.275	14602
886.4	14606
886.525	14788
886.65	14621
886.775	14720
886.9	14849
887.025	14986
887.149	14712
887.274	14492
887.399	14613
887.523	14545
887.648	14495
887.773	14488
887.897	14594
888.021	14640
888.146	14488
888.27	14773
888.395	14640
888.519	14541
888.643	14545
888.767	14689
888.891	14480
889.015	14434
889.139	14476
889.263	14393
889.387	14568
889.511	14655
889.635	14488
889.759	14313
889.883	14461
890.006	14454
890.13	14568
890.254	14438
890.377	14454
890.501	14267
890.624	14206
890.748	14374
890.871	14130
890.995	14149
891.118	13989
891.241	14115
891.364	14119
891.488	14172
891.611	14073
891.734	14191
891.857	14187
891.98	14176
892.103	14218
892.226	14195
892.349	14031
892.471	13978
892.594	14088
892.717	14172
892.839	14111
892.962	14119
893.085	14233
893.207	14138
893.33	13917
893.452	14142
893.575	14210
893.697	14157
893.819	14271
893.941	14324
894.064	14252
894.186	14221
894.308	14092
894.43	14294
894.552	14362
894.674	14237
894.796	14149
894.918	14183
895.04	14119
895.161	14225
895.283	14183
895.405	14161
895.526	14248
895.648	14229
895.769	14233
895.891	14324
896.012	14465
896.134	14305
896.255	14282
896.376	14267
896.498	14256
896.619	14309
896.74	14366
896.861	14427
896.982	14731
897.103	14632
897.224	14625
897.345	14530
897.466	14484
897.587	14594
897.708	14716
897.828	14602
897.949	14610
898.07	14533
898.19	14507
898.311	14648
898.431	14651
898.552	14621
898.672	14720
898.792	14720
898.913	14686
899.033	14636
899.153	14560
899.273	14336
899.393	14530
899.513	14427
899.633	14476
899.753	14495
899.873	14408
899.993	14507
900.113	14446
900.232	14530
900.352	14457
900.472	14370
900.591	14339
900.711	14385
900.83	14313
900.95	14374
901.069	14564
901.189	14328
901.308	14077
901.427	13978
901.546	14005
901.665	14157
901.784	14081
901.904	13879
902.023	13917
902.141	13590
902.26	13628
902.379	13708
902.498	13609
902.617	13601
902.735	13628
902.854	13620
902.973	13601
903.091	13327
903.21	13266
903.328	13282
903.446	13228
903.565	13263
903.683	13274
903.801	13061
903.919	13190
904.038	13034
904.156	12985
904.274	13126
904.392	13000
904.51	12977
904.627	13004
904.745	13084
904.863	13103
904.981	12844
905.098	12692
905.216	12623
905.334	12707
905.451	12601
905.569	12741
905.686	12700
905.803	12688
905.921	12555
906.038	12585
906.155	12570
906.272	12334
906.389	12365
906.506	12315
906.623	12254
906.74	12289
906.857	12102
906.974	12251
907.091	12502
907.208	12338
907.324	12315
907.441	12178
907.557	12007
907.674	11973
907.79	11935
907.907	11999
908.023	12144
908.139	12106
908.256	11901
908.372	11954
908.488	11889
908.604	11840
908.72	11737
908.836	11741
908.952	11703
909.068	11691
909.184	11855
909.3	11726
909.415	11870
909.531	11870
909.647	11547
909.762	11596
909.878	11532
909.993	11528
910.108	11589
910.224	11573
910.339	11577
910.454	11391
910.57	11440
910.685	11364
910.8	11676
910.915	11638
911.03	11436
911.145	11277
911.259	11250
911.374	11379
911.489	11250
911.604	11143
911.718	11113
911.833	11075
911.947	10866
912.062	10816
912.176	10987
912.291	11056
912.405	11060
912.519	11242
912.633	11212
912.748	11045
912.862	10999
912.976	10965
913.09	10828
913.204	10835
913.318	10995
913.431	11041
913.545	10980
913.659	11098
913.772	10976
913.886	10786
914	10744
914.113	10934
914.226	10877
914.34	10858
914.453	10683
914.566	10831
914.68	10733
914.793	10706
914.906	10580
915.019	10447
915.132	10398
915.245	10535
915.358	10573
915.47	10603
915.583	10584
915.696	10558
915.809	10626
915.921	10717
916.034	10558
916.146	10493
916.259	10455
916.371	10596
916.483	10626
916.595	10470
916.708	10546
916.82	10554
916.932	10466
917.044	10428
917.156	10489
917.268	10325
917.38	10390
917.491	10303
917.603	10413
917.715	10462
917.826	10546
917.938	10409
918.049	10276
918.161	10371
918.272	10554
918.384	10413
918.495	10405
918.606	10253
918.717	10101
918.828	10272
918.939	10230
919.05	10131
919.161	10238
919.272	10097
919.383	10185
919.494	10318
919.604	10474
919.715	10246
919.826	10181
919.936	10310
920.047	10398
920.157	10257
920.267	10481
920.378	10265
920.488	10295
920.598	10478
920.708	10527
920.818	10413
920.928	10436
921.038	10691
921.148	10611
921.258	10318
921.368	10223
921.477	10154
921.587	10150
921.697	10078
921.806	10200
921.916	10021
922.025	9930
922.134	9823
922.244	9812
922.353	9930
922.462	9595
922.571	9614
922.68	9553
922.789	9545
922.898	9564
923.007	9549
923.116	9606
923.224	9561
923.333	9538
923.442	9348
923.55	9416
923.659	9431
923.767	9507
923.876	9405
923.984	9439
924.092	9374
924.201	9466
924.309	9412
924.417	9401
924.525	9340
924.633	9348
924.741	10310
924.849	9157
924.956	9355
925.064	9218
925.172	9066
925.279	9123
925.387	9165
925.494	9150
925.602	9268
925.709	9218
925.816	9154
925.924	9154
926.031	9294
926.138	9195
926.245	9245
926.352	9081
926.459	9253
926.566	9287
926.673	9146
926.779	9028
926.886	9055
926.993	8861
927.099	8929
927.206	8849
927.312	8842
927.419	8956
927.525	8937
927.631	8925
927.737	8788
927.843	8804
927.95	8697
928.056	8785
928.162	8849
928.267	8864
928.373	9408
928.479	8845
928.585	8667
928.69	8796
928.796	8788
928.901	8712
929.007	8606
929.112	8667
929.218	8678
929.323	8594
929.428	8583
929.533	8773
929.638	8518
929.743	8568
929.848	8640
929.953	8568
930.058	8476
930.163	8366
930.267	8400
930.372	8499
930.477	8351
930.581	8594
930.685	8454
930.79	8290
930.894	8370
930.998	8290
931.103	8473
931.207	8149
931.311	8077
931.415	7959
931.519	7841
931.623	7826
