Data from test_V78500241_2824.txt Node
Date: Fri Mar 25 14:53:22 CST 2022
User: usil
Spectrometer: V785-0024
Trigger mode: 0
Integration Time (sec): 4.000000E-1
Scans to average: 1
Nonlinearity correction enabled: false
Boxcar width: 0
Storing dark spectrum: false
XAxis mode: Wavelengths
Number of Pixels in Spectrum: 1024
>>>>>Begin Spectral Data<<<<<
801.071	21888
801.214	21926
801.356	21732
801.499	21644
801.641	21462
801.783	21397
801.926	21435
802.068	21370
802.211	21401
802.353	21123
802.496	21093
802.638	20982
802.78	20899
802.923	20754
803.065	20640
803.208	20667
803.35	20868
803.492	20819
803.635	20979
803.777	20739
803.919	20887
804.061	21005
804.204	20769
804.346	20594
804.488	20720
804.63	20785
804.773	20575
804.915	20632
805.057	20663
805.199	20598
805.341	20697
805.483	20731
805.626	20739
805.768	20560
805.91	20686
806.052	20708
806.194	20613
806.336	20727
806.478	20518
806.62	20590
806.762	20739
806.904	20891
807.046	21116
807.188	20986
807.33	20895
807.472	20994
807.614	20910
807.756	20918
807.898	20800
808.04	20667
808.182	20826
808.324	20712
808.465	20834
808.607	21062
808.749	21047
808.891	21192
809.033	21306
809.174	21093
809.316	21096
809.458	21036
809.6	21017
809.741	21070
809.883	21085
810.025	21252
810.166	21165
810.308	21165
810.45	21203
810.591	21081
810.733	20918
810.875	20921
811.016	21991
811.158	21009
811.299	20735
811.441	20918
811.582	20845
811.724	20697
811.865	20712
812.007	20708
812.148	20735
812.29	20899
812.431	21135
812.573	21066
812.714	21233
812.855	21222
812.997	21428
813.138	21492
813.279	21458
813.421	21237
813.562	21268
813.703	21173
813.845	20887
813.986	20594
814.127	20423
814.268	20423
814.41	20385
814.551	20278
814.692	20320
814.833	20336
814.974	20187
815.115	20313
815.256	20176
815.397	20259
815.539	20275
815.68	20092
815.821	20027
815.962	20062
816.103	20092
816.244	19868
816.385	19788
816.526	19814
816.666	19677
816.807	19552
816.948	19601
817.089	19533
817.23	19510
817.371	19369
817.512	19438
817.653	19354
817.793	19449
817.934	19346
818.075	19441
818.216	19540
818.356	19430
818.497	19312
818.638	19148
818.778	19118
818.919	19122
819.06	19228
819.2	19304
819.341	19430
819.481	19228
819.622	19434
819.762	19674
819.903	19658
820.043	19430
820.184	19472
820.324	19457
820.465	19529
820.605	19457
820.746	19430
820.886	19259
821.026	19415
821.167	19346
821.307	19453
821.447	19324
821.588	19343
821.728	19183
821.868	19038
822.008	18932
822.149	18905
822.289	18833
822.429	18486
822.569	18563
822.709	18570
822.849	18486
822.99	18350
823.13	18281
823.27	18289
823.41	18140
823.55	18186
823.69	18129
823.83	18159
823.97	18049
824.11	17893
824.25	17889
824.389	17916
824.529	17958
824.669	17927
824.809	17992
824.949	18068
825.089	18003
825.228	17996
825.368	17691
825.508	17596
825.648	17718
825.787	17752
825.927	17737
826.067	17695
826.206	17604
826.346	17748
826.485	17714
826.625	17680
826.765	17843
826.904	17710
827.044	17436
827.183	17429
827.323	17284
827.462	17478
827.601	17322
827.741	17341
827.88	17326
828.02	17254
828.159	17284
828.298	17486
828.437	17433
828.577	17345
828.716	17497
828.855	17322
828.994	17189
829.134	17136
829.273	17296
829.412	17113
829.551	17079
829.69	17033
829.829	17102
829.968	17360
830.107	17223
830.246	17181
830.385	17159
830.524	16984
830.663	16953
830.802	16889
830.941	16691
831.08	16649
831.219	16953
831.357	16904
831.496	16965
831.635	16771
831.774	16599
831.913	16634
832.051	16561
832.19	16504
832.329	16512
832.467	16523
832.606	16478
832.744	16470
832.883	16466
833.022	16447
833.16	16474
833.299	16470
833.437	16367
833.576	16512
833.714	16466
833.852	16531
833.991	16516
834.129	16573
834.267	16588
834.406	16424
834.544	16493
834.682	16481
834.821	16500
834.959	16687
835.097	16462
835.235	16546
835.373	16592
835.511	16451
835.65	16421
835.788	16402
835.926	16310
836.064	16219
836.202	16173
836.34	16489
836.478	16466
836.615	16405
836.753	16405
836.891	16466
837.029	16516
837.167	16341
837.305	16405
837.443	16360
837.58	16246
837.718	16421
837.856	16341
837.993	16234
838.131	16398
838.269	16169
838.406	16215
838.544	16192
838.681	15949
838.819	15975
838.956	15835
839.094	15819
839.231	15926
839.369	15899
839.506	16219
839.643	16093
839.781	15823
839.918	15789
840.055	15751
840.193	15873
840.33	15808
840.467	15808
840.604	15850
840.742	16101
840.879	15660
841.016	15774
841.153	15819
841.29	15941
841.427	15899
841.564	15918
841.701	15873
841.838	15850
841.975	15793
842.112	15728
842.249	15568
842.385	15701
842.522	15793
842.659	15675
842.796	15515
842.933	15625
843.069	15515
843.206	15618
843.343	15751
843.479	15523
843.616	15641
843.752	15302
843.889	15393
844.025	15519
844.162	15367
844.298	15545
844.435	15332
844.571	15332
844.708	15443
844.844	15538
844.98	15542
845.117	15477
845.253	15370
845.389	15306
845.525	15370
845.661	15237
845.798	15154
845.934	15294
846.07	15211
846.206	15245
846.342	15279
846.478	15131
846.614	15081
846.75	14952
846.886	15013
847.022	15097
847.158	15032
847.294	15051
847.429	15058
847.565	14914
847.701	15218
847.837	14693
847.972	14613
848.108	14811
848.244	14746
848.379	14640
848.515	14530
848.65	14564
848.786	14594
848.921	14571
849.057	14674
849.192	14644
849.328	14625
849.463	14655
849.598	14514
849.734	14423
849.869	14412
850.004	14396
850.14	14408
850.275	14317
850.41	14256
850.545	14229
850.68	14237
850.815	14336
850.95	14290
851.085	14454
851.22	14381
851.355	14396
851.49	14187
851.625	14267
851.76	14221
851.895	14183
852.03	14210
852.165	14298
852.299	14400
852.434	14415
852.569	14374
852.703	14415
852.838	14362
852.973	14537
853.107	14450
853.242	14313
853.376	14240
853.511	13959
853.645	14248
853.78	14328
853.914	14305
854.048	14187
854.183	14153
854.317	14191
854.451	14446
854.585	14168
854.72	14145
854.854	14237
854.988	14164
855.122	14096
855.256	14100
855.39	14210
855.524	14229
855.658	14237
855.792	14176
855.926	14282
856.06	14298
856.194	14355
856.327	14176
856.461	14134
856.595	14115
856.729	14187
856.862	14328
856.996	14263
857.13	14263
857.263	14339
857.397	14317
857.53	14176
857.664	14389
857.797	14286
857.931	14412
858.064	14206
858.197	14298
858.331	14229
858.464	14172
858.597	13978
858.731	14126
858.864	14161
858.997	14130
859.13	14157
859.263	14164
859.396	14286
859.529	14199
859.662	14153
859.795	14233
859.928	14157
860.061	14389
860.194	14419
860.327	14298
860.46	14256
860.592	14419
860.725	14336
860.858	14286
860.99	14164
861.123	14126
861.256	14157
861.388	14172
861.521	14876
861.653	14005
861.786	14031
861.918	14024
862.05	14172
862.183	14096
862.315	14138
862.447	14278
862.58	14100
862.712	13951
862.844	13925
862.976	13989
863.108	14062
863.24	14256
863.372	13925
863.504	14084
863.636	13921
863.768	14138
863.9	13986
864.032	13928
864.164	14001
864.296	14001
864.428	14145
864.559	14058
864.691	14050
864.823	14043
864.954	14062
865.086	14024
865.217	13940
865.349	14058
865.48	13909
865.612	13944
865.743	14115
865.875	14050
866.006	13925
866.137	13921
866.269	14039
866.4	13963
866.531	13955
866.662	13833
866.793	13868
866.924	13841
867.055	13978
867.186	13974
867.317	13955
867.448	13849
867.579	13936
867.71	13780
867.841	13807
867.972	13997
868.103	14077
868.233	13913
868.364	13989
868.495	14005
868.625	14202
868.756	14229
868.886	14107
869.017	14153
869.147	14339
869.278	14301
869.408	14210
869.539	14256
869.669	14278
869.799	14294
869.929	14351
870.06	14450
870.19	14514
870.32	14457
870.45	14541
870.58	14670
870.71	14651
870.84	14739
870.97	14640
871.1	14606
871.23	14758
871.36	14815
871.489	14769
871.619	14807
871.749	14872
871.879	14861
872.008	14906
872.138	14876
872.267	14746
872.397	14689
872.526	14610
872.656	14708
872.785	14651
872.915	14819
873.044	14963
873.173	14861
873.303	14845
873.432	14941
873.561	14967
873.69	14906
873.819	14849
873.948	15013
874.077	14853
874.206	14880
874.335	14899
874.464	15077
874.593	15287
874.722	15058
874.851	15310
874.979	15268
875.108	15089
875.237	15154
875.365	15104
875.494	15165
875.623	15161
875.751	15176
875.88	15119
876.008	15317
876.136	15340
876.265	15603
876.393	15759
876.521	15797
876.65	15603
876.778	15622
876.906	15519
877.034	15595
877.162	15587
877.29	15439
877.418	15587
877.546	15610
877.674	15625
877.802	15614
877.93	15622
878.058	15538
878.185	15504
878.313	15576
878.441	15599
878.568	15488
878.696	15576
878.824	15652
878.951	15682
879.079	15816
879.206	15888
879.333	15911
879.461	15663
879.588	15797
879.715	15816
879.842	15987
879.97	15682
880.097	15416
880.224	15500
880.351	15431
880.478	15477
880.605	15462
880.732	15485
880.859	15656
880.986	15488
881.112	15386
881.239	15294
881.366	15268
881.493	15055
881.619	15123
881.746	15188
881.872	15100
881.999	15058
882.125	15089
882.252	15283
882.378	15237
882.505	15329
882.631	15070
882.757	14956
882.883	15051
883.01	14986
883.136	14754
883.262	14864
883.388	14754
883.514	14921
883.64	15058
883.766	14769
883.892	14651
884.018	14773
884.143	14891
884.269	14864
884.395	14731
884.52	14602
884.646	14610
884.772	14530
884.897	14613
885.023	14674
885.148	14720
885.274	14823
885.399	14701
885.524	14640
885.65	14667
885.775	14632
885.9	14602
886.025	14716
886.15	14754
886.275	14579
886.4	14594
886.525	14682
886.65	14579
886.775	14571
886.9	14800
887.025	14796
887.149	14689
887.274	14507
887.399	14450
887.523	14393
887.648	14442
887.773	14415
887.897	14507
888.021	14454
888.146	14336
888.27	14526
888.395	14625
888.519	14465
888.643	14575
888.767	14476
888.891	14476
889.015	14336
889.139	14408
889.263	14244
889.387	14396
889.511	14522
889.635	14488
889.759	14339
889.883	14256
890.006	14290
890.13	14393
890.254	14218
890.377	14332
890.501	14126
890.624	14233
890.748	14164
890.871	14161
890.995	14020
891.118	13909
891.241	14001
891.364	14100
891.488	14206
891.611	14073
891.734	14062
891.857	14100
891.98	14077
892.103	14096
892.226	13970
892.349	14073
892.471	13814
892.594	14149
892.717	14027
892.839	14024
892.962	14062
893.085	14008
893.207	14024
893.33	13894
893.452	13982
893.575	14092
893.697	14031
893.819	14221
893.941	14400
894.064	14149
894.186	13959
894.308	13997
894.43	14168
894.552	14278
894.674	14187
894.796	14027
894.918	14119
895.04	13989
895.161	14206
895.283	14176
895.405	14031
895.526	14107
895.648	14168
895.769	14244
895.891	14191
896.012	14324
896.134	14263
896.255	14145
896.376	14172
896.498	14168
896.619	14259
896.74	14199
896.861	14275
896.982	14511
897.103	14667
897.224	14400
897.345	14480
897.466	14358
897.587	14503
897.708	14613
897.828	14571
897.949	14511
898.07	14282
898.19	14324
898.311	14545
898.431	14484
898.552	14476
898.672	14678
898.792	14670
898.913	14545
899.033	14465
899.153	14454
899.273	14404
899.393	14320
899.513	14370
899.633	14324
899.753	14374
899.873	14370
899.993	14381
900.113	14423
900.232	14412
900.352	14377
900.472	14339
900.591	14252
900.711	14240
900.83	14210
900.95	14332
901.069	14343
901.189	14145
901.308	13997
901.427	13932
901.546	13970
901.665	13917
901.784	14020
901.904	13837
902.023	13708
902.141	13655
902.26	13525
902.379	13597
902.498	13453
902.617	13499
902.735	13689
902.854	13491
902.973	13457
903.091	13251
903.21	13350
903.328	13259
903.446	13160
903.565	13103
903.683	13190
903.801	12973
903.919	13080
904.038	13061
904.156	12894
904.274	12920
904.392	12875
904.51	12840
904.627	12962
904.745	12913
904.863	12947
904.981	12688
905.098	12517
905.216	12612
905.334	12578
905.451	12612
905.569	12582
905.686	12582
905.803	12608
905.921	12410
906.038	12456
906.155	12437
906.272	12273
906.389	12338
906.506	12152
906.623	12155
906.74	12270
906.857	12060
906.974	12068
907.091	12228
907.208	12369
907.324	12258
907.441	12129
907.557	11984
907.674	11984
907.79	11866
907.907	11931
908.023	11954
908.139	11984
908.256	11859
908.372	11866
908.488	11916
908.604	11707
908.72	11733
908.836	11764
908.952	11634
909.068	11741
909.184	11870
909.3	11688
909.415	11710
909.531	11756
909.647	11501
909.762	11551
909.878	11387
909.993	11474
910.108	11543
910.224	11410
910.339	11539
910.454	11318
910.57	11467
910.685	11273
910.8	11547
910.915	11573
911.03	11288
911.145	11151
911.259	11170
911.374	11109
911.489	11079
911.604	10976
911.718	10999
911.833	10957
911.947	10839
912.062	10790
912.176	11010
912.291	10889
912.405	10923
912.519	11147
912.633	11113
912.748	10976
912.862	10927
912.976	10797
913.09	10847
913.204	10797
913.318	10858
913.431	10850
913.545	10854
913.659	10946
913.772	10809
913.886	10767
914	10717
914.113	10778
914.226	10873
914.34	10702
914.453	10611
914.566	10755
914.68	10698
914.793	10592
914.906	10470
915.019	10386
915.132	10398
915.245	10402
915.358	10424
915.47	10382
915.583	10538
915.696	10497
915.809	10618
915.921	10618
916.034	10421
916.146	10485
916.259	10242
916.371	10523
916.483	10440
916.595	10375
916.708	10352
916.82	10367
916.932	10314
917.044	10356
917.156	10337
917.268	10204
917.38	10284
917.491	10314
917.603	10402
917.715	10337
917.826	10341
917.938	10272
918.049	10143
918.161	10284
918.272	10443
918.384	10390
918.495	10287
918.606	10192
918.717	10116
918.828	10112
918.939	10169
919.05	10086
919.161	10185
919.272	9888
919.383	9987
919.494	10185
919.604	10329
919.715	10154
919.826	10105
919.936	10109
920.047	10234
920.157	10207
920.267	10348
920.378	10177
920.488	10200
920.598	10356
920.708	10558
920.818	10386
920.928	10322
921.038	10588
921.148	10481
921.258	10207
921.368	10143
921.477	9972
921.587	10101
921.697	9854
921.806	9983
921.916	9869
922.025	9804
922.134	9793
922.244	9618
922.353	9740
922.462	9701
922.571	9561
922.68	9435
922.789	9424
922.898	9420
923.007	9329
923.116	9557
923.224	9428
923.333	9416
923.442	9329
923.55	9397
923.659	9332
923.767	9378
923.876	9279
923.984	9374
924.092	9268
924.201	9321
924.309	9264
924.417	9329
924.525	9157
924.633	9237
924.741	10055
924.849	9039
924.956	9157
925.064	9112
925.172	9013
925.279	9074
925.387	9024
925.494	9116
925.602	9260
925.709	9188
925.816	9005
925.924	9157
926.031	9154
926.138	9085
926.245	9154
926.352	8956
926.459	9214
926.566	9283
926.673	8990
926.779	8982
926.886	8918
926.993	8788
927.099	8811
927.206	8773
927.312	8648
927.419	8792
927.525	8804
927.631	8899
927.737	8708
927.843	8708
927.95	8606
928.056	8663
928.162	8629
928.267	8796
928.373	9283
928.479	8769
928.585	8549
928.69	8621
928.796	8701
928.901	8598
929.007	8488
929.112	8613
929.218	8518
929.323	8514
929.428	8575
929.533	8621
929.638	8404
929.743	8476
929.848	8617
929.953	8476
930.058	8438
930.163	8256
930.267	8343
930.372	8473
930.477	8263
930.581	8492
930.685	8389
930.79	8187
930.894	8248
930.998	8183
931.103	8396
931.207	8077
931.311	7986
931.415	7955
931.519	7677
931.623	7708
