Data from test_V78500241_409.txt Node
Date: Fri Mar 25 14:36:34 CST 2022
User: usil
Spectrometer: V785-0024
Trigger mode: 0
Integration Time (sec): 4.000000E-1
Scans to average: 1
Nonlinearity correction enabled: false
Boxcar width: 0
Storing dark spectrum: false
XAxis mode: Wavelengths
Number of Pixels in Spectrum: 1024
>>>>>Begin Spectral Data<<<<<
801.071	26731
801.214	26545
801.356	26301
801.499	26278
801.641	26126
801.783	26005
801.926	26077
802.068	26043
802.211	25951
802.353	25883
802.496	25769
802.638	25696
802.78	25746
802.923	25693
803.065	25495
803.208	25597
803.35	25533
803.492	25712
803.635	25803
803.777	25605
803.919	25616
804.061	25909
804.204	25776
804.346	25567
804.488	25441
804.63	25616
804.773	25445
804.915	25582
805.057	25685
805.199	25632
805.341	25601
805.483	25772
805.626	25658
805.768	25582
805.91	25597
806.052	25856
806.194	25548
806.336	25776
806.478	25788
806.62	25597
806.762	25776
806.904	25970
807.046	26233
807.188	25955
807.33	26062
807.472	26031
807.614	25875
807.756	25932
807.898	25799
808.04	25734
808.182	25765
808.324	25693
808.465	25909
808.607	26024
808.749	26218
808.891	26282
809.033	26347
809.174	26309
809.316	26096
809.458	26096
809.6	26005
809.741	26111
809.883	26252
810.025	26355
810.166	26225
810.308	26355
810.45	26210
810.591	26313
810.733	26050
810.875	25936
811.016	25978
811.158	25871
811.299	26142
811.441	25993
811.582	26183
811.724	25974
811.865	25879
812.007	25978
812.148	26005
812.29	26073
812.431	25959
812.573	26187
812.714	26206
812.855	26381
812.997	26587
813.138	26708
813.279	26571
813.421	26522
813.562	26396
813.703	26191
813.845	26168
813.986	25947
814.127	25681
814.268	25510
814.41	25506
814.551	25464
814.692	25548
814.833	25529
814.974	25544
815.115	25506
815.256	25278
815.397	25225
815.539	25377
815.68	25247
815.821	25221
815.962	25209
816.103	25327
816.244	25072
816.385	25046
816.526	25023
816.666	24783
816.807	24669
816.948	24776
817.089	24677
817.23	24700
817.371	24597
817.512	24582
817.653	24540
817.793	24597
817.934	24608
818.075	24665
818.216	24745
818.356	24650
818.497	24391
818.638	24285
818.778	24281
818.919	24353
819.06	24433
819.2	24315
819.341	24536
819.481	24391
819.622	24688
819.762	24753
819.903	24779
820.043	24654
820.184	24589
820.324	24677
820.465	24715
820.605	24658
820.746	24661
820.886	24494
821.026	24498
821.167	24532
821.307	24650
821.447	24475
821.588	24441
821.728	24273
821.868	24148
822.008	23977
822.149	23885
822.289	23950
822.429	23684
822.569	23608
822.709	23642
822.849	23486
822.99	23379
823.13	23406
823.27	23421
823.41	23197
823.55	23140
823.69	23235
823.83	23239
823.97	23250
824.11	23006
824.25	22968
824.389	22976
824.529	22999
824.669	22896
824.809	23166
824.949	23010
825.089	23029
825.228	22991
825.368	22740
825.508	22854
825.648	22873
825.787	22854
825.927	22908
826.067	22710
826.206	22805
826.346	22771
826.485	22843
826.625	22691
826.765	22869
826.904	22706
827.044	22443
827.183	22451
827.323	22538
827.462	22596
827.601	22413
827.741	22466
827.88	22519
828.02	22280
828.159	22371
828.298	22554
828.437	22424
828.577	22360
828.716	22527
828.855	22424
828.994	22287
829.134	22196
829.273	22272
829.412	22131
829.551	22158
829.69	22166
829.829	22109
829.968	22276
830.107	22207
830.246	22242
830.385	22044
830.524	22006
830.663	21983
830.802	21755
830.941	21591
831.08	21656
831.219	21812
831.357	21720
831.496	21918
831.635	21652
831.774	21576
831.913	21564
832.051	21545
832.19	21542
832.329	21523
832.467	21412
832.606	21370
832.744	21401
832.883	21207
833.022	21523
833.16	21405
833.299	21329
833.437	21386
833.576	21443
833.714	21412
833.852	21428
833.991	21618
834.129	21443
834.267	21408
834.406	21370
834.544	21348
834.682	21420
834.821	21378
834.959	21534
835.097	21302
835.235	21466
835.373	21336
835.511	21351
835.65	21195
835.788	21321
835.926	21176
836.064	20979
836.202	21104
836.34	21272
836.478	21275
836.615	21306
836.753	21310
836.891	21241
837.029	21260
837.167	21154
837.305	21043
837.443	21230
837.58	21028
837.718	21199
837.856	21138
837.993	21123
838.131	21009
838.269	20891
838.406	20967
838.544	20853
838.681	20826
838.819	20796
838.956	20560
839.094	20541
839.231	20602
839.369	20735
839.506	20826
839.643	20849
839.781	20533
839.918	20511
840.055	20522
840.193	20526
840.33	20446
840.467	20450
840.604	20450
840.742	20769
840.879	20294
841.016	20298
841.153	20415
841.29	20533
841.427	20457
841.564	20427
841.701	20374
841.838	20461
841.975	20225
842.112	20267
842.249	20347
842.385	20244
842.522	20366
842.659	20259
842.796	20176
842.933	20149
843.069	20062
843.206	20077
843.343	20180
843.479	20134
843.616	20149
843.752	20001
843.889	19849
844.025	19970
844.162	19909
844.298	19967
844.435	19898
844.571	19791
844.708	19906
844.844	20221
844.98	20058
845.117	20016
845.253	19795
845.389	19704
845.525	19788
845.661	19833
845.798	19632
845.934	19765
846.07	19651
846.206	19791
846.342	19898
846.478	19651
846.614	19499
846.75	19441
846.886	19331
847.022	19396
847.158	19457
847.294	19483
847.429	19419
847.565	19381
847.701	19567
847.837	19088
847.972	19065
848.108	19152
848.244	19213
848.379	19015
848.515	18920
848.65	18817
848.786	18901
848.921	18844
849.057	19095
849.192	19080
849.328	19065
849.463	18989
849.598	18985
849.734	18814
849.869	18814
850.004	18738
850.14	18753
850.275	18726
850.41	18593
850.545	18692
850.68	18623
850.815	18688
850.95	18658
851.085	18878
851.22	18825
851.355	18661
851.49	18688
851.625	18684
851.76	18620
851.895	18486
852.03	18589
852.165	18623
852.299	18760
852.434	18779
852.569	18741
852.703	18650
852.838	18696
852.973	18772
853.107	18859
853.242	18627
853.376	18570
853.511	18437
853.645	18479
853.78	18661
853.914	18585
854.048	18513
854.183	18551
854.317	18486
854.451	18650
854.585	18532
854.72	18597
854.854	18639
854.988	18464
855.122	18429
855.256	18273
855.39	18582
855.524	18635
855.658	18566
855.792	18639
855.926	18536
856.06	18555
856.194	18692
856.327	18467
856.461	18410
856.595	18418
856.729	18506
856.862	18506
856.996	18426
857.13	18559
857.263	18555
857.397	18555
857.53	18559
857.664	18612
857.797	18631
857.931	18623
858.064	18593
858.197	18490
858.331	18555
858.464	18410
858.597	18433
858.731	18471
858.864	18456
858.997	18342
859.13	18517
859.263	18483
859.396	18502
859.529	18464
859.662	18471
859.795	18437
859.928	18475
860.061	18707
860.194	18623
860.327	18399
860.46	18551
860.592	18604
860.725	18631
860.858	18601
860.99	18574
861.123	18357
861.256	18346
861.388	18517
861.521	19213
861.653	18258
861.786	18304
861.918	18346
862.05	18426
862.183	18506
862.315	18540
862.447	18620
862.58	18346
862.712	18262
862.844	18114
862.976	18251
863.108	18224
863.24	18536
863.372	18201
863.504	18273
863.636	18254
863.768	18254
863.9	18194
864.032	18068
864.164	18239
864.296	18273
864.428	18308
864.559	18186
864.691	18292
864.823	18235
864.954	18194
865.086	18197
865.217	18034
865.349	17980
865.48	18106
865.612	18266
865.743	18273
865.875	18034
866.006	18129
866.137	18144
866.269	18117
866.4	18133
866.531	18022
866.662	17961
866.793	18144
866.924	18095
867.055	18057
867.186	18041
867.317	18079
867.448	17931
867.579	18038
867.71	17973
867.841	17958
867.972	18117
868.103	17984
868.233	18121
868.364	18144
868.495	18140
868.625	18346
868.756	18395
868.886	18197
869.017	18273
869.147	18391
869.278	18517
869.408	18258
869.539	18304
869.669	18384
869.799	18422
869.929	18452
870.06	18380
870.19	18642
870.32	18589
870.45	18532
870.58	18673
870.71	18821
870.84	18806
870.97	18650
871.1	18623
871.23	18795
871.36	18916
871.489	18837
871.619	18837
871.749	18806
871.879	18924
872.008	19038
872.138	18905
872.267	18935
872.397	18745
872.526	18681
872.656	18802
872.785	18593
872.915	19042
873.044	19023
873.173	18848
873.303	18916
873.432	19012
873.561	19046
873.69	18897
873.819	18913
873.948	19099
874.077	18848
874.206	18787
874.335	18954
874.464	18977
874.593	19152
874.722	19091
874.851	19148
874.979	19095
875.108	19145
875.237	19110
875.365	19095
875.494	19160
875.623	19202
875.751	19072
875.88	19194
876.008	19289
876.136	19392
876.265	19620
876.393	19746
876.521	19757
876.65	19651
876.778	19624
876.906	19529
877.034	19575
877.162	19445
877.29	19384
877.418	19563
877.546	19700
877.674	19567
877.802	19620
877.93	19544
878.058	19491
878.185	19514
878.313	19480
878.441	19590
878.568	19339
878.696	19449
878.824	19605
878.951	19616
879.079	19742
879.206	19845
879.333	19742
879.461	19700
879.588	19765
879.715	19830
879.842	19845
879.97	19655
880.097	19407
880.224	19422
880.351	19415
880.478	19460
880.605	19426
880.732	19396
880.859	19780
880.986	19335
881.112	19525
881.239	19251
881.366	19293
881.493	19160
881.619	19088
881.746	19057
881.872	19050
881.999	19012
882.125	18996
882.252	19053
882.378	19042
882.505	19160
882.631	18913
882.757	18878
882.883	18886
883.01	18886
883.136	18741
883.262	18684
883.388	18738
883.514	18837
883.64	18871
883.766	18722
883.892	18661
884.018	18688
884.143	18711
884.269	18772
884.395	18570
884.52	18441
884.646	18559
884.772	18342
884.897	18273
885.023	18498
885.148	18593
885.274	18570
885.399	18513
885.524	18506
885.65	18429
885.775	18452
885.9	18532
886.025	18528
886.15	18490
886.275	18357
886.4	18350
886.525	18361
886.65	18441
886.775	18376
886.9	18563
887.025	18563
887.149	18292
887.274	18194
887.399	18342
887.523	18323
887.648	18247
887.773	18087
887.897	18315
888.021	18258
888.146	18182
888.27	18243
888.395	18361
888.519	18319
888.643	18178
888.767	18273
888.891	18174
889.015	18098
889.139	17984
889.263	18041
889.387	18129
889.511	18292
889.635	18148
889.759	17954
889.883	18026
890.006	18003
890.13	18140
890.254	17920
890.377	17901
890.501	17809
890.624	17722
890.748	17863
890.871	17805
890.995	17676
891.118	17600
891.241	17551
891.364	17623
891.488	17729
891.611	17623
891.734	17726
891.857	17676
891.98	17684
892.103	17684
892.226	17687
892.349	17627
892.471	17463
892.594	17699
892.717	17687
892.839	17524
892.962	17611
893.085	17748
893.207	17653
893.33	17646
893.452	17604
893.575	17577
893.697	17493
893.819	17767
893.941	17805
894.064	17737
894.186	17539
894.308	17539
894.43	17589
894.552	17741
894.674	17665
894.796	17493
894.918	17611
895.04	17551
895.161	17748
895.283	17668
895.405	17516
895.526	17596
895.648	17627
895.769	17627
895.891	17634
896.012	17676
896.134	17672
896.255	17642
896.376	17699
896.498	17619
896.619	17691
896.74	17634
896.861	17786
896.982	18045
897.103	18133
897.224	17984
897.345	17973
897.466	17912
897.587	17870
897.708	18007
897.828	17916
897.949	17809
898.07	17775
898.19	17893
898.311	18034
898.431	17843
898.552	17942
898.672	17874
898.792	17980
898.913	17912
899.033	17874
899.153	17604
899.273	17623
899.393	17703
899.513	17817
899.633	17699
899.753	17672
899.873	17619
899.993	17722
900.113	17634
900.232	17634
900.352	17718
900.472	17547
900.591	17551
900.711	17478
900.83	17490
900.95	17661
901.069	17627
901.189	17482
901.308	17284
901.427	17193
901.546	17185
901.665	17212
901.784	17037
901.904	16938
902.023	16991
902.141	16812
902.26	16698
902.379	16706
902.498	16649
902.617	16592
902.735	16729
902.854	16710
902.973	16584
903.091	16424
903.21	16325
903.328	16322
903.446	16291
903.565	16162
903.683	16207
903.801	16097
903.919	16196
904.038	16162
904.156	15972
904.274	16124
904.392	15941
904.51	15899
904.627	16071
904.745	16010
904.863	16002
904.981	15800
905.098	15629
905.216	15728
905.334	15667
905.451	15675
905.569	15637
905.686	15698
905.803	15591
905.921	15424
906.038	15428
906.155	15511
906.272	15317
906.389	15382
906.506	15252
906.623	15157
906.74	15051
906.857	15116
906.974	15085
907.091	15268
907.208	15348
907.324	15233
907.441	15024
907.557	14944
907.674	14921
907.79	14815
907.907	14853
908.023	14845
908.139	14815
908.256	14788
908.372	14796
908.488	14727
908.604	14636
908.72	14594
908.836	14564
908.952	14507
909.068	14583
909.184	14678
909.3	14617
909.415	14556
909.531	14640
909.647	14393
909.762	14301
909.878	14168
909.993	14301
910.108	14229
910.224	14256
910.339	14240
910.454	14202
910.57	14202
910.685	14088
910.8	14408
910.915	14339
911.03	14088
911.145	13860
911.259	13921
911.374	13951
911.489	13887
911.604	13818
911.718	13685
911.833	13738
911.947	13628
912.062	13480
912.176	13746
912.291	13662
912.405	13636
912.519	13738
912.633	13852
912.748	13685
912.862	13556
912.976	13464
913.09	13434
913.204	13457
913.318	13483
913.431	13624
913.545	13620
913.659	13632
913.772	13487
913.886	13426
914	13373
914.113	13460
914.226	13499
914.34	13441
914.453	13308
914.566	13358
914.68	13320
914.793	13285
914.906	13126
915.019	13084
915.132	13015
915.245	13053
915.358	13027
915.47	13065
915.583	13050
915.696	13095
915.809	13088
915.921	13190
916.034	13031
916.146	12947
916.259	12924
916.371	12996
916.483	13023
916.595	12852
916.708	12913
916.82	12916
916.932	12924
917.044	12806
917.156	12882
917.268	12738
917.38	12734
917.491	12776
917.603	12741
917.715	12825
917.826	12825
917.938	12738
918.049	12604
918.161	12783
918.272	12848
918.384	12856
918.495	12779
918.606	12555
918.717	12467
918.828	12536
918.939	12627
919.05	12570
919.161	12551
919.272	12285
919.383	12353
919.494	12570
919.604	12722
919.715	12471
919.826	12433
919.936	12471
920.047	12544
920.157	12513
920.267	12715
920.378	12521
920.488	12471
920.598	12665
920.708	12844
920.818	12646
920.928	12673
921.038	12848
921.148	12848
921.258	12479
921.368	12456
921.477	12319
921.587	12254
921.697	12190
921.806	12433
921.916	12251
922.025	12068
922.134	12034
922.244	11939
922.353	11977
922.462	11843
922.571	11809
922.68	11653
922.789	11558
922.898	11680
923.007	11615
923.116	11623
923.224	11623
923.333	11619
923.442	11493
923.55	11497
923.659	11524
923.767	11573
923.876	11425
923.984	11573
924.092	11345
924.201	11406
924.309	11410
924.417	11414
924.525	11436
924.633	11486
924.741	12308
924.849	11239
924.956	11296
925.064	11174
925.172	11037
925.279	11181
925.387	11174
925.494	11201
925.602	11337
925.709	11280
925.816	11140
925.924	11204
926.031	11265
926.138	11258
926.245	11143
926.352	11067
926.459	11155
926.566	11250
926.673	11037
926.779	10972
926.886	11041
926.993	10900
927.099	10759
927.206	10725
927.312	10767
927.419	10839
927.525	10816
927.631	10809
927.737	10630
927.843	10717
927.95	10554
928.056	10683
928.162	10725
928.267	10630
928.373	11250
928.479	10843
928.585	10580
928.69	10500
928.796	10675
928.901	10546
929.007	10348
929.112	10546
929.218	10519
929.323	10394
929.428	10394
929.533	10592
929.638	10344
929.743	10352
929.848	10417
929.953	10318
930.058	10344
930.163	10143
930.267	10101
930.372	10268
930.477	10059
930.581	10295
930.685	10234
930.79	9991
930.894	10090
930.998	9987
931.103	10181
931.207	9785
931.311	9728
931.415	9644
931.519	9481
931.623	9458
