Data from test_V78500241_3354.txt Node
Date: Fri Mar 25 14:57:04 CST 2022
User: usil
Spectrometer: V785-0024
Trigger mode: 0
Integration Time (sec): 4.000000E-1
Scans to average: 1
Nonlinearity correction enabled: false
Boxcar width: 0
Storing dark spectrum: false
XAxis mode: Wavelengths
Number of Pixels in Spectrum: 1024
>>>>>Begin Spectral Data<<<<<
801.071	21797
801.214	21865
801.356	21663
801.499	21412
801.641	21378
801.783	21214
801.926	21428
802.068	21237
802.211	21127
802.353	21150
802.496	20910
802.638	20773
802.78	20857
802.923	20629
803.065	20613
803.208	20670
803.35	20659
803.492	20579
803.635	20697
803.777	20598
803.919	20667
804.061	20902
804.204	20750
804.346	20590
804.488	20480
804.63	20636
804.773	20461
804.915	20636
805.057	20651
805.199	20495
805.341	20651
805.483	20530
805.626	20655
805.768	20358
805.91	20484
806.052	20590
806.194	20454
806.336	20686
806.478	20564
806.62	20454
806.762	20556
806.904	20648
807.046	20941
807.188	20811
807.33	20849
807.472	20918
807.614	20705
807.756	20807
807.898	20644
808.04	20549
808.182	20556
808.324	20587
808.465	20724
808.607	20872
808.749	20918
808.891	21013
809.033	20998
809.174	20963
809.316	20823
809.458	20925
809.6	20807
809.741	21024
809.883	21039
810.025	21131
810.166	21081
810.308	21070
810.45	21001
810.591	20872
810.733	20834
810.875	20629
811.016	20636
811.158	20655
811.299	20689
811.441	20678
811.582	20754
811.724	20674
811.865	20568
812.007	20556
812.148	20602
812.29	20655
812.431	20845
812.573	20887
812.714	21028
812.855	21214
812.997	21218
813.138	21355
813.279	21199
813.421	21214
813.562	21119
813.703	20785
813.845	20724
813.986	20530
814.127	20358
814.268	20259
814.41	20237
814.551	20145
814.692	20347
814.833	20145
814.974	20119
815.115	20199
815.256	20020
815.397	20035
815.539	20001
815.68	19871
815.821	19830
815.962	19978
816.103	19902
816.244	19784
816.385	19811
816.526	19563
816.666	19502
816.807	19346
816.948	19457
817.089	19521
817.23	19289
817.371	19426
817.512	19236
817.653	19187
817.793	19225
817.934	19320
818.075	19407
818.216	19270
818.356	19225
818.497	19114
818.638	18989
818.778	18817
818.919	18989
819.06	19000
819.2	19164
819.341	19156
819.481	19164
819.622	19426
819.762	19438
819.903	19392
820.043	19388
820.184	19285
820.324	19327
820.465	19244
820.605	19316
820.746	19331
820.886	19244
821.026	19285
821.167	19259
821.307	19396
821.447	19148
821.588	19042
821.728	18981
821.868	18977
822.008	18703
822.149	18703
822.289	18654
822.429	18456
822.569	18372
822.709	18429
822.849	18216
822.99	18232
823.13	18254
823.27	18205
823.41	17958
823.55	18106
823.69	18087
823.83	18205
823.97	17893
824.11	17824
824.25	17813
824.389	17764
824.529	17821
824.669	17752
824.809	17999
824.949	17973
825.089	17874
825.228	17794
825.368	17680
825.508	17596
825.648	17592
825.787	17615
825.927	17646
826.067	17596
826.206	17528
826.346	17589
826.485	17695
826.625	17592
826.765	17615
826.904	17623
827.044	17284
827.183	17292
827.323	17258
827.462	17372
827.601	17406
827.741	17284
827.88	17250
828.02	17121
828.159	17185
828.298	17425
828.437	17372
828.577	17239
828.716	17421
828.855	17258
828.994	17014
829.134	17117
829.273	17045
829.412	16957
829.551	16911
829.69	17132
829.829	17033
829.968	17185
830.107	17117
830.246	17079
830.385	16923
830.524	16965
830.663	16968
830.802	16755
830.941	16748
831.08	16736
831.219	16721
831.357	16763
831.496	16961
831.635	16580
831.774	16584
831.913	16485
832.051	16379
832.19	16542
832.329	16531
832.467	16413
832.606	16333
832.744	16451
832.883	16432
833.022	16325
833.16	16242
833.299	16459
833.437	16386
833.576	16417
833.714	16447
833.852	16379
833.991	16470
834.129	16432
834.267	16500
834.406	16508
834.544	16466
834.682	16512
834.821	16402
834.959	16550
835.097	16363
835.235	16519
835.373	16493
835.511	16417
835.65	16287
835.788	16341
835.926	16242
836.064	16124
836.202	16265
836.34	16348
836.478	16440
836.615	16363
836.753	16367
836.891	16432
837.029	16455
837.167	16265
837.305	16192
837.443	16150
837.58	16265
837.718	16280
837.856	16200
837.993	16185
838.131	16154
838.269	16154
838.406	16169
838.544	16131
838.681	15949
838.819	15838
838.956	15728
839.094	15789
839.231	15857
839.369	15945
839.506	16215
839.643	15979
839.781	15899
839.918	15762
840.055	15728
840.193	15705
840.33	15778
840.467	15899
840.604	15800
840.742	15956
840.879	15679
841.016	15641
841.153	15641
841.29	15865
841.427	15747
841.564	15717
841.701	15861
841.838	15804
841.975	15774
842.112	15774
842.249	15656
842.385	15629
842.522	15732
842.659	15545
842.796	15564
842.933	15618
843.069	15488
843.206	15530
843.343	15724
843.479	15553
843.616	15591
843.752	15325
843.889	15374
844.025	15568
844.162	15363
844.298	15488
844.435	15443
844.571	15340
844.708	15241
844.844	15633
844.98	15549
845.117	15462
845.253	15332
845.389	15214
845.525	15180
845.661	15268
845.798	15150
845.934	15245
846.07	15135
846.206	15097
846.342	15264
846.478	15119
846.614	14986
846.75	14861
846.886	14883
847.022	15032
847.158	15036
847.294	15074
847.429	15020
847.565	14849
847.701	15119
847.837	14701
847.972	14659
848.108	14868
848.244	14746
848.379	14484
848.515	14530
848.65	14549
848.786	14541
848.921	14461
849.057	14667
849.192	14499
849.328	14568
849.463	14522
849.598	14564
849.734	14533
849.869	14404
850.004	14301
850.14	14396
850.275	14332
850.41	14237
850.545	14180
850.68	14225
850.815	14298
850.95	14419
851.085	14431
851.22	14347
851.355	14278
851.49	14233
851.625	14191
851.76	14233
851.895	14183
852.03	14149
852.165	14221
852.299	14286
852.434	14298
852.569	14343
852.703	14324
852.838	14412
852.973	14385
853.107	14450
853.242	14275
853.376	14164
853.511	14092
853.645	14119
853.78	14210
853.914	14252
854.048	14084
854.183	14210
854.317	14084
854.451	14355
854.585	14248
854.72	14123
854.854	14240
854.988	14100
855.122	14191
855.256	13959
855.39	14050
855.524	14298
855.658	14199
855.792	14149
855.926	14191
856.06	14278
856.194	14256
856.327	14202
856.461	14206
856.595	14065
856.729	14043
856.862	14309
856.996	14183
857.13	14278
857.263	14206
857.397	14191
857.53	14130
857.664	14214
857.797	14278
857.931	14324
858.064	14195
858.197	14351
858.331	14149
858.464	14145
858.597	14054
858.731	14123
858.864	14240
858.997	14126
859.13	14115
859.263	14168
859.396	14332
859.529	14115
859.662	14142
859.795	14164
859.928	14138
860.061	14301
860.194	14408
860.327	14305
860.46	14218
860.592	14339
860.725	14366
860.858	14294
860.99	14069
861.123	14149
861.256	14107
861.388	14145
861.521	14952
861.653	14092
861.786	14043
861.918	14020
862.05	14103
862.183	14164
862.315	14123
862.447	14244
862.58	14065
862.712	13913
862.844	13860
862.976	13982
863.108	14020
863.24	14396
863.372	13841
863.504	13986
863.636	13932
863.768	14027
863.9	13902
864.032	13845
864.164	13890
864.296	13959
864.428	14092
864.559	13997
864.691	14046
864.823	13982
864.954	13959
865.086	14008
865.217	13906
865.349	13940
865.48	13917
865.612	14024
865.743	14054
865.875	13951
866.006	13928
866.137	13947
866.269	13947
866.4	13860
866.531	13868
866.662	13818
866.793	13826
866.924	13883
867.055	13993
867.186	13898
867.317	13909
867.448	13799
867.579	13856
867.71	13894
867.841	13814
867.972	13955
868.103	13932
868.233	13970
868.364	13883
868.495	14119
868.625	14176
868.756	14199
868.886	14077
869.017	14229
869.147	14278
869.278	14233
869.408	14210
869.539	14214
869.669	14183
869.799	14221
869.929	14271
870.06	14298
870.19	14537
870.32	14499
870.45	14499
870.58	14648
870.71	14648
870.84	14625
870.97	14533
871.1	14480
871.23	14823
871.36	14845
871.489	14701
871.619	14777
871.749	14769
871.879	14838
872.008	14853
872.138	14876
872.267	14693
872.397	14632
872.526	14632
872.656	14644
872.785	14617
872.915	14872
873.044	14952
873.173	14807
873.303	14849
873.432	14842
873.561	14986
873.69	14830
873.819	14819
873.948	14975
874.077	14781
874.206	14899
874.335	14830
874.464	15028
874.593	15119
874.722	15036
874.851	15272
874.979	15180
875.108	15207
875.237	15123
875.365	15085
875.494	15131
875.623	15306
875.751	15199
875.88	15207
876.008	15279
876.136	15519
876.265	15599
876.393	15671
876.521	15641
876.65	15633
876.778	15511
876.906	15485
877.034	15526
877.162	15542
877.29	15473
877.418	15523
877.546	15557
877.674	15644
877.802	15595
877.93	15587
878.058	15488
878.185	15412
878.313	15488
878.441	15545
878.568	15469
878.696	15511
878.824	15660
878.951	15629
879.079	15698
879.206	15903
879.333	15698
879.461	15603
879.588	15633
879.715	15625
879.842	15869
879.97	15641
880.097	15485
880.224	15439
880.351	15374
880.478	15443
880.605	15424
880.732	15450
880.859	15701
880.986	15420
881.112	15584
881.239	15275
881.366	15180
881.493	15089
881.619	15070
881.746	15070
881.872	15104
881.999	15112
882.125	15066
882.252	15154
882.378	15123
882.505	15207
882.631	15085
882.757	14918
882.883	14982
883.01	14925
883.136	14868
883.262	14781
883.388	14724
883.514	14925
883.64	14971
883.766	14872
883.892	14678
884.018	14792
884.143	14910
884.269	14990
884.395	14602
884.52	14560
884.646	14659
884.772	14476
884.897	14431
885.023	14663
885.148	14731
885.274	14750
885.399	14693
885.524	14526
885.65	14587
885.775	14716
885.9	14682
886.025	14731
886.15	14632
886.275	14629
886.4	14480
886.525	14708
886.65	14522
886.775	14522
886.9	14792
887.025	14864
887.149	14625
887.274	14317
887.399	14355
887.523	14385
887.648	14320
887.773	14355
887.897	14537
888.021	14469
888.146	14313
888.27	14446
888.395	14507
888.519	14552
888.643	14415
888.767	14484
888.891	14396
889.015	14328
889.139	14404
889.263	14317
889.387	14415
889.511	14492
889.635	14419
889.759	14256
889.883	14343
890.006	14286
890.13	14434
890.254	14168
890.377	14336
890.501	14145
890.624	13989
890.748	14164
890.871	14027
890.995	13921
891.118	13940
891.241	13993
891.364	13955
891.488	14088
891.611	13967
891.734	14081
891.857	14024
891.98	14065
892.103	14084
892.226	13932
892.349	14119
892.471	13795
892.594	14035
892.717	14039
892.839	13887
892.962	13989
893.085	13997
893.207	14027
893.33	13841
893.452	13947
893.575	14035
893.697	14054
893.819	14157
893.941	14164
894.064	14191
894.186	14001
894.308	13913
894.43	14161
894.552	14271
894.674	14176
894.796	14012
894.918	14069
895.04	14020
895.161	14161
895.283	14115
895.405	13963
895.526	14073
895.648	14123
895.769	14191
895.891	14142
896.012	14229
896.134	14191
896.255	14161
896.376	14199
896.498	14145
896.619	14180
896.74	14145
896.861	14305
896.982	14412
897.103	14663
897.224	14434
897.345	14431
897.466	14355
897.587	14370
897.708	14492
897.828	14484
897.949	14400
898.07	14305
898.19	14412
898.311	14560
898.431	14476
898.552	14549
898.672	14503
898.792	14564
898.913	14522
899.033	14465
899.153	14473
899.273	14332
899.393	14237
899.513	14408
899.633	14362
899.753	14450
899.873	14339
899.993	14454
900.113	14347
900.232	14374
900.352	14362
900.472	14339
900.591	14195
900.711	14278
900.83	14210
900.95	14400
901.069	14313
901.189	14157
901.308	13970
901.427	13852
901.546	13883
901.665	13925
901.784	13913
901.904	13788
902.023	13674
902.141	13563
902.26	13556
902.379	13529
902.498	13502
902.617	13552
902.735	13491
902.854	13373
902.973	13346
903.091	13289
903.21	13183
903.328	13190
903.446	13168
903.565	13099
903.683	13095
903.801	12882
903.919	13027
904.038	13015
904.156	12958
904.274	12958
904.392	12871
904.51	12837
904.627	12954
904.745	12954
904.863	12924
904.981	12662
905.098	12525
905.216	12559
905.334	12681
905.451	12574
905.569	12601
905.686	12544
905.803	12608
905.921	12399
906.038	12437
906.155	12490
906.272	12243
906.389	12277
906.506	12136
906.623	12110
906.74	12087
906.857	12064
906.974	12072
907.091	12235
907.208	12327
907.324	12216
907.441	12152
907.557	11904
907.674	11855
907.79	11927
907.907	11855
908.023	11885
908.139	11939
908.256	11893
908.372	11847
908.488	11794
908.604	11733
908.72	11661
908.836	11642
908.952	11684
909.068	11703
909.184	11764
909.3	11695
909.415	11642
909.531	11638
909.647	11452
909.762	11429
909.878	11452
909.993	11501
910.108	11395
910.224	11353
910.339	11467
910.454	11398
910.57	11334
910.685	11261
910.8	11482
910.915	11417
911.03	11387
911.145	11121
911.259	11075
911.374	11102
911.489	11003
911.604	11033
911.718	10831
911.833	10850
911.947	10828
912.062	10759
912.176	10831
912.291	10828
912.405	10949
912.519	11056
912.633	11102
912.748	10980
912.862	10980
912.976	10683
913.09	10645
913.204	10729
913.318	10797
913.431	10854
913.545	10866
913.659	10858
913.772	10752
913.886	10626
914	10573
914.113	10774
914.226	10710
914.34	10786
914.453	10596
914.566	10717
914.68	10599
914.793	10592
914.906	10398
915.019	10363
915.132	10325
915.245	10405
915.358	10436
915.47	10424
915.583	10451
915.696	10462
915.809	10558
915.921	10622
916.034	10386
916.146	10375
916.259	10382
916.371	10512
916.483	10481
916.595	10356
916.708	10409
916.82	10363
916.932	10337
917.044	10299
917.156	10253
917.268	10162
917.38	10306
917.491	10234
917.603	10352
917.715	10329
917.826	10379
917.938	10299
918.049	10150
918.161	10322
918.272	10379
918.384	10390
918.495	10280
918.606	10112
918.717	10128
918.828	10139
918.939	10242
919.05	10124
919.161	10101
919.272	9903
919.383	10013
919.494	10169
919.604	10386
919.715	10196
919.826	10116
919.936	10063
920.047	10253
920.157	10242
920.267	10352
920.378	10261
920.488	10147
920.598	10344
920.708	10405
920.818	10306
920.928	10360
921.038	10542
921.148	10546
921.258	10287
921.368	10109
921.477	9987
921.587	10055
921.697	9857
921.806	10029
921.916	9876
922.025	9762
922.134	9717
922.244	9709
922.353	9781
922.462	9603
922.571	9530
922.68	9420
922.789	9370
922.898	9389
923.007	9367
923.116	9523
923.224	9397
923.333	9401
923.442	9310
923.55	9287
923.659	9329
923.767	9325
923.876	9275
923.984	9386
924.092	9161
924.201	9199
924.309	9264
924.417	9336
924.525	9135
924.633	9256
924.741	10215
924.849	9043
924.956	9150
925.064	9077
925.172	8998
925.279	8910
925.387	9028
925.494	9062
925.602	9211
925.709	9074
925.816	9020
925.924	9013
926.031	9142
926.138	9070
926.245	9169
926.352	8979
926.459	9116
926.566	9237
926.673	9028
926.779	8925
926.886	8918
926.993	8731
927.099	8758
927.206	8781
927.312	8785
927.419	8819
927.525	8811
927.631	8826
927.737	8648
927.843	8644
927.95	8621
928.056	8560
928.162	8708
928.267	8663
928.373	9393
928.479	8712
928.585	8473
928.69	8682
928.796	8640
928.901	8632
929.007	8446
929.112	8594
929.218	8556
929.323	8556
929.428	8427
929.533	8560
929.638	8412
929.743	8476
929.848	8556
929.953	8503
930.058	8419
930.163	8298
930.267	8286
930.372	8408
930.477	8248
930.581	8530
930.685	8309
930.79	8199
930.894	8206
930.998	8237
931.103	8362
931.207	8012
931.311	7974
931.415	7906
931.519	7636
931.623	7746
