Data from test_V78500241_1171.txt Node
Date: Fri Mar 25 14:41:52 CST 2022
User: usil
Spectrometer: V785-0024
Trigger mode: 0
Integration Time (sec): 4.000000E-1
Scans to average: 1
Nonlinearity correction enabled: false
Boxcar width: 0
Storing dark spectrum: false
XAxis mode: Wavelengths
Number of Pixels in Spectrum: 1024
>>>>>Begin Spectral Data<<<<<
801.071	22500
801.214	22436
801.356	22249
801.499	22025
801.641	21854
801.783	21812
801.926	21873
802.068	21846
802.211	21671
802.353	21625
802.496	21412
802.638	21287
802.78	21332
802.923	21260
803.065	21161
803.208	21195
803.35	21233
803.492	21245
803.635	21340
803.777	21245
803.919	21275
804.061	21492
804.204	21298
804.346	21093
804.488	21043
804.63	21138
804.773	21039
804.915	21138
805.057	21272
805.199	21131
805.341	21169
805.483	21237
805.626	21176
805.768	21074
805.91	21157
806.052	20998
806.194	21077
806.336	21237
806.478	21096
806.62	21081
806.762	21203
806.904	21447
807.046	21462
807.188	21435
807.33	21428
807.472	21557
807.614	21272
807.756	21519
807.898	21374
808.04	21348
808.182	21260
808.324	21275
808.465	21329
808.607	21561
808.749	21606
808.891	21892
809.033	21770
809.174	21583
809.316	21618
809.458	21614
809.6	21583
809.741	21526
809.883	21705
810.025	21728
810.166	21724
810.308	21675
810.45	21717
810.591	21633
810.733	21458
810.875	21393
811.016	21287
811.158	21310
811.299	21469
811.441	21439
811.582	21363
811.724	21344
811.865	21237
812.007	21252
812.148	21355
812.29	21294
812.431	21504
812.573	21641
812.714	21682
812.855	21785
812.997	21850
813.138	21949
813.279	21998
813.421	21831
813.562	21701
813.703	21595
813.845	21568
813.986	21157
814.127	21077
814.268	20975
814.41	20948
814.551	20819
814.692	20986
814.833	20727
814.974	20823
815.115	20845
815.256	20743
815.397	20781
815.539	20708
815.68	20602
815.821	20476
815.962	20667
816.103	20674
816.244	20457
816.385	20404
816.526	20370
816.666	20153
816.807	20126
816.948	20077
817.089	20183
817.23	20024
817.371	19951
817.512	20088
817.653	19993
817.793	19925
817.934	20020
818.075	20073
818.216	20012
818.356	19925
818.497	19879
818.638	19791
818.778	19666
818.919	19632
819.06	19833
819.2	19776
819.341	19875
819.481	19833
819.622	20050
819.762	20263
819.903	20183
820.043	20027
820.184	19986
820.324	19936
820.465	20039
820.605	20065
820.746	19993
820.886	19970
821.026	19989
821.167	20020
821.307	19993
821.447	19947
821.588	19837
821.728	19643
821.868	19548
822.008	19327
822.149	19434
822.289	19392
822.429	19164
822.569	19217
822.709	19133
822.849	18916
822.99	18989
823.13	18848
823.27	18894
823.41	18745
823.55	18741
823.69	18692
823.83	18734
823.97	18631
824.11	18376
824.25	18448
824.389	18570
824.529	18521
824.669	18521
824.809	18661
824.949	18658
825.089	18582
825.228	18536
825.368	18361
825.508	18216
825.648	18216
825.787	18376
825.927	18403
826.067	18258
826.206	18220
826.346	18281
826.485	18258
826.625	18243
826.765	18429
826.904	18220
827.044	18022
827.183	18079
827.323	17927
827.462	18102
827.601	17988
827.741	18003
827.88	17965
828.02	17939
828.159	17878
828.298	17946
828.437	18022
828.577	17840
828.716	18144
828.855	17973
828.994	17836
829.134	17661
829.273	17798
829.412	17703
829.551	17672
829.69	17703
829.829	17760
829.968	17882
830.107	17775
830.246	17726
830.385	17577
830.524	17573
830.663	17516
830.802	17379
830.941	17311
831.08	17216
831.219	17440
831.357	17296
831.496	17684
831.635	17383
831.774	17128
831.913	17204
832.051	17048
832.19	17170
832.329	17143
832.467	17025
832.606	17102
832.744	16972
832.883	17045
833.022	17018
833.16	16961
833.299	17041
833.437	16949
833.576	17071
833.714	17109
833.852	17113
833.991	17124
834.129	17208
834.267	17105
834.406	17208
834.544	17136
834.682	17155
834.821	17014
834.959	17326
835.097	17029
835.235	17197
835.373	17113
835.511	17166
835.65	16995
835.788	17022
835.926	16797
836.064	16892
836.202	16828
836.34	17086
836.478	17098
836.615	16942
836.753	17071
836.891	17041
837.029	17090
837.167	16911
837.305	16911
837.443	16805
837.58	16927
837.718	16946
837.856	16896
837.993	16744
838.131	16919
838.269	16843
838.406	16805
838.544	16763
838.681	16630
838.819	16607
838.956	16417
839.094	16394
839.231	16432
839.369	16588
839.506	16881
839.643	16717
839.781	16451
839.918	16211
840.055	16428
840.193	16519
840.33	16489
840.467	16325
840.604	16531
840.742	16740
840.879	16284
841.016	16417
841.153	16272
841.29	16550
841.427	16390
841.564	16398
841.701	16440
841.838	16314
841.975	16375
842.112	16253
842.249	16242
842.385	16116
842.522	16398
842.659	16211
842.796	16097
842.933	16166
843.069	16112
843.206	16154
843.343	16284
843.479	16196
843.616	16173
843.752	16025
843.889	15850
844.025	16086
844.162	15930
844.298	16143
844.435	16017
844.571	16025
844.708	16059
844.844	16036
844.98	16177
845.117	16086
845.253	15911
845.389	15922
845.525	16025
845.661	15983
845.798	15888
845.934	15979
846.07	15895
846.206	15949
846.342	16048
846.478	15949
846.614	15648
846.75	15682
846.886	15477
847.022	15660
847.158	15587
847.294	15591
847.429	15553
847.565	15511
847.701	15762
847.837	15294
847.972	15264
848.108	15317
848.244	15283
848.379	15241
848.515	15173
848.65	15131
848.786	15214
848.921	15157
849.057	15249
849.192	15203
849.328	15264
849.463	15226
849.598	15047
849.734	15142
849.869	15051
850.004	14971
850.14	14986
850.275	14849
850.41	14864
850.545	14807
850.68	14838
850.815	14914
850.95	14910
851.085	14982
851.22	15051
851.355	14963
851.49	14956
851.625	14838
851.76	14872
851.895	14811
852.03	14849
852.165	14819
852.299	14845
852.434	15017
852.569	14899
852.703	14868
852.838	15047
852.973	15028
853.107	15081
853.242	14990
853.376	14777
853.511	14693
853.645	14697
853.78	14918
853.914	14678
854.048	14746
854.183	14781
854.317	14891
854.451	14864
854.585	14800
854.72	14735
854.854	14834
854.988	14625
855.122	14769
855.256	14663
855.39	14689
855.524	14902
855.658	14819
855.792	14815
855.926	14811
856.06	14792
856.194	14876
856.327	14762
856.461	14651
856.595	14750
856.729	14758
856.862	14853
856.996	14727
857.13	14769
857.263	14994
857.397	14887
857.53	14724
857.664	14807
857.797	14876
857.931	14849
858.064	14849
858.197	14868
858.331	14788
858.464	14651
858.597	14640
858.731	14701
858.864	14796
858.997	14724
859.13	14777
859.263	14838
859.396	14849
859.529	14720
859.662	14754
859.795	14682
859.928	14819
860.061	15005
860.194	14960
860.327	14872
860.46	14781
860.592	14819
860.725	14956
860.858	14880
860.99	14678
861.123	14598
861.256	14731
861.388	14849
861.521	15488
861.653	14621
861.786	14674
861.918	14575
862.05	14545
862.183	14689
862.315	14762
862.447	14872
862.58	14739
862.712	14613
862.844	14461
862.976	14693
863.108	14499
863.24	15013
863.372	14461
863.504	14465
863.636	14514
863.768	14556
863.9	14583
864.032	14499
864.164	14518
864.296	14590
864.428	14765
864.559	14636
864.691	14583
864.823	14564
864.954	14511
865.086	14606
865.217	14552
865.349	14522
865.48	14549
865.612	14480
865.743	14811
865.875	14632
866.006	14484
866.137	14484
866.269	14469
866.4	14476
866.531	14518
866.662	14393
866.793	14480
866.924	14396
867.055	14549
867.186	14419
867.317	14450
867.448	14366
867.579	14423
867.71	14507
867.841	14381
867.972	14583
868.103	14419
868.233	14545
868.364	14594
868.495	14629
868.625	14750
868.756	14895
868.886	14773
869.017	14811
869.147	14899
869.278	14804
869.408	14788
869.539	14746
869.669	14842
869.799	14842
869.929	14880
870.06	14929
870.19	15123
870.32	15127
870.45	15097
870.58	15135
870.71	15230
870.84	15256
870.97	15085
871.1	15039
871.23	15313
871.36	15359
871.489	15272
871.619	15351
871.749	15389
871.879	15374
872.008	15530
872.138	15428
872.267	15321
872.397	15138
872.526	15161
872.656	15195
872.785	15207
872.915	15310
873.044	15496
873.173	15351
873.303	15420
873.432	15302
873.561	15542
873.69	15454
873.819	15469
873.948	15530
874.077	15466
874.206	15374
874.335	15481
874.464	15523
874.593	15701
874.722	15584
874.851	15770
874.979	15823
875.108	15755
875.237	15633
875.365	15698
875.494	15701
875.623	15717
875.751	15663
875.88	15793
876.008	15816
876.136	16006
876.265	16109
876.393	16386
876.521	16192
876.65	16280
876.778	16131
876.906	16154
877.034	16131
877.162	16040
877.29	16082
877.418	16090
877.546	16173
877.674	16105
877.802	16139
877.93	16196
878.058	16059
878.185	16029
878.313	16078
878.441	16166
878.568	16067
878.696	16162
878.824	16226
878.951	16188
879.079	16371
879.206	16538
879.333	16360
879.461	16299
879.588	16436
879.715	16462
879.842	16497
879.97	16223
880.097	16128
880.224	15983
880.351	16112
880.478	16074
880.605	15949
880.732	15998
880.859	16185
880.986	15998
881.112	16067
881.239	15831
881.366	15888
881.493	15690
881.619	15572
881.746	15637
881.872	15663
881.999	15728
882.125	15618
882.252	15724
882.378	15671
882.505	15819
882.631	15595
882.757	15469
882.883	15568
883.01	15454
883.136	15408
883.262	15310
883.388	15241
883.514	15519
883.64	15431
883.766	15401
883.892	15218
884.018	15302
884.143	15462
884.269	15595
884.395	15222
884.52	15123
884.646	15116
884.772	15161
884.897	14975
885.023	15256
885.148	15256
885.274	15340
885.399	15207
885.524	15192
885.65	15169
885.775	15192
885.9	15195
886.025	15389
886.15	15283
886.275	15195
886.4	15195
886.525	15131
886.65	15043
886.775	15055
886.9	15294
887.025	15313
887.149	15112
887.274	15081
887.399	14830
887.523	14948
887.648	14845
887.773	14861
887.897	15032
888.021	15081
888.146	14902
888.27	15017
888.395	15142
888.519	15039
888.643	15058
888.767	15089
888.891	14960
889.015	14750
889.139	14895
889.263	14872
889.387	14895
889.511	14998
889.635	14868
889.759	14735
889.883	14838
890.006	14887
890.13	14910
890.254	14705
890.377	14701
890.501	14754
890.624	14518
890.748	14598
890.871	14492
890.995	14442
891.118	14389
891.241	14533
891.364	14541
891.488	14579
891.611	14495
891.734	14530
891.857	14598
891.98	14602
892.103	14579
892.226	14526
892.349	14522
892.471	14317
892.594	14431
892.717	14511
892.839	14541
892.962	14514
893.085	14560
893.207	14461
893.33	14469
893.452	14366
893.575	14526
893.697	14488
893.819	14560
893.941	14739
894.064	14632
894.186	14488
894.308	14480
894.43	14602
894.552	14754
894.674	14659
894.796	14503
894.918	14545
895.04	14526
895.161	14568
895.283	14594
895.405	14484
895.526	14575
895.648	14689
895.769	14625
895.891	14693
896.012	14754
896.134	14750
896.255	14613
896.376	14693
896.498	14663
896.619	14785
896.74	14674
896.861	14716
896.982	15017
897.103	15032
897.224	14990
897.345	14902
897.466	14914
897.587	14963
897.708	15127
897.828	14929
897.949	14921
898.07	14872
898.19	14883
898.311	15081
898.431	15051
898.552	15009
898.672	15062
898.792	15097
898.913	15081
899.033	14929
899.153	14819
899.273	14773
899.393	14815
899.513	14891
899.633	14872
899.753	14982
899.873	14842
899.993	14975
900.113	14724
900.232	14826
900.352	14872
900.472	14769
900.591	14602
900.711	14724
900.83	14724
900.95	14727
901.069	14682
901.189	14537
901.308	14454
901.427	14396
901.546	14278
901.665	14301
901.784	14362
901.904	14221
902.023	14138
902.141	14031
902.26	13955
902.379	14027
902.498	13997
902.617	13909
902.735	14016
902.854	14069
902.973	13849
903.091	13658
903.21	13609
903.328	13605
903.446	13552
903.565	13514
903.683	13548
903.801	13388
903.919	13438
904.038	13445
904.156	13388
904.274	13396
904.392	13236
904.51	13362
904.627	13282
904.745	13419
904.863	13339
904.981	13080
905.098	13183
905.216	12939
905.334	12962
905.451	13042
905.569	12951
905.686	13034
905.803	13069
905.921	12856
906.038	13034
906.155	12859
906.272	12749
906.389	12669
906.506	12623
906.623	12566
906.74	12623
906.857	12464
906.974	12555
907.091	12642
907.208	12688
907.324	12563
907.441	12467
907.557	12391
907.674	12330
907.79	12380
907.907	12285
908.023	12285
908.139	12330
908.256	12289
908.372	12270
908.488	12216
908.604	12117
908.72	12053
908.836	12053
908.952	12068
909.068	12041
909.184	12148
909.3	12087
909.415	12163
909.531	12095
909.647	11977
909.762	11870
909.878	11859
909.993	11843
910.108	11874
910.224	11802
910.339	11798
910.454	11798
910.57	11775
910.685	11668
910.8	11885
910.915	11859
911.03	11798
911.145	11562
911.259	11505
911.374	11566
911.489	11436
911.604	11551
911.718	11341
911.833	11356
911.947	11242
912.062	11189
912.176	11307
912.291	11322
912.405	11356
912.519	11482
912.633	11509
912.748	11356
912.862	11208
912.976	11220
913.09	11052
913.204	11201
913.318	11189
913.431	11292
913.545	11208
913.659	11292
913.772	11231
913.886	11102
914	11071
914.113	11136
914.226	11242
914.34	11170
914.453	10942
914.566	11143
914.68	11067
914.793	10957
914.906	10862
915.019	10748
915.132	10736
915.245	10809
915.358	10797
915.47	10831
915.583	10812
915.696	10790
915.809	11022
915.921	10972
916.034	10782
916.146	10660
916.259	10725
916.371	10805
916.483	10797
916.595	10774
916.708	10702
916.82	10634
916.932	10691
917.044	10717
917.156	10683
917.268	10645
917.38	10683
917.491	10569
917.603	10645
917.715	10691
917.826	10736
917.938	10550
918.049	10527
918.161	10615
918.272	10733
918.384	10740
918.495	10615
918.606	10432
918.717	10443
918.828	10516
918.939	10504
919.05	10363
919.161	10504
919.272	10261
919.383	10333
919.494	10493
919.604	10744
919.715	10523
919.826	10386
919.936	10599
920.047	10615
920.157	10497
920.267	10691
920.378	10519
920.488	10531
920.598	10649
920.708	10835
920.818	10759
920.928	10698
921.038	10854
921.148	10816
921.258	10531
921.368	10478
921.477	10344
921.587	10291
921.697	10295
921.806	10360
921.916	10295
922.025	10063
922.134	10124
922.244	10029
922.353	10071
922.462	9907
922.571	9835
922.68	9781
922.789	9713
922.898	9781
923.007	9690
923.116	9774
923.224	9762
923.333	9717
923.442	9629
923.55	9618
923.659	9682
923.767	9694
923.876	9549
923.984	9705
924.092	9511
924.201	9572
924.309	9606
924.417	9682
924.525	9549
924.633	9519
924.741	10246
924.849	9325
924.956	9481
925.064	9340
925.172	9298
925.279	9386
925.387	9382
925.494	9367
925.602	9557
925.709	9515
925.816	9332
925.924	9401
926.031	9466
926.138	9378
926.245	9424
926.352	9340
926.459	9435
926.566	9469
926.673	9359
926.779	9253
926.886	9199
926.993	9135
927.099	9051
927.206	9131
927.312	9104
927.419	9085
927.525	9051
927.631	9089
927.737	9020
927.843	8975
927.95	8800
928.056	8910
928.162	8986
928.267	8990
928.373	9614
928.479	9032
928.585	8807
928.69	8963
928.796	9020
928.901	8872
929.007	8739
929.112	8792
929.218	8830
929.323	8762
929.428	8754
929.533	8914
929.638	8746
929.743	8823
929.848	8868
929.953	8769
930.058	8769
930.163	8514
930.267	8522
930.372	8689
930.477	8530
930.581	8746
930.685	8663
930.79	8495
930.894	8499
930.998	8442
931.103	8587
931.207	8282
931.311	8263
931.415	8180
931.519	7955
931.623	7936
