Data from test_V78500241_1926.txt Node
Date: Fri Mar 25 14:47:07 CST 2022
User: usil
Spectrometer: V785-0024
Trigger mode: 0
Integration Time (sec): 4.000000E-1
Scans to average: 1
Nonlinearity correction enabled: false
Boxcar width: 0
Storing dark spectrum: false
XAxis mode: Wavelengths
Number of Pixels in Spectrum: 1024
>>>>>Begin Spectral Data<<<<<
801.071	22105
801.214	22002
801.356	21648
801.499	21564
801.641	21496
801.783	21477
801.926	21523
802.068	21351
802.211	21317
802.353	21317
802.496	20963
802.638	20910
802.78	20834
802.923	20918
803.065	20834
803.208	20644
803.35	20861
803.492	20857
803.635	20853
803.777	20743
803.919	20830
804.061	21096
804.204	20823
804.346	20693
804.488	20609
804.63	20503
804.773	20701
804.915	20724
805.057	20910
805.199	20724
805.341	20845
805.483	20807
805.626	20785
805.768	20659
805.91	20762
806.052	20674
806.194	20689
806.336	20956
806.478	20720
806.62	20590
806.762	20918
806.904	20864
807.046	21055
807.188	21028
807.33	20941
807.472	21047
807.614	20883
807.756	20925
807.898	20819
808.04	20811
808.182	20861
808.324	20758
808.465	20830
808.607	20929
808.749	21055
808.891	21165
809.033	21252
809.174	21142
809.316	21119
809.458	21165
809.6	21005
809.741	21169
809.883	21116
810.025	21256
810.166	21249
810.308	21237
810.45	21192
810.591	21043
810.733	20902
810.875	20857
811.016	20777
811.158	20754
811.299	20906
811.441	21100
811.582	21047
811.724	20800
811.865	20670
812.007	20788
812.148	20876
812.29	20788
812.431	21154
812.573	21085
812.714	21214
812.855	21264
812.997	21431
813.138	21439
813.279	21439
813.421	21260
813.562	21313
813.703	21032
813.845	20963
813.986	20754
814.127	20571
814.268	20419
814.41	20514
814.551	20347
814.692	20324
814.833	20225
814.974	20412
815.115	20476
815.256	20282
815.397	20252
815.539	20202
815.68	20103
815.821	20107
815.962	20202
816.103	20073
816.244	20020
816.385	19967
816.526	19734
816.666	19753
816.807	19544
816.948	19693
817.089	19628
817.23	19575
817.371	19582
817.512	19438
817.653	19445
817.793	19449
817.934	19544
818.075	19495
818.216	19403
818.356	19369
818.497	19339
818.638	19221
818.778	19164
818.919	19179
819.06	19236
819.2	19365
819.341	19369
819.481	19445
819.622	19563
819.762	19655
819.903	19476
820.043	19639
820.184	19537
820.324	19582
820.465	19540
820.605	19525
820.746	19518
820.886	19339
821.026	19434
821.167	19491
821.307	19529
821.447	19320
821.588	19392
821.728	19266
821.868	19046
822.008	18939
822.149	19072
822.289	18871
822.429	18654
822.569	18703
822.709	18665
822.849	18319
822.99	18525
823.13	18407
823.27	18342
823.41	18205
823.55	18171
823.69	18258
823.83	18228
823.97	18129
824.11	17935
824.25	18041
824.389	17992
824.529	18026
824.669	17961
824.809	18011
824.949	18076
825.089	18072
825.228	17977
825.368	17813
825.508	17805
825.648	17809
825.787	17805
825.927	17710
826.067	17752
826.206	17687
826.346	17809
826.485	17653
826.625	17748
826.765	17920
826.904	17741
827.044	17577
827.183	17524
827.323	17535
827.462	17478
827.601	17417
827.741	17425
827.88	17524
828.02	17292
828.159	17600
828.298	17528
828.437	17482
828.577	17391
828.716	17642
828.855	17429
828.994	17246
829.134	17220
829.273	17261
829.412	17162
829.551	17166
829.69	17212
829.829	17159
829.968	17284
830.107	17284
830.246	17353
830.385	17155
830.524	17124
830.663	17060
830.802	16953
830.941	16866
831.08	16805
831.219	16816
831.357	16744
831.496	17025
831.635	16790
831.774	16721
831.913	16698
832.051	16546
832.19	16637
832.329	16607
832.467	16569
832.606	16535
832.744	16527
832.883	16519
833.022	16462
833.16	16504
833.299	16596
833.437	16531
833.576	16573
833.714	16641
833.852	16748
833.991	16679
834.129	16634
834.267	16687
834.406	16573
834.544	16797
834.682	16626
834.821	16542
834.959	16755
835.097	16550
835.235	16656
835.373	16546
835.511	16694
835.65	16535
835.788	16523
835.926	16424
836.064	16455
836.202	16276
836.34	16542
836.478	16565
836.615	16535
836.753	16630
836.891	16641
837.029	16656
837.167	16493
837.305	16405
837.443	16375
837.58	16310
837.718	16550
837.856	16390
837.993	16382
838.131	16451
838.269	16421
838.406	16181
838.544	16192
838.681	16036
838.819	16010
838.956	15899
839.094	15972
839.231	15941
839.369	16109
839.506	16436
839.643	16116
839.781	15945
839.918	15922
840.055	15975
840.193	15857
840.33	15876
840.467	15903
840.604	15964
840.742	16215
840.879	15869
841.016	15941
841.153	15899
841.29	15949
841.427	15907
841.564	15937
841.701	15930
841.838	15922
841.975	15945
842.112	15861
842.249	15713
842.385	15675
842.522	15880
842.659	15675
842.796	15686
842.933	15648
843.069	15618
843.206	15629
843.343	15823
843.479	15846
843.616	15679
843.752	15515
843.889	15530
844.025	15629
844.162	15431
844.298	15660
844.435	15481
844.571	15439
844.708	15610
844.844	15610
844.98	15679
845.117	15633
845.253	15477
845.389	15386
845.525	15447
845.661	15408
845.798	15237
845.934	15363
846.07	15374
846.206	15252
846.342	15393
846.478	15260
846.614	15108
846.75	14948
846.886	15032
847.022	15161
847.158	14998
847.294	15074
847.429	15176
847.565	15058
847.701	15329
847.837	14804
847.972	14788
848.108	14887
848.244	14914
848.379	14762
848.515	14705
848.65	14705
848.786	14667
848.921	14743
849.057	14823
849.192	14712
849.328	14678
849.463	14686
849.598	14636
849.734	14518
849.869	14549
850.004	14530
850.14	14450
850.275	14571
850.41	14412
850.545	14457
850.68	14351
850.815	14457
850.95	14427
851.085	14708
851.22	14518
851.355	14377
851.49	14393
851.625	14366
851.76	14294
851.895	14298
852.03	14343
852.165	14450
852.299	14518
852.434	14549
852.569	14495
852.703	14484
852.838	14579
852.973	14613
853.107	14590
853.242	14476
853.376	14282
853.511	14157
853.645	14332
853.78	14492
853.914	14355
854.048	14282
854.183	14282
854.317	14282
854.451	14442
854.585	14294
854.72	14298
854.854	14408
854.988	14225
855.122	14305
855.256	14187
855.39	14275
855.524	14290
855.658	14317
855.792	14332
855.926	14446
856.06	14427
856.194	14450
856.327	14347
856.461	14259
856.595	14282
856.729	14324
856.862	14393
856.996	14476
857.13	14385
857.263	14431
857.397	14457
857.53	14290
857.664	14317
857.797	14415
857.931	14469
858.064	14328
858.197	14415
858.331	14332
858.464	14229
858.597	14130
858.731	14412
858.864	14282
858.997	14271
859.13	14366
859.263	14305
859.396	14450
859.529	14298
859.662	14294
859.795	14286
859.928	14381
860.061	14461
860.194	14442
860.327	14305
860.46	14317
860.592	14438
860.725	14480
860.858	14457
860.99	14374
861.123	14237
861.256	14233
861.388	14271
861.521	15123
861.653	14130
861.786	14119
861.918	14275
862.05	14259
862.183	14240
862.315	14278
862.447	14381
862.58	14298
862.712	14168
862.844	14115
862.976	14149
863.108	14100
863.24	14457
863.372	14073
863.504	14130
863.636	14123
863.768	14103
863.9	14119
864.032	14138
864.164	14058
864.296	14115
864.428	14271
864.559	14309
864.691	14123
864.823	14134
864.954	14153
865.086	14172
865.217	14073
865.349	13936
865.48	14054
865.612	14077
865.743	14259
865.875	14107
866.006	14073
866.137	14084
866.269	14069
866.4	14092
866.531	14069
866.662	14092
866.793	13951
866.924	14046
867.055	14096
867.186	14039
867.317	14020
867.448	13959
867.579	14046
867.71	14073
867.841	13993
867.972	14134
868.103	14100
868.233	14134
868.364	14016
868.495	14142
868.625	14263
868.756	14427
868.886	14434
869.017	14294
869.147	14431
869.278	14408
869.408	14362
869.539	14259
869.669	14461
869.799	14355
869.929	14560
870.06	14465
870.19	14602
870.32	14617
870.45	14670
870.58	14739
870.71	14777
870.84	14842
870.97	14804
871.1	14670
871.23	14914
871.36	15017
871.489	14880
871.619	14906
871.749	14982
871.879	14815
872.008	15017
872.138	14986
872.267	14952
872.397	14830
872.526	14777
872.656	14682
872.785	14750
872.915	14929
873.044	15058
873.173	15058
873.303	15024
873.432	15017
873.561	15089
873.69	15043
873.819	15017
873.948	15074
874.077	14982
874.206	14914
874.335	14937
874.464	15093
874.593	15218
874.722	15233
874.851	15321
874.979	15340
875.108	15321
875.237	15245
875.365	15207
875.494	15382
875.623	15359
875.751	15230
875.88	15298
876.008	15431
876.136	15542
876.265	15755
876.393	15884
876.521	15751
876.65	15812
876.778	15781
876.906	15660
877.034	15656
877.162	15633
877.29	15637
877.418	15797
877.546	15713
877.674	15732
877.802	15713
877.93	15770
878.058	15705
878.185	15644
878.313	15694
878.441	15694
878.568	15545
878.696	15679
878.824	15800
878.951	15804
879.079	15903
879.206	15934
879.333	15823
879.461	15819
879.588	15835
879.715	15983
879.842	15972
879.97	15751
880.097	15519
880.224	15500
880.351	15584
880.478	15584
880.605	15572
880.732	15519
880.859	15808
880.986	15622
881.112	15614
881.239	15363
881.366	15500
881.493	15348
881.619	15203
881.746	15245
881.872	15260
881.999	15233
882.125	15180
882.252	15291
882.378	15195
882.505	15351
882.631	15203
882.757	15024
882.883	15036
883.01	14982
883.136	15020
883.262	14895
883.388	14849
883.514	14986
883.64	15020
883.766	15013
883.892	14864
884.018	14712
884.143	15085
884.269	15062
884.395	14765
884.52	14705
884.646	14731
884.772	14613
884.897	14678
885.023	14731
885.148	14849
885.274	14910
885.399	14864
885.524	14727
885.65	14735
885.775	14758
885.9	14804
886.025	14899
886.15	14743
886.275	14621
886.4	14663
886.525	14689
886.65	14655
886.775	14678
886.9	14735
887.025	15066
887.149	14773
887.274	14556
887.399	14461
887.523	14427
887.648	14533
887.773	14495
887.897	14648
888.021	14606
888.146	14469
888.27	14640
888.395	14712
888.519	14674
888.643	14632
888.767	14686
888.891	14473
889.015	14507
889.139	14465
889.263	14457
889.387	14514
889.511	14556
889.635	14610
889.759	14339
889.883	14396
890.006	14381
890.13	14484
890.254	14362
890.377	14499
890.501	14221
890.624	14267
890.748	14305
890.871	14240
890.995	14043
891.118	14027
891.241	14134
891.364	14096
891.488	14244
891.611	14084
891.734	14107
891.857	14183
891.98	14043
892.103	14267
892.226	14187
892.349	14134
892.471	13921
892.594	14058
892.717	14111
892.839	14130
892.962	14126
893.085	14206
893.207	14062
893.33	14046
893.452	14130
893.575	14183
893.697	14145
893.819	14298
893.941	14309
894.064	14267
894.186	14069
894.308	14107
894.43	14275
894.552	14377
894.674	14237
894.796	14130
894.918	14187
895.04	14176
895.161	14317
895.283	14256
895.405	14259
895.526	14157
895.648	14195
895.769	14278
895.891	14298
896.012	14358
896.134	14389
896.255	14343
896.376	14336
896.498	14290
896.619	14332
896.74	14328
896.861	14290
896.982	14750
897.103	14800
897.224	14632
897.345	14594
897.466	14473
897.587	14533
897.708	14610
897.828	14564
897.949	14560
898.07	14484
898.19	14514
898.311	14678
898.431	14579
898.552	14674
898.672	14689
898.792	14807
898.913	14735
899.033	14495
899.153	14556
899.273	14381
899.393	14434
899.513	14465
899.633	14507
899.753	14503
899.873	14442
899.993	14495
900.113	14450
900.232	14575
900.352	14492
900.472	14366
900.591	14347
900.711	14434
900.83	14328
900.95	14427
901.069	14412
901.189	14301
901.308	14100
901.427	13970
901.546	13955
901.665	14008
901.784	14016
901.904	13906
902.023	13841
902.141	13693
902.26	13666
902.379	13586
902.498	13597
902.617	13582
902.735	13647
902.854	13521
902.973	13544
903.091	13282
903.21	13301
903.328	13209
903.446	13270
903.565	13145
903.683	13255
903.801	13027
903.919	13110
904.038	13072
904.156	12970
904.274	13023
904.392	12935
904.51	12958
904.627	13065
904.745	13053
904.863	13034
904.981	12856
905.098	12730
905.216	12726
905.334	12753
905.451	12700
905.569	12654
905.686	12715
905.803	12677
905.921	12528
906.038	12582
906.155	12513
906.272	12414
906.389	12467
906.506	12346
906.623	12346
906.74	12300
906.857	12171
906.974	12205
907.091	12429
907.208	12429
907.324	12365
907.441	12232
907.557	12098
907.674	12011
907.79	11988
907.907	12011
908.023	12079
908.139	11996
908.256	12106
908.372	11996
908.488	11950
908.604	11840
908.72	11874
908.836	11859
908.952	11824
909.068	11824
909.184	11969
909.3	11893
909.415	11939
909.531	11874
909.647	11676
909.762	11573
909.878	11554
909.993	11570
910.108	11570
910.224	11554
910.339	11623
910.454	11535
910.57	11410
910.685	11425
910.8	11619
910.915	11600
911.03	11421
911.145	11269
911.259	11254
911.374	11322
911.489	11273
911.604	11246
911.718	11052
911.833	11113
911.947	10873
912.062	10866
912.176	10987
912.291	11056
912.405	11029
912.519	11189
912.633	11322
912.748	11083
912.862	11056
912.976	10919
913.09	10816
913.204	10942
913.318	10965
913.431	10972
913.545	11064
913.659	11064
913.772	10915
913.886	10835
914	10877
914.113	10843
914.226	10930
914.34	10919
914.453	10748
914.566	10953
914.68	10759
914.793	10714
914.906	10580
915.019	10535
915.132	10485
915.245	10512
915.358	10615
915.47	10577
915.583	10573
915.696	10542
915.809	10645
915.921	10675
916.034	10451
916.146	10546
916.259	10546
916.371	10580
916.483	10561
916.595	10428
916.708	10523
916.82	10508
916.932	10542
917.044	10424
917.156	10455
917.268	10344
917.38	10405
917.491	10363
917.603	10417
917.715	10481
917.826	10516
917.938	10382
918.049	10242
918.161	10379
918.272	10485
918.384	10596
918.495	10421
918.606	10306
918.717	10219
918.828	10287
918.939	10261
919.05	10185
919.161	10234
919.272	10002
919.383	10173
919.494	10363
919.604	10432
919.715	10257
919.826	10135
919.936	10246
920.047	10261
920.157	10219
920.267	10443
920.378	10303
920.488	10360
920.598	10428
920.708	10607
920.818	10436
920.928	10493
921.038	10622
921.148	10634
921.258	10360
921.368	10185
921.477	10154
921.587	10116
921.697	9941
921.806	10150
921.916	10086
922.025	9880
922.134	9751
922.244	9766
922.353	9911
922.462	9705
922.571	9686
922.68	9606
922.789	9473
922.898	9538
923.007	9477
923.116	9500
923.224	9477
923.333	9576
923.442	9416
923.55	9359
923.659	9458
923.767	9473
923.876	9302
923.984	9515
924.092	9344
924.201	9420
924.309	9393
924.417	9363
924.525	9382
924.633	9310
924.741	10291
924.849	9146
924.956	9302
925.064	9154
925.172	9013
925.279	9176
925.387	9249
925.494	9184
925.602	9272
925.709	9207
925.816	9085
925.924	9180
926.031	9272
926.138	9203
926.245	9253
926.352	9116
926.459	9264
926.566	9351
926.673	9138
926.779	9032
926.886	9062
926.993	8948
927.099	8883
927.206	8804
927.312	8853
927.419	8994
927.525	8785
927.631	8956
927.737	8845
927.843	8739
927.95	8686
928.056	8743
928.162	8754
928.267	8845
928.373	9405
928.479	8861
928.585	8625
928.69	8849
928.796	8834
928.901	8682
929.007	8518
929.112	8735
929.218	8682
929.323	8644
929.428	8613
929.533	8727
929.638	8537
929.743	8598
929.848	8701
929.953	8598
930.058	8492
930.163	8358
930.267	8415
930.372	8522
930.477	8317
930.581	8598
930.685	8469
930.79	8343
930.894	8400
930.998	8233
931.103	8507
931.207	8062
931.311	7978
931.415	8096
931.519	7830
931.623	7814
