Data from test_V78500241_334.txt Node
Date: Fri Mar 25 14:36:02 CST 2022
User: usil
Spectrometer: V785-0024
Trigger mode: 0
Integration Time (sec): 4.000000E-1
Scans to average: 1
Nonlinearity correction enabled: false
Boxcar width: 0
Storing dark spectrum: false
XAxis mode: Wavelengths
Number of Pixels in Spectrum: 1024
>>>>>Begin Spectral Data<<<<<
801.071	26918
801.214	26785
801.356	26568
801.499	26465
801.641	26419
801.783	26320
801.926	26328
802.068	26309
802.211	26195
802.353	26122
802.496	26012
802.638	26031
802.78	26039
802.923	25917
803.065	25757
803.208	25791
803.35	25944
803.492	25909
803.635	26073
803.777	25947
803.919	25986
804.061	26130
804.204	25959
804.346	25784
804.488	25795
804.63	25788
804.773	25696
804.915	26020
805.057	25826
805.199	25871
805.341	26001
805.483	26062
805.626	25913
805.768	25982
805.91	25993
806.052	26024
806.194	25909
806.336	26043
806.478	25989
806.62	25890
806.762	25837
806.904	26202
807.046	26362
807.188	26301
807.33	26305
807.472	26389
807.614	26290
807.756	26282
807.898	26088
808.04	26218
808.182	26115
808.324	26263
808.465	26046
808.607	26434
808.749	26473
808.891	26446
809.033	26644
809.174	26431
809.316	26450
809.458	26465
809.6	26415
809.741	26587
809.883	26473
810.025	26514
810.166	26564
810.308	26594
810.45	26503
810.591	26556
810.733	26332
810.875	26301
811.016	26187
811.158	26107
811.299	26381
811.441	26381
811.582	26400
811.724	26355
811.865	26286
812.007	26313
812.148	26256
812.29	26199
812.431	26362
812.573	26552
812.714	26632
812.855	26674
812.997	26712
813.138	26979
813.279	26792
813.421	26629
813.562	26746
813.703	26648
813.845	26549
813.986	26145
814.127	26001
814.268	25772
814.41	25830
814.551	25830
814.692	25887
814.833	25799
814.974	25811
815.115	25738
815.256	25635
815.397	25597
815.539	25712
815.68	25552
815.821	25362
815.962	25571
816.103	25628
816.244	25460
816.385	25354
816.526	25297
816.666	25187
816.807	24996
816.948	25076
817.089	25110
817.23	24970
817.371	24897
817.512	24943
817.653	24928
817.793	24894
817.934	24890
818.075	24970
818.216	24913
818.356	24844
818.497	24935
818.638	24608
818.778	24616
818.919	24684
819.06	24536
819.2	24829
819.341	24825
819.481	24791
819.622	24821
819.762	25133
819.903	25012
820.043	24764
820.184	25088
820.324	24913
820.465	25046
820.605	24947
820.746	24943
820.886	24817
821.026	24817
821.167	24787
821.307	24875
821.447	24981
821.588	24631
821.728	24703
821.868	24426
822.008	24159
822.149	24323
822.289	24129
822.429	23942
822.569	23882
822.709	23958
822.849	23680
822.99	23756
823.13	23756
823.27	23710
823.41	23615
823.55	23474
823.69	23535
823.83	23539
823.97	23627
824.11	23349
824.25	23292
824.389	23231
824.529	23292
824.669	23311
824.809	23372
824.949	23436
825.089	23391
825.228	23326
825.368	23105
825.508	22987
825.648	23239
825.787	23155
825.927	23044
826.067	23075
826.206	22949
826.346	22991
826.485	23170
826.625	23109
826.765	23117
826.904	23006
827.044	22930
827.183	22927
827.323	22774
827.462	22873
827.601	22843
827.741	22721
827.88	22744
828.02	22626
828.159	22854
828.298	22713
828.437	22744
828.577	22721
828.716	23014
828.855	22702
828.994	22455
829.134	22451
829.273	22550
829.412	22470
829.551	22356
829.69	22325
829.829	22428
829.968	22481
830.107	22386
830.246	22466
830.385	22386
830.524	22280
830.663	22268
830.802	22139
830.941	21956
831.08	22048
831.219	22124
831.357	21934
831.496	22242
831.635	21991
831.774	21987
831.913	21911
832.051	21709
832.19	21816
832.329	21789
832.467	21648
832.606	21667
832.744	21595
832.883	21618
833.022	21603
833.16	21667
833.299	21660
833.437	21732
833.576	21736
833.714	21633
833.852	21637
833.991	21667
834.129	21743
834.267	21770
834.406	21595
834.544	21736
834.682	21587
834.821	21686
834.959	21762
835.097	21587
835.235	21797
835.373	21618
835.511	21694
835.65	21538
835.788	21515
835.926	21420
836.064	21340
836.202	21370
836.34	21511
836.478	21743
836.615	21469
836.753	21599
836.891	21583
837.029	21545
837.167	21450
837.305	21469
837.443	21420
837.58	21298
837.718	21454
837.856	21428
837.993	21272
838.131	21211
838.269	21260
838.406	21173
838.544	21233
838.681	21024
838.819	20895
838.956	20845
839.094	20861
839.231	20819
839.369	20967
839.506	21321
839.643	21093
839.781	20758
839.918	20705
840.055	20754
840.193	20880
840.33	20682
840.467	20716
840.604	20838
840.742	20994
840.879	20590
841.016	20644
841.153	20606
841.29	20895
841.427	20693
841.564	20720
841.701	20727
841.838	20731
841.975	20575
842.112	20701
842.249	20404
842.385	20248
842.522	20587
842.659	20533
842.796	20465
842.933	20549
843.069	20404
843.206	20347
843.343	20499
843.479	20423
843.616	20400
843.752	20183
843.889	20202
844.025	20381
844.162	20252
844.298	20218
844.435	20069
844.571	20088
844.708	20206
844.844	20202
844.98	20339
845.117	20244
845.253	20134
845.389	20035
845.525	20020
845.661	20016
845.798	20092
845.934	20027
846.07	20024
846.206	20065
846.342	20115
846.478	19875
846.614	19799
846.75	19696
846.886	19807
847.022	19753
847.158	19529
847.294	19704
847.429	19731
847.565	19655
847.701	19776
847.837	19293
847.972	19335
848.108	19468
848.244	19358
848.379	19263
848.515	19171
848.65	19160
848.786	19251
848.921	19244
849.057	19403
849.192	19293
849.328	19202
849.463	19202
849.598	19171
849.734	19122
849.869	18993
850.004	18932
850.14	19053
850.275	19046
850.41	18871
850.545	18768
850.68	18916
850.815	18985
850.95	18985
851.085	19141
851.22	19008
851.355	18962
851.49	18962
851.625	18939
851.76	18886
851.895	18829
852.03	18844
852.165	18894
852.299	18890
852.434	18996
852.569	18844
852.703	18916
852.838	19008
852.973	19042
853.107	18993
853.242	18913
853.376	18791
853.511	18566
853.645	18688
853.78	18890
853.914	18776
854.048	18642
854.183	18696
854.317	18719
854.451	18901
854.585	18753
854.72	18745
854.854	18791
854.988	18566
855.122	18711
855.256	18547
855.39	18734
855.524	18719
855.658	18783
855.792	18707
855.926	18661
856.06	18700
856.194	18890
856.327	18738
856.461	18700
856.595	18635
856.729	18726
856.862	18749
856.996	18654
857.13	18696
857.263	18783
857.397	18806
857.53	18825
857.664	18878
857.797	18840
857.931	18776
858.064	18814
858.197	18776
858.331	18726
858.464	18658
858.597	18555
858.731	18646
858.864	18715
858.997	18620
859.13	18722
859.263	18715
859.396	18681
859.529	18673
859.662	18681
859.795	18627
859.928	18593
860.061	18821
860.194	18753
860.327	18738
860.46	18783
860.592	18692
860.725	18871
860.858	18779
860.99	18612
861.123	18616
861.256	18521
861.388	18646
861.521	19324
861.653	18585
861.786	18460
861.918	18612
862.05	18601
862.183	18684
862.315	18661
862.447	18924
862.58	18635
862.712	18426
862.844	18365
862.976	18589
863.108	18585
863.24	18669
863.372	18266
863.504	18342
863.636	18353
863.768	18475
863.9	18414
864.032	18289
864.164	18433
864.296	18426
864.428	18540
864.559	18410
864.691	18570
864.823	18486
864.954	18426
865.086	18388
865.217	18350
865.349	18311
865.48	18376
865.612	18251
865.743	18452
865.875	18289
866.006	18273
866.137	18308
866.269	18407
866.4	18289
866.531	18213
866.662	18163
866.793	18258
866.924	18235
867.055	18311
867.186	18300
867.317	18228
867.448	18072
867.579	18266
867.71	18186
867.841	18174
867.972	18224
868.103	18148
868.233	18235
868.364	18216
868.495	18315
868.625	18475
868.756	18696
868.886	18384
869.017	18528
869.147	18513
869.278	18585
869.408	18372
869.539	18566
869.669	18544
869.799	18513
869.929	18665
870.06	18544
870.19	18715
870.32	18810
870.45	18829
870.58	18806
870.71	18863
870.84	18951
870.97	18871
871.1	18814
871.23	19080
871.36	19099
871.489	19053
871.619	18962
871.749	19110
871.879	19160
872.008	19141
872.138	19107
872.267	18981
872.397	19053
872.526	18935
872.656	18913
872.785	18829
872.915	19118
873.044	19187
873.173	19076
873.303	19164
873.432	19110
873.561	19289
873.69	19228
873.819	19129
873.948	19175
874.077	19137
874.206	19122
874.335	19202
874.464	19206
874.593	19392
874.722	19400
874.851	19362
874.979	19449
875.108	19381
875.237	19384
875.365	19365
875.494	19297
875.623	19460
875.751	19274
875.88	19449
876.008	19552
876.136	19628
876.265	19814
876.393	19970
876.521	19852
876.65	19986
876.778	19830
876.906	19860
877.034	19689
877.162	19826
877.29	19837
877.418	19917
877.546	19830
877.674	19769
877.802	19765
877.93	19799
878.058	19727
878.185	19677
878.313	19799
878.441	19883
878.568	19635
878.696	19750
878.824	19841
878.951	19917
879.079	19997
879.206	20176
879.333	20111
879.461	19909
879.588	20024
879.715	19989
879.842	20065
879.97	19875
880.097	19689
880.224	19689
880.351	19696
880.478	19635
880.605	19647
880.732	19700
880.859	19909
880.986	19723
881.112	19742
881.239	19537
881.366	19449
881.493	19358
881.619	19228
881.746	19392
881.872	19285
881.999	19228
882.125	19255
882.252	19316
882.378	19324
882.505	19343
882.631	19206
882.757	19031
882.883	19057
883.01	18954
883.136	18996
883.262	18951
883.388	18878
883.514	19114
883.64	19179
883.766	18985
883.892	18871
884.018	18825
884.143	18973
884.269	19107
884.395	18730
884.52	18661
884.646	18715
884.772	18585
884.897	18574
885.023	18825
885.148	18669
885.274	18802
885.399	18806
885.524	18734
885.65	18688
885.775	18783
885.9	18726
886.025	18772
886.15	18684
886.275	18669
886.4	18471
886.525	18578
886.65	18661
886.775	18631
886.9	18787
887.025	18871
887.149	18650
887.274	18528
887.399	18483
887.523	18448
887.648	18308
887.773	18308
887.897	18490
888.021	18456
888.146	18410
888.27	18517
888.395	18631
888.519	18490
888.643	18441
888.767	18395
888.891	18346
889.015	18315
889.139	18338
889.263	18239
889.387	18429
889.511	18460
889.635	18361
889.759	18258
889.883	18243
890.006	18270
890.13	18429
890.254	18190
890.377	18152
890.501	18087
890.624	17954
890.748	18045
890.871	18011
890.995	17836
891.118	17821
891.241	17840
891.364	17855
891.488	17904
891.611	17897
891.734	17760
891.857	17893
891.98	17855
892.103	17916
892.226	17745
892.349	17809
892.471	17604
892.594	17904
892.717	17843
892.839	17805
892.962	17783
893.085	17870
893.207	17805
893.33	17653
893.452	17855
893.575	17828
893.697	17859
893.819	17961
893.941	17920
894.064	17927
894.186	17714
894.308	17699
894.43	17878
894.552	17954
894.674	17973
894.796	17836
894.918	17794
895.04	17843
895.161	17923
895.283	17832
895.405	17798
895.526	17855
895.648	17805
895.769	17923
895.891	17889
896.012	17954
896.134	17916
896.255	17920
896.376	17832
896.498	17824
896.619	18011
896.74	17897
896.861	18011
896.982	18155
897.103	18437
897.224	18300
897.345	18034
897.466	18057
897.587	18129
897.708	18266
897.828	18224
897.949	18026
898.07	18030
898.19	18041
898.311	18140
898.431	18015
898.552	18133
898.672	18216
898.792	18304
898.913	18015
899.033	17961
899.153	17878
899.273	17691
899.393	17870
899.513	17859
899.633	17969
899.753	17832
899.873	17836
899.993	17977
900.113	17832
900.232	17916
900.352	17741
900.472	17764
900.591	17714
900.711	17741
900.83	17691
900.95	17836
901.069	17824
901.189	17722
901.308	17322
901.427	17334
901.546	17265
901.665	17417
901.784	17486
901.904	17284
902.023	17140
902.141	17014
902.26	16873
902.379	17010
902.498	16847
902.617	16801
902.735	16984
902.854	16881
902.973	16839
903.091	16500
903.21	16554
903.328	16565
903.446	16550
903.565	16333
903.683	16363
903.801	16284
903.919	16379
904.038	16367
904.156	16192
904.274	16303
904.392	16177
904.51	16143
904.627	16120
904.745	16261
904.863	16120
904.981	16074
905.098	15819
905.216	15842
905.334	15831
905.451	15759
905.569	15743
905.686	15899
905.803	15854
905.921	15603
906.038	15682
906.155	15622
906.272	15443
906.389	15504
906.506	15389
906.623	15378
906.74	15378
906.857	15313
906.974	15287
907.091	15435
907.208	15477
907.324	15359
907.441	15329
907.557	15131
907.674	15032
907.79	14971
907.907	14971
908.023	15055
908.139	15036
908.256	14990
908.372	15017
908.488	14941
908.604	14861
908.72	14796
908.836	14811
908.952	14674
909.068	14887
909.184	14910
909.3	14834
909.415	14842
909.531	14785
909.647	14533
909.762	14412
909.878	14343
909.993	14575
910.108	14560
910.224	14412
910.339	14442
910.454	14385
910.57	14328
910.685	14332
910.8	14499
910.915	14469
911.03	14370
911.145	14145
911.259	14039
911.374	14016
911.489	14024
911.604	14001
911.718	13830
911.833	13879
911.947	13723
912.062	13575
912.176	13780
912.291	13860
912.405	13871
912.519	14031
912.633	13955
912.748	13909
912.862	13849
912.976	13655
913.09	13552
913.204	13605
913.318	13708
913.431	13788
913.545	13818
913.659	13765
913.772	13696
913.886	13597
914	13453
914.113	13491
914.226	13647
914.34	13575
914.453	13472
914.566	13594
914.68	13506
914.793	13381
914.906	13240
915.019	13179
915.132	13122
915.245	13228
915.358	13194
915.47	13183
915.583	13244
915.696	13304
915.809	13415
915.921	13377
916.034	13110
916.146	13118
916.259	13168
916.371	13179
916.483	13095
916.595	13076
916.708	13034
916.82	13015
916.932	13000
917.044	13004
917.156	12996
917.268	12916
917.38	12878
917.491	12844
917.603	12920
917.715	12890
917.826	12973
917.938	12882
918.049	12722
918.161	12939
918.272	12989
918.384	12977
918.495	12901
918.606	12715
918.717	12578
918.828	12745
918.939	12711
919.05	12623
919.161	12616
919.272	12509
919.383	12559
919.494	12684
919.604	12837
919.715	12734
919.826	12616
919.936	12650
920.047	12757
920.157	12681
920.267	12817
920.378	12707
920.488	12631
920.598	12844
920.708	12905
920.818	12787
920.928	12810
921.038	12878
921.148	12958
921.258	12688
921.368	12502
921.477	12399
921.587	12433
921.697	12338
921.806	12460
921.916	12334
922.025	12178
922.134	12159
922.244	12117
922.353	12087
922.462	11996
922.571	11901
922.68	11794
922.789	11767
922.898	11836
923.007	11638
923.116	11771
923.224	11703
923.333	11638
923.442	11668
923.55	11646
923.659	11596
923.767	11729
923.876	11608
923.984	11745
924.092	11562
924.201	11455
924.309	11528
924.417	11524
924.525	11478
924.633	11532
924.741	12285
924.849	11254
924.956	11501
925.064	11204
925.172	11159
925.279	11265
925.387	11353
925.494	11326
925.602	11425
925.709	11307
925.816	11204
925.924	11254
926.031	11261
926.138	11136
926.245	11250
926.352	11189
926.459	11239
926.566	11261
926.673	11265
926.779	11102
926.886	11109
926.993	10919
927.099	10919
927.206	10889
927.312	10877
927.419	10930
927.525	10881
927.631	10908
927.737	10816
927.843	10797
927.95	10675
928.056	10790
928.162	10854
928.267	10820
928.373	11341
928.479	10885
928.585	10668
928.69	10717
928.796	10774
928.901	10611
929.007	10500
929.112	10660
929.218	10577
929.323	10493
929.428	10451
929.533	10538
929.638	10424
929.743	10451
929.848	10523
929.953	10481
930.058	10436
930.163	10150
930.267	10227
930.372	10432
930.477	10257
930.581	10424
930.685	10227
930.79	10196
930.894	10177
930.998	10109
931.103	10253
931.207	9819
931.311	9842
931.415	9743
931.519	9557
931.623	9561
