Data from test_V78500241_3122.txt Node
Date: Fri Mar 25 14:55:27 CST 2022
User: usil
Spectrometer: V785-0024
Trigger mode: 0
Integration Time (sec): 4.000000E-1
Scans to average: 1
Nonlinearity correction enabled: false
Boxcar width: 0
Storing dark spectrum: false
XAxis mode: Wavelengths
Number of Pixels in Spectrum: 1024
>>>>>Begin Spectral Data<<<<<
801.071	22006
801.214	21911
801.356	21663
801.499	21549
801.641	21420
801.783	21397
801.926	21492
802.068	21291
802.211	21294
802.353	21138
802.496	21013
802.638	20876
802.78	20853
802.923	20819
803.065	20568
803.208	20670
803.35	20750
803.492	20826
803.635	20933
803.777	20606
803.919	20842
804.061	21043
804.204	20895
804.346	20667
804.488	20575
804.63	20716
804.773	20526
804.915	20518
805.057	20674
805.199	20560
805.341	20686
805.483	20826
805.626	20735
805.768	20606
805.91	20686
806.052	20636
806.194	20655
806.336	20705
806.478	20640
806.62	20689
806.762	20701
806.904	20830
807.046	21150
807.188	21024
807.33	20982
807.472	21066
807.614	20785
807.756	20902
807.898	20720
808.04	20629
808.182	20667
808.324	20762
808.465	20823
808.607	20975
808.749	21047
808.891	21108
809.033	21089
809.174	21112
809.316	21013
809.458	20982
809.6	20910
809.741	21077
809.883	21116
810.025	21184
810.166	21154
810.308	21165
810.45	21104
810.591	21017
810.733	20948
810.875	20826
811.016	20682
811.158	20640
811.299	20906
811.441	20891
811.582	20891
811.724	20785
811.865	20667
812.007	20705
812.148	20785
812.29	20815
812.431	20804
812.573	21100
812.714	21222
812.855	21317
812.997	21306
813.138	21564
813.279	21367
813.421	21291
813.562	21154
813.703	20944
813.845	20998
813.986	20670
814.127	20511
814.268	20309
814.41	20351
814.551	20290
814.692	20374
814.833	20176
814.974	20172
815.115	20298
815.256	20199
815.397	20195
815.539	20122
815.68	20187
815.821	20046
815.962	20077
816.103	20050
816.244	19841
816.385	19845
816.526	19746
816.666	19518
816.807	19396
816.948	19502
817.089	19624
817.23	19715
817.371	19396
817.512	19472
817.653	19396
817.793	19304
817.934	19480
818.075	19533
818.216	19377
818.356	19343
818.497	19187
818.638	19187
818.778	19133
818.919	19126
819.06	19183
819.2	19289
819.341	19266
819.481	19365
819.622	19381
819.762	19666
819.903	19594
820.043	19422
820.184	19362
820.324	19472
820.465	19434
820.605	19460
820.746	19441
820.886	19282
821.026	19434
821.167	19377
821.307	19514
821.447	19339
821.588	19164
821.728	19114
821.868	19050
822.008	18852
822.149	18776
822.289	18745
822.429	18631
822.569	18433
822.709	18631
822.849	18334
822.99	18384
823.13	18292
823.27	18296
823.41	18228
823.55	18038
823.69	18220
823.83	18140
823.97	18038
824.11	17912
824.25	17821
824.389	18057
824.529	18007
824.669	17870
824.809	18121
824.949	17954
825.089	17908
825.228	17882
825.368	17707
825.508	17775
825.648	17737
825.787	17783
825.927	17805
826.067	17627
826.206	17661
826.346	17668
826.485	17714
826.625	17646
826.765	17790
826.904	17802
827.044	17547
827.183	17505
827.323	17429
827.462	17524
827.601	17463
827.741	17303
827.88	17444
828.02	17326
828.159	17337
828.298	17444
828.437	17455
828.577	17376
828.716	17467
828.855	17337
828.994	17185
829.134	17159
829.273	17311
829.412	17033
829.551	17124
829.69	17159
829.829	17075
829.968	17254
830.107	17140
830.246	17239
830.385	17121
830.524	17052
830.663	16847
830.802	16809
830.941	16729
831.08	16729
831.219	16949
831.357	16854
831.496	16976
831.635	16748
831.774	16675
831.913	16675
832.051	16538
832.19	16500
832.329	16569
832.467	16466
832.606	16421
832.744	16379
832.883	16474
833.022	16303
833.16	16440
833.299	16436
833.437	16382
833.576	16443
833.714	16558
833.852	16523
833.991	16493
834.129	16402
834.267	16622
834.406	16535
834.544	16451
834.682	16447
834.821	16436
834.959	16694
835.097	16432
835.235	16565
835.373	16485
835.511	16565
835.65	16436
835.788	16382
835.926	16166
836.064	16173
836.202	16306
836.34	16413
836.478	16363
836.615	16432
836.753	16405
836.891	16493
837.029	16421
837.167	16360
837.305	16447
837.443	16200
837.58	16276
837.718	16379
837.856	16265
837.993	16257
838.131	16341
838.269	16128
838.406	16265
838.544	16131
838.681	16082
838.819	15968
838.956	15781
839.094	15869
839.231	15880
839.369	15960
839.506	16150
839.643	16051
839.781	15838
839.918	15747
840.055	15747
840.193	15895
840.33	15743
840.467	15850
840.604	15739
840.742	16036
840.879	15762
841.016	15838
841.153	15713
841.29	15899
841.427	15743
841.564	15937
841.701	15732
841.838	15797
841.975	15759
842.112	15755
842.249	15618
842.385	15591
842.522	15717
842.659	15580
842.796	15477
842.933	15610
843.069	15515
843.206	15500
843.343	15743
843.479	15656
843.616	15633
843.752	15374
843.889	15462
844.025	15534
844.162	15382
844.298	15477
844.435	15329
844.571	15389
844.708	15279
844.844	15580
844.98	15477
845.117	15469
845.253	15218
845.389	15241
845.525	15321
845.661	15256
845.798	15146
845.934	15218
846.07	15119
846.206	15203
846.342	15348
846.478	15157
846.614	15017
846.75	15009
846.886	14933
847.022	15062
847.158	14933
847.294	15066
847.429	14990
847.565	14902
847.701	15230
847.837	14716
847.972	14678
848.108	14705
848.244	14785
848.379	14564
848.515	14568
848.65	14476
848.786	14537
848.921	14533
849.057	14613
849.192	14655
849.328	14541
849.463	14499
849.598	14552
849.734	14484
849.869	14400
850.004	14324
850.14	14385
850.275	14374
850.41	14339
850.545	14210
850.68	14271
850.815	14320
850.95	14358
851.085	14492
851.22	14377
851.355	14347
851.49	14233
851.625	14320
851.76	14240
851.895	14237
852.03	14119
852.165	14374
852.299	14332
852.434	14377
852.569	14362
852.703	14305
852.838	14355
852.973	14469
853.107	14396
853.242	14199
853.376	14248
853.511	14115
853.645	14035
853.78	14225
853.914	14123
854.048	14096
854.183	14103
854.317	14092
854.451	14355
854.585	14161
854.72	14134
854.854	14214
854.988	14164
855.122	14115
855.256	14065
855.39	14100
855.524	14252
855.658	14172
855.792	14240
855.926	14225
856.06	14221
856.194	14301
856.327	14180
856.461	14180
856.595	14153
856.729	14191
856.862	14278
856.996	14221
857.13	14309
857.263	14278
857.397	14256
857.53	14145
857.664	14305
857.797	14358
857.931	14278
858.064	14290
858.197	14294
858.331	14157
858.464	14077
858.597	14069
858.731	14172
858.864	14210
858.997	14123
859.13	14210
859.263	14164
859.396	14294
859.529	14180
859.662	14191
859.795	14161
859.928	14248
860.061	14271
860.194	14332
860.327	14176
860.46	14172
860.592	14347
860.725	14301
860.858	14351
860.99	14145
861.123	14069
861.256	14103
861.388	14164
861.521	14876
861.653	14024
861.786	14043
861.918	14062
862.05	14077
862.183	14237
862.315	14164
862.447	14237
862.58	14130
862.712	14073
862.844	13909
862.976	13944
863.108	14058
863.24	14309
863.372	13791
863.504	13963
863.636	13993
863.768	14043
863.9	13967
864.032	13921
864.164	13932
864.296	13944
864.428	14065
864.559	14039
864.691	13989
864.823	13940
864.954	13936
865.086	14092
865.217	13936
865.349	13898
865.48	13936
865.612	13932
865.743	14100
865.875	13944
866.006	13917
866.137	13928
866.269	14031
866.4	13845
866.531	13871
866.662	13875
866.793	13898
866.924	13830
867.055	13970
867.186	14016
867.317	13898
867.448	13784
867.579	13898
867.71	13875
867.841	13883
867.972	13955
868.103	13944
868.233	13955
868.364	13894
868.495	13989
868.625	14263
868.756	14286
868.886	14103
869.017	14107
869.147	14256
869.278	14309
869.408	14172
869.539	14218
869.669	14256
869.799	14256
869.929	14370
870.06	14347
870.19	14598
870.32	14511
870.45	14590
870.58	14716
870.71	14659
870.84	14678
870.97	14644
871.1	14560
871.23	14800
871.36	14731
871.489	14613
871.619	14708
871.749	14720
871.879	14826
872.008	14815
872.138	14830
872.267	14834
872.397	14648
872.526	14689
872.656	14610
872.785	14659
872.915	14845
873.044	14872
873.173	14849
873.303	14849
873.432	14883
873.561	14933
873.69	14815
873.819	14834
873.948	14956
874.077	14826
874.206	14800
874.335	14849
874.464	14921
874.593	15195
874.722	15047
874.851	15188
874.979	15203
875.108	15173
875.237	15085
875.365	15032
875.494	15169
875.623	15249
875.751	15127
875.88	15180
876.008	15393
876.136	15386
876.265	15591
876.393	15686
876.521	15622
876.65	15663
876.778	15572
876.906	15511
877.034	15492
877.162	15542
877.29	15523
877.418	15591
877.546	15545
877.674	15572
877.802	15549
877.93	15526
878.058	15526
878.185	15542
878.313	15526
878.441	15622
878.568	15443
878.696	15523
878.824	15584
878.951	15701
879.079	15705
879.206	15972
879.333	15724
879.461	15637
879.588	15667
879.715	15679
879.842	15850
879.97	15701
880.097	15488
880.224	15405
880.351	15450
880.478	15526
880.605	15435
880.732	15428
880.859	15755
880.986	15443
881.112	15435
881.239	15218
881.366	15195
881.493	15127
881.619	15112
881.746	15123
881.872	15043
881.999	15074
882.125	15089
882.252	15218
882.378	15119
882.505	15214
882.631	15127
882.757	14910
882.883	14990
883.01	14921
883.136	14792
883.262	14781
883.388	14716
883.514	14921
883.64	14925
883.766	14807
883.892	14697
884.018	14682
884.143	14864
884.269	14948
884.395	14693
884.52	14632
884.646	14549
884.772	14507
884.897	14476
885.023	14571
885.148	14731
885.274	14857
885.399	14743
885.524	14636
885.65	14579
885.775	14727
885.9	14606
886.025	14746
886.15	14697
886.275	14602
886.4	14522
886.525	14583
886.65	14473
886.775	14617
886.9	14705
887.025	14701
887.149	14674
887.274	14457
887.399	14374
887.523	14396
887.648	14400
887.773	14400
887.897	14530
888.021	14564
888.146	14480
888.27	14476
888.395	14587
888.519	14446
888.643	14499
888.767	14610
888.891	14454
889.015	14248
889.139	14328
889.263	14176
889.387	14358
889.511	14476
889.635	14393
889.759	14244
889.883	14305
890.006	14442
890.13	14389
890.254	14210
890.377	14252
890.501	14206
890.624	14065
890.748	14180
890.871	14062
890.995	13982
891.118	13921
891.241	14046
891.364	14050
891.488	14199
891.611	13986
891.734	13982
891.857	14024
891.98	14054
892.103	14077
892.226	14103
892.349	13928
892.471	13822
892.594	13944
892.717	13986
892.839	14065
892.962	14103
893.085	14046
893.207	14012
893.33	13894
893.452	13898
893.575	14050
893.697	13947
893.819	14225
893.941	14206
894.064	14180
894.186	14039
894.308	14005
894.43	14115
894.552	14183
894.674	14199
894.796	13940
894.918	14062
895.04	13989
895.161	14126
895.283	14176
895.405	13982
895.526	14161
895.648	14237
895.769	14035
895.891	14176
896.012	14225
896.134	14123
896.255	14199
896.376	14191
896.498	14157
896.619	14275
896.74	14168
896.861	14362
896.982	14533
897.103	14678
897.224	14511
897.345	14461
897.466	14393
897.587	14507
897.708	14625
897.828	14461
897.949	14457
898.07	14301
898.19	14355
898.311	14549
898.431	14465
898.552	14488
898.672	14575
898.792	14552
898.913	14507
899.033	14374
899.153	14415
899.273	14259
899.393	14317
899.513	14400
899.633	14374
899.753	14377
899.873	14434
899.993	14396
900.113	14320
900.232	14473
900.352	14396
900.472	14294
900.591	14248
900.711	14347
900.83	14191
900.95	14305
901.069	14317
901.189	14221
901.308	14065
901.427	13913
901.546	13936
901.665	13833
901.784	13970
901.904	13826
902.023	13811
902.141	13655
902.26	13533
902.379	13613
902.498	13567
902.617	13495
902.735	13575
902.854	13506
902.973	13384
903.091	13278
903.21	13278
903.328	13270
903.446	13133
903.565	13107
903.683	13095
903.801	12962
903.919	13084
904.038	13050
904.156	12890
904.274	12939
904.392	12875
904.51	12821
904.627	12856
904.745	12859
904.863	12867
904.981	12639
905.098	12593
905.216	12574
905.334	12601
905.451	12601
905.569	12513
905.686	12627
905.803	12627
905.921	12418
906.038	12532
906.155	12380
906.272	12270
906.389	12350
906.506	12171
906.623	12186
906.74	12140
906.857	11939
906.974	12060
907.091	12205
907.208	12319
907.324	12277
907.441	12117
907.557	11863
907.674	11908
907.79	11901
907.907	11851
908.023	11965
908.139	11969
908.256	11897
908.372	11824
908.488	11870
908.604	11611
908.72	11661
908.836	11688
908.952	11604
909.068	11627
909.184	11779
909.3	11737
909.415	11855
909.531	11608
909.647	11452
909.762	11444
909.878	11379
909.993	11471
910.108	11417
910.224	11372
910.339	11436
910.454	11353
910.57	11239
910.685	11299
910.8	11512
910.915	11554
911.03	11292
911.145	11113
911.259	11124
911.374	11132
911.489	11086
911.604	11094
911.718	10908
911.833	11010
911.947	10873
912.062	10630
912.176	10881
912.291	10889
912.405	10862
912.519	11048
912.633	11143
912.748	10980
912.862	10919
912.976	10786
913.09	10706
913.204	10809
913.318	10816
913.431	10934
913.545	10809
913.659	10892
913.772	10714
913.886	10660
914	10637
914.113	10774
914.226	10752
914.34	10752
914.453	10653
914.566	10660
914.68	10558
914.793	10596
914.906	10474
915.019	10443
915.132	10325
915.245	10360
915.358	10459
915.47	10500
915.583	10424
915.696	10451
915.809	10573
915.921	10462
916.034	10440
916.146	10375
916.259	10371
916.371	10489
916.483	10440
916.595	10356
916.708	10341
916.82	10421
916.932	10314
917.044	10303
917.156	10272
917.268	10295
917.38	10284
917.491	10143
917.603	10295
917.715	10386
917.826	10322
917.938	10219
918.049	10188
918.161	10204
918.272	10428
918.384	10409
918.495	10238
918.606	10101
918.717	10006
918.828	10128
918.939	10177
919.05	10059
919.161	10078
919.272	9930
919.383	9964
919.494	10135
919.604	10386
919.715	10223
919.826	10078
919.936	10071
920.047	10242
920.157	10112
920.267	10386
920.378	10192
920.488	10150
920.598	10257
920.708	10519
920.818	10386
920.928	10337
921.038	10421
921.148	10466
921.258	10204
921.368	10135
921.477	10013
921.587	9953
921.697	9819
921.806	10006
921.916	9930
922.025	9781
922.134	9720
922.244	9656
922.353	9755
922.462	9625
922.571	9576
922.68	9473
922.789	9359
922.898	9408
923.007	9408
923.116	9477
923.224	9412
923.333	9424
923.442	9382
923.55	9348
923.659	9351
923.767	9363
923.876	9332
923.984	9298
924.092	9211
924.201	9287
924.309	9218
924.417	9268
924.525	9176
924.633	9268
924.741	10166
924.849	9020
924.956	9275
925.064	8994
925.172	8952
925.279	8990
925.387	9131
925.494	9123
925.602	9211
925.709	9169
925.816	9047
925.924	9085
926.031	9237
926.138	9058
926.245	9055
926.352	8937
926.459	9108
926.566	9100
926.673	8982
926.779	8982
926.886	8952
926.993	8807
927.099	8781
927.206	8731
927.312	8769
927.419	8788
927.525	8796
927.631	8849
927.737	8697
927.843	8659
927.95	8556
928.056	8689
928.162	8655
928.267	8758
928.373	9268
928.479	8773
928.585	8560
928.69	8686
928.796	8727
928.901	8629
929.007	8480
929.112	8530
929.218	8583
929.323	8495
929.428	8499
929.533	8610
929.638	8393
929.743	8526
929.848	8541
929.953	8484
930.058	8412
930.163	8221
930.267	8313
930.372	8423
930.477	8252
930.581	8465
930.685	8320
930.79	8172
930.894	8252
930.998	8202
931.103	8339
931.207	8008
931.311	7879
931.415	7894
931.519	7814
931.623	7761
