Data from test_V78500241_2363.txt Node
Date: Fri Mar 25 14:50:09 CST 2022
User: usil
Spectrometer: V785-0024
Trigger mode: 0
Integration Time (sec): 4.000000E-1
Scans to average: 1
Nonlinearity correction enabled: false
Boxcar width: 0
Storing dark spectrum: false
XAxis mode: Wavelengths
Number of Pixels in Spectrum: 1024
>>>>>Begin Spectral Data<<<<<
801.071	22150
801.214	22040
801.356	21895
801.499	21614
801.641	21469
801.783	21428
801.926	21633
802.068	21568
802.211	21408
802.353	21218
802.496	20910
802.638	21066
802.78	20998
802.923	20891
803.065	20811
803.208	20819
803.35	20842
803.492	20994
803.635	20883
803.777	20743
803.919	20910
804.061	21192
804.204	20902
804.346	20864
804.488	20746
804.63	20815
804.773	20746
804.915	20781
805.057	20853
805.199	20746
805.341	20842
805.483	20982
805.626	20838
805.768	20632
805.91	20842
806.052	20788
806.194	20678
806.336	20872
806.478	20804
806.62	20731
806.762	20705
806.904	21032
807.046	21230
807.188	21100
807.33	21142
807.472	21165
807.614	20948
807.756	21070
807.898	20792
808.04	20769
808.182	20845
808.324	20823
808.465	21043
808.607	21146
808.749	21100
808.891	21249
809.033	21279
809.174	21241
809.316	21188
809.458	21108
809.6	21108
809.741	21275
809.883	21230
810.025	21287
810.166	21321
810.308	21241
810.45	21165
810.591	21085
810.733	21066
810.875	20960
811.016	20910
811.158	20674
811.299	20944
811.441	21100
811.582	20979
811.724	20895
811.865	20876
812.007	20914
812.148	20853
812.29	21009
812.431	21112
812.573	21268
812.714	21317
812.855	21504
812.997	21477
813.138	21656
813.279	21542
813.421	21485
813.562	21321
813.703	21074
813.845	21150
813.986	20807
814.127	20682
814.268	20571
814.41	20560
814.551	20465
814.692	20674
814.833	20374
814.974	20454
815.115	20396
815.256	20332
815.397	20298
815.539	20229
815.68	20267
815.821	20176
815.962	20229
816.103	20180
816.244	19982
816.385	19989
816.526	19967
816.666	19738
816.807	19578
816.948	19704
817.089	19761
817.23	19639
817.371	19548
817.512	19556
817.653	19700
817.793	19632
817.934	19571
818.075	19510
818.216	19681
818.356	19552
818.497	19537
818.638	19297
818.778	19335
818.919	19232
819.06	19263
819.2	19369
819.341	19335
819.481	19476
819.622	19590
819.762	19761
819.903	19700
820.043	19670
820.184	19651
820.324	19628
820.465	19674
820.605	19681
820.746	19647
820.886	19388
821.026	19586
821.167	19533
821.307	19582
821.447	19548
821.588	19392
821.728	19320
821.868	19107
822.008	18985
822.149	18901
822.289	18993
822.429	18738
822.569	18616
822.709	18726
822.849	18593
822.99	18479
823.13	18418
823.27	18479
823.41	18441
823.55	18266
823.69	18224
823.83	18262
823.97	18213
824.11	18057
824.25	18041
824.389	18057
824.529	18091
824.669	18030
824.809	18243
824.949	18034
825.089	18068
825.228	18072
825.368	17779
825.508	17946
825.648	17920
825.787	17874
825.927	17790
826.067	17889
826.206	17737
826.346	17828
826.485	17855
826.625	17726
826.765	17824
826.904	17874
827.044	17699
827.183	17497
827.323	17486
827.462	17554
827.601	17429
827.741	17520
827.88	17558
828.02	17391
828.159	17322
828.298	17585
828.437	17608
828.577	17490
828.716	17562
828.855	17452
828.994	17299
829.134	17204
829.273	17155
829.412	17250
829.551	17151
829.69	17246
829.829	17269
829.968	17406
830.107	17318
830.246	17326
830.385	17261
830.524	17022
830.663	17006
830.802	16949
830.941	16843
831.08	16889
831.219	16934
831.357	16976
831.496	17086
831.635	16839
831.774	16869
831.913	16771
832.051	16580
832.19	16694
832.329	16710
832.467	16626
832.606	16516
832.744	16516
832.883	16512
833.022	16421
833.16	16615
833.299	16687
833.437	16615
833.576	16554
833.714	16497
833.852	16641
833.991	16664
834.129	16786
834.267	16668
834.406	16592
834.544	16672
834.682	16634
834.821	16489
834.959	16664
835.097	16546
835.235	16721
835.373	16516
835.511	16580
835.65	16512
835.788	16512
835.926	16333
836.064	16352
836.202	16348
836.34	16577
836.478	16626
836.615	16474
836.753	16584
836.891	16698
837.029	16489
837.167	16428
837.305	16481
837.443	16413
837.58	16325
837.718	16402
837.856	16386
837.993	16303
838.131	16382
838.269	16333
838.406	16265
838.544	16226
838.681	16116
838.819	16010
838.956	15956
839.094	16021
839.231	15975
839.369	15953
839.506	16253
839.643	16185
839.781	15876
839.918	15880
840.055	15918
840.193	15903
840.33	15857
840.467	15888
840.604	15888
840.742	16234
840.879	15698
841.016	15816
841.153	15838
841.29	15994
841.427	15804
841.564	15960
841.701	15899
841.838	15865
841.975	15793
842.112	15956
842.249	15701
842.385	15648
842.522	15907
842.659	15743
842.796	15599
842.933	15736
843.069	15595
843.206	15576
843.343	15819
843.479	15663
843.616	15732
843.752	15561
843.889	15458
844.025	15618
844.162	15393
844.298	15568
844.435	15504
844.571	15454
844.708	15530
844.844	15644
844.98	15622
845.117	15580
845.253	15507
845.389	15374
845.525	15348
845.661	15443
845.798	15264
845.934	15355
846.07	15310
846.206	15363
846.342	15439
846.478	15291
846.614	15047
846.75	14914
846.886	14982
847.022	15252
847.158	14929
847.294	15119
847.429	15085
847.565	15020
847.701	15359
847.837	14777
847.972	14739
848.108	14933
848.244	14845
848.379	14606
848.515	14667
848.65	14674
848.786	14720
848.921	14651
849.057	14750
849.192	14792
849.328	14625
849.463	14602
849.598	14644
849.734	14522
849.869	14564
850.004	14362
850.14	14469
850.275	14415
850.41	14366
850.545	14339
850.68	14332
850.815	14351
850.95	14412
851.085	14499
851.22	14556
851.355	14366
851.49	14355
851.625	14370
851.76	14305
851.895	14355
852.03	14271
852.165	14377
852.299	14400
852.434	14545
852.569	14446
852.703	14370
852.838	14454
852.973	14568
853.107	14583
853.242	14377
853.376	14313
853.511	14172
853.645	14218
853.78	14423
853.914	14298
854.048	14248
854.183	14267
854.317	14290
854.451	14438
854.585	14336
854.72	14240
854.854	14252
854.988	14180
855.122	14199
855.256	14187
855.39	14290
855.524	14377
855.658	14282
855.792	14317
855.926	14374
856.06	14298
856.194	14362
856.327	14366
856.461	14263
856.595	14317
856.729	14157
856.862	14362
856.996	14393
857.13	14290
857.263	14385
857.397	14442
857.53	14206
857.664	14389
857.797	14412
857.931	14393
858.064	14229
858.197	14328
858.331	14286
858.464	14244
858.597	14195
858.731	14240
858.864	14278
858.997	14313
859.13	14237
859.263	14229
859.396	14324
859.529	14305
859.662	14271
859.795	14240
859.928	14218
860.061	14419
860.194	14358
860.327	14256
860.46	14313
860.592	14408
860.725	14415
860.858	14358
860.99	14221
861.123	14199
861.256	14161
861.388	14275
861.521	14826
861.653	14164
861.786	14062
861.918	14183
862.05	14244
862.183	14195
862.315	14271
862.447	14278
862.58	14313
862.712	14077
862.844	14024
862.976	14142
863.108	14096
863.24	14400
863.372	13986
863.504	13986
863.636	14077
863.768	14164
863.9	13997
864.032	14031
864.164	14088
864.296	14130
864.428	14168
864.559	14100
864.691	14107
864.823	14199
864.954	14096
865.086	14054
865.217	14046
865.349	13959
865.48	14111
865.612	14020
865.743	14123
865.875	14005
866.006	13909
866.137	14054
866.269	14024
866.4	14069
866.531	13898
866.662	13982
866.793	13967
866.924	13974
867.055	14016
867.186	13986
867.317	14016
867.448	13955
867.579	13982
867.71	13963
867.841	13947
867.972	14077
868.103	13982
868.233	14073
868.364	14035
868.495	14180
868.625	14157
868.756	14431
868.886	14142
869.017	14275
869.147	14457
869.278	14431
869.408	14320
869.539	14377
869.669	14332
869.799	14317
869.929	14396
870.06	14415
870.19	14552
870.32	14511
870.45	14667
870.58	14636
870.71	14769
870.84	14724
870.97	14659
871.1	14640
871.23	14853
871.36	14880
871.489	14777
871.619	14868
871.749	14830
871.879	14956
872.008	15032
872.138	14838
872.267	14887
872.397	14815
872.526	14651
872.656	14640
872.785	14735
872.915	14944
873.044	15020
873.173	14914
873.303	14914
873.432	15036
873.561	15055
873.69	14998
873.819	14960
873.948	15024
874.077	14975
874.206	14883
874.335	15066
874.464	15062
874.593	15207
874.722	15100
874.851	15218
874.979	15283
875.108	15313
875.237	15226
875.365	15146
875.494	15260
875.623	15310
875.751	15211
875.88	15260
876.008	15359
876.136	15389
876.265	15713
876.393	15755
876.521	15751
876.65	15728
876.778	15637
876.906	15652
877.034	15625
877.162	15663
877.29	15557
877.418	15519
877.546	15698
877.674	15633
877.802	15610
877.93	15686
878.058	15599
878.185	15576
878.313	15671
878.441	15732
878.568	15526
878.696	15568
878.824	15663
878.951	15690
879.079	15766
879.206	16055
879.333	15781
879.461	15682
879.588	15785
879.715	15861
879.842	15972
879.97	15759
880.097	15549
880.224	15386
880.351	15450
880.478	15580
880.605	15477
880.732	15618
880.859	15762
880.986	15561
881.112	15473
881.239	15450
881.366	15279
881.493	15119
881.619	15138
881.746	15165
881.872	15279
881.999	15123
882.125	15294
882.252	15188
882.378	15154
882.505	15249
882.631	15093
882.757	14941
882.883	15074
883.01	14937
883.136	14994
883.262	14883
883.388	14785
883.514	15032
883.64	15017
883.766	14918
883.892	14804
884.018	14754
884.143	14956
884.269	15051
884.395	14796
884.52	14625
884.646	14754
884.772	14602
884.897	14629
885.023	14697
885.148	14724
885.274	14834
885.399	14659
885.524	14689
885.65	14800
885.775	14651
885.9	14632
886.025	14781
886.15	14815
886.275	14697
886.4	14537
886.525	14621
886.65	14621
886.775	14655
886.9	14750
887.025	14925
887.149	14686
887.274	14610
887.399	14457
887.523	14415
887.648	14442
887.773	14461
887.897	14651
888.021	14503
888.146	14530
888.27	14598
888.395	14568
888.519	14549
888.643	14583
888.767	14526
888.891	14355
889.015	14396
889.139	14396
889.263	14290
889.387	14514
889.511	14484
889.635	14530
889.759	14294
889.883	14347
890.006	14381
890.13	14579
890.254	14317
890.377	14377
890.501	14263
890.624	14183
890.748	14336
890.871	14126
890.995	14111
891.118	13993
891.241	14088
891.364	14073
891.488	14259
891.611	14008
891.734	13951
891.857	14172
891.98	14149
892.103	14191
892.226	14153
892.349	13997
892.471	13868
892.594	14069
892.717	14027
892.839	14012
892.962	14081
893.085	14142
893.207	14123
893.33	13906
893.452	14027
893.575	14081
893.697	13993
893.819	14286
893.941	14351
894.064	14214
894.186	14107
894.308	14046
894.43	14221
894.552	14290
894.674	14191
894.796	14062
894.918	14096
895.04	14176
895.161	14237
895.283	14172
895.405	14058
895.526	14149
895.648	14100
895.769	14202
895.891	14317
896.012	14290
896.134	14248
896.255	14252
896.376	14210
896.498	14233
896.619	14336
896.74	14278
896.861	14332
896.982	14632
897.103	14716
897.224	14499
897.345	14488
897.466	14438
897.587	14507
897.708	14651
897.828	14537
897.949	14537
898.07	14336
898.19	14461
898.311	14769
898.431	14644
898.552	14667
898.672	14682
898.792	14727
898.913	14564
899.033	14613
899.153	14526
899.273	14385
899.393	14480
899.513	14488
899.633	14434
899.753	14533
899.873	14507
899.993	14549
900.113	14503
900.232	14457
900.352	14461
900.472	14400
900.591	14271
900.711	14381
900.83	14313
900.95	14454
901.069	14457
901.189	14275
901.308	14100
901.427	13974
901.546	14054
901.665	14043
901.784	14016
901.904	13970
902.023	13841
902.141	13601
902.26	13704
902.379	13757
902.498	13655
902.617	13605
902.735	13658
902.854	13655
902.973	13620
903.091	13354
903.21	13240
903.328	13240
903.446	13232
903.565	13225
903.683	13251
903.801	13080
903.919	13076
904.038	13171
904.156	13072
904.274	13099
904.392	13057
904.51	12966
904.627	13057
904.745	13012
904.863	13088
904.981	12791
905.098	12730
905.216	12749
905.334	12753
905.451	12726
905.569	12677
905.686	12757
905.803	12779
905.921	12498
906.038	12688
906.155	12566
906.272	12433
906.389	12399
906.506	12346
906.623	12357
906.74	12258
906.857	12216
906.974	12213
907.091	12388
907.208	12418
907.324	12296
907.441	12197
907.557	12038
907.674	12034
907.79	11901
907.907	11992
908.023	12019
908.139	12049
908.256	11973
908.372	11961
908.488	11935
908.604	11832
908.72	11771
908.836	11729
908.952	11710
909.068	11809
909.184	11882
909.3	11767
909.415	11802
909.531	11760
909.647	11558
909.762	11532
909.878	11505
909.993	11509
910.108	11528
910.224	11558
910.339	11558
910.454	11337
910.57	11364
910.685	11353
910.8	11585
910.915	11524
911.03	11410
911.145	11258
911.259	11170
911.374	11261
911.489	11185
911.604	11121
911.718	10892
911.833	11083
911.947	10892
912.062	10854
912.176	10949
912.291	11014
912.405	10976
912.519	11216
912.633	11250
912.748	11105
912.862	11025
912.976	10877
913.09	10733
913.204	10801
913.318	10782
913.431	10904
913.545	10919
913.659	11033
913.772	10904
913.886	10755
914	10729
914.113	10862
914.226	10923
914.34	10809
914.453	10679
914.566	10862
914.68	10725
914.793	10691
914.906	10535
915.019	10440
915.132	10421
915.245	10462
915.358	10531
915.47	10550
915.583	10523
915.696	10626
915.809	10672
915.921	10645
916.034	10561
916.146	10424
916.259	10432
916.371	10538
916.483	10527
916.595	10386
916.708	10504
916.82	10470
916.932	10478
917.044	10394
917.156	10478
917.268	10306
917.38	10371
917.491	10265
917.603	10363
917.715	10451
917.826	10443
917.938	10314
918.049	10154
918.161	10421
918.272	10474
918.384	10466
918.495	10367
918.606	10173
918.717	10188
918.828	10173
918.939	10223
919.05	10181
919.161	10261
919.272	9979
919.383	10082
919.494	10246
919.604	10459
919.715	10223
919.826	10192
919.936	10265
920.047	10249
920.157	10280
920.267	10470
920.378	10219
920.488	10287
920.598	10363
920.708	10584
920.818	10489
920.928	10390
921.038	10634
921.148	10565
921.258	10306
921.368	10230
921.477	10086
921.587	10109
921.697	9949
921.806	10109
921.916	9998
922.025	9880
922.134	9770
922.244	9759
922.353	9854
922.462	9686
922.571	9667
922.68	9519
922.789	9454
922.898	9515
923.007	9477
923.116	9652
923.224	9450
923.333	9523
923.442	9370
923.55	9340
923.659	9386
923.767	9458
923.876	9393
923.984	9386
924.092	9298
924.201	9363
924.309	9408
924.417	9260
924.525	9294
924.633	9298
924.741	10063
924.849	9085
924.956	9249
925.064	9135
925.172	9066
925.279	9165
925.387	9165
925.494	9131
925.602	9306
925.709	9207
925.816	9138
925.924	9127
926.031	9264
926.138	9249
926.245	9165
926.352	9150
926.459	9207
926.566	9218
926.673	9123
926.779	9036
926.886	8982
926.993	8902
927.099	8891
927.206	8819
927.312	8750
927.419	8823
927.525	8857
927.631	8891
927.737	8735
927.843	8792
927.95	8590
928.056	8773
928.162	8758
928.267	8834
928.373	9443
928.479	8918
928.585	8617
928.69	8785
928.796	8739
928.901	8686
929.007	8541
929.112	8720
929.218	8659
929.323	8602
929.428	8632
929.533	8712
929.638	8514
929.743	8533
929.848	8632
929.953	8606
930.058	8503
930.163	8332
930.267	8339
930.372	8499
930.477	8301
930.581	8625
930.685	8427
930.79	8317
930.894	8225
930.998	8290
931.103	8434
931.207	8065
931.311	8043
931.415	7967
931.519	7814
931.623	7833
