Data from test_V78500241_825.txt Node
Date: Fri Mar 25 14:39:27 CST 2022
User: usil
Spectrometer: V785-0024
Trigger mode: 0
Integration Time (sec): 4.000000E-1
Scans to average: 1
Nonlinearity correction enabled: false
Boxcar width: 0
Storing dark spectrum: false
XAxis mode: Wavelengths
Number of Pixels in Spectrum: 1024
>>>>>Begin Spectral Data<<<<<
801.071	26176
801.214	26046
801.356	26035
801.499	25860
801.641	25563
801.783	25479
801.926	25601
802.068	25464
802.211	25464
802.353	25289
802.496	25072
802.638	25000
802.78	24954
802.923	24878
803.065	24913
803.208	24947
803.35	25012
803.492	25236
803.635	25289
803.777	25034
803.919	25148
804.061	25453
804.204	25156
804.346	25110
804.488	25053
804.63	25160
804.773	25069
804.915	25213
805.057	25282
805.199	25369
805.341	25422
805.483	25590
805.626	25518
805.768	25449
805.91	25525
806.052	25597
806.194	25708
806.336	26043
806.478	26035
806.62	26130
806.762	26450
806.904	26769
807.046	27013
807.188	27298
807.33	27519
807.472	28086
807.614	28375
807.756	29083
807.898	29904
808.04	30753
808.182	32229
808.324	34070
808.465	36068
808.607	38347
808.749	40451
808.891	41570
809.033	41661
809.174	40462
809.316	38503
809.458	36079
809.6	33823
809.741	31982
809.883	30623
810.025	29402
810.166	28717
810.308	28299
810.45	27747
810.591	27439
810.733	26998
810.875	26781
811.016	26355
811.158	26199
811.299	26419
811.441	26374
811.582	26084
811.724	25769
811.865	25841
812.007	25814
812.148	25685
812.29	25655
812.431	25959
812.573	25772
812.714	25963
812.855	25944
812.997	26050
813.138	26092
813.279	26035
813.421	25868
813.562	25795
813.703	25635
813.845	25472
813.986	25194
814.127	25031
814.268	24913
814.41	24913
814.551	24817
814.692	24692
814.833	24760
814.974	24817
815.115	24646
815.256	24654
815.397	24559
815.539	24582
815.68	24418
815.821	24361
815.962	24350
816.103	24357
816.244	24102
816.385	24053
816.526	24011
816.666	23901
816.807	23779
816.948	23821
817.089	23817
817.23	23710
817.371	23687
817.512	23771
817.653	23649
817.793	23570
817.934	23566
818.075	23748
818.216	23707
818.356	23516
818.497	23436
818.638	23292
818.778	23265
818.919	23299
819.06	23337
819.2	23444
819.341	23448
819.481	23558
819.622	23703
819.762	23703
819.903	23672
820.043	23668
820.184	23543
820.324	23600
820.465	23661
820.605	23535
820.746	23581
820.886	23334
821.026	23299
821.167	23391
821.307	23490
821.447	23322
821.588	23189
821.728	23235
821.868	22995
822.008	22824
822.149	22755
822.289	22816
822.429	22485
822.569	22451
822.709	22466
822.849	22242
822.99	22185
823.13	22139
823.27	22207
823.41	22017
823.55	21953
823.69	22006
823.83	22055
823.97	21949
824.11	21899
824.25	21816
824.389	21785
824.529	21907
824.669	21861
824.809	21915
824.949	21823
825.089	21934
825.228	21816
825.368	21724
825.508	21686
825.648	21595
825.787	21667
825.927	21576
826.067	21481
826.206	21580
826.346	21591
826.485	21618
826.625	21587
826.765	21709
826.904	21603
827.044	21458
827.183	21317
827.323	21233
827.462	21150
827.601	21370
827.741	21184
827.88	21176
828.02	21135
828.159	21100
828.298	21180
828.437	21386
828.577	21169
828.716	21386
828.855	21165
828.994	20891
829.134	20998
829.273	20918
829.412	20857
829.551	20937
829.69	20880
829.829	21005
829.968	21013
830.107	21017
830.246	20845
830.385	20823
830.524	20849
830.663	20731
830.802	20590
830.941	20492
831.08	20533
831.219	20682
831.357	20617
831.496	20743
831.635	20587
831.774	20473
831.913	20358
832.051	20294
832.19	20328
832.329	20469
832.467	20278
832.606	20145
832.744	20282
832.883	20492
833.022	20377
833.16	20408
833.299	20602
833.437	20541
833.576	20716
833.714	20727
833.852	21051
833.991	20975
834.129	21131
834.267	21100
834.406	21051
834.544	20979
834.682	20880
834.821	20861
834.959	20838
835.097	20583
835.235	20689
835.373	20511
835.511	20518
835.65	20267
835.788	20206
835.926	20058
836.064	19974
836.202	20092
836.34	20259
836.478	20252
836.615	20065
836.753	19955
836.891	20092
837.029	20134
837.167	20054
837.305	19909
837.443	19807
837.58	19898
837.718	19902
837.856	19898
837.993	19723
838.131	19841
838.269	19750
838.406	19605
838.544	19723
838.681	19578
838.819	19491
838.956	19354
839.094	19362
839.231	19381
839.369	19499
839.506	19814
839.643	19506
839.781	19320
839.918	19289
840.055	19270
840.193	19343
840.33	19266
840.467	19346
840.604	19308
840.742	19548
840.879	19137
841.016	19202
841.153	19202
841.29	19400
841.427	19221
841.564	19373
841.701	19297
841.838	19369
841.975	19213
842.112	19244
842.249	19053
842.385	19008
842.522	19259
842.659	19069
842.796	19080
842.933	19095
843.069	19069
843.206	19057
843.343	19209
843.479	19225
843.616	19217
843.752	19137
843.889	19019
844.025	19255
844.162	19141
844.298	19388
844.435	19251
844.571	19381
844.708	19540
844.844	20054
844.98	20309
845.117	20632
845.253	21188
845.389	22261
845.525	24696
845.661	28538
845.798	33222
845.934	36935
846.07	38172
846.206	37521
846.342	34622
846.478	29866
846.614	25620
846.75	22927
846.886	21329
847.022	20374
847.158	19826
847.294	19460
847.429	19190
847.565	18901
847.701	18977
847.837	18528
847.972	18433
848.108	18494
848.244	18372
848.379	18220
848.515	18003
848.65	18011
848.786	18106
848.921	18072
849.057	18247
849.192	18110
849.328	18125
849.463	18045
849.598	17969
849.734	17889
849.869	17832
850.004	17794
850.14	17798
850.275	17760
850.41	17718
850.545	17756
850.68	17710
850.815	17718
850.95	17695
851.085	17851
851.22	17726
851.355	17558
851.49	17722
851.625	17646
851.76	17760
851.895	17687
852.03	17581
852.165	17695
852.299	17798
852.434	17752
852.569	17775
852.703	17901
852.838	17843
852.973	17920
853.107	17954
853.242	17809
853.376	17779
853.511	17509
853.645	17623
853.78	17779
853.914	17767
854.048	17832
854.183	17760
854.317	17748
854.451	18064
854.585	17847
854.72	17817
854.854	17832
854.988	17764
855.122	17748
855.256	17589
855.39	17676
855.524	17707
855.658	17619
855.792	17687
855.926	17646
856.06	17729
856.194	17710
856.327	17581
856.461	17596
856.595	17535
856.729	17497
856.862	17687
856.996	17653
857.13	17672
857.263	17764
857.397	17627
857.53	17577
857.664	17562
857.797	17535
857.931	17611
858.064	17573
858.197	17657
858.331	17497
858.464	17436
858.597	17330
858.731	17471
858.864	17376
858.997	17478
859.13	17395
859.263	17402
859.396	17577
859.529	17455
859.662	17364
859.795	17368
859.928	17379
860.061	17524
860.194	17573
860.327	17410
860.46	17433
860.592	17486
860.725	17585
860.858	17562
860.99	17459
861.123	17330
861.256	17345
861.388	17376
861.521	17946
861.653	17326
861.786	17181
861.918	17231
862.05	17246
862.183	17402
862.315	17398
862.447	17528
862.58	17368
862.712	17132
862.844	17124
862.976	17250
863.108	17189
863.24	17493
863.372	17102
863.504	17159
863.636	17102
863.768	17208
863.9	17045
864.032	17071
864.164	17098
864.296	17223
864.428	17231
864.559	17151
864.691	17200
864.823	17166
864.954	17170
865.086	17208
865.217	17079
865.349	16949
865.48	17025
865.612	17128
865.743	17094
865.875	17090
866.006	17025
866.137	17124
866.269	17064
866.4	17067
866.531	17018
866.662	17060
866.793	17056
866.924	17045
867.055	17086
867.186	17086
867.317	17022
867.448	16904
867.579	17014
867.71	16957
867.841	16938
867.972	17064
868.103	17098
868.233	16984
868.364	16987
868.495	17197
868.625	17242
868.756	17353
868.886	17174
869.017	17349
869.147	17326
869.278	17478
869.408	17299
869.539	17360
869.669	17315
869.799	17337
869.929	17417
870.06	17417
870.19	17707
870.32	17642
870.45	17661
870.58	17771
870.71	17794
870.84	17912
870.97	17802
871.1	17630
871.23	17824
871.36	17973
871.489	17878
871.619	17916
871.749	17980
871.879	17996
872.008	18117
872.138	18060
872.267	17958
872.397	17923
872.526	17745
872.656	17847
872.785	17840
872.915	18038
873.044	18095
873.173	18129
873.303	18106
873.432	18178
873.561	18171
873.69	18114
873.819	18148
873.948	18266
874.077	18300
874.206	18121
874.335	18194
874.464	18289
874.593	18521
874.722	18418
874.851	18612
874.979	18532
875.108	18623
875.237	18642
875.365	18574
875.494	18532
875.623	18787
875.751	18798
875.88	18760
876.008	18920
876.136	19042
876.265	19236
876.393	19449
876.521	19377
876.65	19472
876.778	19483
876.906	19438
877.034	19400
877.162	19430
877.29	19365
877.418	19601
877.546	19719
877.674	19784
877.802	19860
877.93	19902
878.058	20065
878.185	20001
878.313	20389
878.441	20606
878.568	20678
878.696	21142
878.824	21835
878.951	22641
879.079	23649
879.206	25156
879.333	26533
879.461	27709
879.588	28291
879.715	28367
879.842	27956
879.97	26560
880.097	24996
880.224	23847
880.351	23174
880.478	22466
880.605	21991
880.732	21728
880.859	21854
880.986	21462
881.112	21488
881.239	21272
881.366	21081
881.493	21070
881.619	21085
881.746	20998
881.872	21089
881.999	21017
882.125	21036
882.252	21249
882.378	21138
882.505	21340
882.631	21173
882.757	20982
882.883	21104
883.01	21085
883.136	20853
883.262	20937
883.388	20781
883.514	20902
883.64	20990
883.766	20941
883.892	20754
884.018	20876
884.143	20948
884.269	21066
884.395	20682
884.52	20617
884.646	20613
884.772	20629
884.897	20533
885.023	20644
885.148	20693
885.274	20735
885.399	20556
885.524	20408
885.65	20465
885.775	20324
885.9	20161
886.025	20275
886.15	20183
886.275	19921
886.4	19715
886.525	19712
886.65	19537
886.775	19578
886.9	19658
887.025	19719
887.149	19377
887.274	19232
887.399	19088
887.523	19004
887.648	18905
887.773	18909
887.897	18882
888.021	18989
888.146	18700
888.27	18867
888.395	18741
888.519	18703
888.643	18635
888.767	18760
888.891	18528
889.015	18357
889.139	18486
889.263	18327
889.387	18456
889.511	18448
889.635	18433
889.759	18292
889.883	18209
890.006	18171
890.13	18350
890.254	18076
890.377	17946
890.501	17912
890.624	17889
890.748	18038
890.871	17779
890.995	17592
891.118	17619
891.241	17653
891.364	17710
891.488	17638
891.611	17452
891.734	17649
891.857	17646
891.98	17634
892.103	17649
892.226	17474
892.349	17417
892.471	17322
892.594	17402
892.717	17452
892.839	17448
892.962	17395
893.085	17467
893.207	17326
893.33	17178
893.452	17258
893.575	17193
893.697	17303
893.819	17395
893.941	17326
894.064	17360
894.186	17140
894.308	17140
894.43	17178
894.552	17318
894.674	17200
894.796	17155
894.918	17231
895.04	17166
895.161	17090
895.283	17143
895.405	17090
895.526	17075
895.648	17086
895.769	17071
895.891	17041
896.012	17159
896.134	17094
896.255	16999
896.376	16972
896.498	17033
896.619	17113
896.74	17117
896.861	17075
896.982	17296
897.103	17539
897.224	17326
897.345	17246
897.466	17288
897.587	17239
897.708	17402
897.828	17277
897.949	17235
898.07	17159
898.19	17299
898.311	17387
898.431	17242
898.552	17322
898.672	17288
898.792	17455
898.913	17379
899.033	17181
899.153	17204
899.273	16980
899.393	17162
899.513	17185
899.633	17155
899.753	17079
899.873	16934
899.993	17155
900.113	17109
900.232	17071
900.352	16991
900.472	16965
900.591	16957
900.711	16949
900.83	16908
900.95	17029
901.069	17064
901.189	16847
901.308	16550
901.427	16542
901.546	16489
901.665	16561
901.784	16630
901.904	16478
902.023	16242
902.141	16116
902.26	16013
902.379	16116
902.498	15998
902.617	15983
902.735	16051
902.854	15915
902.973	15895
903.091	15637
903.21	15675
903.328	15713
903.446	15652
903.565	15458
903.683	15507
903.801	15405
903.919	15420
904.038	15534
904.156	15142
904.274	15306
904.392	15260
904.51	15176
904.627	15157
904.745	15218
904.863	15146
904.981	15043
905.098	14902
905.216	14899
905.334	14914
905.451	14925
905.569	14948
905.686	14910
905.803	14868
905.921	14720
906.038	14781
906.155	14777
906.272	14613
906.389	14655
906.506	14457
906.623	14511
906.74	14332
906.857	14328
906.974	14328
907.091	14362
907.208	14499
907.324	14370
907.441	14317
907.557	14134
907.674	14172
907.79	14024
907.907	14062
908.023	14187
908.139	14176
908.256	14062
908.372	14100
908.488	14008
908.604	13913
908.72	13757
908.836	13940
908.952	13837
909.068	13913
909.184	13978
909.3	13845
909.415	13940
909.531	13883
909.647	13582
909.762	13597
909.878	13567
909.993	13586
910.108	13643
910.224	13548
910.339	13689
910.454	13556
910.57	13514
910.685	13297
910.8	13594
910.915	13559
911.03	13411
911.145	13198
911.259	13221
911.374	13198
911.489	13209
911.604	13126
911.718	13110
911.833	13038
911.947	12878
912.062	12867
912.176	12981
912.291	12962
912.405	12970
912.519	13198
912.633	13183
912.748	12977
912.862	12920
912.976	12863
913.09	12669
913.204	12810
913.318	12844
913.431	12840
913.545	12909
913.659	12954
913.772	12768
913.886	12703
914	12726
914.113	12757
914.226	12795
914.34	12882
914.453	12589
914.566	12772
914.68	12631
914.793	12597
914.906	12407
915.019	12292
915.132	12376
915.245	12395
915.358	12422
915.47	12422
915.583	12441
915.696	12448
915.809	12574
915.921	12506
916.034	12391
916.146	12372
916.259	12338
916.371	12467
916.483	12407
916.595	12376
916.708	12330
916.82	12239
916.932	12353
917.044	12330
917.156	12270
917.268	12182
917.38	12254
917.491	12178
917.603	12216
917.715	12262
917.826	12220
917.938	12083
918.049	12068
918.161	12194
918.272	12285
918.384	12262
918.495	12102
918.606	11984
918.717	11931
918.828	11992
918.939	11988
919.05	11992
919.161	11889
919.272	11767
919.383	11866
919.494	12053
919.604	12152
919.715	12003
919.826	11855
919.936	11908
920.047	11996
920.157	11942
920.267	12140
920.378	12007
920.488	11973
920.598	12083
920.708	12292
920.818	12144
920.928	12041
921.038	12330
921.148	12296
921.258	11984
921.368	11901
921.477	11745
921.587	11760
921.697	11726
921.806	11802
921.916	11684
922.025	11493
922.134	11463
922.244	11455
922.353	11543
922.462	11326
922.571	11372
922.68	11140
922.789	11033
922.898	11090
923.007	11048
923.116	11170
923.224	11117
923.333	11022
923.442	11056
923.55	10987
923.659	10999
923.767	11079
923.876	10919
923.984	11003
924.092	10854
924.201	10908
924.309	10900
924.417	10991
924.525	10911
924.633	10930
924.741	11767
924.849	10736
924.956	10847
925.064	10672
925.172	10592
925.279	10569
925.387	10786
925.494	10584
925.602	10767
925.709	10809
925.816	10637
925.924	10691
926.031	10691
926.138	10668
926.245	10710
926.352	10569
926.459	10736
926.566	10793
926.673	10637
926.779	10409
926.886	10485
926.993	10257
927.099	10322
927.206	10242
927.312	10276
927.419	10337
927.525	10360
927.631	10394
927.737	10223
927.843	10181
927.95	10055
928.056	10227
928.162	10272
928.267	10196
928.373	10866
928.479	10223
928.585	9968
928.69	10181
928.796	10147
928.901	10040
929.007	10010
929.112	10093
929.218	10013
929.323	9930
929.428	10063
929.533	10120
929.638	9926
929.743	9949
929.848	9983
929.953	9911
930.058	9854
930.163	9682
930.267	9679
930.372	9876
930.477	9660
930.581	9926
930.685	9743
930.79	9587
930.894	9701
930.998	9667
931.103	9732
931.207	9367
931.311	9355
931.415	9313
931.519	9070
931.623	9100
