Data from test_V78500241_3148.txt Node
Date: Fri Mar 25 14:55:38 CST 2022
User: usil
Spectrometer: V785-0024
Trigger mode: 0
Integration Time (sec): 4.000000E-1
Scans to average: 1
Nonlinearity correction enabled: false
Boxcar width: 0
Storing dark spectrum: false
XAxis mode: Wavelengths
Number of Pixels in Spectrum: 1024
>>>>>Begin Spectral Data<<<<<
801.071	21972
801.214	21968
801.356	21709
801.499	21629
801.641	21408
801.783	21332
801.926	21462
802.068	21370
802.211	21260
802.353	21169
802.496	21005
802.638	20861
802.78	20811
802.923	20724
803.065	20682
803.208	20708
803.35	20708
803.492	20708
803.635	20921
803.777	20773
803.919	20872
804.061	21123
804.204	20781
804.346	20648
804.488	20659
804.63	20743
804.773	20568
804.915	20598
805.057	20750
805.199	20495
805.341	20750
805.483	20663
805.626	20617
805.768	20682
805.91	20663
806.052	20697
806.194	20556
806.336	20754
806.478	20712
806.62	20552
806.762	20716
806.904	20883
807.046	20944
807.188	21043
807.33	21017
807.472	21009
807.614	20777
807.756	20971
807.898	20792
808.04	20701
808.182	20648
808.324	20933
808.465	20880
808.607	20861
808.749	20982
808.891	21074
809.033	21142
809.174	21043
809.316	20967
809.458	21104
809.6	20967
809.741	21146
809.883	21070
810.025	21131
810.166	21176
810.308	21081
810.45	21062
810.591	21020
810.733	20876
810.875	20796
811.016	20625
811.158	20762
811.299	20754
811.441	20986
811.582	20845
811.724	20788
811.865	20834
812.007	20765
812.148	20743
812.29	20800
812.431	20925
812.573	21036
812.714	21199
812.855	21195
812.997	21401
813.138	21454
813.279	21416
813.421	21249
813.562	21207
813.703	21089
813.845	20918
813.986	20511
814.127	20480
814.268	20336
814.41	20351
814.551	20358
814.692	20488
814.833	20393
814.974	20366
815.115	20275
815.256	20180
815.397	20202
815.539	20092
815.68	20195
815.821	20073
815.962	20172
816.103	19970
816.244	19959
816.385	19742
816.526	19776
816.666	19639
816.807	19449
816.948	19613
817.089	19563
817.23	19525
817.371	19430
817.512	19521
817.653	19426
817.793	19460
817.934	19476
818.075	19533
818.216	19445
818.356	19373
818.497	19327
818.638	19122
818.778	19187
818.919	19168
819.06	19251
819.2	19217
819.341	19388
819.481	19453
819.622	19491
819.762	19662
819.903	19567
820.043	19556
820.184	19396
820.324	19506
820.465	19518
820.605	19430
820.746	19365
820.886	19244
821.026	19354
821.167	19430
821.307	19575
821.447	19270
821.588	19141
821.728	19099
821.868	19027
822.008	18776
822.149	18783
822.289	18833
822.429	18604
822.569	18601
822.709	18593
822.849	18315
822.99	18296
823.13	18277
823.27	18350
823.41	18129
823.55	18083
823.69	18178
823.83	18140
823.97	18121
824.11	17923
824.25	17977
824.389	17863
824.529	18022
824.669	17939
824.809	17897
824.949	18057
825.089	17950
825.228	17958
825.368	17687
825.508	17767
825.648	17695
825.787	17627
825.927	17611
826.067	17661
826.206	17562
826.346	17615
826.485	17611
826.625	17691
826.765	17775
826.904	17672
827.044	17444
827.183	17395
827.323	17337
827.462	17516
827.601	17402
827.741	17292
827.88	17474
828.02	17162
828.159	17395
828.298	17277
828.437	17337
828.577	17337
828.716	17505
828.855	17326
828.994	17124
829.134	17143
829.273	17132
829.412	17124
829.551	17083
829.69	17102
829.829	17223
829.968	17193
830.107	17162
830.246	17216
830.385	17075
830.524	17067
830.663	16869
830.802	16782
830.941	16668
831.08	16786
831.219	16820
831.357	16873
831.496	16866
831.635	16687
831.774	16717
831.913	16588
832.051	16516
832.19	16535
832.329	16478
832.467	16382
832.606	16382
832.744	16516
832.883	16428
833.022	16348
833.16	16424
833.299	16337
833.437	16470
833.576	16538
833.714	16565
833.852	16485
833.991	16500
834.129	16580
834.267	16531
834.406	16466
834.544	16455
834.682	16508
834.821	16455
834.959	16588
835.097	16440
835.235	16485
835.373	16474
835.511	16462
835.65	16402
835.788	16367
835.926	16249
836.064	16158
836.202	16230
836.34	16455
836.478	16447
836.615	16341
836.753	16402
836.891	16546
837.029	16459
837.167	16329
837.305	16306
837.443	16333
837.58	16105
837.718	16223
837.856	16204
837.993	16154
838.131	16219
838.269	16158
838.406	16166
838.544	16139
838.681	15937
838.819	15861
838.956	15675
839.094	15766
839.231	15724
839.369	15903
839.506	16112
839.643	15979
839.781	15846
839.918	15778
840.055	15861
840.193	15819
840.33	15812
840.467	15759
840.604	15812
840.742	15979
840.879	15671
841.016	15808
841.153	15663
841.29	15979
841.427	15732
841.564	15857
841.701	15831
841.838	15762
841.975	15671
842.112	15682
842.249	15553
842.385	15561
842.522	15713
842.659	15549
842.796	15633
842.933	15576
843.069	15618
843.206	15408
843.343	15637
843.479	15595
843.616	15713
843.752	15291
843.889	15355
844.025	15439
844.162	15268
844.298	15454
844.435	15344
844.571	15313
844.708	15302
844.844	15492
844.98	15496
845.117	15466
845.253	15275
845.389	15317
845.525	15329
845.661	15294
845.798	15093
845.934	15203
846.07	15093
846.206	15127
846.342	15298
846.478	15165
846.614	14880
846.75	14952
846.886	14868
847.022	14990
847.158	14868
847.294	14895
847.429	14986
847.565	14921
847.701	15165
847.837	14674
847.972	14648
848.108	14769
848.244	14735
848.379	14552
848.515	14499
848.65	14412
848.786	14526
848.921	14556
849.057	14594
849.192	14556
849.328	14560
849.463	14492
849.598	14415
849.734	14473
849.869	14511
850.004	14381
850.14	14374
850.275	14237
850.41	14202
850.545	14187
850.68	14286
850.815	14271
850.95	14301
851.085	14419
851.22	14408
851.355	14267
851.49	14317
851.625	14210
851.76	14263
851.895	14161
852.03	14134
852.165	14275
852.299	14267
852.434	14400
852.569	14389
852.703	14305
852.838	14385
852.973	14552
853.107	14415
853.242	14298
853.376	14161
853.511	14046
853.645	14050
853.78	14259
853.914	14202
854.048	14263
854.183	14153
854.317	14195
854.451	14377
854.585	14100
854.72	14233
854.854	14214
854.988	14142
855.122	14149
855.256	14123
855.39	14153
855.524	14271
855.658	14214
855.792	14164
855.926	14123
856.06	14256
856.194	14161
856.327	14157
856.461	14092
856.595	14138
856.729	14187
856.862	14202
856.996	14157
857.13	14225
857.263	14199
857.397	14389
857.53	14229
857.664	14149
857.797	14233
857.931	14298
858.064	14313
858.197	14298
858.331	14233
858.464	14176
858.597	14031
858.731	14164
858.864	14161
858.997	14050
859.13	14225
859.263	14187
859.396	14305
859.529	14191
859.662	14111
859.795	14096
859.928	14202
860.061	14294
860.194	14313
860.327	14199
860.46	14138
860.592	14317
860.725	14294
860.858	14282
860.99	14153
861.123	14077
861.256	14199
861.388	14138
861.521	14857
861.653	14081
861.786	13982
861.918	14123
862.05	13989
862.183	14077
862.315	14202
862.447	14252
862.58	14126
862.712	13921
862.844	13875
862.976	14031
863.108	14001
863.24	14317
863.372	13887
863.504	13913
863.636	13860
863.768	13940
863.9	13928
864.032	13917
864.164	13894
864.296	14027
864.428	14100
864.559	14088
864.691	14031
864.823	14024
864.954	13963
865.086	14035
865.217	13970
865.349	13830
865.48	13928
865.612	13963
865.743	14050
865.875	13963
866.006	13898
866.137	13936
866.269	13864
866.4	13879
866.531	13955
866.662	13772
866.793	13902
866.924	13811
867.055	13940
867.186	13925
867.317	13849
867.448	13864
867.579	13917
867.71	13833
867.841	13811
867.972	13871
868.103	13871
868.233	13989
868.364	14001
868.495	14035
868.625	14103
868.756	14313
868.886	14142
869.017	14259
869.147	14256
869.278	14313
869.408	14157
869.539	14149
869.669	14248
869.799	14252
869.929	14294
870.06	14229
870.19	14602
870.32	14518
870.45	14454
870.58	14629
870.71	14636
870.84	14659
870.97	14564
871.1	14518
871.23	14777
871.36	14750
871.489	14708
871.619	14765
871.749	14746
871.879	14792
872.008	14815
872.138	14804
872.267	14800
872.397	14708
872.526	14644
872.656	14545
872.785	14651
872.915	14800
873.044	14842
873.173	14823
873.303	14895
873.432	14853
873.561	14910
873.69	14826
873.819	14785
873.948	14918
874.077	14777
874.206	14853
874.335	14857
874.464	15017
874.593	15108
874.722	15058
874.851	15184
874.979	15138
875.108	15169
875.237	14967
875.365	15036
875.494	15180
875.623	15230
875.751	15119
875.88	15233
876.008	15325
876.136	15443
876.265	15507
876.393	15622
876.521	15557
876.65	15675
876.778	15553
876.906	15466
877.034	15557
877.162	15580
877.29	15511
877.418	15500
877.546	15644
877.674	15515
877.802	15572
877.93	15644
878.058	15473
878.185	15428
878.313	15557
878.441	15504
878.568	15416
878.696	15591
878.824	15606
878.951	15701
879.079	15755
879.206	15892
879.333	15675
879.461	15618
879.588	15682
879.715	15736
879.842	15873
879.97	15686
880.097	15458
880.224	15454
880.351	15496
880.478	15363
880.605	15405
880.732	15420
880.859	15603
880.986	15405
881.112	15447
881.239	15306
881.366	15203
881.493	15203
881.619	15047
881.746	15108
881.872	15116
881.999	15028
882.125	15093
882.252	15173
882.378	15173
882.505	15188
882.631	15009
882.757	14899
882.883	14872
883.01	14910
883.136	14826
883.262	14739
883.388	14746
883.514	14941
883.64	14944
883.766	14849
883.892	14758
884.018	14705
884.143	14857
884.269	14948
884.395	14632
884.52	14518
884.646	14560
884.772	14556
884.897	14469
885.023	14594
885.148	14750
885.274	14625
885.399	14750
885.524	14571
885.65	14629
885.775	14697
885.9	14602
886.025	14693
886.15	14697
886.275	14484
886.4	14518
886.525	14610
886.65	14590
886.775	14583
886.9	14720
887.025	14804
887.149	14499
887.274	14377
887.399	14385
887.523	14442
887.648	14336
887.773	14290
887.897	14503
888.021	14473
888.146	14442
888.27	14480
888.395	14648
888.519	14438
888.643	14499
888.767	14488
888.891	14408
889.015	14317
889.139	14263
889.263	14240
889.387	14385
889.511	14419
889.635	14461
889.759	14343
889.883	14336
890.006	14343
890.13	14374
890.254	14202
890.377	14202
890.501	14069
890.624	14084
890.748	14138
890.871	14016
890.995	13909
891.118	13860
891.241	14024
891.364	14046
891.488	14107
891.611	14016
891.734	14050
891.857	14096
891.98	14005
892.103	14084
892.226	14024
892.349	13970
892.471	13845
892.594	13944
892.717	13955
892.839	13959
892.962	14065
893.085	14050
893.207	14046
893.33	13871
893.452	13967
893.575	14126
893.697	14024
893.819	14252
893.941	14267
894.064	14153
894.186	14020
894.308	13974
894.43	14157
894.552	14210
894.674	14172
894.796	14031
894.918	14016
895.04	13944
895.161	14229
895.283	14168
895.405	14100
895.526	14096
895.648	14081
895.769	14153
895.891	14237
896.012	14218
896.134	14229
896.255	14161
896.376	14225
896.498	14168
896.619	14221
896.74	14168
896.861	14267
896.982	14610
897.103	14693
897.224	14442
897.345	14473
897.466	14351
897.587	14396
897.708	14564
897.828	14526
897.949	14362
898.07	14381
898.19	14469
898.311	14659
898.431	14415
898.552	14480
898.672	14571
898.792	14667
898.913	14552
899.033	14476
899.153	14393
899.273	14339
899.393	14381
899.513	14461
899.633	14454
899.753	14495
899.873	14286
899.993	14484
900.113	14434
900.232	14480
900.352	14324
900.472	14244
900.591	14187
900.711	14263
900.83	14256
900.95	14294
901.069	14389
901.189	14191
901.308	13989
901.427	13993
901.546	13921
901.665	14001
901.784	13932
901.904	13818
902.023	13647
902.141	13521
902.26	13487
902.379	13708
902.498	13445
902.617	13468
902.735	13559
902.854	13502
902.973	13415
903.091	13297
903.21	13255
903.328	13168
903.446	13183
903.565	13042
903.683	13149
903.801	12985
903.919	13027
904.038	13053
904.156	12897
904.274	12966
904.392	12905
904.51	12901
904.627	12897
904.745	12943
904.863	12966
904.981	12627
905.098	12604
905.216	12544
905.334	12601
905.451	12631
905.569	12452
905.686	12646
905.803	12627
905.921	12361
906.038	12445
906.155	12456
906.272	12334
906.389	12410
906.506	12190
906.623	12155
906.74	12182
906.857	12045
906.974	12098
907.091	12251
907.208	12216
907.324	12247
907.441	12034
907.557	11897
907.674	11920
907.79	11977
907.907	11866
908.023	11996
908.139	12011
908.256	11832
908.372	11840
908.488	11824
908.604	11726
908.72	11604
908.836	11653
908.952	11688
909.068	11699
909.184	11771
909.3	11676
909.415	11729
909.531	11737
909.647	11467
909.762	11482
909.878	11455
909.993	11497
910.108	11379
910.224	11440
910.339	11425
910.454	11303
910.57	11284
910.685	11189
910.8	11528
910.915	11417
911.03	11345
911.145	11105
911.259	11098
911.374	11143
911.489	11124
911.604	11094
911.718	10828
911.833	10957
911.947	10869
912.062	10740
912.176	10908
912.291	10835
912.405	10892
912.519	11052
912.633	11109
912.748	10995
912.862	10965
912.976	10831
913.09	10653
913.204	10801
913.318	10805
913.431	10915
913.545	10854
913.659	10904
913.772	10790
913.886	10714
914	10660
914.113	10797
914.226	10847
914.34	10729
914.453	10660
914.566	10679
914.68	10588
914.793	10538
914.906	10421
915.019	10417
915.132	10310
915.245	10394
915.358	10432
915.47	10394
915.583	10424
915.696	10523
915.809	10500
915.921	10615
916.034	10306
916.146	10329
916.259	10352
916.371	10390
916.483	10481
916.595	10390
916.708	10428
916.82	10329
916.932	10356
917.044	10371
917.156	10333
917.268	10211
917.38	10173
917.491	10291
917.603	10261
917.715	10261
917.826	10299
917.938	10166
918.049	10166
918.161	10276
918.272	10432
918.384	10421
918.495	10318
918.606	10135
918.717	10097
918.828	10173
918.939	10200
919.05	10040
919.161	10181
919.272	9960
919.383	9972
919.494	10131
919.604	10318
919.715	10147
919.826	10010
919.936	10101
920.047	10166
920.157	10166
920.267	10322
920.378	10204
920.488	10097
920.598	10322
920.708	10512
920.818	10390
920.928	10303
921.038	10516
921.148	10459
921.258	10223
921.368	10105
921.477	10120
921.587	9994
921.697	9926
921.806	10090
921.916	9918
922.025	9743
922.134	9720
922.244	9667
922.353	9728
922.462	9622
922.571	9523
922.68	9412
922.789	9329
922.898	9329
923.007	9344
923.116	9507
923.224	9317
923.333	9386
923.442	9230
923.55	9253
923.659	9355
923.767	9370
923.876	9226
923.984	9283
924.092	9249
924.201	9283
924.309	9294
924.417	9294
924.525	9230
924.633	9256
924.741	10131
924.849	9055
924.956	9195
925.064	9077
925.172	8963
925.279	9043
925.387	9070
925.494	9123
925.602	9135
925.709	9146
925.816	8982
925.924	9093
926.031	9195
926.138	9173
926.245	9127
926.352	8944
926.459	9085
926.566	9142
926.673	9047
926.779	8899
926.886	9001
926.993	8792
927.099	8766
927.206	8792
927.312	8708
927.419	8857
927.525	8823
927.631	8823
927.737	8697
927.843	8629
927.95	8454
928.056	8625
928.162	8686
928.267	8716
928.373	9173
928.479	8800
928.585	8522
928.69	8686
928.796	8701
928.901	8579
929.007	8476
929.112	8575
929.218	8602
929.323	8545
929.428	8476
929.533	8678
929.638	8461
929.743	8511
929.848	8556
929.953	8465
930.058	8408
930.163	8187
930.267	8347
930.372	8374
930.477	8279
930.581	8469
930.685	8324
930.79	8256
930.894	8324
930.998	8134
931.103	8305
931.207	8081
931.311	7940
931.415	7868
931.519	7681
931.623	7723
