Data from test_V78500241_166.txt Node
Date: Fri Mar 25 14:34:52 CST 2022
User: usil
Spectrometer: V785-0024
Trigger mode: 0
Integration Time (sec): 4.000000E-1
Scans to average: 1
Nonlinearity correction enabled: false
Boxcar width: 0
Storing dark spectrum: false
XAxis mode: Wavelengths
Number of Pixels in Spectrum: 1024
>>>>>Begin Spectral Data<<<<<
801.071	28961
801.214	28904
801.356	28615
801.499	28516
801.641	28599
801.783	28333
801.926	28447
802.068	28447
802.211	28261
802.353	28333
802.496	28147
802.638	28185
802.78	27937
802.923	27781
803.065	28002
803.208	27937
803.35	27907
803.492	28086
803.635	28109
803.777	28093
803.919	28230
804.061	28542
804.204	28086
804.346	27960
804.488	28006
804.63	28059
804.773	27918
804.915	27979
805.057	28299
805.199	28101
805.341	28329
805.483	28367
805.626	28204
805.768	28029
805.91	28131
806.052	28272
806.194	28234
806.336	28653
806.478	28360
806.62	28382
806.762	28519
806.904	28691
807.046	28908
807.188	28858
807.33	29044
807.472	29318
807.614	29128
807.756	29486
807.898	29414
808.04	29520
808.182	29786
808.324	30315
808.465	30764
808.607	31468
808.749	31928
808.891	32339
809.033	32385
809.174	32058
809.316	31270
809.458	30924
809.6	30353
809.741	30076
809.883	29767
810.025	29756
810.166	29509
810.308	29296
810.45	29250
810.591	29121
810.733	28900
810.875	28801
811.016	28767
811.158	28645
811.299	28721
811.441	28687
811.582	28915
811.724	28637
811.865	28493
812.007	28626
812.148	28592
812.29	28603
812.431	28687
812.573	28812
812.714	29067
812.855	29064
812.997	29105
813.138	29261
813.279	29136
813.421	29140
813.562	28965
813.703	28759
813.845	28656
813.986	28341
814.127	28204
814.268	28200
814.41	28207
814.551	28025
814.692	28238
814.833	28135
814.974	28048
815.115	28063
815.256	27838
815.397	27850
815.539	27660
815.68	27804
815.821	27614
815.962	27873
816.103	27819
816.244	27523
816.385	27515
816.526	27374
816.666	27264
816.807	27154
816.948	27127
817.089	27131
817.23	27252
817.371	27100
817.512	27081
817.653	26967
817.793	27066
817.934	27104
818.075	27077
818.216	27096
818.356	26918
818.497	26864
818.638	26697
818.778	26823
818.919	26773
819.06	26914
819.2	26800
819.341	26933
819.481	26940
819.622	27146
819.762	27321
819.903	27184
820.043	27230
820.184	27062
820.324	27043
820.465	27237
820.605	26933
820.746	27039
820.886	26963
821.026	27089
821.167	26925
821.307	27089
821.447	26956
821.588	26857
821.728	26659
821.868	26564
822.008	26507
822.149	26343
822.289	26362
822.429	26183
822.569	26119
822.709	25928
822.849	25917
822.99	25807
823.13	25689
823.27	25769
823.41	25491
823.55	25521
823.69	25674
823.83	25628
823.97	25597
824.11	25464
824.25	25304
824.389	25518
824.529	25476
824.669	25362
824.809	25476
824.949	25369
825.089	25499
825.228	25430
825.368	25274
825.508	25274
825.648	25282
825.787	25259
825.927	25263
826.067	25225
826.206	25194
826.346	25164
826.485	25221
826.625	25228
826.765	25327
826.904	25164
827.044	25019
827.183	25034
827.323	24840
827.462	24916
827.601	24928
827.741	24852
827.88	24973
828.02	24753
828.159	24817
828.298	24840
828.437	25012
828.577	24753
828.716	25091
828.855	24806
828.994	24601
829.134	24608
829.273	24555
829.412	24376
829.551	24578
829.69	24521
829.829	24536
829.968	24631
830.107	24650
830.246	24532
830.385	24407
830.524	24460
830.663	24243
830.802	24205
830.941	24159
831.08	24235
831.219	24216
831.357	24327
831.496	24311
831.635	24167
831.774	24030
831.913	23961
832.051	24022
832.19	23847
832.329	23836
832.467	23847
832.606	23745
832.744	23786
832.883	23790
833.022	23745
833.16	23859
833.299	24007
833.437	23977
833.576	23939
833.714	23882
833.852	23882
833.991	23935
834.129	23965
834.267	23950
834.406	23942
834.544	23855
834.682	23809
834.821	23794
834.959	23973
835.097	23684
835.235	23908
835.373	23786
835.511	23805
835.65	23756
835.788	23493
835.926	23486
836.064	23436
836.202	23414
836.34	23642
836.478	23691
836.615	23573
836.753	23596
836.891	23608
837.029	23497
837.167	23414
837.305	23520
837.443	23463
837.58	23242
837.718	23395
837.856	23330
837.993	23322
838.131	23181
838.269	23318
838.406	23258
838.544	23242
838.681	23018
838.819	22980
838.956	22820
839.094	22740
839.231	22915
839.369	22949
839.506	23105
839.643	22991
839.781	22889
839.918	22626
840.055	22786
840.193	22702
840.33	22664
840.467	22691
840.604	22755
840.742	22889
840.879	22538
841.016	22508
841.153	22447
841.29	22824
841.427	22569
841.564	22618
841.701	22485
841.838	22523
841.975	22470
842.112	22443
842.249	22360
842.385	22375
842.522	22584
842.659	22363
842.796	22382
842.933	22405
843.069	22299
843.206	22306
843.343	22402
843.479	22451
843.616	22519
843.752	22143
843.889	22128
844.025	22238
844.162	22211
844.298	22215
844.435	22192
844.571	22310
844.708	22295
844.844	22489
844.98	22451
845.117	22405
845.253	22565
845.389	22877
845.525	23223
845.661	24163
845.798	25046
845.934	25966
846.07	26100
846.206	26122
846.342	25552
846.478	24460
846.614	23292
846.75	22557
846.886	22242
847.022	21968
847.158	21903
847.294	21709
847.429	21797
847.565	21599
847.701	21766
847.837	21355
847.972	21374
848.108	21469
848.244	21389
848.379	21264
848.515	21173
848.65	21020
848.786	21009
848.921	21039
849.057	21306
849.192	21252
849.328	21119
849.463	21161
849.598	21077
849.734	20868
849.869	21005
850.004	20838
850.14	20895
850.275	20853
850.41	20724
850.545	20800
850.68	20659
850.815	20800
850.95	20758
851.085	20895
851.22	20887
851.355	20838
851.49	20834
851.625	20701
851.76	20842
851.895	20689
852.03	20720
852.165	20811
852.299	20857
852.434	20864
852.569	20853
852.703	20716
852.838	20826
852.973	20887
853.107	20921
853.242	20880
853.376	20629
853.511	20667
853.645	20629
853.78	20762
853.914	20590
854.048	20648
854.183	20632
854.317	20724
854.451	20807
854.585	20674
854.72	20606
854.854	20788
854.988	20571
855.122	20594
855.256	20514
855.39	20651
855.524	20621
855.658	20670
855.792	20705
855.926	20693
856.06	20655
856.194	20632
856.327	20507
856.461	20507
856.595	20587
856.729	20670
856.862	20762
856.996	20609
857.13	20590
857.263	20613
857.397	20617
857.53	20533
857.664	20514
857.797	20621
857.931	20648
858.064	20629
858.197	20587
858.331	20461
858.464	20499
858.597	20366
858.731	20419
858.864	20461
858.997	20434
859.13	20469
859.263	20514
859.396	20716
859.529	20484
859.662	20446
859.795	20518
859.928	20434
860.061	20625
860.194	20720
860.327	20587
860.46	20442
860.592	20682
860.725	20609
860.858	20632
860.99	20438
861.123	20503
861.256	20385
861.388	20404
861.521	21188
861.653	20286
861.786	20172
861.918	20336
862.05	20476
862.183	20583
862.315	20492
862.447	20606
862.58	20362
862.712	20339
862.844	20168
862.976	20320
863.108	20259
863.24	20663
863.372	20183
863.504	20206
863.636	20214
863.768	20248
863.9	20218
864.032	20122
864.164	20187
864.296	20225
864.428	20282
864.559	20206
864.691	20210
864.823	20221
864.954	20221
865.086	20313
865.217	20043
865.349	20035
865.48	20084
865.612	20157
865.743	20206
865.875	20031
866.006	20088
866.137	20054
866.269	20100
866.4	20145
866.531	19963
866.662	20001
866.793	20134
866.924	20050
867.055	19978
867.186	20016
867.317	19993
867.448	19967
867.579	19951
867.71	19860
867.841	19986
867.972	20035
868.103	20031
868.233	20050
868.364	20069
868.495	19997
868.625	20267
868.756	20415
868.886	20145
869.017	20271
869.147	20313
869.278	20366
869.408	20233
869.539	20122
869.669	20309
869.799	20317
869.929	20362
870.06	20370
870.19	20560
870.32	20545
870.45	20511
870.58	20701
870.71	20781
870.84	20735
870.97	20701
871.1	20667
871.23	20823
871.36	21020
871.489	20739
871.619	20826
871.749	20788
871.879	20906
872.008	21001
872.138	20952
872.267	20807
872.397	20796
872.526	20674
872.656	20769
872.785	20678
872.915	20933
873.044	20864
873.173	20853
873.303	20906
873.432	20937
873.561	20998
873.69	20994
873.819	21013
873.948	21047
874.077	20952
874.206	20868
874.335	20979
874.464	21005
874.593	21260
874.722	21104
874.851	21268
874.979	21233
875.108	21195
875.237	21146
875.365	21195
875.494	21245
875.623	21180
875.751	21233
875.88	21294
876.008	21439
876.136	21397
876.265	21694
876.393	21789
876.521	21641
876.65	21781
876.778	21644
876.906	21709
877.034	21656
877.162	21694
877.29	21682
877.418	21762
877.546	21804
877.674	21713
877.802	21660
877.93	21770
878.058	21755
878.185	21778
878.313	21701
878.441	21888
878.568	21789
878.696	22166
878.824	22253
878.951	22371
879.079	22755
879.206	23136
879.333	23452
879.461	23653
879.588	23885
879.715	23813
879.842	23756
879.97	23242
880.097	22824
880.224	22577
880.351	22485
880.478	22253
880.605	22109
880.732	22116
880.859	22322
880.986	21922
881.112	22013
881.239	21922
881.366	21819
881.493	21660
881.619	21679
881.746	21606
881.872	21545
881.999	21568
882.125	21572
882.252	21633
882.378	21622
882.505	21778
882.631	21454
882.757	21389
882.883	21408
883.01	21344
883.136	21294
883.262	21245
883.388	21184
883.514	21393
883.64	21416
883.766	21313
883.892	21009
884.018	21028
884.143	21367
884.269	21481
884.395	21233
884.52	21028
884.646	21093
884.772	20902
884.897	20910
885.023	21005
885.148	20914
885.274	21195
885.399	21135
885.524	20971
885.65	21017
885.775	20861
885.9	20826
886.025	20956
886.15	20891
886.275	20750
886.4	20629
886.525	20701
886.65	20590
886.775	20727
886.9	20746
887.025	20883
887.149	20712
887.274	20454
887.399	20396
887.523	20495
887.648	20450
887.773	20358
887.897	20415
888.021	20393
888.146	20366
888.27	20438
888.395	20423
888.519	20240
888.643	20389
888.767	20461
888.891	20122
889.015	20126
889.139	20191
889.263	20119
889.387	20164
889.511	20355
889.635	20153
889.759	20027
889.883	20168
890.006	20130
890.13	20172
890.254	19940
890.377	19887
890.501	19803
890.624	19780
890.748	19856
890.871	19734
890.995	19525
891.118	19624
891.241	19677
891.364	19556
891.488	19734
891.611	19655
891.734	19514
891.857	19689
891.98	19670
892.103	19658
892.226	19559
892.349	19628
892.471	19392
892.594	19487
892.717	19540
892.839	19518
892.962	19556
893.085	19571
893.207	19411
893.33	19293
893.452	19247
893.575	19518
893.697	19403
893.819	19594
893.941	19609
894.064	19559
894.186	19441
894.308	19217
894.43	19521
894.552	19643
894.674	19495
894.796	19289
894.918	19362
895.04	19373
895.161	19499
895.283	19441
895.405	19327
895.526	19358
895.648	19373
895.769	19510
895.891	19426
896.012	19468
896.134	19464
896.255	19407
896.376	19362
896.498	19472
896.619	19449
896.74	19434
896.861	19537
896.982	19788
897.103	19887
897.224	19693
897.345	19700
897.466	19582
897.587	19590
897.708	19791
897.828	19681
897.949	19594
898.07	19403
898.19	19559
898.311	19609
898.431	19491
898.552	19677
898.672	19655
898.792	19651
898.913	19681
899.033	19464
899.153	19434
899.273	19228
899.393	19331
899.513	19301
899.633	19354
899.753	19358
899.873	19293
899.993	19331
900.113	19160
900.232	19225
900.352	19293
900.472	19194
900.591	19247
900.711	19217
900.83	19225
900.95	19251
901.069	19278
901.189	19091
901.308	18920
901.427	18688
901.546	18734
901.665	18901
901.784	18787
901.904	18604
902.023	18574
902.141	18357
902.26	18308
902.379	18388
902.498	18266
902.617	18190
902.735	18346
902.854	18262
902.973	18186
903.091	17939
903.21	17931
903.328	17920
903.446	17821
903.565	17653
903.683	17684
903.801	17573
903.919	17630
904.038	17699
904.156	17478
904.274	17554
904.392	17482
904.51	17444
904.627	17448
904.745	17551
904.863	17535
904.981	17269
905.098	17143
905.216	17014
905.334	17181
905.451	17166
905.569	17045
905.686	17216
905.803	17037
905.921	16869
906.038	17014
906.155	16927
906.272	16843
906.389	16790
906.506	16660
906.623	16729
906.74	16504
906.857	16466
906.974	16577
907.091	16706
907.208	16740
907.324	16672
907.441	16512
907.557	16394
907.674	16402
907.79	16246
907.907	16314
908.023	16261
908.139	16268
908.256	16219
908.372	16223
908.488	16215
908.604	15998
908.72	16013
908.836	16036
908.952	16021
909.068	16055
909.184	16101
909.3	15884
909.415	15994
909.531	16010
909.647	15709
909.762	15633
909.878	15656
909.993	15728
910.108	15694
910.224	15633
910.339	15595
910.454	15542
910.57	15458
910.685	15405
910.8	15732
910.915	15591
911.03	15424
911.145	15302
911.259	15302
911.374	15321
911.489	15332
911.604	15146
911.718	15116
911.833	15039
911.947	15013
912.062	14804
912.176	14941
912.291	15127
912.405	15058
912.519	15173
912.633	15241
912.748	15043
912.862	15005
912.976	14868
913.09	14750
913.204	14735
913.318	14845
913.431	14998
913.545	14807
913.659	14899
913.772	14788
913.886	14697
914	14659
914.113	14796
914.226	14819
914.34	14735
914.453	14636
914.566	14720
914.68	14560
914.793	14571
914.906	14423
915.019	14389
915.132	14096
915.245	14408
915.358	14404
915.47	14240
915.583	14298
915.696	14320
915.809	14332
915.921	14511
916.034	14206
916.146	14301
916.259	14180
916.371	14332
916.483	14275
916.595	14130
916.708	14088
916.82	14031
916.932	14043
917.044	14126
917.156	14069
917.268	13982
917.38	14062
917.491	13928
917.603	13989
917.715	13936
917.826	14001
917.938	13856
918.049	13814
918.161	13970
918.272	14062
918.384	14043
918.495	13841
918.606	13765
918.717	13685
918.828	13696
918.939	13715
919.05	13639
919.161	13727
919.272	13529
919.383	13674
919.494	13753
919.604	13830
919.715	13639
919.826	13559
919.936	13689
920.047	13628
920.157	13700
920.267	13871
920.378	13738
920.488	13689
920.598	13868
920.708	13940
920.818	13780
920.928	13734
921.038	13913
921.148	13868
921.258	13719
921.368	13586
921.477	13373
921.587	13335
921.697	13228
921.806	13453
921.916	13289
922.025	13129
922.134	13050
922.244	13031
922.353	13129
922.462	12886
922.571	12833
922.68	12688
922.789	12772
922.898	12745
923.007	12677
923.116	12745
923.224	12631
923.333	12662
923.442	12555
923.55	12452
923.659	12616
923.767	12631
923.876	12490
923.984	12582
924.092	12422
924.201	12582
924.309	12559
924.417	12593
924.525	12365
924.633	12338
924.741	13266
924.849	12133
924.956	12361
925.064	12228
925.172	12163
925.279	12121
925.387	12232
925.494	12197
925.602	12258
925.709	12239
925.816	12083
925.924	12155
926.031	12216
926.138	12045
926.245	12194
926.352	11996
926.459	12167
926.566	12197
926.673	12087
926.779	11931
926.886	11935
926.993	11741
927.099	11726
927.206	11729
927.312	11699
927.419	11775
927.525	11741
927.631	11733
927.737	11703
927.843	11634
927.95	11497
928.056	11623
928.162	11596
928.267	11691
928.373	12247
928.479	11653
928.585	11383
928.69	11532
928.796	11543
928.901	11497
929.007	11280
929.112	11414
929.218	11353
929.323	11303
929.428	11288
929.533	11402
929.638	11239
929.743	11254
929.848	11288
929.953	11250
930.058	11208
930.163	10968
930.267	11041
930.372	11159
930.477	10949
930.581	11201
930.685	11094
930.79	10839
930.894	10847
930.998	10869
931.103	11022
931.207	10561
931.311	10637
931.415	10558
931.519	10306
931.623	10367
