Data from test_V78500241_2372.txt Node
Date: Fri Mar 25 14:50:13 CST 2022
User: usil
Spectrometer: V785-0024
Trigger mode: 0
Integration Time (sec): 4.000000E-1
Scans to average: 1
Nonlinearity correction enabled: false
Boxcar width: 0
Storing dark spectrum: false
XAxis mode: Wavelengths
Number of Pixels in Spectrum: 1024
>>>>>Begin Spectral Data<<<<<
801.071	22128
801.214	22021
801.356	21785
801.499	21705
801.641	21507
801.783	21492
801.926	21644
802.068	21477
802.211	21511
802.353	21272
802.496	21192
802.638	21013
802.78	21001
802.923	20918
803.065	20864
803.208	20667
803.35	20872
803.492	20880
803.635	20902
803.777	20815
803.919	20864
804.061	21192
804.204	20830
804.346	20724
804.488	20800
804.63	20788
804.773	20697
804.915	20758
805.057	20819
805.199	20777
805.341	20864
805.483	20891
805.626	20876
805.768	20830
805.91	20750
806.052	20834
806.194	20796
806.336	20902
806.478	20724
806.62	20735
806.762	20845
806.904	21055
807.046	21203
807.188	21013
807.33	21036
807.472	21211
807.614	20967
807.756	21077
807.898	20906
808.04	20861
808.182	20872
808.324	20811
808.465	20872
808.607	20994
808.749	21138
808.891	21294
809.033	21340
809.174	21180
809.316	21039
809.458	21077
809.6	21188
809.741	21207
809.883	21256
810.025	21386
810.166	21264
810.308	21355
810.45	21173
810.591	21222
810.733	21081
810.875	20971
811.016	20857
811.158	20853
811.299	20872
811.441	21009
811.582	21077
811.724	20826
811.865	20830
812.007	20819
812.148	20952
812.29	20948
812.431	21009
812.573	21222
812.714	21264
812.855	21367
812.997	21424
813.138	21644
813.279	21450
813.421	21386
813.562	21332
813.703	21218
813.845	21161
813.986	20826
814.127	20667
814.268	20522
814.41	20476
814.551	20355
814.692	20469
814.833	20412
814.974	20400
815.115	20343
815.256	20446
815.397	20301
815.539	20332
815.68	20149
815.821	20073
815.962	20294
816.103	20172
816.244	20096
816.385	19940
816.526	19784
816.666	19731
816.807	19723
816.948	19738
817.089	19769
817.23	19639
817.371	19658
817.512	19571
817.653	19655
817.793	19578
817.934	19655
818.075	19845
818.216	19499
818.356	19453
818.497	19388
818.638	19213
818.778	19251
818.919	19312
819.06	19304
819.2	19403
819.341	19403
819.481	19464
819.622	19609
819.762	19883
819.903	19761
820.043	19655
820.184	19499
820.324	19597
820.465	19609
820.605	19628
820.746	19514
820.886	19339
821.026	19571
821.167	19548
821.307	19480
821.447	19521
821.588	19506
821.728	19285
821.868	19103
822.008	18985
822.149	19008
822.289	18970
822.429	18749
822.569	18525
822.709	18612
822.849	18627
822.99	18391
823.13	18445
823.27	18475
823.41	18258
823.55	18159
823.69	18346
823.83	18148
823.97	18277
824.11	17996
824.25	18022
824.389	18117
824.529	18110
824.669	17958
824.809	18129
824.949	18114
825.089	18076
825.228	18011
825.368	17878
825.508	17828
825.648	17824
825.787	17931
825.927	17954
826.067	17908
826.206	17840
826.346	17828
826.485	17684
826.625	17634
826.765	17855
826.904	17840
827.044	17562
827.183	17558
827.323	17528
827.462	17512
827.601	17474
827.741	17577
827.88	17455
828.02	17318
828.159	17398
828.298	17505
828.437	17634
828.577	17512
828.716	17668
828.855	17421
828.994	17269
829.134	17296
829.273	17200
829.412	17193
829.551	17132
829.69	17242
829.829	17318
829.968	17311
830.107	17250
830.246	17254
830.385	17258
830.524	17071
830.663	17090
830.802	17071
830.941	16847
831.08	16869
831.219	16946
831.357	16999
831.496	17006
831.635	16839
831.774	16790
831.913	16771
832.051	16637
832.19	16698
832.329	16698
832.467	16573
832.606	16538
832.744	16592
832.883	16573
833.022	16519
833.16	16470
833.299	16588
833.437	16500
833.576	16596
833.714	16580
833.852	16599
833.991	16725
834.129	16645
834.267	16615
834.406	16660
834.544	16607
834.682	16634
834.821	16470
834.959	16729
835.097	16580
835.235	16675
835.373	16592
835.511	16668
835.65	16542
835.788	16455
835.926	16394
836.064	16234
836.202	16299
836.34	16569
836.478	16592
836.615	16466
836.753	16523
836.891	16626
837.029	16489
837.167	16417
837.305	16462
837.443	16474
837.58	16344
837.718	16428
837.856	16485
837.993	16306
838.131	16398
838.269	16261
838.406	16325
838.544	16226
838.681	16090
838.819	16093
838.956	15895
839.094	16029
839.231	15934
839.369	16082
839.506	16325
839.643	16177
839.781	15941
839.918	15880
840.055	15861
840.193	15960
840.33	15865
840.467	15846
840.604	15941
840.742	16200
840.879	15778
841.016	15720
841.153	15789
841.29	16006
841.427	15903
841.564	15945
841.701	16040
841.838	15804
841.975	15728
842.112	15785
842.249	15717
842.385	15686
842.522	15892
842.659	15747
842.796	15622
842.933	15770
843.069	15511
843.206	15614
843.343	15762
843.479	15675
843.616	15755
843.752	15488
843.889	15553
844.025	15736
844.162	15408
844.298	15408
844.435	15325
844.571	15519
844.708	15447
844.844	15553
844.98	15652
845.117	15622
845.253	15412
845.389	15344
845.525	15408
845.661	15408
845.798	15298
845.934	15260
846.07	15237
846.206	15268
846.342	15412
846.478	15230
846.614	15062
846.75	14960
846.886	14998
847.022	15100
847.158	15017
847.294	15104
847.429	15207
847.565	15017
847.701	15169
847.837	14689
847.972	14777
848.108	14921
848.244	14842
848.379	14636
848.515	14663
848.65	14556
848.786	14636
848.921	14651
849.057	14750
849.192	14773
849.328	14655
849.463	14674
849.598	14667
849.734	14598
849.869	14632
850.004	14355
850.14	14454
850.275	14294
850.41	14457
850.545	14374
850.68	14358
850.815	14454
850.95	14442
851.085	14526
851.22	14480
851.355	14522
851.49	14415
851.625	14355
851.76	14358
851.895	14294
852.03	14400
852.165	14328
852.299	14457
852.434	14488
852.569	14419
852.703	14362
852.838	14522
852.973	14552
853.107	14575
853.242	14412
853.376	14237
853.511	14221
853.645	14206
853.78	14389
853.914	14278
854.048	14210
854.183	14229
854.317	14214
854.451	14488
854.585	14248
854.72	14218
854.854	14351
854.988	14176
855.122	14206
855.256	14172
855.39	14244
855.524	14427
855.658	14252
855.792	14317
855.926	14339
856.06	14282
856.194	14469
856.327	14320
856.461	14237
856.595	14183
856.729	14267
856.862	14400
856.996	14377
857.13	14374
857.263	14446
857.397	14404
857.53	14286
857.664	14366
857.797	14313
857.931	14396
858.064	14309
858.197	14377
858.331	14358
858.464	14259
858.597	14176
858.731	14313
858.864	14259
858.997	14282
859.13	14324
859.263	14275
859.396	14419
859.529	14336
859.662	14328
859.795	14267
859.928	14298
860.061	14366
860.194	14434
860.327	14298
860.46	14256
860.592	14343
860.725	14389
860.858	14336
860.99	14298
861.123	14191
861.256	14195
861.388	14313
861.521	14853
861.653	14172
861.786	14161
861.918	14195
862.05	14164
862.183	14206
862.315	14218
862.447	14374
862.58	14218
862.712	14103
862.844	14001
862.976	14077
863.108	14088
863.24	14355
863.372	13940
863.504	14153
863.636	14005
863.768	14092
863.9	14103
864.032	13921
864.164	14039
864.296	14149
864.428	14248
864.559	14202
864.691	14176
864.823	14077
864.954	14115
865.086	14123
865.217	14008
865.349	13970
865.48	14054
865.612	14039
865.743	14187
865.875	14191
866.006	14016
866.137	14020
866.269	14084
866.4	13925
866.531	13887
866.662	13982
866.793	14005
866.924	14016
867.055	14088
867.186	13993
867.317	14050
867.448	13887
867.579	14016
867.71	13982
867.841	13818
867.972	14077
868.103	14084
868.233	14069
868.364	14100
868.495	14180
868.625	14248
868.756	14313
868.886	14263
869.017	14317
869.147	14400
869.278	14446
869.408	14301
869.539	14282
869.669	14404
869.799	14313
869.929	14339
870.06	14389
870.19	14648
870.32	14560
870.45	14667
870.58	14876
870.71	14830
870.84	14727
870.97	14731
871.1	14598
871.23	14925
871.36	14967
871.489	14670
871.619	14777
871.749	14887
871.879	14921
872.008	14971
872.138	14956
872.267	14899
872.397	14701
872.526	14674
872.656	14739
872.785	14705
872.915	14929
873.044	14963
873.173	14979
873.303	15005
873.432	15039
873.561	14971
873.69	14944
873.819	14990
873.948	15108
874.077	14952
874.206	14887
874.335	14963
874.464	15138
874.593	15233
874.722	15100
874.851	15233
874.979	15199
875.108	15272
875.237	15188
875.365	15260
875.494	15294
875.623	15302
875.751	15142
875.88	15264
876.008	15523
876.136	15473
876.265	15686
876.393	15774
876.521	15766
876.65	15759
876.778	15610
876.906	15701
877.034	15610
877.162	15622
877.29	15614
877.418	15675
877.546	15736
877.674	15667
877.802	15648
877.93	15705
878.058	15724
878.185	15542
878.313	15599
878.441	15652
878.568	15416
878.696	15564
878.824	15720
878.951	15724
879.079	15827
879.206	15960
879.333	15838
879.461	15736
879.588	15800
879.715	15823
879.842	15884
879.97	15762
880.097	15542
880.224	15538
880.351	15515
880.478	15553
880.605	15431
880.732	15580
880.859	15663
880.986	15466
881.112	15454
881.239	15298
881.366	15355
881.493	15157
881.619	15195
881.746	15199
881.872	15100
881.999	15100
882.125	15207
882.252	15252
882.378	15165
882.505	15412
882.631	15157
882.757	15005
882.883	15104
883.01	14910
883.136	14941
883.262	14773
883.388	14880
883.514	14990
883.64	15108
883.766	14876
883.892	14868
884.018	14868
884.143	14906
884.269	15100
884.395	14716
884.52	14708
884.646	14613
884.772	14610
884.897	14651
885.023	14651
885.148	14819
885.274	14834
885.399	14777
885.524	14705
885.65	14682
885.775	14670
885.9	14682
886.025	14796
886.15	14765
886.275	14640
886.4	14640
886.525	14659
886.65	14674
886.775	14590
886.9	14773
887.025	14944
887.149	14629
887.274	14488
887.399	14442
887.523	14495
887.648	14514
887.773	14415
887.897	14537
888.021	14575
888.146	14393
888.27	14678
888.395	14617
888.519	14629
888.643	14549
888.767	14613
888.891	14431
889.015	14347
889.139	14499
889.263	14339
889.387	14507
889.511	14629
889.635	14549
889.759	14324
889.883	14412
890.006	14465
890.13	14473
890.254	14286
890.377	14286
890.501	14176
890.624	14123
890.748	14259
890.871	14138
890.995	14046
891.118	13944
891.241	14065
891.364	14073
891.488	14202
891.611	14164
891.734	14100
891.857	14149
891.98	14229
892.103	14149
892.226	14073
892.349	14077
892.471	13944
892.594	14084
892.717	14096
892.839	14115
892.962	14111
893.085	14088
893.207	14084
893.33	13993
893.452	13970
893.575	14103
893.697	14138
893.819	14275
893.941	14267
894.064	14180
894.186	14043
894.308	14077
894.43	14202
894.552	14252
894.674	14233
894.796	13986
894.918	14123
895.04	14221
895.161	14168
895.283	14195
895.405	14229
895.526	14180
895.648	14210
895.769	14244
895.891	14309
896.012	14381
896.134	14301
896.255	14263
896.376	14096
896.498	14275
896.619	14313
896.74	14240
896.861	14343
896.982	14568
897.103	14826
897.224	14583
897.345	14537
897.466	14412
897.587	14495
897.708	14670
897.828	14518
897.949	14438
898.07	14377
898.19	14526
898.311	14530
898.431	14503
898.552	14598
898.672	14724
898.792	14762
898.913	14564
899.033	14552
899.153	14514
899.273	14438
899.393	14427
899.513	14454
899.633	14590
899.753	14541
899.873	14450
899.993	14556
900.113	14446
900.232	14518
900.352	14423
900.472	14381
900.591	14339
900.711	14347
900.83	14305
900.95	14415
901.069	14507
901.189	14263
901.308	14069
901.427	13963
901.546	14020
901.665	13974
901.784	14168
901.904	13944
902.023	13833
902.141	13567
902.26	13575
902.379	13620
902.498	13616
902.617	13559
902.735	13628
902.854	13567
902.973	13430
903.091	13312
903.21	13301
903.328	13289
903.446	13217
903.565	13099
903.683	13114
903.801	13114
903.919	13175
904.038	13110
904.156	13008
904.274	13034
904.392	12947
904.51	12954
904.627	12977
904.745	13008
904.863	13156
904.981	12730
905.098	12681
905.216	12612
905.334	12745
905.451	12688
905.569	12544
905.686	12684
905.803	12684
905.921	12346
906.038	12601
906.155	12490
906.272	12388
906.389	12311
906.506	12205
906.623	12159
906.74	12194
906.857	12087
906.974	12144
907.091	12315
907.208	12410
907.324	12315
907.441	12106
907.557	12106
907.674	11950
907.79	11878
907.907	11942
908.023	11992
908.139	12015
908.256	11916
908.372	11923
908.488	11942
908.604	11809
908.72	11665
908.836	11661
908.952	11684
909.068	11745
909.184	11863
909.3	11703
909.415	11824
909.531	11760
909.647	11425
909.762	11478
909.878	11497
909.993	11391
910.108	11452
910.224	11398
910.339	11535
910.454	11482
910.57	11349
910.685	11261
910.8	11512
910.915	11570
911.03	11509
911.145	11155
911.259	11269
911.374	11204
911.489	11212
911.604	11178
911.718	10999
911.833	11022
911.947	10850
912.062	10824
912.176	11025
912.291	10984
912.405	10889
912.519	11239
912.633	11151
912.748	11048
912.862	10980
912.976	10850
913.09	10831
913.204	10831
913.318	10919
913.431	10911
913.545	10908
913.659	10904
913.772	10900
913.886	10797
914	10736
914.113	10820
914.226	10881
914.34	10923
914.453	10649
914.566	10881
914.68	10740
914.793	10626
914.906	10512
915.019	10504
915.132	10440
915.245	10459
915.358	10535
915.47	10588
915.583	10558
915.696	10584
915.809	10607
915.921	10653
916.034	10386
916.146	10478
916.259	10394
916.371	10546
916.483	10500
916.595	10367
916.708	10421
916.82	10405
916.932	10459
917.044	10459
917.156	10371
917.268	10382
917.38	10413
917.491	10310
917.603	10363
917.715	10462
917.826	10466
917.938	10272
918.049	10295
918.161	10325
918.272	10569
918.384	10523
918.495	10363
918.606	10238
918.717	10150
918.828	10337
918.939	10284
919.05	10109
919.161	10219
919.272	10059
919.383	10090
919.494	10295
919.604	10535
919.715	10306
919.826	10223
919.936	10295
920.047	10295
920.157	10261
920.267	10417
920.378	10265
920.488	10249
920.598	10428
920.708	10569
920.818	10432
920.928	10421
921.038	10611
921.148	10656
921.258	10344
921.368	10272
921.477	10135
921.587	10025
921.697	9918
921.806	10112
921.916	10097
922.025	9838
922.134	9869
922.244	9774
922.353	9823
922.462	9629
922.571	9603
922.68	9462
922.789	9458
922.898	9530
923.007	9469
923.116	9561
923.224	9553
923.333	9477
923.442	9408
923.55	9355
923.659	9405
923.767	9469
923.876	9351
923.984	9450
924.092	9317
924.201	9336
924.309	9401
924.417	9367
924.525	9287
924.633	9298
924.741	10029
924.849	9131
924.956	9325
925.064	9150
925.172	9062
925.279	9058
925.387	9218
925.494	9127
925.602	9237
925.709	9165
925.816	9142
925.924	9138
926.031	9211
926.138	9169
926.245	9146
926.352	9100
926.459	9176
926.566	9260
926.673	9161
926.779	9005
926.886	8944
926.993	8891
927.099	8842
927.206	8864
927.312	8823
927.419	8864
927.525	8872
927.631	8948
927.737	8777
927.843	8693
927.95	8720
928.056	8712
928.162	8705
928.267	8785
928.373	9458
928.479	8804
928.585	8613
928.69	8727
928.796	8762
928.901	8739
929.007	8469
929.112	8632
929.218	8667
929.323	8598
929.428	8537
929.533	8766
929.638	8518
929.743	8495
929.848	8625
929.953	8598
930.058	8461
930.163	8347
930.267	8347
930.372	8549
930.477	8339
930.581	8545
930.685	8457
930.79	8290
930.894	8301
930.998	8259
931.103	8415
931.207	8054
931.311	8012
931.415	8016
931.519	7792
931.623	7784
