Data from test_V78500241_3003.txt Node
Date: Fri Mar 25 14:54:37 CST 2022
User: usil
Spectrometer: V785-0024
Trigger mode: 0
Integration Time (sec): 4.000000E-1
Scans to average: 1
Nonlinearity correction enabled: false
Boxcar width: 0
Storing dark spectrum: false
XAxis mode: Wavelengths
Number of Pixels in Spectrum: 1024
>>>>>Begin Spectral Data<<<<<
801.071	22109
801.214	21926
801.356	21656
801.499	21720
801.641	21587
801.783	21378
801.926	21519
802.068	21412
802.211	21237
802.353	21199
802.496	21112
802.638	21100
802.78	20910
802.923	20845
803.065	20834
803.208	20727
803.35	20754
803.492	20899
803.635	21028
803.777	20716
803.919	20804
804.061	20990
804.204	20762
804.346	20689
804.488	20686
804.63	20773
804.773	20762
804.915	20746
805.057	20811
805.199	20575
805.341	20609
805.483	20861
805.626	20857
805.768	20765
805.91	20720
806.052	20701
806.194	20564
806.336	20815
806.478	20659
806.62	20518
806.762	20792
806.904	20906
807.046	21256
807.188	21005
807.33	20979
807.472	21135
807.614	21032
807.756	20895
807.898	20781
808.04	20800
808.182	20724
808.324	20697
808.465	20868
808.607	20914
808.749	21081
808.891	21188
809.033	21298
809.174	21203
809.316	21047
809.458	21039
809.6	21005
809.741	21089
809.883	21096
810.025	21176
810.166	21222
810.308	21313
810.45	21116
810.591	21146
810.733	20921
810.875	20849
811.016	20716
811.158	20792
811.299	20902
811.441	20952
811.582	20979
811.724	20800
811.865	20777
812.007	20891
812.148	20823
812.29	20845
812.431	20880
812.573	21093
812.714	21108
812.855	21298
812.997	21447
813.138	21580
813.279	21485
813.421	21424
813.562	21199
813.703	21169
813.845	20902
813.986	20705
814.127	20598
814.268	20396
814.41	20396
814.551	20404
814.692	20434
814.833	20385
814.974	20355
815.115	20476
815.256	20240
815.397	20183
815.539	20183
815.68	20202
815.821	19932
815.962	20195
816.103	20043
816.244	20005
816.385	19879
816.526	19818
816.666	19734
816.807	19575
816.948	19609
817.089	19632
817.23	19483
817.371	19430
817.512	19514
817.653	19578
817.793	19441
817.934	19502
818.075	19518
818.216	19460
818.356	19434
818.497	19426
818.638	19164
818.778	19225
818.919	19240
819.06	19225
819.2	19343
819.341	19369
819.481	19346
819.622	19491
819.762	19719
819.903	19582
820.043	19487
820.184	19438
820.324	19518
820.465	19544
820.605	19514
820.746	19468
820.886	19377
821.026	19381
821.167	19460
821.307	19438
821.447	19411
821.588	19335
821.728	19187
821.868	19027
822.008	18829
822.149	18875
822.289	18886
822.429	18627
822.569	18509
822.709	18536
822.849	18372
822.99	18429
823.13	18456
823.27	18323
823.41	18117
823.55	18174
823.69	18243
823.83	18159
823.97	18114
824.11	17988
824.25	17870
824.389	18011
824.529	18003
824.669	17999
824.809	18095
824.949	18022
825.089	18034
825.228	17843
825.368	17813
825.508	17760
825.648	17733
825.787	17840
825.927	17783
826.067	17764
826.206	17741
826.346	17752
826.485	17707
826.625	17775
826.765	17783
826.904	17642
827.044	17589
827.183	17391
827.323	17376
827.462	17497
827.601	17455
827.741	17406
827.88	17345
828.02	17315
828.159	17315
828.298	17459
828.437	17524
828.577	17334
828.716	17524
828.855	17395
828.994	17216
829.134	17227
829.273	17181
829.412	17136
829.551	17033
829.69	17128
829.829	17200
829.968	17212
830.107	17147
830.246	17197
830.385	16995
830.524	17079
830.663	17041
830.802	16854
830.941	16854
831.08	16771
831.219	16812
831.357	16873
831.496	16961
831.635	16691
831.774	16748
831.913	16675
832.051	16489
832.19	16493
832.329	16535
832.467	16474
832.606	16371
832.744	16424
832.883	16440
833.022	16344
833.16	16519
833.299	16451
833.437	16466
833.576	16523
833.714	16584
833.852	16577
833.991	16519
834.129	16519
834.267	16554
834.406	16432
834.544	16538
834.682	16462
834.821	16489
834.959	16675
835.097	16447
835.235	16630
835.373	16565
835.511	16580
835.65	16413
835.788	16432
835.926	16268
836.064	16268
836.202	16310
836.34	16558
836.478	16531
836.615	16337
836.753	16462
836.891	16451
837.029	16451
837.167	16382
837.305	16344
837.443	16325
837.58	16303
837.718	16261
837.856	16234
837.993	16242
838.131	16291
838.269	16253
838.406	16230
838.544	16150
838.681	16021
838.819	15994
838.956	15930
839.094	15895
839.231	15808
839.369	15915
839.506	16261
839.643	16032
839.781	15857
839.918	15804
840.055	15873
840.193	15888
840.33	15785
840.467	15762
840.604	15880
840.742	16032
840.879	15709
841.016	15835
841.153	15633
841.29	15998
841.427	15831
841.564	15918
841.701	15854
841.838	15842
841.975	15686
842.112	15671
842.249	15584
842.385	15599
842.522	15694
842.659	15625
842.796	15515
842.933	15637
843.069	15622
843.206	15481
843.343	15663
843.479	15652
843.616	15606
843.752	15424
843.889	15363
844.025	15587
844.162	15294
844.298	15462
844.435	15291
844.571	15374
844.708	15344
844.844	15557
844.98	15542
845.117	15504
845.253	15283
845.389	15268
845.525	15249
845.661	15329
845.798	15085
845.934	15294
846.07	15089
846.206	15180
846.342	15249
846.478	15146
846.614	14979
846.75	14853
846.886	14967
847.022	15062
847.158	14895
847.294	14952
847.429	14979
847.565	14910
847.701	15154
847.837	14663
847.972	14606
848.108	14731
848.244	14674
848.379	14640
848.515	14495
848.65	14514
848.786	14530
848.921	14606
849.057	14587
849.192	14640
849.328	14632
849.463	14545
849.598	14530
849.734	14431
849.869	14355
850.004	14389
850.14	14355
850.275	14294
850.41	14263
850.545	14210
850.68	14233
850.815	14240
850.95	14275
851.085	14469
851.22	14381
851.355	14278
851.49	14313
851.625	14221
851.76	14244
851.895	14187
852.03	14252
852.165	14244
852.299	14355
852.434	14377
852.569	14377
852.703	14290
852.838	14412
852.973	14549
853.107	14549
853.242	14252
853.376	14218
853.511	14153
853.645	14111
853.78	14339
853.914	14195
854.048	14172
854.183	14107
854.317	14259
854.451	14339
854.585	14164
854.72	14176
854.854	14233
854.988	14119
855.122	14195
855.256	14077
855.39	14138
855.524	14252
855.658	14187
855.792	14126
855.926	14180
856.06	14248
856.194	14195
856.327	14191
856.461	14039
856.595	14054
856.729	14145
856.862	14294
856.996	14183
857.13	14199
857.263	14286
857.397	14271
857.53	14100
857.664	14298
857.797	14161
857.931	14176
858.064	14267
858.197	14218
858.331	14176
858.464	14145
858.597	14084
858.731	14142
858.864	14202
858.997	14199
859.13	14206
859.263	14130
859.396	14145
859.529	14134
859.662	14119
859.795	14153
859.928	14263
860.061	14332
860.194	14305
860.327	14176
860.46	14088
860.592	14282
860.725	14377
860.858	14278
860.99	14180
861.123	14088
861.256	14153
861.388	14183
861.521	14899
861.653	14054
861.786	14065
861.918	14050
862.05	14024
862.183	14126
862.315	14149
862.447	14164
862.58	14107
862.712	13898
862.844	13902
862.976	14069
863.108	13982
863.24	14377
863.372	13811
863.504	13974
863.636	13944
863.768	14008
863.9	13909
864.032	13879
864.164	13947
864.296	14046
864.428	14050
864.559	14058
864.691	14115
864.823	14062
864.954	13967
865.086	14031
865.217	13868
865.349	13860
865.48	13936
865.612	13951
865.743	14039
865.875	13947
866.006	13925
866.137	13997
866.269	13925
866.4	13940
866.531	13906
866.662	13811
866.793	13860
866.924	13879
867.055	13890
867.186	13913
867.317	13871
867.448	13875
867.579	13860
867.71	13822
867.841	13830
867.972	13841
868.103	13947
868.233	13947
868.364	13982
868.495	13959
868.625	14115
868.756	14240
868.886	14084
869.017	14225
869.147	14301
869.278	14294
869.408	14233
869.539	14248
869.669	14339
869.799	14191
869.929	14294
870.06	14298
870.19	14545
870.32	14549
870.45	14568
870.58	14617
870.71	14781
870.84	14621
870.97	14590
871.1	14533
871.23	14731
871.36	14724
871.489	14765
871.619	14777
871.749	14750
871.879	14762
872.008	14899
872.138	14815
872.267	14788
872.397	14708
872.526	14537
872.656	14583
872.785	14651
872.915	14788
873.044	14834
873.173	14891
873.303	14830
873.432	14868
873.561	14963
873.69	14868
873.819	14781
873.948	14857
874.077	14895
874.206	14853
874.335	14815
874.464	14982
874.593	15260
874.722	15104
874.851	15252
874.979	15203
875.108	15176
875.237	15135
875.365	15169
875.494	15039
875.623	15237
875.751	15116
875.88	15188
876.008	15207
876.136	15340
876.265	15553
876.393	15690
876.521	15561
876.65	15675
876.778	15698
876.906	15431
877.034	15576
877.162	15629
877.29	15553
877.418	15542
877.546	15568
877.674	15641
877.802	15587
877.93	15580
878.058	15481
878.185	15481
878.313	15500
878.441	15523
878.568	15462
878.696	15378
878.824	15576
878.951	15675
879.079	15724
879.206	15770
879.333	15743
879.461	15534
879.588	15713
879.715	15759
879.842	15747
879.97	15584
880.097	15481
880.224	15344
880.351	15408
880.478	15393
880.605	15405
880.732	15389
880.859	15705
880.986	15458
881.112	15447
881.239	15348
881.366	15154
881.493	15100
881.619	15074
881.746	15081
881.872	15047
881.999	15058
882.125	14952
882.252	15169
882.378	15051
882.505	15245
882.631	15104
882.757	14880
882.883	14948
883.01	14887
883.136	14796
883.262	14762
883.388	14743
883.514	14864
883.64	14941
883.766	14800
883.892	14701
884.018	14693
884.143	14895
884.269	14982
884.395	14682
884.52	14739
884.646	14598
884.772	14606
884.897	14438
885.023	14575
885.148	14724
885.274	14659
885.399	14727
885.524	14583
885.65	14625
885.775	14632
885.9	14552
886.025	14792
886.15	14579
886.275	14484
886.4	14511
886.525	14541
886.65	14476
886.775	14488
886.9	14720
887.025	14834
887.149	14568
887.274	14492
887.399	14415
887.523	14347
887.648	14404
887.773	14473
887.897	14594
888.021	14465
888.146	14450
888.27	14442
888.395	14541
888.519	14484
888.643	14476
888.767	14507
888.891	14336
889.015	14317
889.139	14385
889.263	14271
889.387	14431
889.511	14457
889.635	14412
889.759	14328
889.883	14294
890.006	14282
890.13	14396
890.254	14229
890.377	14301
890.501	14092
890.624	14153
890.748	14206
890.871	14058
890.995	14027
891.118	13940
891.241	13940
891.364	14008
891.488	14134
891.611	13940
891.734	14016
891.857	14065
891.98	13986
892.103	14126
892.226	14103
892.349	13944
892.471	13928
892.594	13978
892.717	14062
892.839	13887
892.962	13974
893.085	14065
893.207	14100
893.33	13932
893.452	13921
893.575	14073
893.697	13917
893.819	14134
893.941	14263
894.064	14126
894.186	13917
894.308	13932
894.43	14103
894.552	14187
894.674	14130
894.796	13841
894.918	14005
895.04	14005
895.161	14153
895.283	14187
895.405	13974
895.526	14107
895.648	14229
895.769	14149
895.891	14210
896.012	14157
896.134	14183
896.255	14221
896.376	14206
896.498	14126
896.619	14240
896.74	14305
896.861	14252
896.982	14545
897.103	14632
897.224	14434
897.345	14495
897.466	14484
897.587	14537
897.708	14564
897.828	14598
897.949	14419
898.07	14282
898.19	14473
898.311	14602
898.431	14442
898.552	14537
898.672	14697
898.792	14568
898.913	14636
899.033	14423
899.153	14358
899.273	14210
899.393	14385
899.513	14415
899.633	14442
899.753	14450
899.873	14412
899.993	14480
900.113	14488
900.232	14457
900.352	14362
900.472	14317
900.591	14259
900.711	14400
900.83	14370
900.95	14396
901.069	14415
901.189	14237
901.308	14149
901.427	13898
901.546	14005
901.665	14035
901.784	14073
901.904	13811
902.023	13666
902.141	13601
902.26	13601
902.379	13636
902.498	13586
902.617	13483
902.735	13613
902.854	13487
902.973	13552
903.091	13232
903.21	13297
903.328	13327
903.446	13213
903.565	13103
903.683	13183
903.801	12966
903.919	13084
904.038	13027
904.156	12954
904.274	12977
904.392	12905
904.51	12951
904.627	12848
904.745	12932
904.863	12970
904.981	12772
905.098	12681
905.216	12608
905.334	12601
905.451	12627
905.569	12517
905.686	12620
905.803	12650
905.921	12479
906.038	12570
906.155	12407
906.272	12338
906.389	12300
906.506	12232
906.623	12285
906.74	12224
906.857	12110
906.974	12194
907.091	12292
907.208	12346
907.324	12205
907.441	12171
907.557	11969
907.674	11786
907.79	11923
907.907	11901
908.023	11901
908.139	12053
908.256	11775
908.372	11912
908.488	11851
908.604	11680
908.72	11676
908.836	11657
908.952	11710
909.068	11726
909.184	11889
909.3	11691
909.415	11832
909.531	11790
909.647	11608
909.762	11486
909.878	11520
909.993	11433
910.108	11444
910.224	11471
910.339	11535
910.454	11410
910.57	11402
910.685	11315
910.8	11600
910.915	11585
911.03	11322
911.145	11212
911.259	11098
911.374	11181
911.489	11151
911.604	11064
911.718	10930
911.833	10953
911.947	10744
912.062	10752
912.176	10824
912.291	10934
912.405	10877
912.519	11159
912.633	11147
912.748	11037
912.862	11025
912.976	10744
913.09	10702
913.204	10748
913.318	10854
913.431	10972
913.545	10972
913.659	10919
913.772	10778
913.886	10752
914	10675
914.113	10862
914.226	10801
914.34	10793
914.453	10653
914.566	10774
914.68	10637
914.793	10683
914.906	10428
915.019	10390
915.132	10413
915.245	10325
915.358	10527
915.47	10474
915.583	10531
915.696	10485
915.809	10584
915.921	10611
916.034	10356
916.146	10367
916.259	10405
916.371	10508
916.483	10398
916.595	10318
916.708	10363
916.82	10379
916.932	10352
917.044	10268
917.156	10371
917.268	10246
917.38	10276
917.491	10280
917.603	10280
917.715	10432
917.826	10322
917.938	10223
918.049	10185
918.161	10261
918.272	10470
918.384	10432
918.495	10322
918.606	10249
918.717	10154
918.828	10154
918.939	10200
919.05	10101
919.161	10177
919.272	9987
919.383	10063
919.494	10147
919.604	10413
919.715	10223
919.826	10048
919.936	10162
920.047	10242
920.157	10154
920.267	10341
920.378	10211
920.488	10219
920.598	10379
920.708	10561
920.818	10402
920.928	10280
921.038	10478
921.148	10489
921.258	10299
921.368	10135
921.477	10044
921.587	10055
921.697	9888
921.806	10025
921.916	9975
922.025	9732
922.134	9762
922.244	9755
922.353	9827
922.462	9584
922.571	9561
922.68	9469
922.789	9386
922.898	9500
923.007	9348
923.116	9458
923.224	9416
923.333	9367
923.442	9408
923.55	9363
923.659	9367
923.767	9454
923.876	9249
923.984	9424
924.092	9233
924.201	9363
924.309	9272
924.417	9298
924.525	9279
924.633	9241
924.741	10219
924.849	9097
924.956	9230
925.064	9081
925.172	9001
925.279	8975
925.387	9173
925.494	9119
925.602	9176
925.709	9176
925.816	9066
925.924	9036
926.031	9138
926.138	9127
926.245	9119
926.352	9055
926.459	9180
926.566	9119
926.673	9032
926.779	8914
926.886	8941
926.993	8750
927.099	8769
927.206	8788
927.312	8701
927.419	8735
927.525	8796
927.631	8906
927.737	8796
927.843	8743
927.95	8632
928.056	8701
928.162	8705
928.267	8807
928.373	9241
928.479	8864
928.585	8606
928.69	8697
928.796	8739
928.901	8606
929.007	8480
929.112	8602
929.218	8598
929.323	8568
929.428	8545
929.533	8678
929.638	8488
929.743	8545
929.848	8583
929.953	8461
930.058	8427
930.163	8248
930.267	8282
930.372	8427
930.477	8256
930.581	8461
930.685	8320
930.79	8282
930.894	8343
930.998	8248
931.103	8438
931.207	8031
931.311	7955
931.415	7902
931.519	7719
931.623	7746
