Data from test_V78500241_3423.txt Node
Date: Fri Mar 25 14:57:33 CST 2022
User: usil
Spectrometer: V785-0024
Trigger mode: 0
Integration Time (sec): 4.000000E-1
Scans to average: 1
Nonlinearity correction enabled: false
Boxcar width: 0
Storing dark spectrum: false
XAxis mode: Wavelengths
Number of Pixels in Spectrum: 1024
>>>>>Begin Spectral Data<<<<<
801.071	21869
801.214	21797
801.356	21580
801.499	21469
801.641	21374
801.783	21310
801.926	21416
802.068	21241
802.211	21249
802.353	21070
802.496	20864
802.638	20739
802.78	20705
802.923	20716
803.065	20556
803.208	20701
803.35	20659
803.492	20804
803.635	20743
803.777	20648
803.919	20754
804.061	21093
804.204	20663
804.346	20541
804.488	20530
804.63	20579
804.773	20511
804.915	20556
805.057	20735
805.199	20549
805.341	20644
805.483	20655
805.626	20594
805.768	20434
805.91	20625
806.052	20644
806.194	20514
806.336	20667
806.478	20412
806.62	20499
806.762	20617
806.904	20655
807.046	20918
807.188	20880
807.33	20849
807.472	20929
807.614	20746
807.756	20830
807.898	20625
808.04	20564
808.182	20579
808.324	20613
808.465	20644
808.607	20735
808.749	20868
808.891	20929
809.033	21043
809.174	20944
809.316	20933
809.458	20792
809.6	20739
809.741	20960
809.883	20971
810.025	20971
810.166	20918
810.308	21104
810.45	20925
810.591	20823
810.733	20765
810.875	20674
811.016	20575
811.158	20552
811.299	20686
811.441	20777
811.582	20785
811.724	20583
811.865	20568
812.007	20590
812.148	20583
812.29	20754
812.431	20849
812.573	21005
812.714	21001
812.855	21028
812.997	21195
813.138	21447
813.279	21233
813.421	21283
813.562	21051
813.703	20883
813.845	20815
813.986	20484
814.127	20309
814.268	20259
814.41	20210
814.551	20183
814.692	20202
814.833	20153
814.974	20122
815.115	20221
815.256	20084
815.397	19989
815.539	20012
815.68	19978
815.821	19852
815.962	19967
816.103	19746
816.244	19803
816.385	19647
816.526	19609
816.666	19449
816.807	19327
816.948	19285
817.089	19480
817.23	19324
817.371	19228
817.512	19327
817.653	19384
817.793	19263
817.934	19304
818.075	19308
818.216	19282
818.356	19297
818.497	18981
818.638	18962
818.778	18939
818.919	19095
819.06	18993
819.2	19148
819.341	19251
819.481	19263
819.622	19251
819.762	19441
819.903	19434
820.043	19251
820.184	19335
820.324	19221
820.465	19537
820.605	19392
820.746	19190
820.886	19175
821.026	19255
821.167	19259
821.307	19285
821.447	19289
821.588	19034
821.728	18989
821.868	18909
822.008	18783
822.149	18764
822.289	18593
822.429	18365
822.569	18437
822.709	18353
822.849	18281
822.99	18182
823.13	18178
823.27	18110
823.41	18060
823.55	17863
823.69	17996
823.83	18125
823.97	17779
824.11	17790
824.25	17775
824.389	17821
824.529	17809
824.669	17726
824.809	17946
824.949	17980
825.089	17889
825.228	17786
825.368	17611
825.508	17532
825.648	17520
825.787	17668
825.927	17668
826.067	17402
826.206	17482
826.346	17554
826.485	17535
826.625	17611
826.765	17627
826.904	17589
827.044	17246
827.183	17307
827.323	17185
827.462	17185
827.601	17292
827.741	17250
827.88	17216
828.02	17090
828.159	17166
828.298	17265
828.437	17334
828.577	17261
828.716	17421
828.855	17121
828.994	17022
829.134	16976
829.273	17083
829.412	16839
829.551	16995
829.69	16965
829.829	17037
829.968	17098
830.107	16976
830.246	16972
830.385	16957
830.524	16869
830.663	16816
830.802	16710
830.941	16645
831.08	16535
831.219	16736
831.357	16679
831.496	16900
831.635	16641
831.774	16489
831.913	16512
832.051	16402
832.19	16295
832.329	16379
832.467	16356
832.606	16249
832.744	16268
832.883	16287
833.022	16306
833.16	16303
833.299	16402
833.437	16280
833.576	16356
833.714	16405
833.852	16436
833.991	16265
834.129	16382
834.267	16379
834.406	16363
834.544	16443
834.682	16409
834.821	16443
834.959	16485
835.097	16382
835.235	16466
835.373	16341
835.511	16409
835.65	16306
835.788	16360
835.926	16120
836.064	16162
836.202	16040
836.34	16238
836.478	16478
836.615	16295
836.753	16246
836.891	16344
837.029	16295
837.167	16363
837.305	16207
837.443	16086
837.58	16158
837.718	16215
837.856	16181
837.993	16044
838.131	16173
838.269	16139
838.406	16219
838.544	15987
838.681	15960
838.819	15880
838.956	15751
839.094	15690
839.231	15808
839.369	15759
839.506	16131
839.643	16032
839.781	15869
839.918	15785
840.055	15759
840.193	15622
840.33	15778
840.467	15755
840.604	15800
840.742	15915
840.879	15667
841.016	15603
841.153	15625
841.29	15838
841.427	15736
841.564	15781
841.701	15774
841.838	15660
841.975	15701
842.112	15698
842.249	15523
842.385	15428
842.522	15644
842.659	15485
842.796	15530
842.933	15492
843.069	15492
843.206	15485
843.343	15614
843.479	15549
843.616	15466
843.752	15408
843.889	15298
844.025	15431
844.162	15146
844.298	15386
844.435	15252
844.571	15252
844.708	15408
844.844	15450
844.98	15473
845.117	15329
845.253	15283
845.389	15150
845.525	15264
845.661	15199
845.798	15218
845.934	15184
846.07	15024
846.206	15135
846.342	15344
846.478	15161
846.614	14891
846.75	14902
846.886	14861
847.022	14929
847.158	14952
847.294	14933
847.429	14918
847.565	14868
847.701	15135
847.837	14670
847.972	14556
848.108	14746
848.244	14625
848.379	14457
848.515	14503
848.65	14583
848.786	14507
848.921	14446
849.057	14545
849.192	14541
849.328	14598
849.463	14537
849.598	14450
849.734	14381
849.869	14259
850.004	14267
850.14	14240
850.275	14259
850.41	14153
850.545	14237
850.68	14271
850.815	14267
850.95	14168
851.085	14400
851.22	14389
851.355	14214
851.49	14191
851.625	14138
851.76	14259
851.895	14084
852.03	14210
852.165	14153
852.299	14225
852.434	14396
852.569	14282
852.703	14324
852.838	14290
852.973	14396
853.107	14431
853.242	14248
853.376	14176
853.511	13974
853.645	14115
853.78	14290
853.914	14096
854.048	14081
854.183	14058
854.317	14107
854.451	14317
854.585	14126
854.72	14107
854.854	14195
854.988	14096
855.122	14081
855.256	13951
855.39	14100
855.524	14199
855.658	14229
855.792	14157
855.926	14145
856.06	14225
856.194	14191
856.327	14145
856.461	14008
856.595	14084
856.729	14062
856.862	14195
856.996	14107
857.13	14088
857.263	14210
857.397	14267
857.53	14058
857.664	14202
857.797	14123
857.931	14305
858.064	14119
858.197	14199
858.331	14130
858.464	14062
858.597	13989
858.731	14020
858.864	14164
858.997	14123
859.13	14145
859.263	14180
859.396	14244
859.529	14077
859.662	14062
859.795	14050
859.928	14202
860.061	14210
860.194	14271
860.327	14176
860.46	14100
860.592	14237
860.725	14275
860.858	14218
860.99	14088
861.123	14001
861.256	14073
861.388	14218
861.521	14788
861.653	13989
861.786	13967
861.918	14012
862.05	14077
862.183	14020
862.315	14168
862.447	14157
862.58	14035
862.712	13883
862.844	13898
862.976	14020
863.108	13955
863.24	14423
863.372	13856
863.504	13852
863.636	13833
863.768	13887
863.9	13841
864.032	13868
864.164	13921
864.296	13883
864.428	14031
864.559	13989
864.691	14088
864.823	14027
864.954	13963
865.086	13982
865.217	13879
865.349	13833
865.48	13887
865.612	13944
865.743	14024
865.875	13830
866.006	13921
866.137	13917
866.269	13913
866.4	13845
866.531	13818
866.662	13803
866.793	13887
866.924	13868
867.055	13837
867.186	13849
867.317	13788
867.448	13761
867.579	13799
867.71	13860
867.841	13803
867.972	13883
868.103	13890
868.233	13925
868.364	13879
868.495	14027
868.625	14069
868.756	14286
868.886	14065
869.017	14088
869.147	14233
869.278	14267
869.408	14218
869.539	14183
869.669	14221
869.799	14195
869.929	14309
870.06	14298
870.19	14473
870.32	14381
870.45	14522
870.58	14473
870.71	14568
870.84	14655
870.97	14530
871.1	14617
871.23	14758
871.36	14697
871.489	14701
871.619	14697
871.749	14659
871.879	14743
872.008	14845
872.138	14739
872.267	14705
872.397	14564
872.526	14606
872.656	14480
872.785	14602
872.915	14746
873.044	14823
873.173	14773
873.303	14781
873.432	14708
873.561	14891
873.69	14815
873.819	14925
873.948	14899
874.077	14857
874.206	14743
874.335	14804
874.464	14921
874.593	15093
874.722	14906
874.851	15138
874.979	15272
875.108	15138
875.237	15047
875.365	15070
875.494	15161
875.623	15245
875.751	15089
875.88	15173
876.008	15298
876.136	15287
876.265	15473
876.393	15603
876.521	15618
876.65	15561
876.778	15485
876.906	15428
877.034	15424
877.162	15561
877.29	15443
877.418	15534
877.546	15557
877.674	15553
877.802	15389
877.93	15424
878.058	15439
878.185	15431
878.313	15500
878.441	15576
878.568	15355
878.696	15431
878.824	15584
878.951	15690
879.079	15667
879.206	15800
879.333	15778
879.461	15595
879.588	15660
879.715	15606
879.842	15846
879.97	15698
880.097	15408
880.224	15378
880.351	15401
880.478	15336
880.605	15431
880.732	15431
880.859	15633
880.986	15355
881.112	15424
881.239	15256
881.366	15150
881.493	15226
881.619	15017
881.746	15032
881.872	14967
881.999	14952
882.125	15017
882.252	15089
882.378	15055
882.505	15173
882.631	14982
882.757	14902
882.883	14853
883.01	14918
883.136	14861
883.262	14777
883.388	14667
883.514	14864
883.64	14952
883.766	14857
883.892	14693
884.018	14697
884.143	14857
884.269	14842
884.395	14590
884.52	14549
884.646	14431
884.772	14438
884.897	14393
885.023	14560
885.148	14625
885.274	14701
885.399	14659
885.524	14549
885.65	14625
885.775	14552
885.9	14484
886.025	14682
886.15	14602
886.275	14541
886.4	14355
886.525	14492
886.65	14511
886.775	14533
886.9	14716
887.025	14815
887.149	14587
887.274	14404
887.399	14282
887.523	14358
887.648	14313
887.773	14313
887.897	14530
888.021	14476
888.146	14317
888.27	14530
888.395	14488
888.519	14450
888.643	14514
888.767	14393
888.891	14355
889.015	14237
889.139	14313
889.263	14195
889.387	14358
889.511	14457
889.635	14389
889.759	14229
889.883	14164
890.006	14221
890.13	14347
890.254	14138
890.377	14187
890.501	14012
890.624	14016
890.748	14161
890.871	13970
890.995	13947
891.118	13928
891.241	13925
891.364	14077
891.488	14149
891.611	13909
891.734	13970
891.857	14035
891.98	14035
892.103	14005
892.226	14031
892.349	13887
892.471	13890
892.594	13967
892.717	13940
892.839	13913
892.962	14008
893.085	14096
893.207	13974
893.33	13883
893.452	13906
893.575	14069
893.697	13906
893.819	14088
893.941	14202
894.064	14092
894.186	13909
894.308	13940
894.43	14092
894.552	14202
894.674	14111
894.796	13986
894.918	13967
895.04	13967
895.161	14046
895.283	14065
895.405	13997
895.526	14107
895.648	14092
895.769	14046
895.891	14172
896.012	14168
896.134	14176
896.255	14073
896.376	13974
896.498	14138
896.619	14237
896.74	14134
896.861	14294
896.982	14465
897.103	14617
897.224	14457
897.345	14408
897.466	14309
897.587	14427
897.708	14537
897.828	14537
897.949	14419
898.07	14259
898.19	14362
898.311	14564
898.431	14412
898.552	14522
898.672	14560
898.792	14473
898.913	14488
899.033	14377
899.153	14282
899.273	14218
899.393	14317
899.513	14446
899.633	14366
899.753	14404
899.873	14332
899.993	14488
900.113	14454
900.232	14381
900.352	14339
900.472	14199
900.591	14218
900.711	14271
900.83	14092
900.95	14248
901.069	14324
901.189	14176
901.308	13974
901.427	13951
901.546	13856
901.665	13826
901.784	13898
901.904	13715
902.023	13601
902.141	13510
902.26	13491
902.379	13537
902.498	13426
902.617	13407
902.735	13480
902.854	13411
902.973	13400
903.091	13179
903.21	13088
903.328	13168
903.446	13065
903.565	13069
903.683	13061
903.801	12947
903.919	12989
904.038	13072
904.156	12852
904.274	12856
904.392	12844
904.51	12798
904.627	12776
904.745	12947
904.863	12894
904.981	12665
905.098	12585
905.216	12490
905.334	12532
905.451	12566
905.569	12460
905.686	12623
905.803	12445
905.921	12399
906.038	12513
906.155	12330
906.272	12296
906.389	12296
906.506	12114
906.623	12136
906.74	12144
906.857	11999
906.974	12079
907.091	12159
907.208	12224
907.324	12209
907.441	12030
907.557	11984
907.674	11855
907.79	11855
907.907	11855
908.023	11832
908.139	11885
908.256	11813
908.372	11866
908.488	11798
908.604	11684
908.72	11600
908.836	11634
908.952	11604
909.068	11684
909.184	11783
909.3	11623
909.415	11771
909.531	11710
909.647	11425
909.762	11402
909.878	11486
909.993	11455
910.108	11395
910.224	11322
910.339	11402
910.454	11353
910.57	11326
910.685	11151
910.8	11532
910.915	11421
911.03	11341
911.145	11094
911.259	11136
911.374	11132
911.489	11079
911.604	11018
911.718	10934
911.833	10949
911.947	10805
912.062	10694
912.176	10869
912.291	10889
912.405	10934
912.519	11132
912.633	11094
912.748	10980
912.862	10889
912.976	10744
913.09	10634
913.204	10725
913.318	10691
913.431	10790
913.545	10835
913.659	10930
913.772	10771
913.886	10664
914	10622
914.113	10748
914.226	10694
914.34	10778
914.453	10535
914.566	10733
914.68	10672
914.793	10577
914.906	10303
915.019	10390
915.132	10306
915.245	10375
915.358	10348
915.47	10363
915.583	10409
915.696	10447
915.809	10569
915.921	10561
916.034	10371
916.146	10341
916.259	10337
916.371	10421
916.483	10447
916.595	10322
916.708	10329
916.82	10268
916.932	10325
917.044	10360
917.156	10310
917.268	10257
917.38	10234
917.491	10257
917.603	10234
917.715	10379
917.826	10310
917.938	10200
918.049	10086
918.161	10223
918.272	10341
918.384	10371
918.495	10306
918.606	10143
918.717	10013
918.828	10147
918.939	10143
919.05	9956
919.161	10051
919.272	9975
919.383	9945
919.494	10207
919.604	10390
919.715	10139
919.826	10021
919.936	10116
920.047	10173
920.157	10082
920.267	10363
920.378	10166
920.488	10128
920.598	10344
920.708	10409
920.818	10284
920.928	10299
921.038	10447
921.148	10421
921.258	10181
921.368	10139
921.477	9941
921.587	9994
921.697	9899
921.806	10051
921.916	9907
922.025	9705
922.134	9663
922.244	9675
922.353	9713
922.462	9515
922.571	9526
922.68	9420
922.789	9348
922.898	9351
923.007	9401
923.116	9344
923.224	9405
923.333	9393
923.442	9291
923.55	9195
923.659	9348
923.767	9340
923.876	9291
923.984	9386
924.092	9264
924.201	9237
924.309	9283
924.417	9264
924.525	9165
924.633	9222
924.741	10097
924.849	9013
924.956	9287
925.064	9001
925.172	8933
925.279	8956
925.387	8998
925.494	9043
925.602	9119
925.709	9036
925.816	8971
925.924	9001
926.031	9032
926.138	9028
926.245	9154
926.352	8952
926.459	9104
926.566	9116
926.673	8952
926.779	8952
926.886	8823
926.993	8773
927.099	8746
927.206	8750
927.312	8693
927.419	8868
927.525	8773
927.631	8796
927.737	8682
927.843	8686
927.95	8549
928.056	8644
928.162	8663
928.267	8735
928.373	9321
928.479	8781
928.585	8484
928.69	8644
928.796	8613
928.901	8545
929.007	8427
929.112	8556
929.218	8583
929.323	8499
929.428	8434
929.533	8617
929.638	8427
929.743	8480
929.848	8530
929.953	8476
930.058	8389
930.163	8263
930.267	8221
930.372	8400
930.477	8229
930.581	8442
930.685	8408
930.79	8172
930.894	8294
930.998	8123
931.103	8324
931.207	7989
931.311	7928
931.415	7894
931.519	7700
931.623	7704
