Data from test_V78500241_2843.txt Node
Date: Fri Mar 25 14:53:30 CST 2022
User: usil
Spectrometer: V785-0024
Trigger mode: 0
Integration Time (sec): 4.000000E-1
Scans to average: 1
Nonlinearity correction enabled: false
Boxcar width: 0
Storing dark spectrum: false
XAxis mode: Wavelengths
Number of Pixels in Spectrum: 1024
>>>>>Begin Spectral Data<<<<<
801.071	21884
801.214	21918
801.356	21705
801.499	21595
801.641	21466
801.783	21363
801.926	21454
802.068	21401
802.211	21222
802.353	21184
802.496	21123
802.638	20883
802.78	20800
802.923	20811
803.065	20659
803.208	20720
803.35	20773
803.492	20967
803.635	20887
803.777	20727
803.919	20838
804.061	21077
804.204	20834
804.346	20556
804.488	20632
804.63	20826
804.773	20670
804.915	20727
805.057	20773
805.199	20575
805.341	20796
805.483	20674
805.626	20777
805.768	20636
805.91	20731
806.052	20609
806.194	20629
806.336	20746
806.478	20701
806.62	20606
806.762	20693
806.904	20773
807.046	21074
807.188	20918
807.33	20880
807.472	20956
807.614	20834
807.756	20880
807.898	20769
808.04	20530
808.182	20785
808.324	20727
808.465	20712
808.607	20853
808.749	21024
808.891	21081
809.033	21256
809.174	21085
809.316	20925
809.458	21165
809.6	20948
809.741	21096
809.883	21017
810.025	21173
810.166	21233
810.308	21146
810.45	21058
810.591	21062
810.733	20830
810.875	20880
811.016	20777
811.158	20659
811.299	20998
811.441	20906
811.582	20857
811.724	20716
811.865	20838
812.007	20785
812.148	20804
812.29	20834
812.431	20952
812.573	21005
812.714	21108
812.855	21203
812.997	21378
813.138	21492
813.279	21473
813.421	21211
813.562	21302
813.703	21013
813.845	20914
813.986	20678
814.127	20431
814.268	20324
814.41	20286
814.551	20332
814.692	20480
814.833	20229
814.974	20263
815.115	20305
815.256	20164
815.397	20115
815.539	20134
815.68	20081
815.821	20035
815.962	20103
816.103	20111
816.244	19959
816.385	19841
816.526	19795
816.666	19769
816.807	19449
816.948	19677
817.089	19571
817.23	19464
817.371	19396
817.512	19491
817.653	19537
817.793	19324
817.934	19453
818.075	19415
818.216	19540
818.356	19426
818.497	19350
818.638	19027
818.778	19084
818.919	19179
819.06	19168
819.2	19289
819.341	19346
819.481	19331
819.622	19495
819.762	19689
819.903	19620
820.043	19510
820.184	19472
820.324	19343
820.465	19453
820.605	19419
820.746	19377
820.886	19274
821.026	19388
821.167	19308
821.307	19594
821.447	19422
821.588	19324
821.728	19091
821.868	18970
822.008	18738
822.149	18981
822.289	18802
822.429	18563
822.569	18528
822.709	18555
822.849	18296
822.99	18197
823.13	18285
823.27	18300
823.41	18136
823.55	18110
823.69	18190
823.83	18296
823.97	17977
824.11	17912
824.25	17912
824.389	17946
824.529	17882
824.669	17935
824.809	18102
824.949	17977
825.089	18007
825.228	17836
825.368	17767
825.508	17684
825.648	17737
825.787	17813
825.927	17737
826.067	17733
826.206	17798
826.346	17672
826.485	17790
826.625	17676
826.765	17836
826.904	17790
827.044	17490
827.183	17512
827.323	17364
827.462	17360
827.601	17395
827.741	17318
827.88	17455
828.02	17318
828.159	17280
828.298	17364
828.437	17417
828.577	17376
828.716	17524
828.855	17376
828.994	17155
829.134	17197
829.273	17220
829.412	17132
829.551	17022
829.69	17121
829.829	17071
829.968	17258
830.107	17284
830.246	17140
830.385	17132
830.524	16972
830.663	17052
830.802	16930
830.941	16698
831.08	16698
831.219	16824
831.357	16755
831.496	16984
831.635	16740
831.774	16702
831.913	16698
832.051	16622
832.19	16573
832.329	16558
832.467	16516
832.606	16447
832.744	16390
832.883	16443
833.022	16390
833.16	16443
833.299	16466
833.437	16451
833.576	16447
833.714	16436
833.852	16588
833.991	16440
834.129	16577
834.267	16573
834.406	16500
834.544	16702
834.682	16447
834.821	16466
834.959	16759
835.097	16478
835.235	16554
835.373	16573
835.511	16443
835.65	16417
835.788	16348
835.926	16238
836.064	16188
836.202	16207
836.34	16421
836.478	16443
836.615	16344
836.753	16363
836.891	16561
837.029	16500
837.167	16261
837.305	16295
837.443	16314
837.58	16287
837.718	16375
837.856	16352
837.993	16253
838.131	16337
838.269	16234
838.406	16344
838.544	16101
838.681	16101
838.819	15949
838.956	15804
839.094	15884
839.231	15888
839.369	16025
839.506	16242
839.643	15994
839.781	15789
839.918	15736
840.055	15899
840.193	15797
840.33	15774
840.467	15785
840.604	15770
840.742	16017
840.879	15743
841.016	15781
841.153	15637
841.29	15838
841.427	15861
841.564	15873
841.701	15842
841.838	15713
841.975	15675
842.112	15766
842.249	15591
842.385	15671
842.522	15808
842.659	15644
842.796	15576
842.933	15572
843.069	15496
843.206	15603
843.343	15603
843.479	15652
843.616	15618
843.752	15389
843.889	15492
844.025	15595
844.162	15245
844.298	15545
844.435	15431
844.571	15287
844.708	15462
844.844	15587
844.98	15466
845.117	15435
845.253	15329
845.389	15237
845.525	15329
845.661	15332
845.798	15127
845.934	15260
846.07	15207
846.206	15173
846.342	15310
846.478	15089
846.614	15169
846.75	14880
846.886	14963
847.022	14998
847.158	14975
847.294	14899
847.429	15058
847.565	14925
847.701	15241
847.837	14716
847.972	14693
848.108	14876
848.244	14708
848.379	14674
848.515	14552
848.65	14469
848.786	14533
848.921	14571
849.057	14644
849.192	14682
849.328	14667
849.463	14537
849.598	14454
849.734	14412
849.869	14415
850.004	14385
850.14	14377
850.275	14244
850.41	14332
850.545	14218
850.68	14286
850.815	14400
850.95	14301
851.085	14511
851.22	14495
851.355	14332
851.49	14290
851.625	14393
851.76	14278
851.895	14164
852.03	14275
852.165	14317
852.299	14381
852.434	14419
852.569	14305
852.703	14332
852.838	14381
852.973	14400
853.107	14434
853.242	14324
853.376	14115
853.511	14149
853.645	14183
853.78	14286
853.914	14199
854.048	14183
854.183	14119
854.317	14142
854.451	14457
854.585	14149
854.72	14043
854.854	14221
854.988	14062
855.122	14092
855.256	14130
855.39	14210
855.524	14366
855.658	14324
855.792	14161
855.926	14229
856.06	14256
856.194	14233
856.327	14229
856.461	14065
856.595	14126
856.729	14157
856.862	14320
856.996	14237
857.13	14267
857.263	14278
857.397	14317
857.53	14233
857.664	14256
857.797	14332
857.931	14271
858.064	14301
858.197	14275
858.331	14221
858.464	14123
858.597	13963
858.731	14111
858.864	14145
858.997	14225
859.13	14225
859.263	14240
859.396	14282
859.529	14199
859.662	14130
859.795	14164
859.928	14218
860.061	14374
860.194	14355
860.327	14172
860.46	14149
860.592	14298
860.725	14290
860.858	14374
860.99	14221
861.123	14126
861.256	14134
861.388	14195
861.521	14746
861.653	14088
861.786	13989
861.918	14035
862.05	14119
862.183	14195
862.315	14168
862.447	14317
862.58	14161
862.712	13970
862.844	14031
862.976	14077
863.108	13993
863.24	14370
863.372	13788
863.504	13970
863.636	13963
863.768	14096
863.9	13978
864.032	13967
864.164	13932
864.296	13986
864.428	14008
864.559	14035
864.691	14088
864.823	14035
864.954	13932
865.086	14039
865.217	13902
865.349	13917
865.48	13967
865.612	13936
865.743	14073
865.875	13936
866.006	13974
866.137	13997
866.269	13913
866.4	14001
866.531	13947
866.662	13955
866.793	13921
866.924	13921
867.055	14046
867.186	13921
867.317	13993
867.448	13837
867.579	13951
867.71	13951
867.841	13856
867.972	14043
868.103	14024
868.233	13917
868.364	13955
868.495	14035
868.625	14107
868.756	14320
868.886	14130
869.017	14210
869.147	14362
869.278	14339
869.408	14237
869.539	14206
869.669	14298
869.799	14256
869.929	14419
870.06	14282
870.19	14541
870.32	14492
870.45	14610
870.58	14621
870.71	14750
870.84	14648
870.97	14594
871.1	14587
871.23	14746
871.36	14724
871.489	14765
871.619	14819
871.749	14731
871.879	14826
872.008	14838
872.138	14849
872.267	14823
872.397	14720
872.526	14667
872.656	14610
872.785	14689
872.915	14785
873.044	14918
873.173	14750
873.303	14933
873.432	14895
873.561	14948
873.69	14933
873.819	14826
873.948	14952
874.077	14777
874.206	14735
874.335	14899
874.464	14910
874.593	15131
874.722	15077
874.851	15135
874.979	15184
875.108	15207
875.237	15142
875.365	15112
875.494	15199
875.623	15268
875.751	15070
875.88	15180
876.008	15275
876.136	15382
876.265	15561
876.393	15663
876.521	15633
876.65	15660
876.778	15572
876.906	15584
877.034	15526
877.162	15485
877.29	15530
877.418	15584
877.546	15603
877.674	15481
877.802	15564
877.93	15549
878.058	15553
878.185	15507
878.313	15561
878.441	15591
878.568	15447
878.696	15538
878.824	15580
878.951	15698
879.079	15774
879.206	15816
879.333	15724
879.461	15595
879.588	15644
879.715	15789
879.842	15842
879.97	15713
880.097	15420
880.224	15492
880.351	15488
880.478	15450
880.605	15374
880.732	15447
880.859	15629
880.986	15363
881.112	15549
881.239	15294
881.366	15298
881.493	15077
881.619	15123
881.746	15039
881.872	15066
881.999	15017
882.125	15116
882.252	15142
882.378	15112
882.505	15233
882.631	14990
882.757	14910
882.883	14982
883.01	15009
883.136	14971
883.262	14788
883.388	14765
883.514	14975
883.64	14971
883.766	14895
883.892	14568
884.018	14811
884.143	14895
884.269	14921
884.395	14769
884.52	14602
884.646	14629
884.772	14530
884.897	14518
885.023	14617
885.148	14636
885.274	14830
885.399	14861
885.524	14610
885.65	14659
885.775	14697
885.9	14610
886.025	14720
886.15	14777
886.275	14499
886.4	14541
886.525	14568
886.65	14545
886.775	14602
886.9	14731
887.025	14849
887.149	14568
887.274	14377
887.399	14480
887.523	14533
887.648	14400
887.773	14229
887.897	14446
888.021	14465
888.146	14385
888.27	14503
888.395	14617
888.519	14454
888.643	14507
888.767	14503
888.891	14404
889.015	14328
889.139	14355
889.263	14267
889.387	14351
889.511	14522
889.635	14476
889.759	14240
889.883	14427
890.006	14313
890.13	14511
890.254	14229
890.377	14294
890.501	14195
890.624	14195
890.748	14278
890.871	14084
890.995	14020
891.118	13894
891.241	14020
891.364	14062
891.488	14210
891.611	14005
891.734	14058
891.857	14046
891.98	14096
892.103	14058
892.226	14027
892.349	13989
892.471	13860
892.594	13970
892.717	14031
892.839	14001
892.962	14069
893.085	14103
893.207	14027
893.33	13890
893.452	13814
893.575	14126
893.697	14016
893.819	14073
893.941	14332
894.064	14183
894.186	14065
894.308	14046
894.43	14126
894.552	14191
894.674	14206
894.796	14043
894.918	13970
895.04	14046
895.161	14168
895.283	14172
895.405	14065
895.526	14046
895.648	14252
895.769	14153
895.891	14149
896.012	14298
896.134	14168
896.255	14187
896.376	14138
896.498	14202
896.619	14282
896.74	14191
896.861	14320
896.982	14575
897.103	14632
897.224	14537
897.345	14400
897.466	14457
897.587	14332
897.708	14621
897.828	14503
897.949	14404
898.07	14370
898.19	14370
898.311	14640
898.431	14427
898.552	14682
898.672	14579
898.792	14552
898.913	14590
899.033	14454
899.153	14507
899.273	14294
899.393	14343
899.513	14358
899.633	14446
899.753	14396
899.873	14320
899.993	14549
900.113	14317
900.232	14370
900.352	14301
900.472	14309
900.591	14248
900.711	14328
900.83	14191
900.95	14366
901.069	14396
901.189	14202
901.308	14020
901.427	13883
901.546	13947
901.665	13944
901.784	13959
901.904	13772
902.023	13765
902.141	13674
902.26	13472
902.379	13624
902.498	13616
902.617	13453
902.735	13590
902.854	13468
902.973	13434
903.091	13331
903.21	13285
903.328	13217
903.446	13187
903.565	13076
903.683	13206
903.801	13038
903.919	13084
904.038	13072
904.156	12924
904.274	12916
904.392	12894
904.51	12894
904.627	12859
904.745	12958
904.863	13027
904.981	12650
905.098	12582
905.216	12658
905.334	12612
905.451	12597
905.569	12593
905.686	12582
905.803	12658
905.921	12403
906.038	12525
906.155	12410
906.272	12247
906.389	12319
906.506	12232
906.623	12194
906.74	12220
906.857	12064
906.974	12110
907.091	12194
907.208	12327
907.324	12186
907.441	12144
907.557	11965
907.674	11908
907.79	11840
907.907	11878
908.023	11988
908.139	11870
908.256	11923
908.372	11813
908.488	11798
908.604	11794
908.72	11703
908.836	11592
908.952	11680
909.068	11684
909.184	11809
909.3	11710
909.415	11771
909.531	11726
909.647	11478
909.762	11532
909.878	11417
909.993	11440
910.108	11421
910.224	11387
910.339	11452
910.454	11433
910.57	11277
910.685	11292
910.8	11577
910.915	11444
911.03	11368
911.145	11170
911.259	11083
911.374	11242
911.489	11102
911.604	11041
911.718	10953
911.833	10904
911.947	10801
912.062	10687
912.176	10923
912.291	10980
912.405	10938
912.519	11090
912.633	11132
912.748	11090
912.862	10949
912.976	10858
913.09	10630
913.204	10771
913.318	10782
913.431	10911
913.545	10873
913.659	10957
913.772	10782
913.886	10702
914	10607
914.113	10786
914.226	10858
914.34	10763
914.453	10592
914.566	10801
914.68	10653
914.793	10607
914.906	10459
915.019	10432
915.132	10341
915.245	10436
915.358	10466
915.47	10409
915.583	10493
915.696	10519
915.809	10542
915.921	10519
916.034	10451
916.146	10303
916.259	10272
916.371	10432
916.483	10440
916.595	10371
916.708	10375
916.82	10379
916.932	10432
917.044	10318
917.156	10261
917.268	10253
917.38	10299
917.491	10310
917.603	10242
917.715	10394
917.826	10360
917.938	10291
918.049	10192
918.161	10306
918.272	10455
918.384	10371
918.495	10295
918.606	10078
918.717	10109
918.828	10055
918.939	10169
919.05	10067
919.161	10105
919.272	9975
919.383	10090
919.494	10162
919.604	10360
919.715	10116
919.826	10112
919.936	10169
920.047	10265
920.157	10211
920.267	10322
920.378	10150
920.488	10131
920.598	10386
920.708	10451
920.818	10424
920.928	10451
921.038	10474
921.148	10474
921.258	10200
921.368	10185
921.477	10002
921.587	9983
921.697	9892
921.806	10048
921.916	9861
922.025	9793
922.134	9770
922.244	9690
922.353	9751
922.462	9553
922.571	9553
922.68	9412
922.789	9397
922.898	9393
923.007	9317
923.116	9435
923.224	9408
923.333	9367
923.442	9367
923.55	9253
923.659	9313
923.767	9405
923.876	9310
923.984	9443
924.092	9298
924.201	9279
924.309	9226
924.417	9363
924.525	9283
924.633	9268
924.741	10169
924.849	9081
924.956	9230
925.064	9127
925.172	8990
925.279	8967
925.387	9097
925.494	9032
925.602	9169
925.709	9131
925.816	8994
925.924	9070
926.031	9195
926.138	9089
926.245	9093
926.352	8963
926.459	9192
926.566	9165
926.673	9062
926.779	8967
926.886	8914
926.993	8872
927.099	8746
927.206	8766
927.312	8864
927.419	8819
927.525	8754
927.631	8842
927.737	8731
927.843	8686
927.95	8594
928.056	8640
928.162	8754
928.267	8769
928.373	9279
928.479	8815
928.585	8511
928.69	8686
928.796	8754
928.901	8606
929.007	8469
929.112	8636
929.218	8564
929.323	8541
929.428	8530
929.533	8693
929.638	8503
929.743	8518
929.848	8541
929.953	8450
930.058	8438
930.163	8259
930.267	8275
930.372	8434
930.477	8240
930.581	8450
930.685	8389
930.79	8164
930.894	8320
930.998	8176
931.103	8400
931.207	8031
931.311	8077
931.415	7887
931.519	7788
931.623	7708
