Data from test_V78500241_3048.txt Node
Date: Fri Mar 25 14:54:56 CST 2022
User: usil
Spectrometer: V785-0024
Trigger mode: 0
Integration Time (sec): 4.000000E-1
Scans to average: 1
Nonlinearity correction enabled: false
Boxcar width: 0
Storing dark spectrum: false
XAxis mode: Wavelengths
Number of Pixels in Spectrum: 1024
>>>>>Begin Spectral Data<<<<<
801.071	22097
801.214	21857
801.356	21751
801.499	21663
801.641	21420
801.783	21397
801.926	21450
802.068	21351
802.211	21332
802.353	21249
802.496	21154
802.638	20891
802.78	20948
802.923	20891
803.065	20720
803.208	20765
803.35	20804
803.492	20933
803.635	20899
803.777	20800
803.919	20830
804.061	21180
804.204	20804
804.346	20807
804.488	20674
804.63	20842
804.773	20625
804.915	20716
805.057	20868
805.199	20724
805.341	20697
805.483	20864
805.626	20693
805.768	20602
805.91	20750
806.052	20785
806.194	20716
806.336	20887
806.478	20800
806.62	20594
806.762	20731
806.904	20902
807.046	21211
807.188	21058
807.33	21024
807.472	21150
807.614	21051
807.756	20994
807.898	20864
808.04	20670
808.182	20872
808.324	20864
808.465	20899
808.607	20971
808.749	20994
808.891	21249
809.033	21241
809.174	21203
809.316	21005
809.458	21074
809.6	21047
809.741	21100
809.883	21226
810.025	21180
810.166	21317
810.308	21291
810.45	21199
810.591	21055
810.733	20952
810.875	20838
811.016	20769
811.158	20842
811.299	20918
811.441	20883
811.582	20952
811.724	20891
811.865	20754
812.007	20868
812.148	20834
812.29	20830
812.431	20956
812.573	21150
812.714	21241
812.855	21252
812.997	21435
813.138	21587
813.279	21443
813.421	21424
813.562	21408
813.703	21096
813.845	20963
813.986	20834
814.127	20438
814.268	20427
814.41	20305
814.551	20385
814.692	20461
814.833	20343
814.974	20252
815.115	20366
815.256	20267
815.397	20172
815.539	20370
815.68	20183
815.821	20046
815.962	20100
816.103	20161
816.244	19947
816.385	19780
816.526	19856
816.666	19769
816.807	19491
816.948	19681
817.089	19734
817.23	19594
817.371	19548
817.512	19518
817.653	19544
817.793	19411
817.934	19518
818.075	19457
818.216	19552
818.356	19502
818.497	19350
818.638	19354
818.778	19072
818.919	19114
819.06	19194
819.2	19346
819.341	19403
819.481	19457
819.622	19521
819.762	19719
819.903	19666
820.043	19582
820.184	19506
820.324	19510
820.465	19499
820.605	19487
820.746	19506
820.886	19350
821.026	19388
821.167	19468
821.307	19548
821.447	19438
821.588	19293
821.728	19126
821.868	19129
822.008	18920
822.149	18901
822.289	18996
822.429	18681
822.569	18688
822.709	18696
822.849	18384
822.99	18323
823.13	18426
823.27	18277
823.41	18125
823.55	18194
823.69	18182
823.83	18178
823.97	18106
824.11	18019
824.25	17870
824.389	17977
824.529	17969
824.669	17901
824.809	18045
824.949	18007
825.089	18087
825.228	17965
825.368	17836
825.508	17824
825.648	17783
825.787	17824
825.927	17760
826.067	17714
826.206	17653
826.346	17805
826.485	17847
826.625	17714
826.765	17748
826.904	17680
827.044	17421
827.183	17455
827.323	17471
827.462	17497
827.601	17455
827.741	17356
827.88	17429
828.02	17322
828.159	17425
828.298	17379
828.437	17501
828.577	17368
828.716	17478
828.855	17410
828.994	17159
829.134	17102
829.273	17181
829.412	17170
829.551	17117
829.69	17018
829.829	17132
829.968	17353
830.107	17121
830.246	17303
830.385	17109
830.524	17143
830.663	16854
830.802	16927
830.941	16767
831.08	16782
831.219	17037
831.357	16839
831.496	17045
831.635	16812
831.774	16672
831.913	16721
832.051	16599
832.19	16596
832.329	16588
832.467	16531
832.606	16424
832.744	16462
832.883	16455
833.022	16462
833.16	16424
833.299	16466
833.437	16466
833.576	16512
833.714	16428
833.852	16500
833.991	16538
834.129	16500
834.267	16596
834.406	16417
834.544	16428
834.682	16440
834.821	16447
834.959	16653
835.097	16405
835.235	16672
835.373	16519
835.511	16535
835.65	16337
835.788	16474
835.926	16329
836.064	16173
836.202	16226
836.34	16363
836.478	16459
836.615	16394
836.753	16409
836.891	16531
837.029	16447
837.167	16360
837.305	16417
837.443	16284
837.58	16325
837.718	16268
837.856	16253
837.993	16272
838.131	16337
838.269	16242
838.406	16105
838.544	16112
838.681	15926
838.819	15949
838.956	15850
839.094	15762
839.231	15857
839.369	16036
839.506	16112
839.643	16112
839.781	15812
839.918	15724
840.055	15816
840.193	15861
840.33	15857
840.467	15812
840.604	15861
840.742	16074
840.879	15675
841.016	15751
841.153	15682
841.29	15930
841.427	15804
841.564	15854
841.701	15838
841.838	15720
841.975	15652
842.112	15625
842.249	15625
842.385	15667
842.522	15823
842.659	15622
842.796	15500
842.933	15587
843.069	15568
843.206	15538
843.343	15622
843.479	15576
843.616	15652
843.752	15386
843.889	15317
844.025	15515
844.162	15332
844.298	15564
844.435	15344
844.571	15310
844.708	15382
844.844	15469
844.98	15435
845.117	15454
845.253	15294
845.389	15275
845.525	15268
845.661	15302
845.798	15157
845.934	15268
846.07	15173
846.206	15237
846.342	15291
846.478	15150
846.614	15017
846.75	14937
846.886	15020
847.022	15043
847.158	14986
847.294	14982
847.429	14887
847.565	14834
847.701	15135
847.837	14765
847.972	14686
848.108	14754
848.244	14777
848.379	14606
848.515	14587
848.65	14575
848.786	14583
848.921	14556
849.057	14530
849.192	14632
849.328	14613
849.463	14617
849.598	14484
849.734	14530
849.869	14396
850.004	14389
850.14	14355
850.275	14404
850.41	14317
850.545	14149
850.68	14298
850.815	14381
850.95	14248
851.085	14450
851.22	14415
851.355	14438
851.49	14263
851.625	14305
851.76	14278
851.895	14244
852.03	14229
852.165	14317
852.299	14385
852.434	14408
852.569	14298
852.703	14370
852.838	14339
852.973	14484
853.107	14545
853.242	14324
853.376	14157
853.511	14199
853.645	14176
853.78	14339
853.914	14206
854.048	14206
854.183	14119
854.317	14191
854.451	14400
854.585	14259
854.72	14172
854.854	14275
854.988	14077
855.122	14145
855.256	14111
855.39	14187
855.524	14252
855.658	14233
855.792	14263
855.926	14252
856.06	14339
856.194	14385
856.327	14244
856.461	14225
856.595	14119
856.729	14149
856.862	14305
856.996	14278
857.13	14248
857.263	14278
857.397	14317
857.53	14199
857.664	14252
857.797	14191
857.931	14347
858.064	14233
858.197	14263
858.331	14084
858.464	14145
858.597	14134
858.731	14149
858.864	14187
858.997	14202
859.13	14233
859.263	14199
859.396	14313
859.529	14286
859.662	14157
859.795	14145
859.928	14244
860.061	14412
860.194	14461
860.327	14278
860.46	14195
860.592	14358
860.725	14347
860.858	14336
860.99	14202
861.123	14100
861.256	14176
861.388	14164
861.521	14811
861.653	14031
861.786	14024
861.918	14065
862.05	14187
862.183	14191
862.315	14172
862.447	14218
862.58	14130
862.712	13955
862.844	13928
862.976	14073
863.108	14050
863.24	14377
863.372	13906
863.504	13997
863.636	14016
863.768	14016
863.9	14008
864.032	14062
864.164	13970
864.296	14050
864.428	14119
864.559	14130
864.691	14008
864.823	14077
864.954	14046
865.086	14054
865.217	13936
865.349	13887
865.48	13955
865.612	14050
865.743	14130
865.875	13928
866.006	13913
866.137	14012
866.269	13944
866.4	13925
866.531	13997
866.662	13871
866.793	13860
866.924	13932
867.055	13970
867.186	14008
867.317	13818
867.448	13856
867.579	13879
867.71	13894
867.841	13898
867.972	13940
868.103	14024
868.233	14005
868.364	13940
868.495	13986
868.625	14202
868.756	14244
868.886	14100
869.017	14187
869.147	14301
869.278	14309
869.408	14301
869.539	14172
869.669	14229
869.799	14374
869.929	14271
870.06	14301
870.19	14556
870.32	14564
870.45	14457
870.58	14651
870.71	14689
870.84	14674
870.97	14617
871.1	14610
871.23	14838
871.36	14712
871.489	14670
871.619	14785
871.749	14864
871.879	14857
872.008	14986
872.138	14864
872.267	14834
872.397	14670
872.526	14602
872.656	14606
872.785	14613
872.915	14842
873.044	14948
873.173	14807
873.303	14925
873.432	14902
873.561	14944
873.69	14891
873.819	14864
873.948	15009
874.077	14948
874.206	14925
874.335	14876
874.464	15005
874.593	15207
874.722	15024
874.851	15203
874.979	15180
875.108	15203
875.237	15062
875.365	15062
875.494	15184
875.623	15245
875.751	15199
875.88	15310
876.008	15344
876.136	15458
876.265	15572
876.393	15770
876.521	15701
876.65	15743
876.778	15564
876.906	15500
877.034	15564
877.162	15561
877.29	15553
877.418	15648
877.546	15500
877.674	15701
877.802	15542
877.93	15587
878.058	15488
878.185	15439
878.313	15519
878.441	15584
878.568	15428
878.696	15557
878.824	15671
878.951	15709
879.079	15759
879.206	15895
879.333	15800
879.461	15618
879.588	15671
879.715	15762
879.842	15934
879.97	15663
880.097	15504
880.224	15462
880.351	15420
880.478	15439
880.605	15534
880.732	15416
880.859	15732
880.986	15443
881.112	15500
881.239	15336
881.366	15176
881.493	15123
881.619	15104
881.746	15017
881.872	15081
881.999	15043
882.125	15085
882.252	15203
882.378	15108
882.505	15252
882.631	15039
882.757	14952
882.883	14876
883.01	14921
883.136	14891
883.262	14823
883.388	14762
883.514	14899
883.64	14887
883.766	14845
883.892	14712
884.018	14849
884.143	14891
884.269	15150
884.395	14648
884.52	14621
884.646	14590
884.772	14488
884.897	14511
885.023	14682
885.148	14724
885.274	14864
885.399	14743
885.524	14640
885.65	14663
885.775	14655
885.9	14606
886.025	14781
886.15	14705
886.275	14587
886.4	14583
886.525	14511
886.65	14473
886.775	14602
886.9	14708
887.025	14857
887.149	14571
887.274	14484
887.399	14442
887.523	14495
887.648	14419
887.773	14381
887.897	14568
888.021	14503
888.146	14366
888.27	14571
888.395	14537
888.519	14564
888.643	14560
888.767	14465
888.891	14385
889.015	14347
889.139	14404
889.263	14317
889.387	14389
889.511	14377
889.635	14511
889.759	14385
889.883	14252
890.006	14476
890.13	14492
890.254	14343
890.377	14347
890.501	14126
890.624	14012
890.748	14275
890.871	14103
890.995	14024
891.118	13936
891.241	13932
891.364	14020
891.488	14134
891.611	13997
891.734	14001
891.857	14199
891.98	14180
892.103	14103
892.226	14005
892.349	14100
892.471	13807
892.594	14046
892.717	14043
892.839	14012
892.962	13951
893.085	14035
893.207	14054
893.33	13940
893.452	13967
893.575	14069
893.697	14031
893.819	14229
893.941	14157
894.064	14088
894.186	14031
894.308	13993
894.43	14168
894.552	14088
894.674	14168
894.796	13959
894.918	14024
895.04	14001
895.161	14210
895.283	14161
895.405	14088
895.526	14126
895.648	14168
895.769	14153
895.891	14157
896.012	14298
896.134	14298
896.255	14199
896.376	14126
896.498	14240
896.619	14298
896.74	14107
896.861	14202
896.982	14610
897.103	14708
897.224	14514
897.345	14492
897.466	14358
897.587	14362
897.708	14598
897.828	14457
897.949	14423
898.07	14404
898.19	14446
898.311	14537
898.431	14484
898.552	14514
898.672	14568
898.792	14602
898.913	14575
899.033	14579
899.153	14450
899.273	14309
899.393	14469
899.513	14408
899.633	14389
899.753	14412
899.873	14305
899.993	14514
900.113	14393
900.232	14469
900.352	14469
900.472	14237
900.591	14225
900.711	14290
900.83	14210
900.95	14358
901.069	14301
901.189	14130
901.308	13986
901.427	13925
901.546	13898
901.665	13967
901.784	13951
901.904	13795
902.023	13776
902.141	13540
902.26	13499
902.379	13639
902.498	13544
902.617	13480
902.735	13575
902.854	13510
902.973	13514
903.091	13251
903.21	13209
903.328	13202
903.446	13171
903.565	13015
903.683	13110
903.801	13015
903.919	13031
904.038	13050
904.156	12909
904.274	12981
904.392	12913
904.51	12966
904.627	12840
904.745	12966
904.863	13008
904.981	12783
905.098	12612
905.216	12616
905.334	12696
905.451	12608
905.569	12521
905.686	12696
905.803	12555
905.921	12448
906.038	12517
906.155	12456
906.272	12346
906.389	12334
906.506	12228
906.623	12148
906.74	12114
906.857	12038
906.974	12205
907.091	12251
907.208	12277
907.324	12300
907.441	12175
907.557	11935
907.674	11965
907.79	11855
907.907	11984
908.023	11931
908.139	11939
908.256	11958
908.372	11794
908.488	11851
908.604	11805
908.72	11726
908.836	11741
908.952	11684
909.068	11722
909.184	11828
909.3	11733
909.415	11718
909.531	11714
909.647	11558
909.762	11463
909.878	11402
909.993	11497
910.108	11402
910.224	11455
910.339	11421
910.454	11395
910.57	11356
910.685	11303
910.8	11566
910.915	11501
911.03	11349
911.145	11254
911.259	11128
911.374	11189
911.489	11029
911.604	11022
911.718	10904
911.833	10885
911.947	10881
912.062	10812
912.176	10892
912.291	10961
912.405	10965
912.519	11003
912.633	11151
912.748	10968
912.862	10862
912.976	10839
913.09	10733
913.204	10721
913.318	10850
913.431	10961
913.545	10881
913.659	10908
913.772	10881
913.886	10710
914	10660
914.113	10755
914.226	10820
914.34	10710
914.453	10672
914.566	10736
914.68	10630
914.793	10664
914.906	10481
915.019	10474
915.132	10291
915.245	10398
915.358	10421
915.47	10451
915.583	10459
915.696	10455
915.809	10504
915.921	10649
916.034	10436
916.146	10344
916.259	10272
916.371	10455
916.483	10405
916.595	10337
916.708	10371
916.82	10310
916.932	10341
917.044	10382
917.156	10344
917.268	10227
917.38	10265
917.491	10177
917.603	10242
917.715	10306
917.826	10367
917.938	10242
918.049	10082
918.161	10306
918.272	10443
918.384	10421
918.495	10341
918.606	10166
918.717	10051
918.828	10204
918.939	10162
919.05	10029
919.161	10124
919.272	9937
919.383	9960
919.494	10200
919.604	10337
919.715	10131
919.826	10063
919.936	10150
920.047	10242
920.157	10147
920.267	10390
920.378	10215
920.488	10211
920.598	10398
920.708	10531
920.818	10367
920.928	10379
921.038	10523
921.148	10466
921.258	10188
921.368	10055
921.477	10017
921.587	10006
921.697	9915
921.806	9953
921.916	9907
922.025	9793
922.134	9747
922.244	9709
922.353	9778
922.462	9545
922.571	9557
922.68	9389
922.789	9420
922.898	9469
923.007	9348
923.116	9397
923.224	9393
923.333	9370
923.442	9336
923.55	9249
923.659	9359
923.767	9424
923.876	9245
923.984	9393
924.092	9302
924.201	9256
924.309	9294
924.417	9260
924.525	9256
924.633	9313
924.741	10181
924.849	9070
924.956	9188
925.064	9055
925.172	9043
925.279	9043
925.387	9142
925.494	9154
925.602	9203
925.709	9203
925.816	9047
925.924	9005
926.031	9233
926.138	9093
926.245	9150
926.352	8979
926.459	9135
926.566	9150
926.673	9081
926.779	8944
926.886	8899
926.993	8720
927.099	8811
927.206	8781
927.312	8686
927.419	8861
927.525	8777
927.631	8826
927.737	8674
927.843	8625
927.95	8602
928.056	8678
928.162	8674
928.267	8769
928.373	9260
928.479	8785
928.585	8571
928.69	8708
928.796	8785
928.901	8571
929.007	8503
929.112	8621
929.218	8530
929.323	8522
929.428	8499
929.533	8613
929.638	8446
929.743	8514
929.848	8537
929.953	8469
930.058	8355
930.163	8225
930.267	8244
930.372	8301
930.477	8271
930.581	8507
930.685	8339
930.79	8282
930.894	8237
930.998	8210
931.103	8355
931.207	7959
931.311	7982
931.415	7936
931.519	7753
931.623	7700
