Data from test_V78500241_1842.txt Node
Date: Fri Mar 25 14:46:32 CST 2022
User: usil
Spectrometer: V785-0024
Trigger mode: 0
Integration Time (sec): 4.000000E-1
Scans to average: 1
Nonlinearity correction enabled: false
Boxcar width: 0
Storing dark spectrum: false
XAxis mode: Wavelengths
Number of Pixels in Spectrum: 1024
>>>>>Begin Spectral Data<<<<<
801.071	22177
801.214	21873
801.356	21762
801.499	21766
801.641	21473
801.783	21454
801.926	21389
802.068	21389
802.211	21207
802.353	21226
802.496	21081
802.638	21020
802.78	20986
802.923	20921
803.065	20754
803.208	20708
803.35	20785
803.492	20941
803.635	20956
803.777	20872
803.919	20929
804.061	21047
804.204	20872
804.346	20716
804.488	20663
804.63	20796
804.773	20731
804.915	20746
805.057	20815
805.199	20640
805.341	20872
805.483	20918
805.626	20769
805.768	20765
805.91	20743
806.052	20762
806.194	20636
806.336	20739
806.478	20731
806.62	20735
806.762	20720
806.904	21009
807.046	21214
807.188	20979
807.33	21051
807.472	21081
807.614	20998
807.756	20960
807.898	20876
808.04	20773
808.182	20773
808.324	20743
808.465	20849
808.607	21020
808.749	21119
808.891	21272
809.033	21291
809.174	21230
809.316	21055
809.458	21131
809.6	21066
809.741	21241
809.883	21138
810.025	21443
810.166	21363
810.308	21370
810.45	21211
810.591	21195
810.733	20918
810.875	20857
811.016	20792
811.158	20735
811.299	21009
811.441	21047
811.582	20933
811.724	20800
811.865	20876
812.007	20777
812.148	20906
812.29	20891
812.431	21066
812.573	21226
812.714	21298
812.855	21424
812.997	21496
813.138	21599
813.279	21526
813.421	21344
813.562	21294
813.703	21192
813.845	21051
813.986	20746
814.127	20579
814.268	20537
814.41	20461
814.551	20587
814.692	20438
814.833	20313
814.974	20343
815.115	20393
815.256	20282
815.397	20317
815.539	20248
815.68	20172
815.821	20088
815.962	20202
816.103	20267
816.244	19959
816.385	19913
816.526	19894
816.666	19632
816.807	19685
816.948	19685
817.089	19605
817.23	19647
817.371	19613
817.512	19620
817.653	19647
817.793	19567
817.934	19586
818.075	19594
818.216	19575
818.356	19476
818.497	19320
818.638	19232
818.778	19213
818.919	19289
819.06	19343
819.2	19422
819.341	19544
819.481	19460
819.622	19487
819.762	19693
819.903	19731
820.043	19609
820.184	19502
820.324	19601
820.465	19666
820.605	19628
820.746	19491
820.886	19373
821.026	19434
821.167	19472
821.307	19540
821.447	19510
821.588	19327
821.728	19350
821.868	19122
822.008	18882
822.149	19053
822.289	18958
822.429	18738
822.569	18623
822.709	18726
822.849	18437
822.99	18506
823.13	18532
823.27	18342
823.41	18254
823.55	18182
823.69	18289
823.83	18254
823.97	18205
824.11	18045
824.25	18136
824.389	18064
824.529	18102
824.669	18068
824.809	18083
824.949	18083
825.089	17977
825.228	18152
825.368	17695
825.508	17870
825.648	17832
825.787	18011
825.927	17901
826.067	17699
826.206	17737
826.346	17687
826.485	17794
826.625	17745
826.765	17961
826.904	17901
827.044	17630
827.183	17661
827.323	17478
827.462	17539
827.601	17509
827.741	17471
827.88	17646
828.02	17429
828.159	17490
828.298	17528
828.437	17558
828.577	17406
828.716	17482
828.855	17467
828.994	17383
829.134	17341
829.273	17326
829.412	17227
829.551	17162
829.69	17250
829.829	17254
829.968	17326
830.107	17296
830.246	17303
830.385	17231
830.524	17216
830.663	17022
830.802	17010
830.941	16801
831.08	16797
831.219	17010
831.357	16930
831.496	17155
831.635	16831
831.774	16771
831.913	16801
832.051	16656
832.19	16717
832.329	16679
832.467	16573
832.606	16531
832.744	16607
832.883	16615
833.022	16603
833.16	16592
833.299	16664
833.437	16603
833.576	16649
833.714	16615
833.852	16717
833.991	16641
834.129	16755
834.267	16634
834.406	16649
834.544	16645
834.682	16694
834.821	16687
834.959	16881
835.097	16592
835.235	16713
835.373	16596
835.511	16558
835.65	16546
835.788	16478
835.926	16508
836.064	16341
836.202	16356
836.34	16535
836.478	16542
836.615	16592
836.753	16485
836.891	16561
837.029	16607
837.167	16607
837.305	16409
837.443	16481
837.58	16360
837.718	16538
837.856	16386
837.993	16310
838.131	16360
838.269	16352
838.406	16249
838.544	16249
838.681	16017
838.819	16074
838.956	15922
839.094	15987
839.231	16090
839.369	16109
839.506	16386
839.643	16268
839.781	15956
839.918	15979
840.055	16017
840.193	15922
840.33	15857
840.467	16010
840.604	15880
840.742	16200
840.879	15869
841.016	15922
841.153	15838
841.29	16120
841.427	16063
841.564	16017
841.701	16025
841.838	15903
841.975	15793
842.112	15876
842.249	15720
842.385	15759
842.522	15819
842.659	15766
842.796	15747
842.933	15709
843.069	15739
843.206	15728
843.343	15880
843.479	15816
843.616	15778
843.752	15572
843.889	15485
844.025	15743
844.162	15447
844.298	15622
844.435	15496
844.571	15454
844.708	15553
844.844	15705
844.98	15603
845.117	15667
845.253	15431
845.389	15416
845.525	15534
845.661	15481
845.798	15355
845.934	15397
846.07	15313
846.206	15279
846.342	15530
846.478	15370
846.614	15207
846.75	15161
846.886	15077
847.022	15131
847.158	15112
847.294	15230
847.429	15100
847.565	15100
847.701	15317
847.837	14762
847.972	14853
848.108	14921
848.244	14880
848.379	14838
848.515	14701
848.65	14663
848.786	14743
848.921	14632
849.057	14811
849.192	14876
849.328	14724
849.463	14830
849.598	14724
849.734	14632
849.869	14590
850.004	14518
850.14	14530
850.275	14541
850.41	14419
850.545	14366
850.68	14545
850.815	14476
850.95	14389
851.085	14621
851.22	14552
851.355	14530
851.49	14427
851.625	14457
851.76	14484
851.895	14366
852.03	14336
852.165	14533
852.299	14518
852.434	14636
852.569	14427
852.703	14526
852.838	14480
852.973	14644
853.107	14613
853.242	14488
853.376	14393
853.511	14332
853.645	14412
853.78	14533
853.914	14339
854.048	14332
854.183	14374
854.317	14317
854.451	14438
854.585	14309
854.72	14256
854.854	14381
854.988	14313
855.122	14336
855.256	14305
855.39	14377
855.524	14419
855.658	14389
855.792	14408
855.926	14446
856.06	14389
856.194	14465
856.327	14358
856.461	14320
856.595	14298
856.729	14244
856.862	14488
856.996	14385
857.13	14362
857.263	14446
857.397	14427
857.53	14385
857.664	14400
857.797	14438
857.931	14393
858.064	14389
858.197	14484
858.331	14328
858.464	14396
858.597	14214
858.731	14412
858.864	14305
858.997	14396
859.13	14324
859.263	14336
859.396	14514
859.529	14370
859.662	14389
859.795	14275
859.928	14370
860.061	14476
860.194	14537
860.327	14431
860.46	14400
860.592	14545
860.725	14488
860.858	14446
860.99	14275
861.123	14309
861.256	14366
861.388	14461
861.521	15043
861.653	14275
861.786	14130
861.918	14191
862.05	14332
862.183	14263
862.315	14366
862.447	14381
862.58	14180
862.712	14050
862.844	14062
862.976	14191
863.108	14153
863.24	14438
863.372	14058
863.504	14153
863.636	14058
863.768	14180
863.9	14161
864.032	14088
864.164	14092
864.296	14199
864.428	14081
864.559	14206
864.691	14168
864.823	14191
864.954	14126
865.086	14176
865.217	14096
865.349	14054
865.48	14126
865.612	14123
865.743	14229
865.875	14218
866.006	14081
866.137	14149
866.269	14161
866.4	14111
866.531	14039
866.662	14043
866.793	14062
866.924	14157
867.055	14100
867.186	14107
867.317	14008
867.448	13978
867.579	14062
867.71	14027
867.841	14027
867.972	14126
868.103	14100
868.233	14050
868.364	14050
868.495	14218
868.625	14290
868.756	14385
868.886	14309
869.017	14358
869.147	14503
869.278	14495
869.408	14317
869.539	14332
869.669	14442
869.799	14385
869.929	14514
870.06	14480
870.19	14590
870.32	14720
870.45	14788
870.58	14861
870.71	14819
870.84	14762
870.97	14705
871.1	14815
871.23	14925
871.36	14914
871.489	14960
871.619	14982
871.749	14906
871.879	14971
872.008	15017
872.138	14990
872.267	14918
872.397	14815
872.526	14762
872.656	14735
872.785	14781
872.915	14918
873.044	15097
873.173	14971
873.303	15013
873.432	15020
873.561	15032
873.69	15028
873.819	14967
873.948	15150
874.077	15138
874.206	14948
874.335	15066
874.464	15150
874.593	15351
874.722	15203
874.851	15416
874.979	15336
875.108	15367
875.237	15245
875.365	15275
875.494	15306
875.623	15287
875.751	15279
875.88	15272
876.008	15504
876.136	15530
876.265	15690
876.393	15876
876.521	15838
876.65	15831
876.778	15720
876.906	15717
877.034	15675
877.162	15682
877.29	15690
877.418	15739
877.546	15797
877.674	15713
877.802	15732
877.93	15705
878.058	15682
878.185	15698
878.313	15709
878.441	15648
878.568	15709
878.696	15686
878.824	15816
878.951	15755
879.079	15972
879.206	16029
879.333	15869
879.461	15755
879.588	15804
879.715	15884
879.842	16040
879.97	15865
880.097	15576
880.224	15568
880.351	15561
880.478	15584
880.605	15496
880.732	15450
880.859	15857
880.986	15720
881.112	15641
881.239	15481
881.366	15313
881.493	15176
881.619	15195
881.746	15180
881.872	15325
881.999	15226
882.125	15203
882.252	15275
882.378	15317
882.505	15386
882.631	15138
882.757	15055
882.883	15108
883.01	15142
883.136	14948
883.262	15043
883.388	14952
883.514	15085
883.64	15112
883.766	15055
883.892	14876
884.018	14868
884.143	15024
884.269	15089
884.395	14758
884.52	14724
884.646	14823
884.772	14648
884.897	14556
885.023	14765
885.148	14902
885.274	14979
885.399	14838
885.524	14762
885.65	14785
885.775	14735
885.9	14781
886.025	14842
886.15	14861
886.275	14716
886.4	14708
886.525	14689
886.65	14686
886.775	14602
886.9	14826
887.025	14967
887.149	14819
887.274	14651
887.399	14545
887.523	14590
887.648	14469
887.773	14438
887.897	14602
888.021	14640
888.146	14564
888.27	14716
888.395	14823
888.519	14579
888.643	14701
888.767	14731
888.891	14454
889.015	14434
889.139	14571
889.263	14454
889.387	14598
889.511	14659
889.635	14617
889.759	14396
889.883	14351
890.006	14461
890.13	14579
890.254	14423
890.377	14415
890.501	14305
890.624	14271
890.748	14271
890.871	14202
890.995	14084
891.118	13974
891.241	14202
891.364	14161
891.488	14210
891.611	14187
891.734	14126
891.857	14214
891.98	14149
892.103	14240
892.226	14229
892.349	14046
892.471	14016
892.594	14149
892.717	14134
892.839	14088
892.962	14168
893.085	14225
893.207	14187
893.33	14024
893.452	14149
893.575	14240
893.697	14100
893.819	14339
893.941	14408
894.064	14233
894.186	14096
894.308	14130
894.43	14317
894.552	14320
894.674	14290
894.796	14115
894.918	14256
895.04	14161
895.161	14317
895.283	14221
895.405	14153
895.526	14229
895.648	14180
895.769	14336
895.891	14256
896.012	14385
896.134	14332
896.255	14286
896.376	14237
896.498	14313
896.619	14351
896.74	14313
896.861	14442
896.982	14651
897.103	14765
897.224	14560
897.345	14530
897.466	14473
897.587	14598
897.708	14754
897.828	14575
897.949	14473
898.07	14476
898.19	14549
898.311	14716
898.431	14537
898.552	14556
898.672	14743
898.792	14758
898.913	14575
899.033	14514
899.153	14431
899.273	14400
899.393	14381
899.513	14530
899.633	14571
899.753	14571
899.873	14480
899.993	14648
900.113	14454
900.232	14514
900.352	14408
900.472	14370
900.591	14298
900.711	14412
900.83	14393
900.95	14415
901.069	14522
901.189	14267
901.308	14199
901.427	13963
901.546	14100
901.665	14069
901.784	14050
901.904	13974
902.023	13837
902.141	13609
902.26	13537
902.379	13750
902.498	13597
902.617	13597
902.735	13651
902.854	13636
902.973	13544
903.091	13274
903.21	13369
903.328	13289
903.446	13240
903.565	13152
903.683	13282
903.801	13065
903.919	13080
904.038	13129
904.156	13095
904.274	13065
904.392	12901
904.51	12928
904.627	12951
904.745	13057
904.863	13012
904.981	12856
905.098	12631
905.216	12665
905.334	12825
905.451	12677
905.569	12635
905.686	12814
905.803	12692
905.921	12544
906.038	12597
906.155	12585
906.272	12376
906.389	12517
906.506	12330
906.623	12327
906.74	12228
906.857	12220
906.974	12190
907.091	12433
907.208	12319
907.324	12304
907.441	12232
907.557	12083
907.674	12038
907.79	12011
907.907	12038
908.023	12083
908.139	12045
908.256	12060
908.372	11996
908.488	11969
908.604	11878
908.72	11821
908.836	11748
908.952	11748
909.068	11802
909.184	11977
909.3	11874
909.415	11908
909.531	11828
909.647	11619
909.762	11657
909.878	11596
909.993	11573
910.108	11619
910.224	11627
910.339	11634
910.454	11471
910.57	11383
910.685	11356
910.8	11741
910.915	11661
911.03	11482
911.145	11250
911.259	11402
911.374	11318
911.489	11258
911.604	11212
911.718	11048
911.833	11067
911.947	10949
912.062	10904
912.176	11045
912.291	11041
912.405	11102
912.519	11227
912.633	11288
912.748	11143
912.862	11090
912.976	10930
913.09	10805
913.204	10957
913.318	11003
913.431	11037
913.545	11052
913.659	11143
913.772	10930
913.886	10847
914	10847
914.113	10934
914.226	11060
914.34	10900
914.453	10774
914.566	10904
914.68	10850
914.793	10771
914.906	10622
915.019	10527
915.132	10497
915.245	10546
915.358	10573
915.47	10645
915.583	10656
915.696	10558
915.809	10748
915.921	10752
916.034	10535
916.146	10459
916.259	10478
916.371	10611
916.483	10626
916.595	10440
916.708	10538
916.82	10402
916.932	10504
917.044	10462
917.156	10474
917.268	10417
917.38	10318
917.491	10375
917.603	10447
917.715	10451
917.826	10470
917.938	10322
918.049	10360
918.161	10394
918.272	10558
918.384	10550
918.495	10428
918.606	10287
918.717	10185
918.828	10295
918.939	10249
919.05	10169
919.161	10303
919.272	10074
919.383	10128
919.494	10322
919.604	10474
919.715	10280
919.826	10211
919.936	10207
920.047	10272
920.157	10284
920.267	10550
920.378	10322
920.488	10322
920.598	10512
920.708	10672
920.818	10466
920.928	10481
921.038	10618
921.148	10550
921.258	10257
921.368	10192
921.477	10230
921.587	10086
921.697	10025
921.806	10169
921.916	10059
922.025	9888
922.134	9865
922.244	9861
922.353	9831
922.462	9766
922.571	9698
922.68	9606
922.789	9587
922.898	9572
923.007	9492
923.116	9644
923.224	9545
923.333	9542
923.442	9412
923.55	9340
923.659	9439
923.767	9564
923.876	9370
923.984	9496
924.092	9298
924.201	9439
924.309	9393
924.417	9348
924.525	9298
924.633	9287
924.741	10284
924.849	9199
924.956	9336
925.064	9226
925.172	9112
925.279	9116
925.387	9241
925.494	9184
925.602	9348
925.709	9226
925.816	9142
925.924	9199
926.031	9302
926.138	9233
926.245	9218
926.352	9112
926.459	9268
926.566	9222
926.673	9157
926.779	9081
926.886	9032
926.993	8933
927.099	8925
927.206	8861
927.312	8849
927.419	8906
927.525	8963
927.631	8952
927.737	8785
927.843	8777
927.95	8720
928.056	8735
928.162	8853
928.267	8880
928.373	9363
928.479	8872
928.585	8659
928.69	8785
928.796	8887
928.901	8743
929.007	8556
929.112	8769
929.218	8697
929.323	8636
929.428	8541
929.533	8731
929.638	8640
929.743	8632
929.848	8594
929.953	8674
930.058	8446
930.163	8408
930.267	8450
930.372	8507
930.477	8381
930.581	8606
930.685	8404
930.79	8317
930.894	8290
930.998	8362
931.103	8522
931.207	8073
931.311	8035
931.415	7997
931.519	7826
931.623	7814
