Data from test_V78500241_3188.txt Node
Date: Fri Mar 25 14:55:54 CST 2022
User: usil
Spectrometer: V785-0024
Trigger mode: 0
Integration Time (sec): 4.000000E-1
Scans to average: 1
Nonlinearity correction enabled: false
Boxcar width: 0
Storing dark spectrum: false
XAxis mode: Wavelengths
Number of Pixels in Spectrum: 1024
>>>>>Begin Spectral Data<<<<<
801.071	22025
801.214	21911
801.356	21705
801.499	21553
801.641	21405
801.783	21481
801.926	21420
802.068	21256
802.211	21214
802.353	21218
802.496	20975
802.638	20868
802.78	20758
802.923	20765
803.065	20651
803.208	20750
803.35	20739
803.492	20758
803.635	20823
803.777	20792
803.919	20811
804.061	21077
804.204	20762
804.346	20537
804.488	20640
804.63	20644
804.773	20613
804.915	20609
805.057	20727
805.199	20686
805.341	20727
805.483	20899
805.626	20632
805.768	20564
805.91	20632
806.052	20667
806.194	20495
806.336	20667
806.478	20636
806.62	20659
806.762	20629
806.904	20845
807.046	21157
807.188	20906
807.33	20982
807.472	20998
807.614	20864
807.756	20902
807.898	20708
808.04	20648
808.182	20708
808.324	20743
808.465	20769
808.607	20887
808.749	20963
808.891	21104
809.033	21233
809.174	20998
809.316	20971
809.458	20986
809.6	20929
809.741	21161
809.883	21161
810.025	21123
810.166	21085
810.308	21188
810.45	21252
810.591	21100
810.733	20956
810.875	20781
811.016	20632
811.158	20613
811.299	20796
811.441	20800
811.582	20853
811.724	20712
811.865	20746
812.007	20701
812.148	20701
812.29	20826
812.431	20906
812.573	21108
812.714	21199
812.855	21283
812.997	21408
813.138	21466
813.279	21431
813.421	21363
813.562	21268
813.703	20979
813.845	20838
813.986	20537
814.127	20541
814.268	20370
814.41	20206
814.551	20317
814.692	20412
814.833	20176
814.974	20221
815.115	20389
815.256	20240
815.397	20317
815.539	20115
815.68	20096
815.821	19959
815.962	20084
816.103	20001
816.244	19818
816.385	19849
816.526	19780
816.666	19677
816.807	19411
816.948	19521
817.089	19518
817.23	19529
817.371	19445
817.512	19430
817.653	19308
817.793	19407
817.934	19514
818.075	19521
818.216	19369
818.356	19396
818.497	19217
818.638	19015
818.778	19099
818.919	19114
819.06	19110
819.2	19141
819.341	19331
819.481	19327
819.622	19468
819.762	19510
819.903	19635
820.043	19434
820.184	19388
820.324	19373
820.465	19552
820.605	19422
820.746	19373
820.886	19228
821.026	19358
821.167	19331
821.307	19438
821.447	19381
821.588	19270
821.728	19019
821.868	19008
822.008	18795
822.149	18833
822.289	18798
822.429	18521
822.569	18467
822.709	18410
822.849	18243
822.99	18232
823.13	18346
823.27	18220
823.41	18049
823.55	18121
823.69	18133
823.83	18072
823.97	17996
824.11	17908
824.25	17847
824.389	17946
824.529	17893
824.669	17946
824.809	17855
824.949	17958
825.089	17912
825.228	17965
825.368	17657
825.508	17653
825.648	17672
825.787	17729
825.927	17745
826.067	17634
826.206	17661
826.346	17646
826.485	17661
826.625	17729
826.765	17642
826.904	17764
827.044	17288
827.183	17482
827.323	17368
827.462	17482
827.601	17303
827.741	17353
827.88	17288
828.02	17292
828.159	17208
828.298	17299
828.437	17444
828.577	17337
828.716	17493
828.855	17414
828.994	17193
829.134	17060
829.273	17136
829.412	17117
829.551	17075
829.69	16938
829.829	16961
829.968	17208
830.107	17212
830.246	17033
830.385	17006
830.524	17048
830.663	16892
830.802	16790
830.941	16755
831.08	16675
831.219	16885
831.357	16778
831.496	16938
831.635	16706
831.774	16622
831.913	16550
832.051	16550
832.19	16535
832.329	16489
832.467	16421
832.606	16417
832.744	16413
832.883	16333
833.022	16382
833.16	16333
833.299	16497
833.437	16436
833.576	16379
833.714	16493
833.852	16481
833.991	16592
834.129	16519
834.267	16535
834.406	16440
834.544	16554
834.682	16459
834.821	16558
834.959	16653
835.097	16466
835.235	16550
835.373	16432
835.511	16394
835.65	16306
835.788	16386
835.926	16196
836.064	16352
836.202	16204
836.34	16455
836.478	16615
836.615	16333
836.753	16462
836.891	16394
837.029	16371
837.167	16360
837.305	16344
837.443	16268
837.58	16223
837.718	16261
837.856	16230
837.993	16211
838.131	16322
838.269	16116
838.406	16154
838.544	16135
838.681	15968
838.819	15865
838.956	15808
839.094	15770
839.231	15911
839.369	16002
839.506	16253
839.643	16021
839.781	15846
839.918	15690
840.055	15816
840.193	15679
840.33	15816
840.467	15747
840.604	15819
840.742	15960
840.879	15701
841.016	15663
841.153	15652
841.29	15945
841.427	15835
841.564	15827
841.701	15762
841.838	15781
841.975	15720
842.112	15736
842.249	15663
842.385	15519
842.522	15781
842.659	15656
842.796	15538
842.933	15606
843.069	15534
843.206	15496
843.343	15656
843.479	15671
843.616	15622
843.752	15393
843.889	15268
844.025	15622
844.162	15397
844.298	15435
844.435	15287
844.571	15214
844.708	15370
844.844	15553
844.98	15492
845.117	15492
845.253	15348
845.389	15279
845.525	15287
845.661	15287
845.798	15066
845.934	15226
846.07	15051
846.206	15195
846.342	15313
846.478	15154
846.614	14990
846.75	14906
846.886	14819
847.022	15005
847.158	14941
847.294	14941
847.429	14857
847.565	14861
847.701	15138
847.837	14659
847.972	14632
848.108	14720
848.244	14788
848.379	14541
848.515	14556
848.65	14476
848.786	14575
848.921	14568
849.057	14689
849.192	14674
849.328	14610
849.463	14606
849.598	14579
849.734	14507
849.869	14366
850.004	14332
850.14	14347
850.275	14237
850.41	14187
850.545	14240
850.68	14343
850.815	14225
850.95	14351
851.085	14575
851.22	14355
851.355	14328
851.49	14233
851.625	14168
851.76	14278
851.895	14221
852.03	14157
852.165	14355
852.299	14267
852.434	14355
852.569	14389
852.703	14240
852.838	14389
852.973	14427
853.107	14412
853.242	14130
853.376	14225
853.511	14073
853.645	14161
853.78	14240
853.914	14168
854.048	14119
854.183	14111
854.317	14191
854.451	14358
854.585	14183
854.72	14123
854.854	14210
854.988	14123
855.122	14096
855.256	14084
855.39	13978
855.524	14248
855.658	14206
855.792	14153
855.926	14168
856.06	14244
856.194	14252
856.327	14221
856.461	14126
856.595	14111
856.729	14096
856.862	14328
856.996	14149
857.13	14309
857.263	14195
857.397	14267
857.53	14206
857.664	14233
857.797	14153
857.931	14412
858.064	14225
858.197	14271
858.331	14191
858.464	14134
858.597	14119
858.731	14134
858.864	14183
858.997	14043
859.13	14111
859.263	14130
859.396	14168
859.529	14168
859.662	14126
859.795	14100
859.928	14183
860.061	14343
860.194	14415
860.327	14142
860.46	14244
860.592	14282
860.725	14244
860.858	14275
860.99	14263
861.123	14024
861.256	14168
861.388	14145
861.521	14883
861.653	14031
861.786	13970
861.918	14077
862.05	14164
862.183	14142
862.315	14115
862.447	14164
862.58	14088
862.712	13967
862.844	13723
862.976	13974
863.108	14008
863.24	14343
863.372	13830
863.504	13947
863.636	13959
863.768	13963
863.9	13940
864.032	13856
864.164	13947
864.296	14031
864.428	14016
864.559	13970
864.691	14016
864.823	14001
864.954	13974
865.086	13921
865.217	13814
865.349	13894
865.48	13890
865.612	13944
865.743	14092
865.875	13947
866.006	13963
866.137	14005
866.269	13856
866.4	13978
866.531	13776
866.662	13963
866.793	14024
866.924	13906
867.055	13864
867.186	13818
867.317	13788
867.448	13883
867.579	13921
867.71	13868
867.841	13845
867.972	13978
868.103	13894
868.233	13921
868.364	13944
868.495	13959
868.625	14191
868.756	14191
868.886	14126
869.017	14046
869.147	14221
869.278	14267
869.408	14168
869.539	14161
869.669	14278
869.799	14168
869.929	14282
870.06	14305
870.19	14423
870.32	14533
870.45	14480
870.58	14579
870.71	14708
870.84	14689
870.97	14606
871.1	14613
871.23	14632
871.36	14731
871.489	14617
871.619	14651
871.749	14750
871.879	14792
872.008	14952
872.138	14826
872.267	14754
872.397	14560
872.526	14587
872.656	14590
872.785	14590
872.915	14910
873.044	14937
873.173	14777
873.303	14880
873.432	14815
873.561	14910
873.69	14880
873.819	14804
873.948	14914
874.077	14823
874.206	14746
874.335	14929
874.464	15051
874.593	15169
874.722	15146
874.851	15173
874.979	15203
875.108	15176
875.237	15112
875.365	15112
875.494	15055
875.623	15317
875.751	15176
875.88	15283
876.008	15245
876.136	15431
876.265	15538
876.393	15739
876.521	15656
876.65	15701
876.778	15519
876.906	15519
877.034	15519
877.162	15526
877.29	15473
877.418	15656
877.546	15595
877.674	15606
877.802	15530
877.93	15637
878.058	15618
878.185	15367
878.313	15542
878.441	15549
878.568	15428
878.696	15542
878.824	15568
878.951	15644
879.079	15747
879.206	15975
879.333	15762
879.461	15485
879.588	15652
879.715	15755
879.842	15793
879.97	15591
880.097	15386
880.224	15443
880.351	15408
880.478	15462
880.605	15313
880.732	15462
880.859	15675
880.986	15519
881.112	15481
881.239	15237
881.366	15180
881.493	15100
881.619	15089
881.746	15131
881.872	15085
881.999	14994
882.125	15058
882.252	15047
882.378	15207
882.505	15211
882.631	15020
882.757	14868
882.883	14948
883.01	14929
883.136	14815
883.262	14777
883.388	14735
883.514	14918
883.64	14918
883.766	14944
883.892	14697
884.018	14716
884.143	14906
884.269	14979
884.395	14727
884.52	14549
884.646	14610
884.772	14526
884.897	14583
885.023	14651
885.148	14693
885.274	14773
885.399	14598
885.524	14549
885.65	14610
885.775	14590
885.9	14648
886.025	14629
886.15	14663
886.275	14552
886.4	14533
886.525	14552
886.65	14385
886.775	14461
886.9	14674
887.025	14899
887.149	14571
887.274	14495
887.399	14389
887.523	14434
887.648	14374
887.773	14355
887.897	14541
888.021	14526
888.146	14381
888.27	14644
888.395	14488
888.519	14465
888.643	14484
888.767	14533
888.891	14347
889.015	14206
889.139	14366
889.263	14282
889.387	14412
889.511	14564
889.635	14404
889.759	14282
889.883	14202
890.006	14362
890.13	14389
890.254	14244
890.377	14267
890.501	14115
890.624	14119
890.748	14153
890.871	14111
890.995	14001
891.118	13902
891.241	13970
891.364	14039
891.488	14210
891.611	14020
891.734	14031
891.857	14054
891.98	14008
892.103	14092
892.226	14035
892.349	13993
892.471	13830
892.594	13906
892.717	13982
892.839	13986
892.962	14001
893.085	14024
893.207	14008
893.33	13940
893.452	13913
893.575	14039
893.697	14043
893.819	14176
893.941	14149
894.064	14157
894.186	13932
894.308	13970
894.43	14126
894.552	14290
894.674	14138
894.796	13947
894.918	13967
895.04	14062
895.161	14111
895.283	14134
895.405	14077
895.526	14107
895.648	14081
895.769	14142
895.891	14244
896.012	14233
896.134	14183
896.255	14157
896.376	14065
896.498	14073
896.619	14263
896.74	14191
896.861	14286
896.982	14503
897.103	14716
897.224	14457
897.345	14438
897.466	14294
897.587	14442
897.708	14575
897.828	14617
897.949	14400
898.07	14408
898.19	14427
898.311	14667
898.431	14480
898.552	14457
898.672	14640
898.792	14552
898.913	14571
899.033	14476
899.153	14317
899.273	14305
899.393	14328
899.513	14412
899.633	14385
899.753	14503
899.873	14434
899.993	14427
900.113	14396
900.232	14412
900.352	14476
900.472	14385
900.591	14282
900.711	14229
900.83	14149
900.95	14355
901.069	14362
901.189	14103
901.308	13963
901.427	13830
901.546	13894
901.665	14005
901.784	13913
901.904	13818
902.023	13704
902.141	13457
902.26	13445
902.379	13594
902.498	13468
902.617	13419
902.735	13594
902.854	13552
902.973	13499
903.091	13259
903.21	13198
903.328	13194
903.446	13152
903.565	13194
903.683	13126
903.801	12966
903.919	13110
904.038	13080
904.156	12913
904.274	12958
904.392	12802
904.51	12897
904.627	12909
904.745	12970
904.863	13019
904.981	12677
905.098	12536
905.216	12551
905.334	12532
905.451	12536
905.569	12490
905.686	12635
905.803	12555
905.921	12353
906.038	12460
906.155	12452
906.272	12251
906.389	12277
906.506	12182
906.623	12133
906.74	12209
906.857	12083
906.974	12098
907.091	12254
907.208	12296
907.324	12201
907.441	12087
907.557	11935
907.674	11893
907.79	11866
907.907	11893
908.023	11961
908.139	11912
908.256	11885
908.372	11760
908.488	11794
908.604	11657
908.72	11600
908.836	11733
908.952	11649
909.068	11623
909.184	11802
909.3	11638
909.415	11733
909.531	11665
909.647	11455
909.762	11512
909.878	11410
909.993	11551
910.108	11421
910.224	11406
910.339	11387
910.454	11303
910.57	11246
910.685	11216
910.8	11440
910.915	11539
911.03	11315
911.145	11155
911.259	11086
911.374	11166
911.489	11090
911.604	11029
911.718	10858
911.833	10942
911.947	10824
912.062	10782
912.176	10835
912.291	10930
912.405	10869
912.519	11147
912.633	11128
912.748	10930
912.862	10858
912.976	10812
913.09	10596
913.204	10797
913.318	10755
913.431	10858
913.545	10885
913.659	10957
913.772	10714
913.886	10649
914	10615
914.113	10763
914.226	10854
914.34	10698
914.453	10573
914.566	10679
914.68	10653
914.793	10580
914.906	10508
915.019	10417
915.132	10371
915.245	10360
915.358	10417
915.47	10443
915.583	10440
915.696	10470
915.809	10527
915.921	10580
916.034	10398
916.146	10352
916.259	10325
916.371	10436
916.483	10516
916.595	10352
916.708	10379
916.82	10261
916.932	10303
917.044	10382
917.156	10306
917.268	10230
917.38	10188
917.491	10219
917.603	10249
917.715	10375
917.826	10306
917.938	10284
918.049	10204
918.161	10303
918.272	10405
918.384	10371
918.495	10284
918.606	10154
918.717	10147
918.828	10131
918.939	10177
919.05	10063
919.161	10021
919.272	9899
919.383	9975
919.494	10169
919.604	10284
919.715	10196
919.826	10040
919.936	10120
920.047	10207
920.157	10158
920.267	10337
920.378	10177
920.488	10154
920.598	10379
920.708	10535
920.818	10371
920.928	10272
921.038	10432
921.148	10443
921.258	10200
921.368	10120
921.477	10010
921.587	9998
921.697	9895
921.806	10093
921.916	9873
922.025	9816
922.134	9675
922.244	9686
922.353	9728
922.462	9637
922.571	9561
922.68	9454
922.789	9397
922.898	9405
923.007	9397
923.116	9443
923.224	9287
923.333	9431
923.442	9268
923.55	9241
923.659	9348
923.767	9344
923.876	9279
923.984	9291
924.092	9180
924.201	9325
924.309	9283
924.417	9275
924.525	9275
924.633	9321
924.741	10173
924.849	9123
924.956	9218
925.064	9104
925.172	8956
925.279	9058
925.387	9058
925.494	9070
925.602	9237
925.709	9085
925.816	8948
925.924	9020
926.031	9150
926.138	9009
926.245	9116
926.352	8975
926.459	9142
926.566	9112
926.673	9066
926.779	8887
926.886	8952
926.993	8788
927.099	8773
927.206	8830
927.312	8731
927.419	8895
927.525	8804
927.631	8811
927.737	8716
927.843	8674
927.95	8541
928.056	8682
928.162	8678
928.267	8746
928.373	9302
928.479	8845
928.585	8579
928.69	8754
928.796	8689
928.901	8640
929.007	8492
929.112	8621
929.218	8492
929.323	8438
929.428	8454
929.533	8636
929.638	8469
929.743	8476
929.848	8518
929.953	8503
930.058	8336
930.163	8210
930.267	8275
930.372	8377
930.477	8240
930.581	8469
930.685	8286
930.79	8252
930.894	8240
930.998	8161
931.103	8393
931.207	7982
931.311	7947
931.415	7944
931.519	7674
931.623	7632
