Data from test_V78500241_1095.txt Node
Date: Fri Mar 25 14:41:20 CST 2022
User: usil
Spectrometer: V785-0024
Trigger mode: 0
Integration Time (sec): 4.000000E-1
Scans to average: 1
Nonlinearity correction enabled: false
Boxcar width: 0
Storing dark spectrum: false
XAxis mode: Wavelengths
Number of Pixels in Spectrum: 1024
>>>>>Begin Spectral Data<<<<<
801.071	22675
801.214	22710
801.356	22371
801.499	22268
801.641	22013
801.783	22025
801.926	22097
802.068	22067
802.211	21895
802.353	21812
802.496	21572
802.638	21473
802.78	21378
802.923	21542
803.065	21439
803.208	21405
803.35	21473
803.492	21454
803.635	21488
803.777	21329
803.919	21511
804.061	21774
804.204	21477
804.346	21397
804.488	21370
804.63	21344
804.773	21218
804.915	21348
805.057	21435
805.199	21313
805.341	21378
805.483	21340
805.626	21488
805.768	21325
805.91	21351
806.052	21336
806.194	21294
806.336	21587
806.478	21317
806.62	21279
806.762	21473
806.904	21496
807.046	21827
807.188	21720
807.33	21743
807.472	21854
807.614	21561
807.756	21713
807.898	21625
808.04	21660
808.182	21485
808.324	21694
808.465	21656
808.607	21983
808.749	22139
808.891	22230
809.033	22360
809.174	22124
809.316	22139
809.458	21960
809.6	21926
809.741	21983
809.883	21956
810.025	22036
810.166	21975
810.308	22044
810.45	21922
810.591	21831
810.733	21625
810.875	21663
811.016	21679
811.158	21523
811.299	21671
811.441	21717
811.582	21587
811.724	21564
811.865	21507
812.007	21523
812.148	21542
812.29	21576
812.431	21762
812.573	21880
812.714	21899
812.855	21895
812.997	22090
813.138	22284
813.279	22147
813.421	21975
813.562	21960
813.703	21823
813.845	21800
813.986	21420
814.127	21302
814.268	21157
814.41	21203
814.551	21047
814.692	21127
814.833	21009
814.974	21047
815.115	21146
815.256	20921
815.397	20944
815.539	20868
815.68	20853
815.821	20899
815.962	20872
816.103	20857
816.244	20689
816.385	20575
816.526	20511
816.666	20389
816.807	20161
816.948	20374
817.089	20457
817.23	20301
817.371	20328
817.512	20161
817.653	20282
817.793	20176
817.934	20221
818.075	20199
818.216	20233
818.356	20221
818.497	19993
818.638	19913
818.778	19864
818.919	19795
819.06	19894
819.2	20001
819.341	20126
819.481	20065
819.622	20187
819.762	20476
819.903	20343
820.043	20301
820.184	20191
820.324	20172
820.465	20290
820.605	20233
820.746	20191
820.886	19955
821.026	20103
821.167	20122
821.307	20294
821.447	20088
821.588	20119
821.728	19928
821.868	19632
822.008	19681
822.149	19647
822.289	19533
822.429	19339
822.569	19198
822.709	19301
822.849	19141
822.99	19069
823.13	19027
823.27	19004
823.41	18970
823.55	18817
823.69	18886
823.83	18928
823.97	18894
824.11	18620
824.25	18696
824.389	18806
824.529	18791
824.669	18658
824.809	18863
824.949	18787
825.089	18684
825.228	18715
825.368	18608
825.508	18532
825.648	18532
825.787	18585
825.927	18509
826.067	18486
826.206	18357
826.346	18585
826.485	18445
826.625	18410
826.765	18601
826.904	18494
827.044	18273
827.183	18205
827.323	18190
827.462	18220
827.601	18171
827.741	18125
827.88	18053
828.02	17984
828.159	18125
828.298	18220
828.437	18102
828.577	17992
828.716	18327
828.855	18068
828.994	17908
829.134	18068
829.273	17999
829.412	17783
829.551	17767
829.69	17882
829.829	17889
829.968	17980
830.107	17927
830.246	17836
830.385	17824
830.524	17843
830.663	17760
830.802	17661
830.941	17467
831.08	17463
831.219	17714
831.357	17600
831.496	17802
831.635	17562
831.774	17376
831.913	17410
832.051	17231
832.19	17318
832.329	17379
832.467	17326
832.606	17208
832.744	17155
832.883	17307
833.022	17242
833.16	17227
833.299	17273
833.437	17250
833.576	17368
833.714	17239
833.852	17349
833.991	17353
834.129	17379
834.267	17524
834.406	17178
834.544	17204
834.682	17303
834.821	17239
834.959	17444
835.097	17277
835.235	17307
835.373	17261
835.511	17311
835.65	17239
835.788	17189
835.926	16961
836.064	17025
836.202	17045
836.34	17178
836.478	17299
836.615	17220
836.753	17231
836.891	17223
837.029	17334
837.167	17102
837.305	17178
837.443	17075
837.58	16965
837.718	17136
837.856	17178
837.993	17071
838.131	17086
838.269	16911
838.406	17033
838.544	16816
838.681	16801
838.819	16771
838.956	16459
839.094	16573
839.231	16691
839.369	16733
839.506	17010
839.643	16774
839.781	16542
839.918	16550
840.055	16577
840.193	16565
840.33	16561
840.467	16626
840.604	16622
840.742	16763
840.879	16424
841.016	16531
841.153	16466
841.29	16607
841.427	16550
841.564	16641
841.701	16603
841.838	16535
841.975	16432
842.112	16535
842.249	16325
842.385	16356
842.522	16485
842.659	16474
842.796	16325
842.933	16386
843.069	16344
843.206	16253
843.343	16447
843.479	16322
843.616	16421
843.752	16188
843.889	16097
844.025	16299
844.162	16158
844.298	16131
844.435	16261
844.571	16082
844.708	16280
844.844	16360
844.98	16325
845.117	16261
845.253	16101
845.389	16105
845.525	16162
845.661	16287
845.798	16253
845.934	16489
846.07	16303
846.206	16436
846.342	16554
846.478	16280
846.614	15876
846.75	15880
846.886	15739
847.022	15827
847.158	15762
847.294	15793
847.429	15641
847.565	15701
847.701	15934
847.837	15507
847.972	15393
848.108	15428
848.244	15580
848.379	15317
848.515	15252
848.65	15203
848.786	15214
848.921	15329
849.057	15336
849.192	15397
849.328	15389
849.463	15401
849.598	15363
849.734	15363
849.869	15264
850.004	15081
850.14	15176
850.275	15013
850.41	15013
850.545	15055
850.68	15020
850.815	15108
850.95	15047
851.085	15207
851.22	15195
851.355	14986
851.49	15066
851.625	15070
851.76	14952
851.895	14948
852.03	14895
852.165	15055
852.299	15013
852.434	15108
852.569	15058
852.703	15104
852.838	15184
852.973	15211
853.107	15230
853.242	15066
853.376	15036
853.511	14899
853.645	14914
853.78	15116
853.914	15051
854.048	14864
854.183	14937
854.317	15055
854.451	15188
854.585	14990
854.72	14891
854.854	15009
854.988	14849
855.122	14921
855.256	14762
855.39	14952
855.524	14994
855.658	15024
855.792	15043
855.926	15005
856.06	15032
856.194	15005
856.327	14960
856.461	14921
856.595	14857
856.729	14933
856.862	14994
856.996	14994
857.13	14956
857.263	15051
857.397	15066
857.53	14979
857.664	15005
857.797	15032
857.931	15188
858.064	14956
858.197	15089
858.331	14960
858.464	14933
858.597	14929
858.731	14864
858.864	14925
858.997	14944
859.13	15077
859.263	14967
859.396	15028
859.529	14937
859.662	14921
859.795	14937
859.928	15020
860.061	15169
860.194	15108
860.327	14941
860.46	14902
860.592	15123
860.725	15119
860.858	15123
860.99	14994
861.123	14998
861.256	14895
861.388	14979
861.521	15549
861.653	14899
861.786	14819
861.918	14708
862.05	14899
862.183	14986
862.315	14941
862.447	15009
862.58	14948
862.712	14785
862.844	14678
862.976	14807
863.108	14800
863.24	15252
863.372	14674
863.504	14720
863.636	14693
863.768	14659
863.9	14674
864.032	14724
864.164	14708
864.296	14708
864.428	14872
864.559	14800
864.691	14796
864.823	14853
864.954	14750
865.086	14701
865.217	14682
865.349	14705
865.48	14644
865.612	14735
865.743	14792
865.875	14743
866.006	14689
866.137	14735
866.269	14670
866.4	14648
866.531	14632
866.662	14625
866.793	14689
866.924	14659
867.055	14720
867.186	14705
867.317	14564
867.448	14587
867.579	14651
867.71	14541
867.841	14587
867.972	14686
868.103	14735
868.233	14712
868.364	14674
868.495	14765
868.625	15028
868.756	15055
868.886	14868
869.017	14895
869.147	15039
869.278	15093
869.408	14963
869.539	14933
869.669	15020
869.799	15077
869.929	14979
870.06	15085
870.19	15211
870.32	15245
870.45	15279
870.58	15344
870.71	15580
870.84	15359
870.97	15298
871.1	15306
871.23	15534
871.36	15511
871.489	15378
871.619	15507
871.749	15431
871.879	15462
872.008	15564
872.138	15553
872.267	15568
872.397	15401
872.526	15462
872.656	15359
872.785	15340
872.915	15507
873.044	15625
873.173	15519
873.303	15656
873.432	15606
873.561	15629
873.69	15515
873.819	15603
873.948	15629
874.077	15618
874.206	15504
874.335	15629
874.464	15679
874.593	15816
874.722	15861
874.851	15953
874.979	15911
875.108	15949
875.237	15922
875.365	15831
875.494	15808
875.623	15979
875.751	15876
875.88	15892
876.008	16044
876.136	16139
876.265	16265
876.393	16386
876.521	16295
876.65	16318
876.778	16318
876.906	16276
877.034	16173
877.162	16253
877.29	16268
877.418	16390
877.546	16352
877.674	16306
877.802	16253
877.93	16284
878.058	16219
878.185	16234
878.313	16318
878.441	16276
878.568	16177
878.696	16367
878.824	16344
878.951	16478
879.079	16664
879.206	16847
879.333	16748
879.461	16687
879.588	16637
879.715	16828
879.842	16805
879.97	16440
880.097	16242
880.224	16322
880.351	16306
880.478	16306
880.605	16207
880.732	16207
880.859	16466
880.986	16169
881.112	16246
881.239	15998
881.366	16029
881.493	15949
881.619	15930
881.746	15785
881.872	15945
881.999	15816
882.125	15797
882.252	15964
882.378	15861
882.505	16021
882.631	15823
882.757	15720
882.883	15701
883.01	15648
883.136	15591
883.262	15553
883.388	15523
883.514	15641
883.64	15679
883.766	15667
883.892	15492
884.018	15477
884.143	15667
884.269	15778
884.395	15462
884.52	15264
884.646	15359
884.772	15173
884.897	15249
885.023	15424
885.148	15485
885.274	15500
885.399	15450
885.524	15378
885.65	15306
885.775	15454
885.9	15393
886.025	15348
886.15	15405
886.275	15363
886.4	15275
886.525	15389
886.65	15317
886.775	15336
886.9	15363
887.025	15504
887.149	15256
887.274	15169
887.399	15165
887.523	15085
887.648	15138
887.773	15085
887.897	15321
888.021	15192
888.146	15203
888.27	15294
888.395	15283
888.519	15135
888.643	15207
888.767	15192
888.891	15116
889.015	15028
889.139	15055
889.263	14918
889.387	15207
889.511	15207
889.635	15184
889.759	14971
889.883	14986
890.006	15032
890.13	15127
890.254	14982
890.377	14975
890.501	14762
890.624	14811
890.748	14937
890.871	14727
890.995	14705
891.118	14655
891.241	14579
891.364	14663
891.488	14796
891.611	14674
891.734	14625
891.857	14720
891.98	14724
892.103	14838
892.226	14746
892.349	14636
892.471	14606
892.594	14678
892.717	14640
892.839	14659
892.962	14632
893.085	14697
893.207	14598
893.33	14610
893.452	14549
893.575	14826
893.697	14602
893.819	14823
893.941	14868
894.064	14754
894.186	14587
894.308	14602
894.43	14830
894.552	14819
894.674	14845
894.796	14617
894.918	14590
895.04	14678
895.161	14823
895.283	14705
895.405	14590
895.526	14682
895.648	14765
895.769	14712
895.891	14765
896.012	14899
896.134	14868
896.255	14765
896.376	14769
896.498	14800
896.619	14880
896.74	14910
896.861	14941
896.982	15154
897.103	15249
897.224	15165
897.345	15119
897.466	14990
897.587	15020
897.708	15138
897.828	15138
897.949	15009
898.07	14963
898.19	15020
898.311	15317
898.431	15093
898.552	15195
898.672	15195
898.792	15260
898.913	15176
899.033	15104
899.153	15039
899.273	14941
899.393	14902
899.513	15077
899.633	14990
899.753	14979
899.873	14948
899.993	15013
900.113	15043
900.232	14944
900.352	14941
900.472	14925
900.591	14899
900.711	14826
900.83	14785
900.95	14971
901.069	14982
901.189	14796
901.308	14587
901.427	14495
901.546	14476
901.665	14629
901.784	14484
901.904	14313
902.023	14259
902.141	14130
902.26	14077
902.379	14271
902.498	14081
902.617	13959
902.735	14149
902.854	14046
902.973	13978
903.091	13845
903.21	13769
903.328	13837
903.446	13746
903.565	13658
903.683	13757
903.801	13578
903.919	13586
904.038	13628
904.156	13460
904.274	13533
904.392	13335
904.51	13453
904.627	13441
904.745	13422
904.863	13537
904.981	13274
905.098	13247
905.216	13206
905.334	13247
905.451	13202
905.569	13050
905.686	13160
905.803	13179
905.921	12939
906.038	13034
906.155	12932
906.272	12802
906.389	12878
906.506	12825
906.623	12703
906.74	12703
906.857	12642
906.974	12711
907.091	12863
907.208	12795
907.324	12821
907.441	12688
907.557	12486
907.674	12479
907.79	12388
907.907	12369
908.023	12479
908.139	12448
908.256	12460
908.372	12369
908.488	12380
908.604	12224
908.72	12194
908.836	12171
908.952	12190
909.068	12369
909.184	12330
909.3	12254
909.415	12315
909.531	12239
909.647	12015
909.762	11965
909.878	11950
909.993	12034
910.108	12034
910.224	12011
910.339	11988
910.454	11946
910.57	11790
910.685	11824
910.8	12034
910.915	11969
911.03	11771
911.145	11630
911.259	11649
911.374	11798
911.489	11619
911.604	11532
911.718	11379
911.833	11459
911.947	11337
912.062	11292
912.176	11425
912.291	11440
912.405	11417
912.519	11646
912.633	11653
912.748	11486
912.862	11421
912.976	11299
913.09	11246
913.204	11197
913.318	11345
913.431	11402
913.545	11315
913.659	11334
913.772	11265
913.886	11193
914	11109
914.113	11273
914.226	11246
914.34	11216
914.453	11105
914.566	11288
914.68	11109
914.793	11136
914.906	10953
915.019	10946
915.132	10869
915.245	10835
915.358	10873
915.47	10919
915.583	10896
915.696	11003
915.809	11029
915.921	11048
916.034	10824
916.146	10923
916.259	10900
916.371	10961
916.483	10873
916.595	10748
916.708	10843
916.82	10877
916.932	10866
917.044	10809
917.156	10805
917.268	10717
917.38	10687
917.491	10706
917.603	10729
917.715	10763
917.826	10824
917.938	10733
918.049	10592
918.161	10656
918.272	10820
918.384	10866
918.495	10714
918.606	10630
918.717	10523
918.828	10577
918.939	10649
919.05	10523
919.161	10596
919.272	10432
919.383	10504
919.494	10660
919.604	10771
919.715	10584
919.826	10474
919.936	10558
920.047	10721
920.157	10512
920.267	10843
920.378	10672
920.488	10580
920.598	10820
920.708	10911
920.818	10812
920.928	10733
921.038	10919
921.148	10904
921.258	10641
921.368	10592
921.477	10542
921.587	10394
921.697	10329
921.806	10443
921.916	10333
922.025	10150
922.134	10173
922.244	10173
922.353	10173
922.462	10036
922.571	9907
922.68	9854
922.789	9842
922.898	9850
923.007	9717
923.116	9854
923.224	9895
923.333	9812
923.442	9694
923.55	9671
923.659	9679
923.767	9812
923.876	9717
923.984	9743
924.092	9656
924.201	9679
924.309	9682
924.417	9698
924.525	9656
924.633	9625
924.741	10637
924.849	9389
924.956	9614
925.064	9469
925.172	9329
925.279	9397
925.387	9477
925.494	9538
925.602	9603
925.709	9523
925.816	9408
925.924	9424
926.031	9530
926.138	9496
926.245	9519
926.352	9367
926.459	9500
926.566	9553
926.673	9378
926.779	9351
926.886	9428
926.993	9230
927.099	9157
927.206	9150
927.312	9116
927.419	9195
927.525	9165
927.631	9211
927.737	9093
927.843	9058
927.95	8941
928.056	9058
928.162	9032
928.267	9104
928.373	9766
928.479	9135
928.585	8872
928.69	9127
928.796	9017
928.901	8925
929.007	8838
929.112	8929
929.218	8960
929.323	8880
929.428	8941
929.533	8975
929.638	8807
929.743	8838
929.848	8925
929.953	8834
930.058	8750
930.163	8651
930.267	8648
930.372	8754
930.477	8602
930.581	8857
930.685	8712
930.79	8549
930.894	8640
930.998	8575
931.103	8667
931.207	8377
931.311	8248
931.415	8237
931.519	8111
931.623	7993
