Data from test_V78500241_3331.txt Node
Date: Fri Mar 25 14:56:54 CST 2022
User: usil
Spectrometer: V785-0024
Trigger mode: 0
Integration Time (sec): 4.000000E-1
Scans to average: 1
Nonlinearity correction enabled: false
Boxcar width: 0
Storing dark spectrum: false
XAxis mode: Wavelengths
Number of Pixels in Spectrum: 1024
>>>>>Begin Spectral Data<<<<<
801.071	21903
801.214	21808
801.356	21576
801.499	21447
801.641	21313
801.783	21199
801.926	21329
802.068	21272
802.211	21252
802.353	21157
802.496	20979
802.638	20826
802.78	20819
802.923	20640
803.065	20492
803.208	20602
803.35	20674
803.492	20739
803.635	20720
803.777	20682
803.919	20655
804.061	21036
804.204	20644
804.346	20560
804.488	20495
804.63	20549
804.773	20450
804.915	20598
805.057	20663
805.199	20450
805.341	20522
805.483	20583
805.626	20674
805.768	20499
805.91	20617
806.052	20613
806.194	20488
806.336	20716
806.478	20450
806.62	20560
806.762	20644
806.904	20872
807.046	20872
807.188	20914
807.33	20811
807.472	20952
807.614	20693
807.756	20845
807.898	20625
808.04	20511
808.182	20606
808.324	20575
808.465	20560
808.607	20743
808.749	20845
808.891	20910
809.033	20971
809.174	20914
809.316	20765
809.458	20845
809.6	20765
809.741	21043
809.883	20941
810.025	21001
810.166	20929
810.308	21135
810.45	20872
810.591	20872
810.733	20735
810.875	20777
811.016	20499
811.158	20461
811.299	20701
811.441	20857
811.582	20864
811.724	20571
811.865	20587
812.007	20651
812.148	20644
812.29	20659
812.431	20743
812.573	20933
812.714	21013
812.855	21108
812.997	21230
813.138	21306
813.279	21241
813.421	21127
813.562	21119
813.703	20933
813.845	20830
813.986	20514
814.127	20488
814.268	20282
814.41	20237
814.551	20263
814.692	20202
814.833	20183
814.974	20081
815.115	20084
815.256	20107
815.397	20035
815.539	19963
815.68	19868
815.821	19902
815.962	19921
816.103	19871
816.244	19742
816.385	19674
816.526	19674
816.666	19464
816.807	19346
816.948	19400
817.089	19502
817.23	19350
817.371	19388
817.512	19282
817.653	19285
817.793	19232
817.934	19312
818.075	19320
818.216	19430
818.356	19251
818.497	19076
818.638	18973
818.778	18939
818.919	19031
819.06	19080
819.2	19141
819.341	19301
819.481	19209
819.622	19293
819.762	19373
819.903	19422
820.043	19445
820.184	19339
820.324	19297
820.465	19495
820.605	19339
820.746	19263
820.886	19190
821.026	19244
821.167	19175
821.307	19335
821.447	19122
821.588	19012
821.728	18966
821.868	18837
822.008	18738
822.149	18745
822.289	18696
822.429	18635
822.569	18380
822.709	18433
822.849	18258
822.99	18209
823.13	18182
823.27	18133
823.41	18140
823.55	18007
823.69	18091
823.83	18049
823.97	17927
824.11	17847
824.25	17649
824.389	17832
824.529	17901
824.669	17843
824.809	17885
824.949	17813
825.089	17965
825.228	17813
825.368	17615
825.508	17615
825.648	17425
825.787	17760
825.927	17497
826.067	17611
826.206	17406
826.346	17630
826.485	17566
826.625	17455
826.765	17695
826.904	17623
827.044	17391
827.183	17391
827.323	17220
827.462	17307
827.601	17280
827.741	17200
827.88	17334
828.02	17136
828.159	17318
828.298	17265
828.437	17448
828.577	17223
828.716	17425
828.855	17223
828.994	17140
829.134	16995
829.273	17105
829.412	16923
829.551	16942
829.69	17037
829.829	17124
829.968	17090
830.107	17143
830.246	17064
830.385	16949
830.524	16972
830.663	16835
830.802	16729
830.941	16717
831.08	16626
831.219	16691
831.357	16729
831.496	16771
831.635	16729
831.774	16573
831.913	16626
832.051	16443
832.19	16382
832.329	16565
832.467	16413
832.606	16261
832.744	16348
832.883	16371
833.022	16379
833.16	16360
833.299	16440
833.437	16402
833.576	16413
833.714	16451
833.852	16390
833.991	16382
834.129	16421
834.267	16432
834.406	16337
834.544	16512
834.682	16421
834.821	16379
834.959	16577
835.097	16299
835.235	16519
835.373	16428
835.511	16485
835.65	16303
835.788	16421
835.926	16150
836.064	16025
836.202	16150
836.34	16421
836.478	16348
836.615	16443
836.753	16314
836.891	16371
837.029	16310
837.167	16242
837.305	16169
837.443	16188
837.58	16143
837.718	16169
837.856	16291
837.993	16124
838.131	16204
838.269	16044
838.406	16078
838.544	16074
838.681	15907
838.819	15831
838.956	15781
839.094	15682
839.231	15743
839.369	15819
839.506	16207
839.643	16101
839.781	15823
839.918	15739
840.055	15876
840.193	15724
840.33	15686
840.467	15827
840.604	15755
840.742	16040
840.879	15667
841.016	15534
841.153	15743
841.29	15797
841.427	15732
841.564	15751
841.701	15812
841.838	15698
841.975	15648
842.112	15759
842.249	15606
842.385	15519
842.522	15698
842.659	15595
842.796	15538
842.933	15500
843.069	15538
843.206	15435
843.343	15526
843.479	15644
843.616	15603
843.752	15344
843.889	15264
844.025	15561
844.162	15249
844.298	15424
844.435	15321
844.571	15169
844.708	15401
844.844	15450
844.98	15473
845.117	15420
845.253	15294
845.389	15146
845.525	15275
845.661	15226
845.798	15017
845.934	15142
846.07	15081
846.206	15169
846.342	15268
846.478	15157
846.614	15001
846.75	14769
846.886	14853
847.022	15013
847.158	14868
847.294	14971
847.429	15005
847.565	14880
847.701	15066
847.837	14701
847.972	14670
848.108	14807
848.244	14568
848.379	14621
848.515	14476
848.65	14533
848.786	14526
848.921	14552
849.057	14606
849.192	14537
849.328	14552
849.463	14492
849.598	14446
849.734	14408
849.869	14351
850.004	14313
850.14	14252
850.275	14343
850.41	14206
850.545	14214
850.68	14149
850.815	14180
850.95	14263
851.085	14560
851.22	14305
851.355	14263
851.49	14233
851.625	14218
851.76	14301
851.895	14119
852.03	14138
852.165	14259
852.299	14259
852.434	14400
852.569	14263
852.703	14305
852.838	14339
852.973	14389
853.107	14374
853.242	14229
853.376	14187
853.511	14054
853.645	14107
853.78	14252
853.914	14111
854.048	14195
854.183	14069
854.317	14161
854.451	14278
854.585	14138
854.72	14134
854.854	14199
854.988	14035
855.122	14084
855.256	14073
855.39	14107
855.524	14153
855.658	14183
855.792	14229
855.926	14153
856.06	14237
856.194	14328
856.327	14225
856.461	14050
856.595	14084
856.729	14043
856.862	14256
856.996	14195
857.13	14218
857.263	14210
857.397	14332
857.53	14107
857.664	14157
857.797	14263
857.931	14161
858.064	14221
858.197	14301
858.331	14046
858.464	14062
858.597	14054
858.731	14111
858.864	14206
858.997	14115
859.13	14126
859.263	14206
859.396	14259
859.529	14046
859.662	14035
859.795	14073
859.928	14191
860.061	14294
860.194	14339
860.327	14088
860.46	14157
860.592	14210
860.725	14290
860.858	14328
860.99	14096
861.123	14039
861.256	14024
861.388	14092
861.521	14842
861.653	14005
861.786	13890
861.918	14020
862.05	14096
862.183	14069
862.315	14157
862.447	14172
862.58	14115
862.712	13890
862.844	13902
862.976	13902
863.108	13906
863.24	14271
863.372	13841
863.504	13860
863.636	13955
863.768	13955
863.9	13989
864.032	13841
864.164	13909
864.296	14031
864.428	14092
864.559	14088
864.691	14050
864.823	13997
864.954	14039
865.086	13974
865.217	13932
865.349	13879
865.48	13917
865.612	13917
865.743	13986
865.875	13925
866.006	13909
866.137	13925
866.269	14012
866.4	13826
866.531	13894
866.662	13776
866.793	13906
866.924	13913
867.055	14012
867.186	13970
867.317	13871
867.448	13864
867.579	13871
867.71	13814
867.841	13788
867.972	13856
868.103	13913
868.233	13822
868.364	13928
868.495	13993
868.625	14191
868.756	14195
868.886	14058
869.017	14073
869.147	14244
869.278	14187
869.408	14065
869.539	14240
869.669	14183
869.799	14176
869.929	14278
870.06	14256
870.19	14412
870.32	14423
870.45	14537
870.58	14541
870.71	14712
870.84	14682
870.97	14518
871.1	14549
871.23	14682
871.36	14781
871.489	14598
871.619	14735
871.749	14781
871.879	14800
872.008	14853
872.138	14663
872.267	14701
872.397	14606
872.526	14564
872.656	14610
872.785	14556
872.915	14765
873.044	14807
873.173	14781
873.303	14777
873.432	14872
873.561	14842
873.69	14834
873.819	14708
873.948	14872
874.077	14712
874.206	14674
874.335	14769
874.464	14876
874.593	15066
874.722	15028
874.851	15097
874.979	15131
875.108	15154
875.237	15001
875.365	14990
875.494	15036
875.623	15104
875.751	15047
875.88	15207
876.008	15329
876.136	15287
876.265	15545
876.393	15652
876.521	15660
876.65	15599
876.778	15534
876.906	15462
877.034	15545
877.162	15466
877.29	15496
877.418	15488
877.546	15526
877.674	15530
877.802	15584
877.93	15538
878.058	15477
878.185	15469
878.313	15515
878.441	15557
878.568	15386
878.696	15458
878.824	15682
878.951	15591
879.079	15778
879.206	15873
879.333	15686
879.461	15568
879.588	15568
879.715	15770
879.842	15835
879.97	15622
880.097	15397
880.224	15367
880.351	15359
880.478	15386
880.605	15374
880.732	15439
880.859	15648
880.986	15450
881.112	15466
881.239	15298
881.366	15336
881.493	15157
881.619	15089
881.746	15104
881.872	15047
881.999	15028
882.125	15062
882.252	15024
882.378	15024
882.505	15188
882.631	14941
882.757	14788
882.883	14914
883.01	14941
883.136	14876
883.262	14750
883.388	14670
883.514	14960
883.64	14952
883.766	14811
883.892	14724
884.018	14804
884.143	14880
884.269	14910
884.395	14606
884.52	14511
884.646	14549
884.772	14526
884.897	14533
885.023	14621
885.148	14712
885.274	14804
885.399	14727
885.524	14537
885.65	14644
885.775	14552
885.9	14625
886.025	14697
886.15	14602
886.275	14507
886.4	14442
886.525	14522
886.65	14552
886.775	14598
886.9	14708
887.025	14792
887.149	14575
887.274	14492
887.399	14355
887.523	14404
887.648	14358
887.773	14351
887.897	14427
888.021	14457
888.146	14423
888.27	14495
888.395	14617
888.519	14522
888.643	14571
888.767	14336
888.891	14396
889.015	14271
889.139	14328
889.263	14343
889.387	14366
889.511	14450
889.635	14336
889.759	14240
889.883	14415
890.006	14305
890.13	14377
890.254	14221
890.377	14259
890.501	14107
890.624	14005
890.748	14180
890.871	14046
890.995	13970
891.118	13997
891.241	13993
891.364	13936
891.488	14092
891.611	13970
891.734	13974
891.857	14031
891.98	13982
892.103	13986
892.226	13947
892.349	14001
892.471	13841
892.594	13951
892.717	13974
892.839	13959
892.962	13974
893.085	14058
893.207	13936
893.33	13765
893.452	14005
893.575	14096
893.697	13993
893.819	14111
893.941	14180
894.064	14153
894.186	13978
894.308	13917
894.43	14168
894.552	14206
894.674	14005
894.796	14031
894.918	14096
895.04	13978
895.161	14092
895.283	14210
895.405	14043
895.526	14126
895.648	14069
895.769	14221
895.891	14111
896.012	14237
896.134	14221
896.255	14107
896.376	14081
896.498	14214
896.619	14199
896.74	14123
896.861	14202
896.982	14423
897.103	14610
897.224	14488
897.345	14419
897.466	14290
897.587	14446
897.708	14495
897.828	14427
897.949	14404
898.07	14244
898.19	14374
898.311	14571
898.431	14499
898.552	14469
898.672	14606
898.792	14511
898.913	14530
899.033	14442
899.153	14412
899.273	14233
899.393	14431
899.513	14431
899.633	14320
899.753	14385
899.873	14419
899.993	14332
900.113	14400
900.232	14324
900.352	14355
900.472	14172
900.591	14206
900.711	14313
900.83	14123
900.95	14271
901.069	14305
901.189	14191
901.308	13852
901.427	13894
901.546	13921
901.665	13898
901.784	13871
901.904	13769
902.023	13746
902.141	13468
902.26	13457
902.379	13567
902.498	13506
902.617	13449
902.735	13540
902.854	13529
902.973	13445
903.091	13133
903.21	13152
903.328	13194
903.446	13175
903.565	13008
903.683	12958
903.801	12977
903.919	13012
904.038	13000
904.156	12867
904.274	12886
904.392	12852
904.51	12886
904.627	12894
904.745	12909
904.863	12882
904.981	12696
905.098	12536
905.216	12559
905.334	12570
905.451	12555
905.569	12467
905.686	12700
905.803	12532
905.921	12292
906.038	12528
906.155	12441
906.272	12357
906.389	12304
906.506	12175
906.623	12171
906.74	12155
906.857	12064
906.974	12034
907.091	12235
907.208	12254
907.324	12155
907.441	12102
907.557	11939
907.674	11980
907.79	11809
907.907	11790
908.023	11912
908.139	11889
908.256	11855
908.372	11745
908.488	11786
908.604	11737
908.72	11638
908.836	11691
908.952	11684
909.068	11668
909.184	11741
909.3	11668
909.415	11817
909.531	11733
909.647	11414
909.762	11493
909.878	11391
909.993	11391
910.108	11315
910.224	11360
910.339	11395
910.454	11341
910.57	11299
910.685	11193
910.8	11414
910.915	11448
911.03	11239
911.145	11159
911.259	11121
911.374	11159
911.489	11083
911.604	11041
911.718	10908
911.833	10889
911.947	10839
912.062	10729
912.176	10854
912.291	10930
912.405	10835
912.519	11109
912.633	11102
912.748	10957
912.862	10911
912.976	10782
913.09	10615
913.204	10714
913.318	10786
913.431	10953
913.545	10835
913.659	10790
913.772	10744
913.886	10660
914	10626
914.113	10706
914.226	10786
914.34	10679
914.453	10580
914.566	10698
914.68	10630
914.793	10611
914.906	10405
915.019	10367
915.132	10341
915.245	10409
915.358	10382
915.47	10432
915.583	10398
915.696	10421
915.809	10535
915.921	10588
916.034	10371
916.146	10306
916.259	10348
916.371	10432
916.483	10394
916.595	10337
916.708	10310
916.82	10375
916.932	10299
917.044	10310
917.156	10329
917.268	10204
917.38	10287
917.491	10253
917.603	10261
917.715	10352
917.826	10337
917.938	10257
918.049	10124
918.161	10242
918.272	10367
918.384	10360
918.495	10192
918.606	10166
918.717	10048
918.828	10109
918.939	10124
919.05	10116
919.161	10097
919.272	9911
919.383	9953
919.494	10188
919.604	10363
919.715	10082
919.826	10040
919.936	10074
920.047	10192
920.157	10139
920.267	10352
920.378	10192
920.488	10131
920.598	10268
920.708	10466
920.818	10344
920.928	10314
921.038	10451
921.148	10470
921.258	10242
921.368	10109
921.477	9979
921.587	10017
921.697	9945
921.806	10040
921.916	9903
922.025	9690
922.134	9690
922.244	9591
922.353	9759
922.462	9603
922.571	9553
922.68	9401
922.789	9344
922.898	9488
923.007	9336
923.116	9431
923.224	9386
923.333	9408
923.442	9291
923.55	9287
923.659	9283
923.767	9313
923.876	9214
923.984	9386
924.092	9272
924.201	9313
924.309	9230
924.417	9275
924.525	9146
924.633	9192
924.741	10093
924.849	9062
924.956	9150
925.064	9070
925.172	8994
925.279	9024
925.387	9085
925.494	9070
925.602	9138
925.709	9100
925.816	8998
925.924	9032
926.031	9135
926.138	9051
926.245	9093
926.352	8914
926.459	9119
926.566	9180
926.673	8937
926.779	8895
926.886	8842
926.993	8826
927.099	8815
927.206	8697
927.312	8743
927.419	8834
927.525	8819
927.631	8796
927.737	8712
927.843	8636
927.95	8583
928.056	8674
928.162	8682
928.267	8651
928.373	9310
928.479	8769
928.585	8590
928.69	8754
928.796	8682
928.901	8579
929.007	8434
929.112	8541
929.218	8556
929.323	8488
929.428	8450
929.533	8610
929.638	8393
929.743	8450
929.848	8545
929.953	8438
930.058	8400
930.163	8294
930.267	8275
930.372	8404
930.477	8176
930.581	8465
930.685	8309
930.79	8259
930.894	8240
930.998	8187
931.103	8374
931.207	8027
931.311	7947
931.415	7871
931.519	7685
931.623	7734
