Data from test_V78500241_2573.txt Node
Date: Fri Mar 25 14:51:37 CST 2022
User: usil
Spectrometer: V785-0024
Trigger mode: 0
Integration Time (sec): 4.000000E-1
Scans to average: 1
Nonlinearity correction enabled: false
Boxcar width: 0
Storing dark spectrum: false
XAxis mode: Wavelengths
Number of Pixels in Spectrum: 1024
>>>>>Begin Spectral Data<<<<<
801.071	21949
801.214	21930
801.356	21850
801.499	21538
801.641	21447
801.783	21496
801.926	21610
802.068	21389
802.211	21294
802.353	21233
802.496	21047
802.638	21009
802.78	20887
802.923	20815
803.065	20769
803.208	20682
803.35	20796
803.492	20914
803.635	20872
803.777	20579
803.919	20773
804.061	21024
804.204	20769
804.346	20606
804.488	20594
804.63	20762
804.773	20571
804.915	20640
805.057	20648
805.199	20648
805.341	20834
805.483	20739
805.626	20712
805.768	20590
805.91	20659
806.052	20625
806.194	20552
806.336	20804
806.478	20617
806.62	20663
806.762	20674
806.904	20876
807.046	21055
807.188	21009
807.33	21081
807.472	21028
807.614	20880
807.756	20891
807.898	20804
808.04	20667
808.182	20716
808.324	20769
808.465	20796
808.607	20910
808.749	21013
808.891	21123
809.033	21157
809.174	21077
809.316	20918
809.458	21066
809.6	21093
809.741	21093
809.883	21043
810.025	21150
810.166	21218
810.308	21138
810.45	20899
810.591	21032
810.733	20868
810.875	20705
811.016	20613
811.158	20667
811.299	20868
811.441	20823
811.582	20929
811.724	20693
811.865	20815
812.007	20765
812.148	20830
812.29	20853
812.431	20952
812.573	21207
812.714	21161
812.855	21116
812.997	21378
813.138	21523
813.279	21374
813.421	21374
813.562	21184
813.703	21043
813.845	20956
813.986	20541
814.127	20457
814.268	20351
814.41	20415
814.551	20309
814.692	20389
814.833	20271
814.974	20176
815.115	20294
815.256	20225
815.397	20320
815.539	20126
815.68	20081
815.821	19970
815.962	20031
816.103	20035
816.244	19852
816.385	19879
816.526	19830
816.666	19590
816.807	19400
816.948	19563
817.089	19487
817.23	19548
817.371	19472
817.512	19426
817.653	19396
817.793	19346
817.934	19445
818.075	19430
818.216	19556
818.356	19350
818.497	19324
818.638	19152
818.778	19168
818.919	19038
819.06	19152
819.2	19358
819.341	19304
819.481	19480
819.622	19537
819.762	19738
819.903	19590
820.043	19563
820.184	19510
820.324	19316
820.465	19388
820.605	19502
820.746	19419
820.886	19285
821.026	19453
821.167	19324
821.307	19491
821.447	19396
821.588	19289
821.728	19217
821.868	19099
822.008	18802
822.149	18939
822.289	18871
822.429	18593
822.569	18612
822.709	18551
822.849	18441
822.99	18357
823.13	18308
823.27	18281
823.41	18190
823.55	18026
823.69	18167
823.83	18072
823.97	18022
824.11	17870
824.25	17878
824.389	17920
824.529	18098
824.669	17927
824.809	17996
824.949	18019
825.089	17988
825.228	17973
825.368	17745
825.508	17718
825.648	17710
825.787	17802
825.927	17855
826.067	17687
826.206	17691
826.346	17657
826.485	17680
826.625	17680
826.765	17790
826.904	17783
827.044	17471
827.183	17467
827.323	17360
827.462	17421
827.601	17265
827.741	17345
827.88	17433
828.02	17246
828.159	17387
828.298	17493
828.437	17417
828.577	17326
828.716	17547
828.855	17368
828.994	17227
829.134	17060
829.273	17250
829.412	17105
829.551	17147
829.69	17033
829.829	17212
829.968	17239
830.107	17311
830.246	17178
830.385	17121
830.524	17102
830.663	17060
830.802	16816
830.941	16763
831.08	16755
831.219	16805
831.357	16683
831.496	16965
831.635	16763
831.774	16630
831.913	16668
832.051	16531
832.19	16538
832.329	16596
832.467	16497
832.606	16375
832.744	16421
832.883	16443
833.022	16470
833.16	16432
833.299	16508
833.437	16474
833.576	16497
833.714	16516
833.852	16542
833.991	16500
834.129	16592
834.267	16618
834.406	16497
834.544	16538
834.682	16527
834.821	16386
834.959	16538
835.097	16538
835.235	16577
835.373	16497
835.511	16512
835.65	16421
835.788	16371
835.926	16329
836.064	16284
836.202	16287
836.34	16470
836.478	16440
836.615	16432
836.753	16451
836.891	16428
837.029	16508
837.167	16386
837.305	16344
837.443	16379
837.58	16223
837.718	16417
837.856	16261
837.993	16230
838.131	16337
838.269	16215
838.406	16306
838.544	16200
838.681	16063
838.819	15960
838.956	15789
839.094	15888
839.231	15907
839.369	15964
839.506	16295
839.643	16135
839.781	15911
839.918	15766
840.055	15774
840.193	15895
840.33	15895
840.467	15778
840.604	15934
840.742	16162
840.879	15762
841.016	15762
841.153	15770
841.29	15918
841.427	15766
841.564	15888
841.701	15987
841.838	15739
841.975	15888
842.112	15781
842.249	15743
842.385	15610
842.522	15876
842.659	15557
842.796	15610
842.933	15728
843.069	15637
843.206	15603
843.343	15644
843.479	15595
843.616	15663
843.752	15370
843.889	15408
844.025	15603
844.162	15420
844.298	15523
844.435	15462
844.571	15370
844.708	15447
844.844	15599
844.98	15656
845.117	15549
845.253	15367
845.389	15252
845.525	15370
845.661	15348
845.798	15226
845.934	15329
846.07	15154
846.206	15268
846.342	15389
846.478	15199
846.614	14994
846.75	15017
846.886	14952
847.022	15032
847.158	15024
847.294	15051
847.429	15070
847.565	14994
847.701	15176
847.837	14819
847.972	14792
848.108	14819
848.244	14792
848.379	14689
848.515	14606
848.65	14644
848.786	14541
848.921	14511
849.057	14644
849.192	14617
849.328	14636
849.463	14598
849.598	14606
849.734	14503
849.869	14473
850.004	14389
850.14	14381
850.275	14377
850.41	14248
850.545	14275
850.68	14328
850.815	14347
850.95	14408
851.085	14511
851.22	14446
851.355	14381
851.49	14351
851.625	14282
851.76	14259
851.895	14176
852.03	14278
852.165	14362
852.299	14301
852.434	14469
852.569	14400
852.703	14351
852.838	14419
852.973	14473
853.107	14450
853.242	14332
853.376	14256
853.511	14062
853.645	14210
853.78	14347
853.914	14187
854.048	14176
854.183	14138
854.317	14343
854.451	14415
854.585	14309
854.72	14191
854.854	14309
854.988	14145
855.122	14263
855.256	14164
855.39	14168
855.524	14320
855.658	14324
855.792	14290
855.926	14263
856.06	14298
856.194	14301
856.327	14180
856.461	14126
856.595	14145
856.729	14225
856.862	14301
856.996	14240
857.13	14404
857.263	14404
857.397	14415
857.53	14240
857.664	14339
857.797	14332
857.931	14431
858.064	14233
858.197	14343
858.331	14202
858.464	14176
858.597	14153
858.731	14183
858.864	14298
858.997	14138
859.13	14282
859.263	14320
859.396	14374
859.529	14199
859.662	14183
859.795	14168
859.928	14324
860.061	14351
860.194	14389
860.327	14275
860.46	14123
860.592	14434
860.725	14358
860.858	14351
860.99	14237
861.123	14271
861.256	14164
861.388	14237
861.521	14765
861.653	14142
861.786	14046
861.918	14088
862.05	14142
862.183	14183
862.315	14195
862.447	14278
862.58	14199
862.712	14016
862.844	14008
862.976	14107
863.108	14039
863.24	14495
863.372	13951
863.504	14077
863.636	14096
863.768	14069
863.9	14119
864.032	13951
864.164	13963
864.296	14100
864.428	14149
864.559	14138
864.691	14081
864.823	14054
864.954	14005
865.086	14046
865.217	13989
865.349	13955
865.48	13925
865.612	14142
865.743	14130
865.875	14027
866.006	13951
866.137	14031
866.269	13989
866.4	13883
866.531	13982
866.662	13852
866.793	13921
866.924	13925
867.055	13955
867.186	13997
867.317	13944
867.448	13947
867.579	13932
867.71	13871
867.841	13951
867.972	13936
868.103	14123
868.233	14065
868.364	14020
868.495	14050
868.625	14164
868.756	14305
868.886	14103
869.017	14130
869.147	14419
869.278	14355
869.408	14339
869.539	14286
869.669	14355
869.799	14309
869.929	14339
870.06	14355
870.19	14602
870.32	14571
870.45	14598
870.58	14648
870.71	14804
870.84	14830
870.97	14663
871.1	14590
871.23	14773
871.36	14788
871.489	14739
871.619	14769
871.749	14887
871.879	14902
872.008	14990
872.138	14876
872.267	14807
872.397	14731
872.526	14697
872.656	14697
872.785	14712
872.915	14921
873.044	14944
873.173	14906
873.303	14899
873.432	14921
873.561	14990
873.69	14868
873.819	14910
873.948	14918
874.077	14868
874.206	14861
874.335	14902
874.464	15066
874.593	15169
874.722	15089
874.851	15260
874.979	15192
875.108	15317
875.237	15100
875.365	15176
875.494	15131
875.623	15325
875.751	15241
875.88	15222
876.008	15439
876.136	15439
876.265	15625
876.393	15823
876.521	15652
876.65	15698
876.778	15614
876.906	15534
877.034	15622
877.162	15625
877.29	15519
877.418	15564
877.546	15641
877.674	15606
877.802	15614
877.93	15736
878.058	15663
878.185	15526
878.313	15572
878.441	15648
878.568	15477
878.696	15625
878.824	15572
878.951	15797
879.079	15876
879.206	15884
879.333	15903
879.461	15789
879.588	15667
879.715	15930
879.842	15869
879.97	15785
880.097	15511
880.224	15424
880.351	15488
880.478	15568
880.605	15519
880.732	15477
880.859	15682
880.986	15507
881.112	15416
881.239	15386
881.366	15294
881.493	15230
881.619	15131
881.746	15207
881.872	15074
881.999	15188
882.125	15169
882.252	15142
882.378	15237
882.505	15298
882.631	15123
882.757	14933
882.883	15127
883.01	14982
883.136	14941
883.262	14883
883.388	14861
883.514	14986
883.64	15058
883.766	14994
883.892	14826
884.018	14830
884.143	15020
884.269	15077
884.395	14750
884.52	14606
884.646	14640
884.772	14621
884.897	14590
885.023	14769
885.148	14876
885.274	14864
885.399	14796
885.524	14568
885.65	14705
885.775	14811
885.9	14659
886.025	14811
886.15	14617
886.275	14682
886.4	14598
886.525	14655
886.65	14537
886.775	14754
886.9	14724
887.025	14902
887.149	14792
887.274	14545
887.399	14518
887.523	14533
887.648	14541
887.773	14419
887.897	14678
888.021	14621
888.146	14469
888.27	14613
888.395	14686
888.519	14587
888.643	14663
888.767	14602
888.891	14442
889.015	14374
889.139	14377
889.263	14317
889.387	14423
889.511	14541
889.635	14514
889.759	14473
889.883	14343
890.006	14377
890.13	14602
890.254	14370
890.377	14400
890.501	14237
890.624	14153
890.748	14256
890.871	14145
890.995	14039
891.118	13959
891.241	14046
891.364	14107
891.488	14149
891.611	14096
891.734	14035
891.857	14084
891.98	14187
892.103	14161
892.226	14077
892.349	14073
892.471	13974
892.594	14081
892.717	14115
892.839	13997
892.962	14119
893.085	14191
893.207	14081
893.33	14001
893.452	13963
893.575	14149
893.697	14001
893.819	14282
893.941	14275
894.064	14252
894.186	14088
894.308	14100
894.43	14256
894.552	14347
894.674	14256
894.796	14130
894.918	14161
895.04	14164
895.161	14278
895.283	14187
895.405	14157
895.526	14168
895.648	14164
895.769	14183
895.891	14096
896.012	14225
896.134	14351
896.255	14317
896.376	14256
896.498	14233
896.619	14400
896.74	14221
896.861	14320
896.982	14541
897.103	14693
897.224	14579
897.345	14602
897.466	14499
897.587	14495
897.708	14602
897.828	14511
897.949	14514
898.07	14366
898.19	14465
898.311	14697
898.431	14511
898.552	14556
898.672	14545
898.792	14613
898.913	14712
899.033	14571
899.153	14427
899.273	14343
899.393	14370
899.513	14457
899.633	14469
899.753	14526
899.873	14419
899.993	14507
900.113	14427
900.232	14560
900.352	14374
900.472	14351
900.591	14317
900.711	14431
900.83	14290
900.95	14351
901.069	14469
901.189	14278
901.308	14077
901.427	13963
901.546	14001
901.665	14043
901.784	14016
901.904	13913
902.023	13757
902.141	13540
902.26	13636
902.379	13605
902.498	13658
902.617	13476
902.735	13552
902.854	13628
902.973	13491
903.091	13278
903.21	13289
903.328	13312
903.446	13183
903.565	13099
903.683	13164
903.801	13038
903.919	13160
904.038	13168
904.156	12954
904.274	13053
904.392	12981
904.51	12973
904.627	12924
904.745	13027
904.863	12962
904.981	12764
905.098	12563
905.216	12722
905.334	12726
905.451	12688
905.569	12597
905.686	12707
905.803	12604
905.921	12502
906.038	12582
906.155	12525
906.272	12429
906.389	12433
906.506	12239
906.623	12209
906.74	12277
906.857	12133
906.974	12155
907.091	12300
907.208	12384
907.324	12308
907.441	12205
907.557	11999
907.674	11992
907.79	11904
907.907	12026
908.023	12045
908.139	11996
908.256	11992
908.372	11874
908.488	11893
908.604	11760
908.72	11741
908.836	11733
908.952	11764
909.068	11790
909.184	11870
909.3	11733
909.415	11779
909.531	11783
909.647	11608
909.762	11551
909.878	11505
909.993	11547
910.108	11425
910.224	11478
910.339	11505
910.454	11452
910.57	11334
910.685	11337
910.8	11558
910.915	11452
911.03	11493
911.145	11269
911.259	11273
911.374	11239
911.489	11136
911.604	11178
911.718	11033
911.833	11006
911.947	10957
912.062	10877
912.176	10927
912.291	10972
912.405	11041
912.519	11124
912.633	11330
912.748	11025
912.862	10938
912.976	10877
913.09	10793
913.204	10793
913.318	10839
913.431	10915
913.545	10980
913.659	11022
913.772	11025
913.886	10740
914	10668
914.113	10824
914.226	10847
914.34	10854
914.453	10664
914.566	10805
914.68	10656
914.793	10702
914.906	10558
915.019	10481
915.132	10436
915.245	10500
915.358	10527
915.47	10565
915.583	10508
915.696	10500
915.809	10702
915.921	10664
916.034	10493
916.146	10417
916.259	10432
916.371	10512
916.483	10649
916.595	10413
916.708	10341
916.82	10455
916.932	10424
917.044	10432
917.156	10341
917.268	10333
917.38	10314
917.491	10284
917.603	10386
917.715	10462
917.826	10402
917.938	10333
918.049	10211
918.161	10341
918.272	10432
918.384	10462
918.495	10333
918.606	10192
918.717	10124
918.828	10192
918.939	10204
919.05	10181
919.161	10207
919.272	9994
919.383	10097
919.494	10306
919.604	10363
919.715	10261
919.826	10162
919.936	10101
920.047	10268
920.157	10181
920.267	10432
920.378	10219
920.488	10227
920.598	10367
920.708	10497
920.818	10478
920.928	10428
921.038	10493
921.148	10508
921.258	10234
921.368	10074
921.477	10021
921.587	10120
921.697	9994
921.806	10120
921.916	9968
922.025	9895
922.134	9774
922.244	9766
922.353	9823
922.462	9686
922.571	9648
922.68	9481
922.789	9462
922.898	9462
923.007	9317
923.116	9542
923.224	9420
923.333	9431
923.442	9374
923.55	9367
923.659	9359
923.767	9439
923.876	9298
923.984	9374
924.092	9253
924.201	9321
924.309	9359
924.417	9405
924.525	9272
924.633	9272
924.741	10036
924.849	9089
924.956	9264
925.064	9112
925.172	8975
925.279	9020
925.387	9207
925.494	9127
925.602	9245
925.709	9203
925.816	9070
925.924	9047
926.031	9230
926.138	9074
926.245	9165
926.352	9077
926.459	9150
926.566	9344
926.673	9005
926.779	9001
926.886	8952
926.993	8880
927.099	8792
927.206	8785
927.312	8845
927.419	8906
927.525	8876
927.631	8857
927.737	8750
927.843	8785
927.95	8617
928.056	8708
928.162	8746
928.267	8800
928.373	9389
928.479	8876
928.585	8564
928.69	8670
928.796	8750
928.901	8651
929.007	8522
929.112	8720
929.218	8636
929.323	8564
929.428	8560
929.533	8724
929.638	8503
929.743	8556
929.848	8556
929.953	8499
930.058	8438
930.163	8267
930.267	8320
930.372	8389
930.477	8317
930.581	8583
930.685	8415
930.79	8286
930.894	8286
930.998	8240
931.103	8366
931.207	8035
931.311	7989
931.415	7921
931.519	7750
931.623	7750
