Data from test_V78500241_2347.txt Node
Date: Fri Mar 25 14:50:03 CST 2022
User: usil
Spectrometer: V785-0024
Trigger mode: 0
Integration Time (sec): 4.000000E-1
Scans to average: 1
Nonlinearity correction enabled: false
Boxcar width: 0
Storing dark spectrum: false
XAxis mode: Wavelengths
Number of Pixels in Spectrum: 1024
>>>>>Begin Spectral Data<<<<<
801.071	22173
801.214	22074
801.356	21816
801.499	21686
801.641	21583
801.783	21530
801.926	21644
802.068	21469
802.211	21329
802.353	21355
802.496	21047
802.638	20994
802.78	20918
802.923	20941
803.065	20701
803.208	20830
803.35	20933
803.492	21058
803.635	21112
803.777	20811
803.919	20967
804.061	21169
804.204	20975
804.346	20788
804.488	20705
804.63	20830
804.773	20731
804.915	20705
805.057	20842
805.199	20705
805.341	20845
805.483	20883
805.626	20849
805.768	20777
805.91	20826
806.052	20758
806.194	20571
806.336	20857
806.478	20796
806.62	20731
806.762	20895
806.904	20910
807.046	21211
807.188	21119
807.33	21112
807.472	21138
807.614	20906
807.756	20956
807.898	20902
808.04	20758
808.182	20823
808.324	20845
808.465	20853
808.607	21131
808.749	21093
808.891	21287
809.033	21313
809.174	21207
809.316	21051
809.458	21211
809.6	21150
809.741	21230
809.883	21283
810.025	21294
810.166	21367
810.308	21264
810.45	21283
810.591	21203
810.733	21096
810.875	20990
811.016	20880
811.158	20872
811.299	20971
811.441	21157
811.582	21032
811.724	20811
811.865	20921
812.007	20876
812.148	20941
812.29	20925
812.431	21180
812.573	21169
812.714	21298
812.855	21294
812.997	21538
813.138	21694
813.279	21511
813.421	21462
813.562	21283
813.703	21264
813.845	21017
813.986	20731
814.127	20533
814.268	20526
814.41	20541
814.551	20393
814.692	20423
814.833	20431
814.974	20408
815.115	20495
815.256	20233
815.397	20248
815.539	20366
815.68	20229
815.821	20164
815.962	20176
816.103	20153
816.244	20005
816.385	19928
816.526	19959
816.666	19670
816.807	19544
816.948	19674
817.089	19814
817.23	19693
817.371	19662
817.512	19715
817.653	19670
817.793	19521
817.934	19578
818.075	19628
818.216	19643
818.356	19537
818.497	19415
818.638	19278
818.778	19304
818.919	19320
819.06	19293
819.2	19422
819.341	19506
819.481	19518
819.622	19578
819.762	19811
819.903	19784
820.043	19578
820.184	19655
820.324	19609
820.465	19712
820.605	19609
820.746	19613
820.886	19350
821.026	19586
821.167	19594
821.307	19601
821.447	19525
821.588	19422
821.728	19266
821.868	19187
822.008	18932
822.149	19031
822.289	19019
822.429	18658
822.569	18631
822.709	18779
822.849	18467
822.99	18525
823.13	18338
823.27	18410
823.41	18372
823.55	18171
823.69	18266
823.83	18361
823.97	18273
824.11	18087
824.25	17980
824.389	18053
824.529	18060
824.669	18110
824.809	18136
824.949	18220
825.089	18205
825.228	17999
825.368	17756
825.508	17866
825.648	17885
825.787	17824
825.927	17920
826.067	17665
826.206	17691
826.346	17832
826.485	17889
826.625	17748
826.765	17958
826.904	17882
827.044	17695
827.183	17524
827.323	17474
827.462	17539
827.601	17585
827.741	17551
827.88	17611
828.02	17512
828.159	17566
828.298	17505
828.437	17585
828.577	17482
828.716	17551
828.855	17528
828.994	17296
829.134	17303
829.273	17269
829.412	17231
829.551	17159
829.69	17147
829.829	17204
829.968	17436
830.107	17330
830.246	17307
830.385	17200
830.524	17220
830.663	17105
830.802	16961
830.941	16896
831.08	16847
831.219	16927
831.357	16847
831.496	16965
831.635	16854
831.774	16713
831.913	16752
832.051	16611
832.19	16683
832.329	16607
832.467	16668
832.606	16462
832.744	16550
832.883	16489
833.022	16493
833.16	16519
833.299	16702
833.437	16603
833.576	16546
833.714	16561
833.852	16569
833.991	16725
834.129	16664
834.267	16569
834.406	16622
834.544	16603
834.682	16698
834.821	16599
834.959	16767
835.097	16550
835.235	16588
835.373	16603
835.511	16653
835.65	16512
835.788	16489
835.926	16386
836.064	16325
836.202	16337
836.34	16451
836.478	16402
836.615	16481
836.753	16577
836.891	16607
837.029	16519
837.167	16451
837.305	16497
837.443	16363
837.58	16405
837.718	16295
837.856	16417
837.993	16299
838.131	16405
838.269	16223
838.406	16382
838.544	16249
838.681	16071
838.819	16021
838.956	15937
839.094	15972
839.231	15888
839.369	16036
839.506	16253
839.643	16169
839.781	15972
839.918	15964
840.055	15937
840.193	15930
840.33	15846
840.467	15869
840.604	15903
840.742	16188
840.879	15728
841.016	15850
841.153	15743
841.29	15972
841.427	15838
841.564	15983
841.701	15953
841.838	15789
841.975	15835
842.112	15812
842.249	15641
842.385	15690
842.522	15861
842.659	15698
842.796	15698
842.933	15694
843.069	15618
843.206	15538
843.343	15739
843.479	15698
843.616	15675
843.752	15412
843.889	15542
844.025	15542
844.162	15431
844.298	15450
844.435	15424
844.571	15382
844.708	15439
844.844	15622
844.98	15599
845.117	15606
845.253	15405
845.389	15302
845.525	15416
845.661	15416
845.798	15275
845.934	15332
846.07	15249
846.206	15378
846.342	15408
846.478	15355
846.614	15062
846.75	14982
846.886	15043
847.022	15142
847.158	15009
847.294	15077
847.429	15100
847.565	15112
847.701	15287
847.837	14777
847.972	14796
848.108	14868
848.244	14952
848.379	14781
848.515	14613
848.65	14659
848.786	14651
848.921	14610
849.057	14701
849.192	14823
849.328	14621
849.463	14670
849.598	14560
849.734	14575
849.869	14602
850.004	14404
850.14	14442
850.275	14419
850.41	14248
850.545	14434
850.68	14374
850.815	14385
850.95	14465
851.085	14503
851.22	14412
851.355	14370
851.49	14415
851.625	14381
851.76	14313
851.895	14263
852.03	14240
852.165	14320
852.299	14492
852.434	14446
852.569	14431
852.703	14415
852.838	14465
852.973	14492
853.107	14533
853.242	14370
853.376	14301
853.511	14206
853.645	14263
853.78	14328
853.914	14256
854.048	14240
854.183	14267
854.317	14313
854.451	14393
854.585	14168
854.72	14218
854.854	14233
854.988	14218
855.122	14229
855.256	14153
855.39	14301
855.524	14244
855.658	14385
855.792	14358
855.926	14358
856.06	14347
856.194	14450
856.327	14282
856.461	14237
856.595	14263
856.729	14271
856.862	14362
856.996	14301
857.13	14294
857.263	14366
857.397	14408
857.53	14298
857.664	14336
857.797	14339
857.931	14305
858.064	14343
858.197	14404
858.331	14248
858.464	14225
858.597	14176
858.731	14229
858.864	14183
858.997	14275
859.13	14248
859.263	14355
859.396	14339
859.529	14317
859.662	14172
859.795	14320
859.928	14309
860.061	14503
860.194	14480
860.327	14389
860.46	14164
860.592	14355
860.725	14476
860.858	14377
860.99	14317
861.123	14172
861.256	14225
861.388	14244
861.521	14739
861.653	14157
861.786	14043
861.918	14138
862.05	14244
862.183	14084
862.315	14267
862.447	14328
862.58	14176
862.712	13982
862.844	13928
862.976	14100
863.108	14092
863.24	14446
863.372	13978
863.504	14065
863.636	14062
863.768	14138
863.9	14077
864.032	13993
864.164	13997
864.296	14024
864.428	14176
864.559	14161
864.691	14153
864.823	14134
864.954	14084
865.086	14115
865.217	14012
865.349	14058
865.48	13982
865.612	14088
865.743	14187
865.875	14069
866.006	13993
866.137	14001
866.269	13989
866.4	14046
866.531	14008
866.662	13875
866.793	14065
866.924	13944
867.055	14050
867.186	14008
867.317	13944
867.448	13925
867.579	13978
867.71	13913
867.841	13963
867.972	14115
868.103	14081
868.233	14039
868.364	13925
868.495	14107
868.625	14286
868.756	14355
868.886	14183
869.017	14290
869.147	14313
869.278	14313
869.408	14305
869.539	14343
869.669	14286
869.799	14278
869.929	14450
870.06	14476
870.19	14560
870.32	14625
870.45	14655
870.58	14727
870.71	14781
870.84	14819
870.97	14613
871.1	14735
871.23	14823
871.36	14864
871.489	14811
871.619	14853
871.749	14834
871.879	15001
872.008	14956
872.138	14944
872.267	14811
872.397	14849
872.526	14667
872.656	14731
872.785	14765
872.915	14895
873.044	15043
873.173	14864
873.303	14883
873.432	14948
873.561	14971
873.69	14925
873.819	14941
873.948	14948
874.077	14899
874.206	14857
874.335	14826
874.464	15047
874.593	15226
874.722	15146
874.851	15230
874.979	15237
875.108	15306
875.237	15218
875.365	15184
875.494	15173
875.623	15317
875.751	15230
875.88	15348
876.008	15317
876.136	15492
876.265	15644
876.393	15789
876.521	15705
876.65	15705
876.778	15679
876.906	15690
877.034	15507
877.162	15637
877.29	15564
877.418	15545
877.546	15591
877.674	15553
877.802	15679
877.93	15667
878.058	15667
878.185	15595
878.313	15549
878.441	15622
878.568	15568
878.696	15622
878.824	15587
878.951	15747
879.079	15854
879.206	15945
879.333	15884
879.461	15774
879.588	15857
879.715	15915
879.842	15907
879.97	15698
880.097	15545
880.224	15511
880.351	15519
880.478	15576
880.605	15466
880.732	15523
880.859	15701
880.986	15519
881.112	15523
881.239	15412
881.366	15306
881.493	15214
881.619	15131
881.746	15161
881.872	15157
881.999	15112
882.125	15058
882.252	15192
882.378	15119
882.505	15313
882.631	15150
882.757	15028
882.883	15036
883.01	14967
883.136	14891
883.262	14826
883.388	14864
883.514	15009
883.64	14975
883.766	14975
883.892	14861
884.018	14849
884.143	14948
884.269	15009
884.395	14674
884.52	14670
884.646	14739
884.772	14689
884.897	14476
885.023	14655
885.148	14762
885.274	14811
885.399	14743
885.524	14708
885.65	14602
885.775	14708
885.9	14750
886.025	14792
886.15	14883
886.275	14644
886.4	14568
886.525	14629
886.65	14644
886.775	14575
886.9	14773
887.025	14830
887.149	14731
887.274	14537
887.399	14434
887.523	14499
887.648	14461
887.773	14377
887.897	14556
888.021	14667
888.146	14507
888.27	14625
888.395	14606
888.519	14552
888.643	14678
888.767	14560
888.891	14507
889.015	14377
889.139	14423
889.263	14381
889.387	14545
889.511	14629
889.635	14575
889.759	14381
889.883	14419
890.006	14385
890.13	14507
890.254	14225
890.377	14263
890.501	14103
890.624	14206
890.748	14324
890.871	14130
890.995	14005
891.118	14065
891.241	14119
891.364	14168
891.488	14252
891.611	14096
891.734	14077
891.857	14138
891.98	14119
892.103	14202
892.226	14096
892.349	14005
892.471	13970
892.594	13944
892.717	14058
892.839	14145
892.962	14130
893.085	14214
893.207	14069
893.33	13970
893.452	14077
893.575	14027
893.697	14039
893.819	14240
893.941	14313
894.064	14240
894.186	14039
894.308	13970
894.43	14225
894.552	14320
894.674	14157
894.796	14115
894.918	14130
895.04	14187
895.161	14343
895.283	14218
895.405	14134
895.526	14229
895.648	14164
895.769	14157
895.891	14164
896.012	14278
896.134	14267
896.255	14256
896.376	14221
896.498	14199
896.619	14332
896.74	14210
896.861	14294
896.982	14549
897.103	14826
897.224	14590
897.345	14522
897.466	14412
897.587	14549
897.708	14621
897.828	14613
897.949	14427
898.07	14438
898.19	14568
898.311	14640
898.431	14541
898.552	14602
898.672	14708
898.792	14648
898.913	14598
899.033	14530
899.153	14568
899.273	14389
899.393	14377
899.513	14476
899.633	14495
899.753	14564
899.873	14473
899.993	14514
900.113	14431
900.232	14503
900.352	14484
900.472	14305
900.591	14210
900.711	14366
900.83	14294
900.95	14415
901.069	14366
901.189	14259
901.308	14020
901.427	13944
901.546	14046
901.665	14005
901.784	14069
901.904	13936
902.023	13769
902.141	13563
902.26	13689
902.379	13575
902.498	13582
902.617	13567
902.735	13636
902.854	13563
902.973	13464
903.091	13297
903.21	13343
903.328	13251
903.446	13141
903.565	13164
903.683	13168
903.801	13091
903.919	13141
904.038	13034
904.156	12973
904.274	13038
904.392	12848
904.51	12932
904.627	12966
904.745	13069
904.863	13065
904.981	12806
905.098	12639
905.216	12658
905.334	12681
905.451	12738
905.569	12608
905.686	12711
905.803	12700
905.921	12525
906.038	12623
906.155	12521
906.272	12426
906.389	12350
906.506	12292
906.623	12338
906.74	12224
906.857	12133
906.974	12144
907.091	12300
907.208	12311
907.324	12300
907.441	12114
907.557	12022
907.674	12030
907.79	11958
907.907	11939
908.023	12026
908.139	11946
908.256	11950
908.372	11996
908.488	11912
908.604	11764
908.72	11779
908.836	11821
908.952	11729
909.068	11688
909.184	11802
909.3	11729
909.415	11661
909.531	11863
909.647	11528
909.762	11554
909.878	11505
909.993	11551
910.108	11562
910.224	11406
910.339	11528
910.454	11421
910.57	11337
910.685	11273
910.8	11524
910.915	11455
911.03	11440
911.145	11239
911.259	11223
911.374	11155
911.489	11094
911.604	11136
911.718	11010
911.833	10942
911.947	10831
912.062	10793
912.176	11045
912.291	10961
912.405	10961
912.519	11166
912.633	11181
912.748	11113
912.862	10987
912.976	10900
913.09	10744
913.204	10820
913.318	10873
913.431	10942
913.545	10904
913.659	11052
913.772	10771
913.886	10740
914	10721
914.113	10866
914.226	10771
914.34	10774
914.453	10626
914.566	10774
914.68	10721
914.793	10649
914.906	10466
915.019	10436
915.132	10470
915.245	10440
915.358	10497
915.47	10470
915.583	10554
915.696	10512
915.809	10656
915.921	10531
916.034	10451
916.146	10459
916.259	10318
916.371	10451
916.483	10497
916.595	10386
916.708	10421
916.82	10432
916.932	10363
917.044	10379
917.156	10379
917.268	10257
917.38	10318
917.491	10303
917.603	10356
917.715	10333
917.826	10333
917.938	10238
918.049	10295
918.161	10333
918.272	10421
918.384	10508
918.495	10352
918.606	10185
918.717	10067
918.828	10211
918.939	10249
919.05	10124
919.161	10131
919.272	9979
919.383	10078
919.494	10276
919.604	10443
919.715	10219
919.826	10147
919.936	10112
920.047	10329
920.157	10207
920.267	10363
920.378	10185
920.488	10215
920.598	10409
920.708	10481
920.818	10341
920.928	10363
921.038	10523
921.148	10497
921.258	10295
921.368	10211
921.477	10074
921.587	10017
921.697	9903
921.806	10040
921.916	9907
922.025	9884
922.134	9770
922.244	9747
922.353	9808
922.462	9698
922.571	9622
922.68	9481
922.789	9458
922.898	9492
923.007	9313
923.116	9473
923.224	9477
923.333	9519
923.442	9321
923.55	9245
923.659	9382
923.767	9420
923.876	9336
923.984	9424
924.092	9287
924.201	9298
924.309	9313
924.417	9317
924.525	9260
924.633	9367
924.741	10032
924.849	9081
924.956	9275
925.064	9131
925.172	8975
925.279	9161
925.387	9070
925.494	9119
925.602	9192
925.709	9218
925.816	9070
925.924	9093
926.031	9150
926.138	9104
926.245	9138
926.352	9001
926.459	9199
926.566	9165
926.673	9127
926.779	9013
926.886	8994
926.993	8861
927.099	8792
927.206	8724
927.312	8819
927.419	8804
927.525	8823
927.631	8849
927.737	8754
927.843	8708
927.95	8655
928.056	8731
928.162	8807
928.267	8777
928.373	9279
928.479	8853
928.585	8594
928.69	8682
928.796	8724
928.901	8648
929.007	8499
929.112	8640
929.218	8606
929.323	8590
929.428	8602
929.533	8667
929.638	8469
929.743	8541
929.848	8606
929.953	8552
930.058	8442
930.163	8282
930.267	8279
930.372	8484
930.477	8279
930.581	8442
930.685	8347
930.79	8271
930.894	8313
930.998	8252
931.103	8374
931.207	8050
931.311	7978
931.415	7936
931.519	7769
931.623	7780
