Data from test_V78500241_1259.txt Node
Date: Fri Mar 25 14:42:28 CST 2022
User: usil
Spectrometer: V785-0024
Trigger mode: 0
Integration Time (sec): 4.000000E-1
Scans to average: 1
Nonlinearity correction enabled: false
Boxcar width: 0
Storing dark spectrum: false
XAxis mode: Wavelengths
Number of Pixels in Spectrum: 1024
>>>>>Begin Spectral Data<<<<<
801.071	22329
801.214	22287
801.356	21998
801.499	21865
801.641	21694
801.783	21762
801.926	21797
802.068	21762
802.211	21538
802.353	21542
802.496	21374
802.638	21188
802.78	21222
802.923	21207
803.065	21081
803.208	21093
803.35	21066
803.492	21150
803.635	21207
803.777	21089
803.919	21074
804.061	21374
804.204	21142
804.346	21005
804.488	20876
804.63	21017
804.773	21043
804.915	21017
805.057	21089
805.199	21058
805.341	21074
805.483	21070
805.626	21161
805.768	20994
805.91	20914
806.052	21005
806.194	20891
806.336	21150
806.478	20929
806.62	20967
806.762	21028
806.904	21176
807.046	21538
807.188	21397
807.33	21378
807.472	21401
807.614	21214
807.756	21351
807.898	21123
808.04	21165
808.182	21154
808.324	21131
808.465	21138
808.607	21298
808.749	21595
808.891	21538
809.033	21599
809.174	21660
809.316	21481
809.458	21496
809.6	21412
809.741	21431
809.883	21545
810.025	21587
810.166	21458
810.308	21652
810.45	21553
810.591	21553
810.733	21317
810.875	21176
811.016	21074
811.158	21093
811.299	21233
811.441	21226
811.582	21279
811.724	21214
811.865	21157
812.007	21005
812.148	21173
812.29	21218
812.431	21336
812.573	21504
812.714	21595
812.855	21603
812.997	21743
813.138	21983
813.279	21785
813.421	21781
813.562	21553
813.703	21363
813.845	21260
813.986	21112
814.127	20929
814.268	20769
814.41	20826
814.551	20746
814.692	20765
814.833	20712
814.974	20587
815.115	20708
815.256	20537
815.397	20484
815.539	20602
815.68	20446
815.821	20434
815.962	20457
816.103	20355
816.244	20225
816.385	20309
816.526	20134
816.666	19852
816.807	19917
816.948	20043
817.089	20111
817.23	19963
817.371	19982
817.512	19894
817.653	19807
817.793	19871
817.934	19868
818.075	20020
818.216	19940
818.356	19677
818.497	19674
818.638	19609
818.778	19571
818.919	19537
819.06	19689
819.2	19658
819.341	19734
819.481	19708
819.622	19925
819.762	20043
819.903	20088
820.043	19989
820.184	19909
820.324	19871
820.465	19974
820.605	19879
820.746	19898
820.886	19757
821.026	19746
821.167	19822
821.307	19986
821.447	19841
821.588	19765
821.728	19632
821.868	19400
822.008	19240
822.149	19209
822.289	19183
822.429	19046
822.569	18947
822.709	18916
822.849	18916
822.99	18783
823.13	18688
823.27	18760
823.41	18521
823.55	18551
823.69	18509
823.83	18532
823.97	18460
824.11	18380
824.25	18308
824.389	18270
824.529	18448
824.669	18285
824.809	18585
824.949	18525
825.089	18395
825.228	18429
825.368	18155
825.508	18216
825.648	18125
825.787	18186
825.927	18140
826.067	18083
826.206	18076
826.346	18171
826.485	18186
826.625	18076
826.765	18277
826.904	18106
827.044	17923
827.183	17961
827.323	17889
827.462	17942
827.601	17843
827.741	17760
827.88	17786
828.02	17775
828.159	17775
828.298	17783
828.437	17980
828.577	17923
828.716	17942
828.855	17802
828.994	17589
829.134	17619
829.273	17608
829.412	17539
829.551	17562
829.69	17512
829.829	17596
829.968	17748
830.107	17623
830.246	17554
830.385	17440
830.524	17547
830.663	17440
830.802	17341
830.941	17280
831.08	17265
831.219	17299
831.357	17303
831.496	17471
831.635	17204
831.774	17143
831.913	17025
832.051	16961
832.19	16980
832.329	17029
832.467	16877
832.606	16919
832.744	16774
832.883	16892
833.022	16987
833.16	16919
833.299	16976
833.437	16942
833.576	16965
833.714	16953
833.852	17075
833.991	17083
834.129	17094
834.267	16995
834.406	16927
834.544	16900
834.682	16930
834.821	16938
834.959	17143
835.097	16923
835.235	17048
835.373	17029
835.511	16987
835.65	16820
835.788	16938
835.926	16691
836.064	16679
836.202	16736
836.34	16911
836.478	16946
836.615	16938
836.753	16881
836.891	16934
837.029	16866
837.167	16812
837.305	16862
837.443	16755
837.58	16698
837.718	16801
837.856	16801
837.993	16710
838.131	16634
838.269	16664
838.406	16675
838.544	16691
838.681	16516
838.819	16443
838.956	16257
839.094	16215
839.231	16379
839.369	16474
839.506	16725
839.643	16508
839.781	16204
839.918	16223
840.055	16337
840.193	16322
840.33	16230
840.467	16299
840.604	16390
840.742	16588
840.879	16109
841.016	16215
841.153	16154
841.29	16363
841.427	16329
841.564	16394
841.701	16337
841.838	16192
841.975	16150
842.112	16173
842.249	16101
842.385	16059
842.522	16246
842.659	16071
842.796	16025
842.933	16029
843.069	16067
843.206	15979
843.343	16139
843.479	16013
843.616	16154
843.752	15911
843.889	15884
844.025	15983
844.162	15850
844.298	15991
844.435	15979
844.571	15926
844.708	15994
844.844	15949
844.98	15945
845.117	16025
845.253	15831
845.389	15743
845.525	15785
845.661	15846
845.798	15709
845.934	15800
846.07	15770
846.206	15835
846.342	15819
846.478	15720
846.614	15504
846.75	15370
846.886	15374
847.022	15549
847.158	15435
847.294	15439
847.429	15576
847.565	15424
847.701	15671
847.837	15207
847.972	15135
848.108	15237
848.244	15218
848.379	15097
848.515	15005
848.65	14941
848.786	14986
848.921	15108
849.057	15119
849.192	15138
849.328	15119
849.463	15039
849.598	14948
849.734	14979
849.869	14849
850.004	14849
850.14	14823
850.275	14785
850.41	14807
850.545	14758
850.68	14686
850.815	14785
850.95	14705
851.085	14998
851.22	14830
851.355	14800
851.49	14731
851.625	14716
851.76	14708
851.895	14705
852.03	14693
852.165	14712
852.299	14883
852.434	14853
852.569	14842
852.703	14823
852.838	14872
852.973	14941
853.107	14982
853.242	14716
853.376	14640
853.511	14587
853.645	14613
853.78	14769
853.914	14663
854.048	14648
854.183	14667
854.317	14743
854.451	14826
854.585	14651
854.72	14590
854.854	14758
854.988	14663
855.122	14617
855.256	14522
855.39	14621
855.524	14678
855.658	14648
855.792	14564
855.926	14743
856.06	14663
856.194	14705
856.327	14617
856.461	14617
856.595	14610
856.729	14678
856.862	14769
856.996	14735
857.13	14629
857.263	14743
857.397	14758
857.53	14648
857.664	14705
857.797	14758
857.931	14788
858.064	14727
858.197	14727
858.331	14701
858.464	14629
858.597	14549
858.731	14667
858.864	14651
858.997	14670
859.13	14697
859.263	14689
859.396	14777
859.529	14594
859.662	14621
859.795	14583
859.928	14670
860.061	14727
860.194	14868
860.327	14746
860.46	14537
860.592	14743
860.725	14739
860.858	14773
860.99	14667
861.123	14587
861.256	14617
861.388	14712
861.521	15302
861.653	14598
861.786	14514
861.918	14579
862.05	14632
862.183	14564
862.315	14625
862.447	14655
862.58	14533
862.712	14454
862.844	14434
862.976	14438
863.108	14518
863.24	14906
863.372	14343
863.504	14480
863.636	14324
863.768	14469
863.9	14381
864.032	14351
864.164	14480
864.296	14415
864.428	14560
864.559	14419
864.691	14488
864.823	14446
864.954	14537
865.086	14415
865.217	14355
865.349	14290
865.48	14366
865.612	14465
865.743	14522
865.875	14457
866.006	14290
866.137	14423
866.269	14423
866.4	14362
866.531	14370
866.662	14404
866.793	14377
866.924	14370
867.055	14374
867.186	14396
867.317	14385
867.448	14370
867.579	14412
867.71	14355
867.841	14339
867.972	14393
868.103	14377
868.233	14431
868.364	14537
868.495	14518
868.625	14636
868.756	14739
868.886	14503
869.017	14739
869.147	14724
869.278	14731
869.408	14682
869.539	14640
869.669	14689
869.799	14686
869.929	14777
870.06	14697
870.19	15001
870.32	14956
870.45	15066
870.58	15093
870.71	15100
870.84	15119
870.97	15024
871.1	15036
871.23	15207
871.36	15180
871.489	15154
871.619	15233
871.749	15237
871.879	15165
872.008	15332
872.138	15283
872.267	15306
872.397	15131
872.526	15058
872.656	15051
872.785	15100
872.915	15279
873.044	15424
873.173	15279
873.303	15344
873.432	15370
873.561	15416
873.69	15294
873.819	15272
873.948	15370
874.077	15275
874.206	15218
874.335	15401
874.464	15462
874.593	15671
874.722	15515
874.851	15610
874.979	15580
875.108	15629
875.237	15545
875.365	15584
875.494	15698
875.623	15751
875.751	15561
875.88	15587
876.008	15778
876.136	15816
876.265	15949
876.393	16040
876.521	16116
876.65	16116
876.778	16051
876.906	15991
877.034	15975
877.162	15945
877.29	15895
877.418	16017
877.546	16082
877.674	16116
877.802	15975
877.93	15983
878.058	15934
878.185	15915
878.313	16044
878.441	16055
878.568	15899
878.696	15991
878.824	16006
878.951	16196
879.079	16249
879.206	16356
879.333	16158
879.461	16169
879.588	16200
879.715	16291
879.842	16474
879.97	16166
880.097	15899
880.224	15884
880.351	15941
880.478	15918
880.605	15880
880.732	15903
880.859	16086
880.986	15926
881.112	15983
881.239	15797
881.366	15694
881.493	15622
881.619	15553
881.746	15606
881.872	15447
881.999	15530
882.125	15549
882.252	15610
882.378	15663
882.505	15519
882.631	15519
882.757	15370
882.883	15344
883.01	15344
883.136	15306
883.262	15154
883.388	15161
883.514	15275
883.64	15477
883.766	15317
883.892	15123
884.018	15245
884.143	15340
884.269	15363
884.395	15104
884.52	15047
884.646	15138
884.772	15024
884.897	15001
885.023	15085
885.148	15138
885.274	15226
885.399	15203
885.524	15093
885.65	15119
885.775	15097
885.9	14986
886.025	15176
886.15	15203
886.275	15062
886.4	14910
886.525	15009
886.65	14899
886.775	14982
886.9	15252
887.025	15272
887.149	15112
887.274	14948
887.399	14781
887.523	14868
887.648	14781
887.773	14716
887.897	14937
888.021	14880
888.146	14853
888.27	14952
888.395	14971
888.519	15005
888.643	14834
888.767	14967
888.891	14830
889.015	14769
889.139	14727
889.263	14632
889.387	14872
889.511	15020
889.635	14902
889.759	14739
889.883	14716
890.006	14724
890.13	14705
890.254	14648
890.377	14663
890.501	14522
890.624	14530
890.748	14640
890.871	14427
890.995	14442
891.118	14320
891.241	14393
891.364	14480
891.488	14492
891.611	14423
891.734	14461
891.857	14442
891.98	14495
892.103	14438
892.226	14419
892.349	14355
892.471	14355
892.594	14400
892.717	14366
892.839	14343
892.962	14393
893.085	14446
893.207	14400
893.33	14313
893.452	14377
893.575	14518
893.697	14393
893.819	14530
893.941	14663
894.064	14594
894.186	14450
894.308	14366
894.43	14545
894.552	14670
894.674	14507
894.796	14473
894.918	14427
895.04	14419
895.161	14613
895.283	14461
895.405	14427
895.526	14492
895.648	14492
895.769	14560
895.891	14556
896.012	14610
896.134	14549
896.255	14590
896.376	14602
896.498	14549
896.619	14617
896.74	14564
896.861	14697
896.982	14979
897.103	15081
897.224	14906
897.345	14785
897.466	14804
897.587	14804
897.708	14994
897.828	14861
897.949	14845
898.07	14625
898.19	14765
898.311	14914
898.431	14842
898.552	14933
898.672	15020
898.792	14963
898.913	14925
899.033	14910
899.153	14785
899.273	14621
899.393	14785
899.513	14823
899.633	14849
899.753	14712
899.873	14765
899.993	14762
900.113	14750
900.232	14777
900.352	14705
900.472	14708
900.591	14632
900.711	14689
900.83	14560
900.95	14720
901.069	14765
901.189	14575
901.308	14370
901.427	14191
901.546	14298
901.665	14355
901.784	14324
901.904	14142
902.023	14065
902.141	13970
902.26	13803
902.379	13921
902.498	13887
902.617	13830
902.735	13883
902.854	13871
902.973	13772
903.091	13613
903.21	13605
903.328	13476
903.446	13434
903.565	13343
903.683	13476
903.801	13362
903.919	13460
904.038	13460
904.156	13251
904.274	13247
904.392	13217
904.51	13152
904.627	13274
904.745	13274
904.863	13247
904.981	13053
905.098	12909
905.216	12859
905.334	12939
905.451	13050
905.569	12871
905.686	12890
905.803	12966
905.921	12722
906.038	12867
906.155	12798
906.272	12726
906.389	12639
906.506	12540
906.623	12536
906.74	12456
906.857	12407
906.974	12353
907.091	12589
907.208	12612
907.324	12582
907.441	12433
907.557	12365
907.674	12338
907.79	12155
907.907	12338
908.023	12304
908.139	12247
908.256	12220
908.372	12159
908.488	12159
908.604	12003
908.72	11988
908.836	11999
908.952	12068
909.068	12030
909.184	12110
909.3	11980
909.415	12030
909.531	12003
909.647	11741
909.762	11802
909.878	11745
909.993	11798
910.108	11790
910.224	11802
910.339	11817
910.454	11771
910.57	11653
910.685	11634
910.8	11958
910.915	11817
911.03	11726
911.145	11581
911.259	11547
911.374	11459
911.489	11395
911.604	11383
911.718	11201
911.833	11269
911.947	11185
912.062	11094
912.176	11265
912.291	11204
912.405	11212
912.519	11410
912.633	11482
912.748	11360
912.862	11307
912.976	11155
913.09	10972
913.204	11048
913.318	11105
913.431	11250
913.545	11296
913.659	11239
913.772	11033
913.886	11003
914	11006
914.113	11094
914.226	11083
914.34	11124
914.453	10908
914.566	11003
914.68	10892
914.793	10927
914.906	10774
915.019	10675
915.132	10618
915.245	10706
915.358	10725
915.47	10702
915.583	10786
915.696	10824
915.809	10843
915.921	10953
916.034	10714
916.146	10691
916.259	10740
916.371	10706
916.483	10793
916.595	10683
916.708	10645
916.82	10630
916.932	10592
917.044	10615
917.156	10653
917.268	10508
917.38	10569
917.491	10538
917.603	10607
917.715	10645
917.826	10664
917.938	10519
918.049	10523
918.161	10546
918.272	10698
918.384	10611
918.495	10561
918.606	10485
918.717	10382
918.828	10440
918.939	10527
919.05	10287
919.161	10447
919.272	10154
919.383	10207
919.494	10519
919.604	10558
919.715	10344
919.826	10363
919.936	10436
920.047	10599
920.157	10413
920.267	10599
920.378	10462
920.488	10394
920.598	10675
920.708	10763
920.818	10660
920.928	10637
921.038	10759
921.148	10831
921.258	10462
921.368	10386
921.477	10394
921.587	10242
921.697	10211
921.806	10310
921.916	10181
922.025	9994
922.134	10048
922.244	9930
922.353	10010
922.462	9911
922.571	9789
922.68	9656
922.789	9603
922.898	9705
923.007	9599
923.116	9736
923.224	9652
923.333	9667
923.442	9618
923.55	9511
923.659	9523
923.767	9682
923.876	9538
923.984	9675
924.092	9443
924.201	9511
924.309	9424
924.417	9496
924.525	9405
924.633	9519
924.741	10230
924.849	9317
924.956	9450
925.064	9329
925.172	9245
925.279	9245
925.387	9310
925.494	9329
925.602	9477
925.709	9378
925.816	9237
925.924	9367
926.031	9359
926.138	9291
926.245	9313
926.352	9176
926.459	9382
926.566	9363
926.673	9233
926.779	9180
926.886	9169
926.993	8963
927.099	8982
927.206	8952
927.312	9001
927.419	9020
927.525	9036
927.631	9066
927.737	8921
927.843	8899
927.95	8826
928.056	8883
928.162	8929
928.267	8967
928.373	9542
928.479	9047
928.585	8766
928.69	8963
928.796	8921
928.901	8796
929.007	8621
929.112	8804
929.218	8815
929.323	8754
929.428	8716
929.533	8891
929.638	8655
929.743	8644
929.848	8750
929.953	8781
930.058	8613
930.163	8476
930.267	8530
930.372	8663
930.477	8450
930.581	8667
930.685	8571
930.79	8541
930.894	8423
930.998	8377
931.103	8541
931.207	8286
931.311	8214
931.415	8119
931.519	7951
931.623	7993
