Data from test_V78500241_3699.txt Node
Date: Fri Mar 25 14:59:28 CST 2022
User: usil
Spectrometer: V785-0024
Trigger mode: 0
Integration Time (sec): 4.000000E-1
Scans to average: 1
Nonlinearity correction enabled: false
Boxcar width: 0
Storing dark spectrum: false
XAxis mode: Wavelengths
Number of Pixels in Spectrum: 1024
>>>>>Begin Spectral Data<<<<<
801.071	21930
801.214	21835
801.356	21424
801.499	21424
801.641	21214
801.783	21211
801.926	21287
802.068	21131
802.211	21112
802.353	21020
802.496	20693
802.638	20720
802.78	20716
802.923	20659
803.065	20644
803.208	20438
803.35	20739
803.492	20678
803.635	20663
803.777	20488
803.919	20667
804.061	20952
804.204	20598
804.346	20511
804.488	20446
804.63	20522
804.773	20370
804.915	20473
805.057	20545
805.199	20476
805.341	20404
805.483	20602
805.626	20530
805.768	20423
805.91	20469
806.052	20438
806.194	20415
806.336	20590
806.478	20442
806.62	20396
806.762	20526
806.904	20587
807.046	20937
807.188	20750
807.33	20701
807.472	20811
807.614	20785
807.756	20602
807.898	20621
808.04	20461
808.182	20480
808.324	20450
808.465	20533
808.607	20701
808.749	20804
808.891	20956
809.033	21017
809.174	20792
809.316	20758
809.458	20765
809.6	20701
809.741	20864
809.883	20956
810.025	20948
810.166	20998
810.308	20933
810.45	20937
810.591	20746
810.733	20693
810.875	20564
811.016	20530
811.158	20408
811.299	20655
811.441	20716
811.582	20701
811.724	20594
811.865	20560
812.007	20670
812.148	20526
812.29	20522
812.431	20693
812.573	20838
812.714	21077
812.855	21036
812.997	21207
813.138	21344
813.279	21233
813.421	21028
813.562	21024
813.703	20834
813.845	20823
813.986	20549
814.127	20103
814.268	20157
814.41	20202
814.551	20103
814.692	20271
814.833	20050
814.974	20081
815.115	20164
815.256	19928
815.397	19936
815.539	19932
815.68	19784
815.821	19788
815.962	19898
816.103	19784
816.244	19677
816.385	19597
816.526	19571
816.666	19335
816.807	19346
816.948	19320
817.089	19240
817.23	19346
817.371	19274
817.512	19247
817.653	19293
817.793	19213
817.934	19270
818.075	19312
818.216	19251
818.356	19293
818.497	19057
818.638	18878
818.778	18935
818.919	18947
819.06	19053
819.2	19118
819.341	19198
819.481	19171
819.622	19198
819.762	19400
819.903	19285
820.043	19312
820.184	19213
820.324	19160
820.465	19282
820.605	19240
820.746	19206
820.886	18993
821.026	19198
821.167	19126
821.307	19168
821.447	19080
821.588	19126
821.728	19000
821.868	18905
822.008	18616
822.149	18597
822.289	18593
822.429	18441
822.569	18376
822.709	18365
822.849	18148
822.99	18038
823.13	18140
823.27	18110
823.41	17939
823.55	17847
823.69	17920
823.83	17897
823.97	17870
824.11	17585
824.25	17657
824.389	17737
824.529	17798
824.669	17726
824.809	17855
824.949	17741
825.089	17836
825.228	17828
825.368	17547
825.508	17535
825.648	17516
825.787	17649
825.927	17558
826.067	17467
826.206	17433
826.346	17566
826.485	17516
826.625	17391
826.765	17573
826.904	17589
827.044	17280
827.183	17227
827.323	17246
827.462	17318
827.601	17261
827.741	17193
827.88	17296
828.02	17136
828.159	17360
828.298	17288
828.437	17296
828.577	17212
828.716	17379
828.855	17178
828.994	17090
829.134	16972
829.273	16949
829.412	16961
829.551	16957
829.69	17022
829.829	17067
829.968	17113
830.107	17105
830.246	17056
830.385	16911
830.524	16911
830.663	16858
830.802	16721
830.941	16660
831.08	16634
831.219	16561
831.357	16626
831.496	16869
831.635	16618
831.774	16588
831.913	16485
832.051	16459
832.19	16451
832.329	16485
832.467	16318
832.606	16291
832.744	16352
832.883	16413
833.022	16284
833.16	16348
833.299	16268
833.437	16280
833.576	16409
833.714	16379
833.852	16432
833.991	16333
834.129	16440
834.267	16443
834.406	16314
834.544	16375
834.682	16436
834.821	16303
834.959	16687
835.097	16322
835.235	16500
835.373	16485
835.511	16402
835.65	16287
835.788	16348
835.926	16200
836.064	16090
836.202	16112
836.34	16371
836.478	16356
836.615	16223
836.753	16196
836.891	16341
837.029	16329
837.167	16253
837.305	16223
837.443	16200
837.58	16147
837.718	16253
837.856	16310
837.993	16192
838.131	16158
838.269	16135
838.406	16101
838.544	16044
838.681	15892
838.819	15915
838.956	15637
839.094	15736
839.231	15755
839.369	15854
839.506	16010
839.643	16032
839.781	15728
839.918	15660
840.055	15656
840.193	15797
840.33	15698
840.467	15778
840.604	15751
840.742	16025
840.879	15526
841.016	15751
841.153	15705
841.29	15876
841.427	15739
841.564	15736
841.701	15751
841.838	15739
841.975	15591
842.112	15648
842.249	15481
842.385	15481
842.522	15660
842.659	15542
842.796	15492
842.933	15587
843.069	15488
843.206	15504
843.343	15523
843.479	15587
843.616	15488
843.752	15321
843.889	15298
844.025	15485
844.162	15370
844.298	15382
844.435	15306
844.571	15241
844.708	15336
844.844	15408
844.98	15431
845.117	15336
845.253	15344
845.389	15142
845.525	15264
845.661	15184
845.798	15039
845.934	15146
846.07	15161
846.206	15097
846.342	15173
846.478	15093
846.614	14899
846.75	14925
846.886	14834
847.022	14918
847.158	14792
847.294	14883
847.429	14880
847.565	14807
847.701	15192
847.837	14621
847.972	14549
848.108	14758
848.244	14705
848.379	14594
848.515	14579
848.65	14442
848.786	14461
848.921	14400
849.057	14598
849.192	14632
849.328	14564
849.463	14590
849.598	14564
849.734	14427
849.869	14317
850.004	14229
850.14	14233
850.275	14282
850.41	14225
850.545	14191
850.68	14240
850.815	14267
850.95	14187
851.085	14419
851.22	14305
851.355	14393
851.49	14195
851.625	14180
851.76	14195
851.895	14092
852.03	14103
852.165	14252
852.299	14282
852.434	14374
852.569	14225
852.703	14298
852.838	14301
852.973	14450
853.107	14404
853.242	14225
853.376	14119
853.511	14031
853.645	14050
853.78	14347
853.914	14214
854.048	14103
854.183	14069
854.317	14134
854.451	14298
854.585	14168
854.72	14050
854.854	14172
854.988	14008
855.122	14130
855.256	13947
855.39	14077
855.524	14176
855.658	14134
855.792	14187
855.926	14210
856.06	14202
856.194	14206
856.327	14153
856.461	14031
856.595	13982
856.729	14088
856.862	14233
856.996	14119
857.13	14149
857.263	14275
857.397	14161
857.53	14138
857.664	14191
857.797	14145
857.931	14305
858.064	14199
858.197	14180
858.331	14206
858.464	13974
858.597	14024
858.731	14100
858.864	14096
858.997	13997
859.13	14252
859.263	14100
859.396	14130
859.529	14081
859.662	14001
859.795	14081
859.928	14088
860.061	14252
860.194	14309
860.327	14145
860.46	14081
860.592	14294
860.725	14191
860.858	14225
860.99	14111
861.123	14092
861.256	14016
861.388	14100
861.521	14807
861.653	13989
861.786	14020
861.918	13970
862.05	14069
862.183	14069
862.315	14069
862.447	14081
862.58	14077
862.712	13906
862.844	13826
862.976	13997
863.108	13959
863.24	14309
863.372	13818
863.504	13894
863.636	13890
863.768	14005
863.9	13986
864.032	13875
864.164	13936
864.296	13906
864.428	14024
864.559	13997
864.691	13890
864.823	13997
864.954	14020
865.086	14005
865.217	13944
865.349	13803
865.48	13811
865.612	13944
865.743	13947
865.875	13883
866.006	13856
866.137	13868
866.269	13871
866.4	13776
866.531	13837
866.662	13761
866.793	13814
866.924	13890
867.055	13894
867.186	13864
867.317	13864
867.448	13719
867.579	13753
867.71	13723
867.841	13776
867.972	13970
868.103	13845
868.233	13875
868.364	13841
868.495	13928
868.625	14065
868.756	14309
868.886	13947
869.017	14065
869.147	14294
869.278	14259
869.408	14187
869.539	14123
869.669	14267
869.799	14214
869.929	14309
870.06	14172
870.19	14465
870.32	14484
870.45	14465
870.58	14610
870.71	14552
870.84	14564
870.97	14503
871.1	14594
871.23	14697
871.36	14716
871.489	14716
871.619	14750
871.749	14651
871.879	14765
872.008	14929
872.138	14815
872.267	14769
872.397	14556
872.526	14602
872.656	14457
872.785	14636
872.915	14773
873.044	14906
873.173	14754
873.303	14880
873.432	14819
873.561	14823
873.69	14777
873.819	14834
873.948	14834
874.077	14815
874.206	14826
874.335	14849
874.464	14952
874.593	15032
874.722	15047
874.851	15097
874.979	15188
875.108	15127
875.237	15119
875.365	14967
875.494	15123
875.623	15146
875.751	15135
875.88	15116
876.008	15214
876.136	15260
876.265	15492
876.393	15660
876.521	15625
876.65	15629
876.778	15580
876.906	15439
877.034	15519
877.162	15584
877.29	15466
877.418	15469
877.546	15492
877.674	15526
877.802	15519
877.93	15424
878.058	15584
878.185	15428
878.313	15519
878.441	15488
878.568	15420
878.696	15435
878.824	15545
878.951	15629
879.079	15709
879.206	15785
879.333	15633
879.461	15538
879.588	15603
879.715	15728
879.842	15895
879.97	15614
880.097	15321
880.224	15245
880.351	15408
880.478	15370
880.605	15332
880.732	15367
880.859	15580
880.986	15393
881.112	15386
881.239	15416
881.366	15161
881.493	15024
881.619	15081
881.746	15036
881.872	14971
881.999	15036
882.125	14937
882.252	15131
882.378	15085
882.505	15119
882.631	14975
882.757	14872
882.883	14914
883.01	14880
883.136	14746
883.262	14750
883.388	14625
883.514	14929
883.64	14941
883.766	14781
883.892	14655
884.018	14746
884.143	14914
884.269	14941
884.395	14606
884.52	14492
884.646	14514
884.772	14511
884.897	14488
885.023	14617
885.148	14663
885.274	14796
885.399	14613
885.524	14522
885.65	14530
885.775	14575
885.9	14476
886.025	14636
886.15	14541
886.275	14530
886.4	14533
886.525	14526
886.65	14465
886.775	14480
886.9	14762
887.025	14861
887.149	14454
887.274	14412
887.399	14389
887.523	14374
887.648	14313
887.773	14309
887.897	14484
888.021	14465
888.146	14320
888.27	14537
888.395	14495
888.519	14412
888.643	14461
888.767	14408
888.891	14286
889.015	14267
889.139	14233
889.263	14176
889.387	14317
889.511	14393
889.635	14343
889.759	14180
889.883	14107
890.006	14332
890.13	14450
890.254	14240
890.377	14214
890.501	14069
890.624	14100
890.748	14088
890.871	13978
890.995	13959
891.118	13879
891.241	13944
891.364	13959
891.488	14130
891.611	13932
891.734	13963
891.857	14062
891.98	14005
892.103	13989
892.226	14016
892.349	13925
892.471	13814
892.594	13978
892.717	13932
892.839	13860
892.962	13921
893.085	13963
893.207	14020
893.33	13856
893.452	13906
893.575	13940
893.697	14035
893.819	14199
893.941	14062
894.064	14107
894.186	13951
894.308	13955
894.43	14092
894.552	14183
894.674	14081
894.796	13974
894.918	13963
895.04	14005
895.161	14024
895.283	14084
895.405	13978
895.526	14081
895.648	14031
895.769	14123
895.891	14126
896.012	14221
896.134	14164
896.255	14016
896.376	13993
896.498	14168
896.619	14172
896.74	14149
896.861	14187
896.982	14454
897.103	14610
897.224	14438
897.345	14408
897.466	14229
897.587	14385
897.708	14518
897.828	14434
897.949	14362
898.07	14286
898.19	14381
898.311	14533
898.431	14362
898.552	14549
898.672	14503
898.792	14488
898.913	14545
899.033	14320
899.153	14347
899.273	14275
899.393	14339
899.513	14351
899.633	14248
899.753	14309
899.873	14301
899.993	14332
900.113	14301
900.232	14381
900.352	14317
900.472	14240
900.591	14164
900.711	14145
900.83	14142
900.95	14168
901.069	14305
901.189	14161
901.308	13856
901.427	13841
901.546	13925
901.665	13822
901.784	13928
901.904	13700
902.023	13689
902.141	13491
902.26	13430
902.379	13597
902.498	13365
902.617	13346
902.735	13480
902.854	13449
902.973	13457
903.091	13164
903.21	13129
903.328	13183
903.446	13190
903.565	13015
903.683	13008
903.801	12966
903.919	12970
904.038	13057
904.156	12814
904.274	12993
904.392	12749
904.51	12779
904.627	12806
904.745	12840
904.863	12821
904.981	12719
905.098	12540
905.216	12536
905.334	12574
905.451	12506
905.569	12544
905.686	12612
905.803	12563
905.921	12311
906.038	12441
906.155	12403
906.272	12285
906.389	12247
906.506	12220
906.623	12155
906.74	12159
906.857	11920
906.974	12049
907.091	12136
907.208	12327
907.324	12296
907.441	12152
907.557	11969
907.674	11996
907.79	11840
907.907	11866
908.023	11904
908.139	11904
908.256	11946
908.372	11805
908.488	11870
908.604	11649
908.72	11733
908.836	11623
908.952	11699
909.068	11623
909.184	11760
909.3	11676
909.415	11741
909.531	11676
909.647	11474
909.762	11448
909.878	11467
909.993	11505
910.108	11433
910.224	11429
910.339	11455
910.454	11364
910.57	11223
910.685	11265
910.8	11524
910.915	11501
911.03	11318
911.145	11185
911.259	11216
911.374	11155
911.489	11117
911.604	11041
911.718	10942
911.833	10919
911.947	10831
912.062	10782
912.176	10911
912.291	10896
912.405	10934
912.519	11109
912.633	11083
912.748	10957
912.862	10854
912.976	10847
913.09	10672
913.204	10702
913.318	10786
913.431	10892
913.545	10934
913.659	10873
913.772	10702
913.886	10679
914	10664
914.113	10793
914.226	10767
914.34	10782
914.453	10588
914.566	10736
914.68	10618
914.793	10641
914.906	10333
915.019	10409
915.132	10360
915.245	10382
915.358	10478
915.47	10432
915.583	10531
915.696	10497
915.809	10592
915.921	10569
916.034	10371
916.146	10360
916.259	10356
916.371	10428
916.483	10462
916.595	10295
916.708	10421
916.82	10329
916.932	10337
917.044	10341
917.156	10333
917.268	10219
917.38	10379
917.491	10268
917.603	10265
917.715	10348
917.826	10348
917.938	10169
918.049	10150
918.161	10310
918.272	10333
918.384	10379
918.495	10341
918.606	10147
918.717	10086
918.828	10086
918.939	10215
919.05	10017
919.161	10013
919.272	9907
919.383	10051
919.494	10185
919.604	10382
919.715	10223
919.826	10067
919.936	10071
920.047	10154
920.157	10131
920.267	10405
920.378	10147
920.488	10162
920.598	10363
920.708	10470
920.818	10333
920.928	10200
921.038	10538
921.148	10440
921.258	10185
921.368	10112
921.477	10071
921.587	10021
921.697	9861
921.806	10025
921.916	9876
922.025	9732
922.134	9717
922.244	9690
922.353	9766
922.462	9549
922.571	9526
922.68	9378
922.789	9397
922.898	9359
923.007	9351
923.116	9454
923.224	9378
923.333	9291
923.442	9332
923.55	9260
923.659	9268
923.767	9359
923.876	9268
923.984	9386
924.092	9199
924.201	9233
924.309	9283
924.417	9321
924.525	9237
924.633	9233
924.741	10135
924.849	9032
924.956	9180
925.064	9074
925.172	9028
925.279	9001
925.387	9039
925.494	9077
925.602	9203
925.709	9089
925.816	9051
925.924	9070
926.031	9058
926.138	9081
926.245	9146
926.352	9028
926.459	9100
926.566	9241
926.673	9028
926.779	9017
926.886	8960
926.993	8849
927.099	8781
927.206	8766
927.312	8766
927.419	8834
927.525	8788
927.631	8819
927.737	8693
927.843	8663
927.95	8488
928.056	8727
928.162	8686
928.267	8735
928.373	9279
928.479	8819
928.585	8590
928.69	8644
928.796	8670
928.901	8625
929.007	8488
929.112	8636
929.218	8564
929.323	8518
929.428	8492
929.533	8587
929.638	8457
929.743	8492
929.848	8465
929.953	8476
930.058	8404
930.163	8301
930.267	8309
930.372	8408
930.477	8290
930.581	8431
930.685	8336
930.79	8252
930.894	8305
930.998	8183
931.103	8366
931.207	8027
931.311	8001
931.415	7887
931.519	7769
931.623	7715
