Data from test_V78500241_1032.txt Node
Date: Fri Mar 25 14:40:54 CST 2022
User: usil
Spectrometer: V785-0024
Trigger mode: 0
Integration Time (sec): 4.000000E-1
Scans to average: 1
Nonlinearity correction enabled: false
Boxcar width: 0
Storing dark spectrum: false
XAxis mode: Wavelengths
Number of Pixels in Spectrum: 1024
>>>>>Begin Spectral Data<<<<<
801.071	22866
801.214	22763
801.356	22565
801.499	22489
801.641	22322
801.783	22234
801.926	22226
802.068	22204
802.211	22135
802.353	21880
802.496	21842
802.638	21774
802.78	21644
802.923	21637
803.065	21545
803.208	21614
803.35	21698
803.492	21679
803.635	21739
803.777	21618
803.919	21713
804.061	21934
804.204	21816
804.346	21572
804.488	21492
804.63	21686
804.773	21462
804.915	21485
805.057	21713
805.199	21469
805.341	21656
805.483	21732
805.626	21603
805.768	21633
805.91	21538
806.052	21603
806.194	21431
806.336	21819
806.478	21572
806.62	21690
806.762	21610
806.904	21854
807.046	22162
807.188	22040
807.33	21876
807.472	22051
807.614	22021
807.756	22147
807.898	21899
808.04	21975
808.182	21983
808.324	22135
808.465	22318
808.607	22645
808.749	22740
808.891	22900
809.033	22987
809.174	22919
809.316	22668
809.458	22615
809.6	22322
809.741	22371
809.883	22253
810.025	22436
810.166	22306
810.308	22306
810.45	22188
810.591	22120
810.733	21937
810.875	21831
811.016	21755
811.158	21751
811.299	22002
811.441	21934
811.582	21899
811.724	21762
811.865	21751
812.007	21816
812.148	21876
812.29	21960
812.431	22036
812.573	22120
812.714	22188
812.855	22287
812.997	22413
813.138	22542
813.279	22455
813.421	22405
813.562	22200
813.703	22040
813.845	22029
813.986	21698
814.127	21408
814.268	21435
814.41	21321
814.551	21287
814.692	21367
814.833	21374
814.974	21252
815.115	21237
815.256	21192
815.397	21207
815.539	21154
815.68	21081
815.821	21058
815.962	21157
816.103	21119
816.244	20994
816.385	20853
816.526	20792
816.666	20651
816.807	20530
816.948	20568
817.089	20640
817.23	20514
817.371	20480
817.512	20454
817.653	20518
817.793	20336
817.934	20507
818.075	20518
818.216	20537
818.356	20454
818.497	20206
818.638	20062
818.778	20210
818.919	20183
819.06	20218
819.2	20275
819.341	20328
819.481	20434
819.622	20533
819.762	20701
819.903	20537
820.043	20598
820.184	20434
820.324	20438
820.465	20480
820.605	20450
820.746	20488
820.886	20301
821.026	20423
821.167	20347
821.307	20473
821.447	20313
821.588	20336
821.728	20221
821.868	20081
822.008	19894
822.149	19860
822.289	19913
822.429	19578
822.569	19483
822.709	19544
822.849	19331
822.99	19400
823.13	19308
823.27	19362
823.41	19160
823.55	19103
823.69	19187
823.83	19145
823.97	19129
824.11	18966
824.25	18897
824.389	18916
824.529	18947
824.669	18909
824.809	19050
824.949	19053
825.089	18985
825.228	18993
825.368	18719
825.508	18791
825.648	18760
825.787	18764
825.927	18776
826.067	18722
826.206	18726
826.346	18749
826.485	18665
826.625	18677
826.765	18821
826.904	18661
827.044	18464
827.183	18445
827.323	18456
827.462	18350
827.601	18410
827.741	18395
827.88	18593
828.02	18304
828.159	18372
828.298	18456
828.437	18471
828.577	18395
828.716	18506
828.855	18388
828.994	18095
829.134	18159
829.273	18232
829.412	18216
829.551	18106
829.69	18224
829.829	18201
829.968	18281
830.107	18270
830.246	18186
830.385	18243
830.524	18034
830.663	17920
830.802	17912
830.941	17783
831.08	17809
831.219	17885
831.357	17836
831.496	18053
831.635	17733
831.774	17722
831.913	17691
832.051	17615
832.19	17596
832.329	17615
832.467	17490
832.606	17482
832.744	17482
832.883	17520
833.022	17490
833.16	17463
833.299	17528
833.437	17528
833.576	17566
833.714	17528
833.852	17623
833.991	17577
834.129	17589
834.267	17551
834.406	17653
834.544	17554
834.682	17535
834.821	17604
834.959	17615
835.097	17520
835.235	17642
835.373	17570
835.511	17566
835.65	17436
835.788	17478
835.926	17292
836.064	17402
836.202	17246
836.34	17345
836.478	17440
836.615	17395
836.753	17406
836.891	17410
837.029	17505
837.167	17410
837.305	17364
837.443	17296
837.58	17235
837.718	17417
837.856	17318
837.993	17258
838.131	17231
838.269	17162
838.406	17159
838.544	17113
838.681	16911
838.819	16953
838.956	16763
839.094	16809
839.231	16881
839.369	16965
839.506	17212
839.643	17105
839.781	16862
839.918	16706
840.055	16805
840.193	16828
840.33	16698
840.467	16786
840.604	16828
840.742	17083
840.879	16645
841.016	16710
841.153	16656
841.29	16889
841.427	16866
841.564	16854
841.701	16854
841.838	16683
841.975	16580
842.112	16748
842.249	16478
842.385	16599
842.522	16835
842.659	16672
842.796	16542
842.933	16573
843.069	16485
843.206	16512
843.343	16687
843.479	16558
843.616	16607
843.752	16287
843.889	16474
844.025	16497
844.162	16382
844.298	16470
844.435	16398
844.571	16291
844.708	16462
844.844	16519
844.98	16599
845.117	16584
845.253	16375
845.389	16398
845.525	16588
845.661	16790
845.798	16885
845.934	17109
846.07	17147
846.206	17128
846.342	17113
846.478	16706
846.614	16356
846.75	16131
846.886	16032
847.022	16063
847.158	16002
847.294	16002
847.429	15979
847.565	15968
847.701	16188
847.837	15679
847.972	15656
848.108	15671
848.244	15766
848.379	15561
848.515	15576
848.65	15542
848.786	15538
848.921	15511
849.057	15671
849.192	15580
849.328	15462
849.463	15454
849.598	15469
849.734	15420
849.869	15370
850.004	15351
850.14	15389
850.275	15291
850.41	15249
850.545	15332
850.68	15169
850.815	15336
850.95	15294
851.085	15435
851.22	15260
851.355	15302
851.49	15176
851.625	15222
851.76	15077
851.895	15180
852.03	15150
852.165	15249
852.299	15329
852.434	15340
852.569	15329
852.703	15279
852.838	15355
852.973	15496
853.107	15466
853.242	15241
853.376	15119
853.511	14960
853.645	15119
853.78	15325
853.914	15264
854.048	15066
854.183	15047
854.317	15157
854.451	15382
854.585	15154
854.72	15028
854.854	15214
854.988	15089
855.122	15093
855.256	14979
855.39	15085
855.524	15116
855.658	15287
855.792	15100
855.926	15283
856.06	15180
856.194	15260
856.327	15104
856.461	15047
856.595	15062
856.729	15161
856.862	15252
856.996	15119
857.13	15173
857.263	15241
857.397	15264
857.53	15135
857.664	15226
857.797	15230
857.931	15230
858.064	15176
858.197	15211
858.331	15138
858.464	15108
858.597	15070
858.731	15043
858.864	15116
858.997	15077
859.13	15093
859.263	15142
859.396	15222
859.529	15127
859.662	15093
859.795	15024
859.928	15077
860.061	15329
860.194	15245
860.327	15074
860.46	15135
860.592	15207
860.725	15332
860.858	15214
860.99	15116
861.123	15108
861.256	15058
861.388	15184
861.521	15736
861.653	15020
861.786	14948
861.918	14971
862.05	15089
862.183	15154
862.315	15112
862.447	15085
862.58	15028
862.712	14948
862.844	14781
862.976	14933
863.108	14918
863.24	15256
863.372	14845
863.504	14891
863.636	14887
863.768	14956
863.9	14895
864.032	14883
864.164	14826
864.296	14937
864.428	14963
864.559	14944
864.691	14918
864.823	14986
864.954	14830
865.086	14853
865.217	14804
865.349	14891
865.48	14914
865.612	14811
865.743	14937
865.875	14796
866.006	14876
866.137	14876
866.269	14948
866.4	14796
866.531	14910
866.662	14880
866.793	14781
866.924	14777
867.055	14861
867.186	14800
867.317	14849
867.448	14792
867.579	14815
867.71	14750
867.841	14689
867.972	14891
868.103	14876
868.233	14902
868.364	14807
868.495	15028
868.625	15100
868.756	15203
868.886	15039
869.017	15184
869.147	15245
869.278	15287
869.408	15051
869.539	15150
869.669	15218
869.799	15150
869.929	15241
870.06	15192
870.19	15393
870.32	15458
870.45	15389
870.58	15633
870.71	15591
870.84	15523
870.97	15561
871.1	15450
871.23	15610
871.36	15755
871.489	15496
871.619	15633
871.749	15603
871.879	15739
872.008	15854
872.138	15671
872.267	15606
872.397	15568
872.526	15564
872.656	15507
872.785	15447
872.915	15679
873.044	15789
873.173	15698
873.303	15770
873.432	15797
873.561	15724
873.69	15701
873.819	15705
873.948	15876
874.077	15724
874.206	15679
874.335	15747
874.464	15873
874.593	16044
874.722	15949
874.851	16063
874.979	16032
875.108	16055
875.237	16082
875.365	16002
875.494	16101
875.623	16067
875.751	16105
875.88	16223
876.008	16234
876.136	16265
876.265	16512
876.393	16607
876.521	16489
876.65	16554
876.778	16493
876.906	16421
877.034	16462
877.162	16459
877.29	16424
877.418	16516
877.546	16413
877.674	16516
877.802	16489
877.93	16462
878.058	16558
878.185	16440
878.313	16523
878.441	16474
878.568	16417
878.696	16512
878.824	16607
878.951	16786
879.079	16854
879.206	17052
879.333	17014
879.461	16923
879.588	17052
879.715	17231
879.842	17143
879.97	16938
880.097	16611
880.224	16584
880.351	16512
880.478	16527
880.605	16428
880.732	16409
880.859	16634
880.986	16485
881.112	16481
881.239	16443
881.366	16169
881.493	16040
881.619	16040
881.746	16097
881.872	16032
881.999	16154
882.125	16082
882.252	16147
882.378	16105
882.505	16215
882.631	16067
882.757	15918
882.883	15911
883.01	15892
883.136	15895
883.262	15835
883.388	15838
883.514	15991
883.64	15934
883.766	15812
883.892	15614
884.018	15759
884.143	15953
884.269	15979
884.395	15675
884.52	15637
884.646	15648
884.772	15500
884.897	15488
885.023	15542
885.148	15701
885.274	15797
885.399	15682
885.524	15618
885.65	15633
885.775	15557
885.9	15496
886.025	15698
886.15	15671
886.275	15534
886.4	15447
886.525	15557
886.65	15488
886.775	15534
886.9	15755
887.025	15709
887.149	15572
887.274	15408
887.399	15302
887.523	15382
887.648	15336
887.773	15275
887.897	15351
888.021	15389
888.146	15245
888.27	15405
888.395	15496
888.519	15424
888.643	15412
888.767	15450
888.891	15184
889.015	15138
889.139	15222
889.263	15142
889.387	15302
889.511	15340
889.635	15317
889.759	15275
889.883	15123
890.006	15093
890.13	15249
890.254	15169
890.377	15127
890.501	14952
890.624	15039
890.748	14948
890.871	14834
890.995	14769
891.118	14724
891.241	14902
891.364	14880
891.488	14967
891.611	14910
891.734	14918
891.857	14891
891.98	14887
892.103	14899
892.226	14838
892.349	14815
892.471	14735
892.594	14762
892.717	14788
892.839	14785
892.962	14811
893.085	14891
893.207	14929
893.33	14762
893.452	14731
893.575	14872
893.697	14754
893.819	14891
893.941	15013
894.064	14960
894.186	14811
894.308	14785
894.43	14944
894.552	14937
894.674	15085
894.796	14762
894.918	14857
895.04	14804
895.161	14952
895.283	14948
895.405	14891
895.526	14902
895.648	14887
895.769	14925
895.891	15020
896.012	15062
896.134	15017
896.255	14921
896.376	14933
896.498	14960
896.619	14982
896.74	14979
896.861	14960
896.982	15412
897.103	15359
897.224	15123
897.345	15203
897.466	15036
897.587	15222
897.708	15317
897.828	15329
897.949	15192
898.07	15154
898.19	15184
898.311	15359
898.431	15332
898.552	15283
898.672	15302
898.792	15447
898.913	15279
899.033	15279
899.153	15203
899.273	15089
899.393	15176
899.513	15294
899.633	15119
899.753	15081
899.873	15116
899.993	15222
900.113	15131
900.232	15142
900.352	15176
900.472	15131
900.591	14868
900.711	15100
900.83	14990
900.95	15112
901.069	15112
901.189	14872
901.308	14682
901.427	14568
901.546	14575
901.665	14682
901.784	14716
901.904	14476
902.023	14484
902.141	14393
902.26	14256
902.379	14301
902.498	14218
902.617	14092
902.735	14229
902.854	14206
902.973	14081
903.091	13978
903.21	13989
903.328	14005
903.446	13909
903.565	13753
903.683	13852
903.801	13636
903.919	13753
904.038	13704
904.156	13628
904.274	13681
904.392	13605
904.51	13544
904.627	13586
904.745	13666
904.863	13609
904.981	13415
905.098	13278
905.216	13270
905.334	13274
905.451	13251
905.569	13198
905.686	13327
905.803	13259
905.921	13027
906.038	13091
906.155	13069
906.272	12993
906.389	13008
906.506	12844
906.623	12928
906.74	12829
906.857	12719
906.974	12772
907.091	12909
907.208	12932
907.324	12905
907.441	12749
907.557	12677
907.674	12593
907.79	12532
907.907	12635
908.023	12582
908.139	12502
908.256	12639
908.372	12429
908.488	12494
908.604	12388
908.72	12281
908.836	12437
908.952	12254
909.068	12399
909.184	12422
909.3	12296
909.415	12437
909.531	12353
909.647	12121
909.762	12053
909.878	12041
909.993	12167
910.108	12038
910.224	11977
910.339	12079
910.454	12015
910.57	11912
910.685	11931
910.8	12095
910.915	12095
911.03	11988
911.145	11760
911.259	11794
911.374	11767
911.489	11672
911.604	11710
911.718	11509
911.833	11611
911.947	11410
912.062	11349
912.176	11455
912.291	11524
912.405	11535
912.519	11817
912.633	11756
912.748	11615
912.862	11543
912.976	11482
913.09	11246
913.204	11326
913.318	11455
913.431	11512
913.545	11459
913.659	11474
913.772	11326
913.886	11341
914	11166
914.113	11364
914.226	11398
914.34	11315
914.453	11181
914.566	11334
914.68	11201
914.793	11208
914.906	10957
915.019	10930
915.132	10987
915.245	10927
915.358	11079
915.47	11056
915.583	11052
915.696	11041
915.809	11254
915.921	11094
916.034	11014
916.146	10911
916.259	10919
916.371	11132
916.483	11037
916.595	10942
916.708	10816
916.82	10946
916.932	10957
917.044	10858
917.156	10839
917.268	10816
917.38	10866
917.491	10801
917.603	10759
917.715	10831
917.826	10942
917.938	10771
918.049	10702
918.161	10801
918.272	10961
918.384	10919
918.495	10873
918.606	10672
918.717	10599
918.828	10714
918.939	10763
919.05	10611
919.161	10592
919.272	10447
919.383	10596
919.494	10725
919.604	10942
919.715	10782
919.826	10622
919.936	10717
920.047	10767
920.157	10782
920.267	10843
920.378	10824
920.488	10687
920.598	10900
920.708	10995
920.818	10923
920.928	10862
921.038	11060
921.148	11006
921.258	10778
921.368	10630
921.477	10569
921.587	10573
921.697	10398
921.806	10588
921.916	10386
922.025	10329
922.134	10280
922.244	10120
922.353	10188
922.462	10192
922.571	10040
922.68	9869
922.789	9888
922.898	9903
923.007	9888
923.116	9956
923.224	9895
923.333	9838
923.442	9793
923.55	9785
923.659	9861
923.767	9865
923.876	9736
923.984	9812
924.092	9816
924.201	9778
924.309	9846
924.417	9724
924.525	9713
924.633	9720
924.741	10588
924.849	9507
924.956	9614
925.064	9496
925.172	9488
925.279	9481
925.387	9545
925.494	9496
925.602	9675
925.709	9576
925.816	9481
925.924	9561
926.031	9622
926.138	9587
926.245	9523
926.352	9462
926.459	9625
926.566	9633
926.673	9500
926.779	9378
926.886	9370
926.993	9329
927.099	9306
927.206	9203
927.312	9192
927.419	9306
927.525	9344
927.631	9336
927.737	9173
927.843	9146
927.95	8986
928.056	9116
928.162	9192
928.267	9157
928.373	9732
928.479	9195
928.585	9055
928.69	9074
928.796	9146
928.901	9001
929.007	8883
929.112	9024
929.218	9001
929.323	8982
929.428	8925
929.533	9062
929.638	8834
929.743	8876
929.848	8956
929.953	8910
930.058	8853
930.163	8686
930.267	8754
930.372	8800
930.477	8697
930.581	8914
930.685	8746
930.79	8613
930.894	8648
930.998	8598
931.103	8682
931.207	8431
931.311	8366
931.415	8279
931.519	8103
931.623	8092
