Data from test_V78500241_137.txt Node
Date: Fri Mar 25 14:34:40 CST 2022
User: usil
Spectrometer: V785-0024
Trigger mode: 0
Integration Time (sec): 4.000000E-1
Scans to average: 1
Nonlinearity correction enabled: false
Boxcar width: 0
Storing dark spectrum: false
XAxis mode: Wavelengths
Number of Pixels in Spectrum: 1024
>>>>>Begin Spectral Data<<<<<
801.071	30186
801.214	30064
801.356	29969
801.499	29802
801.641	29718
801.783	29516
801.926	29611
802.068	29535
802.211	29398
802.353	29497
802.496	29280
802.638	29433
802.78	29185
802.923	29208
803.065	29246
803.208	29250
803.35	29113
803.492	29322
803.635	29345
803.777	29250
803.919	29585
804.061	29547
804.204	29406
804.346	29166
804.488	29402
804.63	29280
804.773	29349
804.915	29558
805.057	29604
805.199	29459
805.341	29611
805.483	29874
805.626	29627
805.768	29691
805.91	29980
806.052	29927
806.194	29889
806.336	30273
806.478	30041
806.62	30292
806.762	30551
806.904	30894
807.046	31247
807.188	31430
807.33	31696
807.472	32168
807.614	32518
807.756	33036
807.898	33675
808.04	34641
808.182	36003
808.324	37723
808.465	39431
808.607	41615
808.749	43537
808.891	44450
809.033	44294
809.174	43400
809.316	41459
809.458	39477
809.6	37080
809.741	35642
809.883	34261
810.025	33603
810.166	32758
810.308	32347
810.45	31925
810.591	31616
810.733	31232
810.875	30924
811.016	30783
811.158	30620
811.299	30616
811.441	30437
811.582	30551
811.724	30460
811.865	30140
812.007	30121
812.148	30079
812.29	30095
812.431	30262
812.573	30277
812.714	30505
812.855	30452
812.997	30433
813.138	30639
813.279	30654
813.421	30388
813.562	30136
813.703	30163
813.845	29961
813.986	29482
814.127	29417
814.268	29315
814.41	29368
814.551	29155
814.692	29246
814.833	29170
814.974	29242
815.115	29071
815.256	29010
815.397	28942
815.539	28987
815.68	28949
815.821	28850
815.962	28828
816.103	28763
816.244	28645
816.385	28679
816.526	28542
816.666	28352
816.807	28143
816.948	28291
817.089	28257
817.23	28131
817.371	28261
817.512	28109
817.653	28048
817.793	27937
817.934	28147
818.075	28154
818.216	27987
818.356	28021
818.497	27835
818.638	27686
818.778	27747
818.919	27884
819.06	27922
819.2	28040
819.341	28070
819.481	27846
819.622	28158
819.762	28223
819.903	28322
820.043	28051
820.184	28032
820.324	27956
820.465	28090
820.605	27983
820.746	27835
820.886	27701
821.026	28025
821.167	27899
821.307	27949
821.447	27816
821.588	27530
821.728	27515
821.868	27283
822.008	27226
822.149	27108
822.289	27131
822.429	26986
822.569	26895
822.709	26925
822.849	26594
822.99	26625
823.13	26667
823.27	26731
823.41	26552
823.55	26381
823.69	26518
823.83	26267
823.97	26374
824.11	26256
824.25	26176
824.389	26374
824.529	26286
824.669	26252
824.809	26301
824.949	26202
825.089	26328
825.228	26305
825.368	26092
825.508	25955
825.648	25974
825.787	26008
825.927	26058
826.067	26027
826.206	26065
826.346	26027
826.485	25970
826.625	25932
826.765	26069
826.904	26142
827.044	25753
827.183	25643
827.323	25662
827.462	25677
827.601	25578
827.741	25601
827.88	25666
828.02	25594
828.159	25624
828.298	25704
828.437	25643
828.577	25476
828.716	25693
828.855	25514
828.994	25327
829.134	25346
829.273	25228
829.412	25301
829.551	25148
829.69	25171
829.829	25236
829.968	25304
830.107	25175
830.246	25183
830.385	25213
830.524	25114
830.663	25023
830.802	24932
830.941	24829
831.08	24776
831.219	24928
831.357	24954
831.496	25027
831.635	24814
831.774	24760
831.913	24791
832.051	24749
832.19	24661
832.329	24707
832.467	24604
832.606	24582
832.744	24494
832.883	24684
833.022	24627
833.16	24616
833.299	24844
833.437	25000
833.576	24913
833.714	25145
833.852	25171
833.991	25133
834.129	25369
834.267	25304
834.406	25240
834.544	25190
834.682	25209
834.821	25012
834.959	25114
835.097	24787
835.235	24817
835.373	24700
835.511	24654
835.65	24456
835.788	24486
835.926	24319
836.064	24174
836.202	24144
836.34	24350
836.478	24467
836.615	24140
836.753	24243
836.891	24258
837.029	24251
837.167	24224
837.305	24197
837.443	24205
837.58	24015
837.718	24106
837.856	24110
837.993	23984
838.131	23996
838.269	23973
838.406	23958
838.544	23859
838.681	23676
838.819	23627
838.956	23482
839.094	23493
839.231	23471
839.369	23551
839.506	23802
839.643	23608
839.781	23383
839.918	23425
840.055	23402
840.193	23444
840.33	23250
840.467	23258
840.604	23360
840.742	23615
840.879	23155
841.016	23204
841.153	23220
841.29	23315
841.427	23330
841.564	23318
841.701	23235
841.838	23261
841.975	23242
842.112	23132
842.249	23094
842.385	22984
842.522	23265
842.659	23174
842.796	23025
842.933	23174
843.069	22999
843.206	23140
843.343	23220
843.479	23147
843.616	23227
843.752	23018
843.889	23003
844.025	23261
844.162	22987
844.298	23231
844.435	23250
844.571	23231
844.708	23520
844.844	23813
844.98	24072
845.117	24464
845.253	24970
845.389	25940
845.525	28040
845.661	31719
845.798	35912
845.934	39344
846.07	40470
846.206	39778
846.342	37061
846.478	32781
846.614	28984
846.75	26408
846.886	25042
847.022	24159
847.158	23528
847.294	23086
847.429	23018
847.565	22717
847.701	22866
847.837	22360
847.972	22181
848.108	22257
848.244	22158
848.379	22002
848.515	21869
848.65	21956
848.786	21865
848.921	21838
849.057	21934
849.192	21945
849.328	21926
849.463	21850
849.598	21663
849.734	21720
849.869	21568
850.004	21656
850.14	21534
850.275	21469
850.41	21504
850.545	21447
850.68	21485
850.815	21720
850.95	21439
851.085	21637
851.22	21591
851.355	21549
851.49	21374
851.625	21564
851.76	21466
851.895	21428
852.03	21408
852.165	21488
852.299	21534
852.434	21614
852.569	21564
852.703	21564
852.838	21561
852.973	21618
853.107	21648
853.242	21485
853.376	21488
853.511	21283
853.645	21477
853.78	21644
853.914	21610
854.048	21526
854.183	21625
854.317	21618
854.451	21698
854.585	21424
854.72	21485
854.854	21614
854.988	21496
855.122	21500
855.256	21367
855.39	21431
855.524	21526
855.658	21557
855.792	21393
855.926	21428
856.06	21313
856.194	21443
856.327	21374
856.461	21283
856.595	21226
856.729	21370
856.862	21439
856.996	21325
857.13	21291
857.263	21420
857.397	21447
857.53	21317
857.664	21359
857.797	21298
857.931	21382
858.064	21348
858.197	21321
858.331	21249
858.464	21226
858.597	21112
858.731	21146
858.864	21199
858.997	21230
859.13	21127
859.263	21241
859.396	21252
859.529	21051
859.662	21207
859.795	21138
859.928	21252
860.061	21264
860.194	21424
860.327	21154
860.46	21176
860.592	21252
860.725	21283
860.858	21268
860.99	21298
861.123	21135
861.256	21077
861.388	21013
861.521	21797
861.653	20963
861.786	21024
861.918	20998
862.05	21036
862.183	21135
862.315	21116
862.447	21180
862.58	21119
862.712	20887
862.844	20883
862.976	20929
863.108	20872
863.24	21176
863.372	20826
863.504	20777
863.636	20800
863.768	20842
863.9	20750
864.032	20701
864.164	20739
864.296	20895
864.428	20823
864.559	20963
864.691	20921
864.823	20724
864.954	20754
865.086	20678
865.217	20773
865.349	20636
865.48	20765
865.612	20602
865.743	20804
865.875	20731
866.006	20674
866.137	20644
866.269	20705
866.4	20689
866.531	20613
866.662	20629
866.793	20667
866.924	20670
867.055	20678
867.186	20632
867.317	20693
867.448	20651
867.579	20655
867.71	20507
867.841	20545
867.972	20636
868.103	20594
868.233	20743
868.364	20724
868.495	20724
868.625	20781
868.756	20937
868.886	20724
869.017	20845
869.147	21005
869.278	20979
869.408	20914
869.539	20925
869.669	21070
869.799	20895
869.929	21036
870.06	20944
870.19	21169
870.32	21150
870.45	21222
870.58	21313
870.71	21370
870.84	21348
870.97	21359
871.1	21241
871.23	21473
871.36	21595
871.489	21428
871.619	21515
871.749	21500
871.879	21629
872.008	21553
872.138	21633
872.267	21496
872.397	21511
872.526	21443
872.656	21492
872.785	21443
872.915	21625
873.044	21747
873.173	21682
873.303	21823
873.432	21675
873.561	21751
873.69	21781
873.819	21724
873.948	21953
874.077	21720
874.206	21846
874.335	21759
874.464	21945
874.593	22169
874.722	22025
874.851	22059
874.979	22120
875.108	22242
875.237	22078
875.365	21934
875.494	22242
875.623	22310
875.751	22276
875.88	22333
876.008	22402
876.136	22565
876.265	22702
876.393	22984
876.521	22949
876.65	22961
876.778	22908
876.906	22831
877.034	23010
877.162	22904
877.29	22946
877.418	22987
877.546	23174
877.674	23269
877.802	23227
877.93	23391
878.058	23482
878.185	23444
878.313	23767
878.441	23893
878.568	24087
878.696	24456
878.824	25034
878.951	25822
879.079	26792
879.206	28067
879.333	29273
879.461	30456
879.588	31122
879.715	31232
879.842	30779
879.97	29429
880.097	27911
880.224	27028
880.351	26233
880.478	25529
880.605	25297
880.732	25065
880.859	25046
880.986	24840
881.112	24772
881.239	24623
881.366	24407
881.493	24372
881.619	24205
881.746	24201
881.872	24323
881.999	24235
882.125	24319
882.252	24376
882.378	24380
882.505	24471
882.631	24315
882.757	24064
882.883	24304
883.01	24045
883.136	24041
883.262	23927
883.388	23965
883.514	24125
883.64	24114
883.766	23874
883.892	23790
884.018	23920
884.143	24076
884.269	24140
884.395	23992
884.52	23870
884.646	23779
884.772	23813
884.897	23775
885.023	23870
885.148	23840
885.274	23927
885.399	23779
885.524	23516
885.65	23547
885.775	23364
885.9	23280
886.025	23337
886.15	23307
886.275	23052
886.4	22984
886.525	22972
886.65	22839
886.775	22725
886.9	22786
887.025	22911
887.149	22603
887.274	22451
887.399	22265
887.523	22169
887.648	22029
887.773	22070
887.897	22093
888.021	21987
888.146	22013
888.27	22017
888.395	21972
888.519	21972
888.643	21884
888.767	21812
888.891	21778
889.015	21629
889.139	21545
889.263	21420
889.387	21583
889.511	21682
889.635	21492
889.759	21405
889.883	21431
890.006	21382
890.13	21386
890.254	21435
890.377	21321
890.501	21135
890.624	20963
890.748	21066
890.871	20906
890.995	20838
891.118	20640
891.241	20781
891.364	20724
891.488	20910
891.611	20754
891.734	20765
891.857	20663
891.98	20705
892.103	20708
892.226	20689
892.349	20488
892.471	20454
892.594	20659
892.717	20526
892.839	20560
892.962	20484
893.085	20541
893.207	20469
893.33	20309
893.452	20317
893.575	20446
893.697	20374
893.819	20541
893.941	20552
894.064	20450
894.186	20286
894.308	20195
894.43	20461
894.552	20389
894.674	20374
894.796	20237
894.918	20339
895.04	20305
895.161	20248
895.283	20240
895.405	20130
895.526	20191
895.648	20199
895.769	20183
895.891	20103
896.012	20229
896.134	20153
896.255	20180
896.376	20142
896.498	20218
896.619	20324
896.74	20145
896.861	20252
896.982	20495
897.103	20693
897.224	20575
897.345	20419
897.466	20256
897.587	20317
897.708	20457
897.828	20317
897.949	20225
898.07	20111
898.19	20210
898.311	20438
898.431	20343
898.552	20240
898.672	20278
898.792	20355
898.913	20259
899.033	20187
899.153	20096
899.273	19951
899.393	19936
899.513	19963
899.633	20065
899.753	20012
899.873	19944
899.993	20065
900.113	20054
900.232	19974
900.352	19898
900.472	19947
900.591	19746
900.711	19925
900.83	19742
900.95	19898
901.069	19902
901.189	19746
901.308	19472
901.427	19419
901.546	19407
901.665	19365
901.784	19419
901.904	19213
902.023	19202
902.141	19072
902.26	18844
902.379	18973
902.498	18882
902.617	18920
902.735	18924
902.854	18821
902.973	18711
903.091	18525
903.21	18445
903.328	18418
903.446	18498
903.565	18281
903.683	18315
903.801	18064
903.919	18163
904.038	18209
904.156	17927
904.274	17999
904.392	18011
904.51	18030
904.627	17984
904.745	18034
904.863	17999
904.981	17687
905.098	17611
905.216	17596
905.334	17581
905.451	17604
905.569	17509
905.686	17573
905.803	17589
905.921	17235
906.038	17383
906.155	17425
906.272	17220
906.389	17277
906.506	17212
906.623	17098
906.74	17109
906.857	16885
906.974	17037
907.091	17037
907.208	17090
907.324	17048
907.441	16915
907.557	16755
907.674	16717
907.79	16580
907.907	16729
908.023	16812
908.139	16797
908.256	16702
908.372	16622
908.488	16478
908.604	16466
908.72	16394
908.836	16523
908.952	16379
909.068	16474
909.184	16538
909.3	16356
909.415	16432
909.531	16485
909.647	16173
909.762	16131
909.878	16120
909.993	16112
910.108	16093
910.224	16036
910.339	16093
910.454	16048
910.57	16029
910.685	15903
910.8	16078
910.915	16101
911.03	15934
911.145	15846
911.259	15720
911.374	15720
911.489	15660
911.604	15633
911.718	15473
911.833	15523
911.947	15405
912.062	15207
912.176	15481
912.291	15504
912.405	15439
912.519	15698
912.633	15614
912.748	15545
912.862	15287
912.976	15180
913.09	15180
913.204	15275
913.318	15188
913.431	15344
913.545	15378
913.659	15329
913.772	15237
913.886	15036
914	15005
914.113	15116
914.226	15135
914.34	15070
914.453	14948
914.566	15051
914.68	15036
914.793	14956
914.906	14785
915.019	14636
915.132	14697
915.245	14769
915.358	14746
915.47	14743
915.583	14735
915.696	14705
915.809	14762
915.921	14807
916.034	14667
916.146	14625
916.259	14617
916.371	14712
916.483	14686
916.595	14598
916.708	14568
916.82	14499
916.932	14602
917.044	14552
917.156	14484
917.268	14412
917.38	14511
917.491	14336
917.603	14396
917.715	14408
917.826	14415
917.938	14347
918.049	14263
918.161	14328
918.272	14377
918.384	14336
918.495	14290
918.606	14191
918.717	14054
918.828	14119
918.939	14054
919.05	14035
919.161	14126
919.272	13871
919.383	13951
919.494	14111
919.604	14256
919.715	14081
919.826	14027
919.936	13967
920.047	14153
920.157	14005
920.267	14168
920.378	13959
920.488	14035
920.598	14271
920.708	14336
920.818	14123
920.928	14168
921.038	14336
921.148	14282
921.258	13909
921.368	13833
921.477	13849
921.587	13757
921.697	13643
921.806	13761
921.916	13594
922.025	13445
922.134	13449
922.244	13350
922.353	13464
922.462	13346
922.571	13221
922.68	13038
922.789	13069
922.898	13050
923.007	13050
923.116	13061
923.224	13053
923.333	12996
923.442	12886
923.55	12920
923.659	12909
923.767	12932
923.876	12802
923.984	12844
924.092	12772
924.201	12909
924.309	12715
924.417	12772
924.525	12730
924.633	12662
924.741	13620
924.849	12532
924.956	12700
925.064	12483
925.172	12475
925.279	12456
925.387	12544
925.494	12410
925.602	12623
925.709	12566
925.816	12410
925.924	12494
926.031	12578
926.138	12429
926.245	12521
926.352	12315
926.459	12498
926.566	12540
926.673	12327
926.779	12304
926.886	12182
926.993	12068
927.099	12068
927.206	12022
927.312	11999
927.419	12133
927.525	12064
927.631	12076
927.737	12045
927.843	11904
927.95	11851
928.056	11828
928.162	11999
928.267	11916
928.373	12418
928.479	11931
928.585	11726
928.69	11916
928.796	11882
928.901	11783
929.007	11638
929.112	11726
929.218	11657
929.323	11642
929.428	11619
929.533	11737
929.638	11562
929.743	11592
929.848	11634
929.953	11558
930.058	11490
930.163	11292
930.267	11364
930.372	11436
930.477	11368
930.581	11516
930.685	11353
930.79	11284
930.894	11231
930.998	11098
931.103	11322
931.207	10942
931.311	10889
931.415	10706
931.519	10656
931.623	10554
