Data from test_V78500241_1440.txt Node
Date: Fri Mar 25 14:43:44 CST 2022
User: usil
Spectrometer: V785-0024
Trigger mode: 0
Integration Time (sec): 4.000000E-1
Scans to average: 1
Nonlinearity correction enabled: false
Boxcar width: 0
Storing dark spectrum: false
XAxis mode: Wavelengths
Number of Pixels in Spectrum: 1024
>>>>>Begin Spectral Data<<<<<
801.071	22462
801.214	22314
801.356	22139
801.499	21956
801.641	21865
801.783	21633
801.926	21823
802.068	21701
802.211	21698
802.353	21595
802.496	21344
802.638	21306
802.78	21287
802.923	21112
803.065	21116
803.208	21051
803.35	21131
803.492	21184
803.635	21279
803.777	21203
803.919	21241
804.061	21488
804.204	21180
804.346	21180
804.488	21096
804.63	21165
804.773	21085
804.915	21119
805.057	21195
805.199	21116
805.341	21116
805.483	21146
805.626	21233
805.768	20929
805.91	21108
806.052	21055
806.194	20963
806.336	21211
806.478	21032
806.62	21001
806.762	21131
806.904	21260
807.046	21481
807.188	21302
807.33	21450
807.472	21447
807.614	21416
807.756	21382
807.898	21325
808.04	21146
808.182	21325
808.324	21321
808.465	21336
808.607	21549
808.749	21599
808.891	21831
809.033	21892
809.174	21694
809.316	21572
809.458	21564
809.6	21618
809.741	21675
809.883	21587
810.025	21770
810.166	21622
810.308	21633
810.45	21770
810.591	21523
810.733	21378
810.875	21370
811.016	21180
811.158	21332
811.299	21412
811.441	21443
811.582	21348
811.724	21252
811.865	21256
812.007	21211
812.148	21245
812.29	21287
812.431	21469
812.573	21553
812.714	21595
812.855	21694
812.997	21804
813.138	22067
813.279	21797
813.421	21755
813.562	21618
813.703	21557
813.845	21485
813.986	21066
814.127	21032
814.268	20925
814.41	20895
814.551	20868
814.692	20880
814.833	20708
814.974	20724
815.115	20743
815.256	20651
815.397	20655
815.539	20693
815.68	20609
815.821	20404
815.962	20522
816.103	20530
816.244	20358
816.385	20263
816.526	20282
816.666	19955
816.807	20005
816.948	20134
817.089	20107
817.23	19989
817.371	19974
817.512	19936
817.653	19940
817.793	19944
817.934	19959
818.075	19883
818.216	19970
818.356	19852
818.497	19750
818.638	19567
818.778	19529
818.919	19563
819.06	19563
819.2	19731
819.341	19731
819.481	19833
819.622	19921
819.762	20073
819.903	19947
820.043	19883
820.184	19890
820.324	19898
820.465	20024
820.605	19951
820.746	19982
820.886	19772
821.026	19750
821.167	19833
821.307	19928
821.447	19788
821.588	19746
821.728	19575
821.868	19491
822.008	19350
822.149	19209
822.289	19289
822.429	19069
822.569	19122
822.709	19042
822.849	18776
822.99	18844
823.13	18859
823.27	18783
823.41	18715
823.55	18544
823.69	18585
823.83	18722
823.97	18555
824.11	18429
824.25	18369
824.389	18369
824.529	18403
824.669	18445
824.809	18536
824.949	18521
825.089	18448
825.228	18410
825.368	18117
825.508	18273
825.648	18254
825.787	18136
825.927	18159
826.067	18148
826.206	18216
826.346	18174
826.485	18163
826.625	18110
826.765	18220
826.904	18152
827.044	17885
827.183	17912
827.323	17805
827.462	17832
827.601	17813
827.741	17874
827.88	17885
828.02	17729
828.159	17836
828.298	17790
828.437	17885
828.577	17775
828.716	17935
828.855	17794
828.994	17558
829.134	17520
829.273	17589
829.412	17596
829.551	17566
829.69	17482
829.829	17676
829.968	17665
830.107	17623
830.246	17554
830.385	17581
830.524	17478
830.663	17505
830.802	17318
830.941	17117
831.08	17212
831.219	17284
831.357	17277
831.496	17471
831.635	17220
831.774	17105
831.913	17174
832.051	16949
832.19	16972
832.329	17041
832.467	16896
832.606	16869
832.744	16843
832.883	16889
833.022	16824
833.16	16877
833.299	16972
833.437	17006
833.576	16915
833.714	16862
833.852	17010
833.991	17025
834.129	17083
834.267	17003
834.406	16957
834.544	17003
834.682	17006
834.821	16835
834.959	17045
835.097	16824
835.235	16946
835.373	16976
835.511	16835
835.65	16763
835.788	16839
835.926	16649
836.064	16592
836.202	16763
836.34	16873
836.478	16850
836.615	16771
836.753	16946
836.891	16873
837.029	16771
837.167	16828
837.305	16839
837.443	16725
837.58	16645
837.718	16771
837.856	16664
837.993	16683
838.131	16752
838.269	16660
838.406	16687
838.544	16542
838.681	16268
838.819	16462
838.956	16299
839.094	16280
839.231	16367
839.369	16344
839.506	16592
839.643	16474
839.781	16188
839.918	16303
840.055	16196
840.193	16226
840.33	16166
840.467	16230
840.604	16219
840.742	16497
840.879	16166
841.016	16101
841.153	16093
841.29	16337
841.427	16215
841.564	16272
841.701	16207
841.838	16257
841.975	16207
842.112	16112
842.249	16044
842.385	15953
842.522	16207
842.659	16029
842.796	16063
842.933	16032
843.069	15968
843.206	16006
843.343	16101
843.479	16109
843.616	15991
843.752	15751
843.889	15827
844.025	16002
844.162	15679
844.298	15960
844.435	15831
844.571	15899
844.708	15892
844.844	15979
844.98	16071
845.117	15915
845.253	15778
845.389	15713
845.525	15850
845.661	15884
845.798	15755
845.934	15903
846.07	15884
846.206	16006
846.342	16040
846.478	15800
846.614	15557
846.75	15374
846.886	15401
847.022	15473
847.158	15405
847.294	15336
847.429	15469
847.565	15359
847.701	15576
847.837	15161
847.972	15112
848.108	15154
848.244	15203
848.379	15001
848.515	14963
848.65	14990
848.786	14994
848.921	14990
849.057	15043
849.192	15077
849.328	15097
849.463	15062
849.598	14998
849.734	14918
849.869	14883
850.004	14705
850.14	14834
850.275	14807
850.41	14674
850.545	14712
850.68	14765
850.815	14674
850.95	14708
851.085	14876
851.22	14952
851.355	14731
851.49	14788
851.625	14689
851.76	14739
851.895	14629
852.03	14625
852.165	14708
852.299	14788
852.434	14842
852.569	14678
852.703	14727
852.838	14804
852.973	14853
853.107	14895
853.242	14674
853.376	14636
853.511	14549
853.645	14575
853.78	14708
853.914	14636
854.048	14636
854.183	14720
854.317	14590
854.451	14800
854.585	14640
854.72	14606
854.854	14667
854.988	14594
855.122	14632
855.256	14457
855.39	14537
855.524	14670
855.658	14655
855.792	14617
855.926	14663
856.06	14731
856.194	14735
856.327	14629
856.461	14560
856.595	14594
856.729	14606
856.862	14682
856.996	14625
857.13	14682
857.263	14739
857.397	14716
857.53	14518
857.664	14632
857.797	14746
857.931	14788
858.064	14682
858.197	14674
858.331	14689
858.464	14686
858.597	14549
858.731	14610
858.864	14731
858.997	14575
859.13	14606
859.263	14587
859.396	14705
859.529	14571
859.662	14689
859.795	14560
859.928	14613
860.061	14682
860.194	14853
860.327	14632
860.46	14598
860.592	14746
860.725	14739
860.858	14785
860.99	14640
861.123	14499
861.256	14503
861.388	14644
861.521	15249
861.653	14427
861.786	14427
861.918	14583
862.05	14465
862.183	14571
862.315	14648
862.447	14571
862.58	14560
862.712	14374
862.844	14404
862.976	14457
863.108	14358
863.24	14807
863.372	14309
863.504	14358
863.636	14408
863.768	14450
863.9	14400
864.032	14256
864.164	14381
864.296	14374
864.428	14423
864.559	14503
864.691	14442
864.823	14423
864.954	14404
865.086	14419
865.217	14355
865.349	14358
865.48	14336
865.612	14366
865.743	14530
865.875	14385
866.006	14404
866.137	14374
866.269	14355
866.4	14400
866.531	14320
866.662	14248
866.793	14240
866.924	14423
867.055	14362
867.186	14332
867.317	14267
867.448	14275
867.579	14286
867.71	14244
867.841	14271
867.972	14259
868.103	14267
868.233	14324
868.364	14339
868.495	14450
868.625	14621
868.756	14735
868.886	14465
869.017	14533
869.147	14644
869.278	14777
869.408	14594
869.539	14541
869.669	14564
869.799	14693
869.929	14697
870.06	14750
870.19	14906
870.32	14910
870.45	14937
870.58	15039
870.71	15024
870.84	15195
870.97	15089
871.1	15020
871.23	15203
871.36	15157
871.489	15127
871.619	15081
871.749	15165
871.879	15275
872.008	15321
872.138	15184
872.267	15199
872.397	15039
872.526	14971
872.656	15001
872.785	15127
872.915	15260
873.044	15287
873.173	15165
873.303	15264
873.432	15306
873.561	15256
873.69	15131
873.819	15127
873.948	15359
874.077	15401
874.206	15233
874.335	15283
874.464	15386
874.593	15542
874.722	15416
874.851	15545
874.979	15580
875.108	15652
875.237	15580
875.365	15462
875.494	15481
875.623	15652
875.751	15511
875.88	15538
876.008	15686
876.136	15713
876.265	16002
876.393	16177
876.521	16055
876.65	16017
876.778	16006
876.906	15926
877.034	15869
877.162	15854
877.29	16025
877.418	15994
877.546	15884
877.674	15979
877.802	15937
877.93	15987
878.058	16029
878.185	15888
878.313	15968
878.441	16029
878.568	15804
878.696	15941
878.824	16067
878.951	16105
879.079	16211
879.206	16363
879.333	16348
879.461	16147
879.588	16272
879.715	16246
879.842	16421
879.97	16124
880.097	15903
880.224	15785
880.351	15861
880.478	15846
880.605	15850
880.732	15873
880.859	16071
880.986	15907
881.112	15941
881.239	15774
881.366	15637
881.493	15637
881.619	15534
881.746	15504
881.872	15435
881.999	15469
882.125	15462
882.252	15648
882.378	15629
882.505	15614
882.631	15530
882.757	15378
882.883	15420
883.01	15336
883.136	15230
883.262	15298
883.388	15123
883.514	15374
883.64	15363
883.766	15275
883.892	15142
884.018	15192
884.143	15325
884.269	15454
884.395	15074
884.52	14975
884.646	15005
884.772	14864
884.897	14952
885.023	15097
885.148	15085
885.274	15203
885.399	15100
885.524	15085
885.65	15055
885.775	15039
885.9	14956
886.025	15279
886.15	15013
886.275	15058
886.4	14929
886.525	15005
886.65	14918
886.775	15001
886.9	15100
887.025	15260
887.149	14853
887.274	14872
887.399	14838
887.523	14792
887.648	14823
887.773	14640
887.897	14864
888.021	14807
888.146	14781
888.27	14891
888.395	14906
888.519	15020
888.643	14823
888.767	14906
888.891	14724
889.015	14689
889.139	14735
889.263	14556
889.387	14842
889.511	14902
889.635	14861
889.759	14632
889.883	14640
890.006	14693
890.13	14811
890.254	14606
890.377	14625
890.501	14476
890.624	14465
890.748	14476
890.871	14374
890.995	14317
891.118	14256
891.241	14442
891.364	14412
891.488	14488
891.611	14385
891.734	14450
891.857	14518
891.98	14442
892.103	14408
892.226	14457
892.349	14404
892.471	14290
892.594	14381
892.717	14370
892.839	14415
892.962	14442
893.085	14473
893.207	14488
893.33	14248
893.452	14267
893.575	14457
893.697	14358
893.819	14568
893.941	14583
894.064	14533
894.186	14381
894.308	14309
894.43	14583
894.552	14575
894.674	14495
894.796	14294
894.918	14431
895.04	14408
895.161	14514
895.283	14556
895.405	14476
895.526	14457
895.648	14492
895.769	14533
895.891	14518
896.012	14648
896.134	14590
896.255	14533
896.376	14629
896.498	14530
896.619	14712
896.74	14575
896.861	14606
896.982	15001
897.103	15013
897.224	14941
897.345	14781
897.466	14796
897.587	14830
897.708	14956
897.828	14899
897.949	14861
898.07	14701
898.19	14883
898.311	15001
898.431	14857
898.552	14956
898.672	15013
898.792	15009
898.913	14967
899.033	14853
899.153	14845
899.273	14773
899.393	14727
899.513	14804
899.633	14861
899.753	14811
899.873	14819
899.993	14815
900.113	14746
900.232	14781
900.352	14800
900.472	14708
900.591	14667
900.711	14625
900.83	14674
900.95	14712
901.069	14769
901.189	14629
901.308	14400
901.427	14351
901.546	14347
901.665	14377
901.784	14294
901.904	14195
902.023	14115
902.141	13955
902.26	13841
902.379	13944
902.498	13856
902.617	13765
902.735	13875
902.854	13864
902.973	13757
903.091	13601
903.21	13480
903.328	13613
903.446	13468
903.565	13339
903.683	13567
903.801	13354
903.919	13422
904.038	13445
904.156	13255
904.274	13312
904.392	13304
904.51	13263
904.627	13289
904.745	13289
904.863	13369
904.981	13038
905.098	13000
905.216	12981
905.334	13023
905.451	12806
905.569	12916
905.686	13023
905.803	12920
905.921	12662
906.038	12939
906.155	12779
906.272	12681
906.389	12806
906.506	12540
906.623	12544
906.74	12559
906.857	12357
906.974	12494
907.091	12604
907.208	12654
907.324	12563
907.441	12391
907.557	12266
907.674	12289
907.79	12186
907.907	12243
908.023	12296
908.139	12311
908.256	12289
908.372	12201
908.488	12136
908.604	12098
908.72	11942
908.836	11939
908.952	11992
909.068	12045
909.184	12133
909.3	12064
909.415	12030
909.531	11996
909.647	11824
909.762	11828
909.878	11748
909.993	11764
910.108	11783
910.224	11737
910.339	11790
910.454	11642
910.57	11653
910.685	11547
910.8	11912
910.915	11764
911.03	11638
911.145	11535
911.259	11493
911.374	11467
911.489	11398
911.604	11349
911.718	11250
911.833	11258
911.947	11170
912.062	11041
912.176	11273
912.291	11239
912.405	11216
912.519	11452
912.633	11337
912.748	11311
912.862	11159
912.976	11162
913.09	11033
913.204	11041
913.318	11064
913.431	11250
913.545	11204
913.659	11201
913.772	11124
913.886	10968
914	10942
914.113	11075
914.226	11083
914.34	11083
914.453	10866
914.566	11083
914.68	10919
914.793	10942
914.906	10740
915.019	10702
915.132	10626
915.245	10721
915.358	10706
915.47	10759
915.583	10710
915.696	10733
915.809	10908
915.921	10873
916.034	10733
916.146	10675
916.259	10649
916.371	10729
916.483	10660
916.595	10607
916.708	10622
916.82	10672
916.932	10630
917.044	10687
917.156	10630
917.268	10523
917.38	10615
917.491	10622
917.603	10569
917.715	10656
917.826	10683
917.938	10618
918.049	10428
918.161	10611
918.272	10683
918.384	10611
918.495	10592
918.606	10421
918.717	10348
918.828	10363
918.939	10382
919.05	10344
919.161	10382
919.272	10219
919.383	10230
919.494	10405
919.604	10668
919.715	10440
919.826	10303
919.936	10390
920.047	10474
920.157	10485
920.267	10580
920.378	10527
920.488	10367
920.598	10656
920.708	10744
920.818	10573
920.928	10634
921.038	10675
921.148	10752
921.258	10481
921.368	10375
921.477	10299
921.587	10200
921.697	10143
921.806	10348
921.916	10166
922.025	10082
922.134	9854
922.244	9911
922.353	9941
922.462	9895
922.571	9827
922.68	9705
922.789	9610
922.898	9755
923.007	9618
923.116	9724
923.224	9679
923.333	9576
923.442	9610
923.55	9538
923.659	9553
923.767	9591
923.876	9504
923.984	9694
924.092	9466
924.201	9610
924.309	9568
924.417	9557
924.525	9466
924.633	9443
924.741	10413
924.849	9253
924.956	9424
925.064	9306
925.172	9233
925.279	9283
925.387	9329
925.494	9329
925.602	9458
925.709	9355
925.816	9313
925.924	9310
926.031	9408
926.138	9340
926.245	9378
926.352	9287
926.459	9405
926.566	9397
926.673	9195
926.779	9207
926.886	9203
926.993	9020
927.099	9062
927.206	8937
927.312	9058
927.419	9108
927.525	9032
927.631	9047
927.737	8986
927.843	8906
927.95	8750
928.056	8868
928.162	8883
928.267	8967
928.373	9603
928.479	9093
928.585	8777
928.69	8880
928.796	8982
928.901	8800
929.007	8644
929.112	8830
929.218	8754
929.323	8739
929.428	8739
929.533	8842
929.638	8663
929.743	8724
929.848	8804
929.953	8743
930.058	8686
930.163	8408
930.267	8522
930.372	8701
930.477	8518
930.581	8625
930.685	8560
930.79	8366
930.894	8492
930.998	8419
931.103	8590
931.207	8252
931.311	8187
931.415	8157
931.519	8020
931.623	7955
