Data from test_V78500241_2929.txt Node
Date: Fri Mar 25 14:54:06 CST 2022
User: usil
Spectrometer: V785-0024
Trigger mode: 0
Integration Time (sec): 4.000000E-1
Scans to average: 1
Nonlinearity correction enabled: false
Boxcar width: 0
Storing dark spectrum: false
XAxis mode: Wavelengths
Number of Pixels in Spectrum: 1024
>>>>>Begin Spectral Data<<<<<
801.071	22090
801.214	22006
801.356	21728
801.499	21622
801.641	21667
801.783	21450
801.926	21492
802.068	21447
802.211	21374
802.353	21249
802.496	21093
802.638	21005
802.78	20868
802.923	20895
803.065	20743
803.208	20921
803.35	20739
803.492	20971
803.635	20952
803.777	20731
803.919	20819
804.061	21047
804.204	20830
804.346	20754
804.488	20712
804.63	20906
804.773	20693
804.915	20727
805.057	20796
805.199	20678
805.341	20682
805.483	20674
805.626	20670
805.768	20629
805.91	20507
806.052	20674
806.194	20629
806.336	20861
806.478	20701
806.62	20609
806.762	20655
806.904	20902
807.046	21100
807.188	21047
807.33	21032
807.472	21131
807.614	20982
807.756	20910
807.898	20849
808.04	20727
808.182	20720
808.324	20902
808.465	20781
808.607	21024
808.749	21062
808.891	21096
809.033	21214
809.174	21188
809.316	20982
809.458	21009
809.6	20990
809.741	21127
809.883	21176
810.025	21233
810.166	21252
810.308	21317
810.45	21116
810.591	21066
810.733	20937
810.875	20994
811.016	20834
811.158	20720
811.299	20845
811.441	20994
811.582	21077
811.724	20857
811.865	20895
812.007	20834
812.148	20731
812.29	20819
812.431	20990
812.573	21093
812.714	21230
812.855	21351
812.997	21405
813.138	21424
813.279	21420
813.421	21344
813.562	21344
813.703	21070
813.845	20857
813.986	20609
814.127	20511
814.268	20457
814.41	20419
814.551	20381
814.692	20552
814.833	20313
814.974	20305
815.115	20431
815.256	20202
815.397	20252
815.539	20164
815.68	20168
815.821	20138
815.962	20145
816.103	19986
816.244	19951
816.385	19909
816.526	19887
816.666	19757
816.807	19586
816.948	19582
817.089	19655
817.23	19666
817.371	19609
817.512	19480
817.653	19388
817.793	19476
817.934	19396
818.075	19491
818.216	19540
818.356	19567
818.497	19350
818.638	19183
818.778	19244
818.919	19285
819.06	19202
819.2	19362
819.341	19411
819.481	19552
819.622	19514
819.762	19715
819.903	19544
820.043	19605
820.184	19666
820.324	19472
820.465	19529
820.605	19392
820.746	19457
820.886	19293
821.026	19449
821.167	19460
821.307	19632
821.447	19358
821.588	19217
821.728	19183
821.868	19042
822.008	18909
822.149	18852
822.289	18787
822.429	18715
822.569	18563
822.709	18570
822.849	18353
822.99	18410
823.13	18235
823.27	18376
823.41	18330
823.55	18121
823.69	18155
823.83	18190
823.97	18155
824.11	18060
824.25	17882
824.389	17996
824.529	17996
824.669	17999
824.809	18072
824.949	18015
825.089	17912
825.228	17984
825.368	17817
825.508	17882
825.648	17680
825.787	17729
825.927	17828
826.067	17630
826.206	17695
826.346	17756
826.485	17733
826.625	17691
826.765	17920
826.904	17764
827.044	17493
827.183	17493
827.323	17429
827.462	17482
827.601	17459
827.741	17353
827.88	17376
828.02	17341
828.159	17395
828.298	17474
828.437	17410
828.577	17379
828.716	17471
828.855	17398
828.994	17200
829.134	17094
829.273	17280
829.412	17136
829.551	17048
829.69	17132
829.829	17162
829.968	17136
830.107	17254
830.246	17197
830.385	17121
830.524	17064
830.663	16946
830.802	16934
830.941	16793
831.08	16725
831.219	16778
831.357	16740
831.496	16999
831.635	16835
831.774	16611
831.913	16653
832.051	16588
832.19	16592
832.329	16653
832.467	16519
832.606	16455
832.744	16447
832.883	16478
833.022	16474
833.16	16519
833.299	16542
833.437	16523
833.576	16447
833.714	16447
833.852	16542
833.991	16455
834.129	16508
834.267	16531
834.406	16561
834.544	16508
834.682	16481
834.821	16519
834.959	16653
835.097	16561
835.235	16706
835.373	16538
835.511	16558
835.65	16344
835.788	16371
835.926	16207
836.064	16303
836.202	16322
836.34	16474
836.478	16455
836.615	16405
836.753	16478
836.891	16558
837.029	16485
837.167	16424
837.305	16341
837.443	16280
837.58	16398
837.718	16363
837.856	16287
837.993	16185
838.131	16306
838.269	16192
838.406	16124
838.544	16158
838.681	15907
838.819	15907
838.956	15869
839.094	15800
839.231	15865
839.369	15994
839.506	16261
839.643	16097
839.781	15838
839.918	15804
840.055	15804
840.193	15846
840.33	15895
840.467	15800
840.604	15861
840.742	16116
840.879	15778
841.016	15759
841.153	15705
841.29	15895
841.427	15857
841.564	15789
841.701	15842
841.838	15808
841.975	15682
842.112	15698
842.249	15603
842.385	15622
842.522	15819
842.659	15625
842.796	15591
842.933	15511
843.069	15557
843.206	15584
843.343	15644
843.479	15481
843.616	15564
843.752	15435
843.889	15412
844.025	15584
844.162	15412
844.298	15492
844.435	15287
844.571	15245
844.708	15462
844.844	15561
844.98	15656
845.117	15488
845.253	15351
845.389	15287
845.525	15249
845.661	15302
845.798	15317
845.934	15150
846.07	15104
846.206	15214
846.342	15325
846.478	15173
846.614	15013
846.75	14914
846.886	14921
847.022	15058
847.158	15051
847.294	14990
847.429	14982
847.565	14990
847.701	15195
847.837	14785
847.972	14610
848.108	14785
848.244	14701
848.379	14579
848.515	14606
848.65	14583
848.786	14575
848.921	14598
849.057	14682
849.192	14689
849.328	14602
849.463	14499
849.598	14537
849.734	14514
849.869	14415
850.004	14412
850.14	14366
850.275	14275
850.41	14301
850.545	14381
850.68	14305
850.815	14343
850.95	14237
851.085	14541
851.22	14423
851.355	14317
851.49	14309
851.625	14244
851.76	14259
851.895	14240
852.03	14225
852.165	14240
852.299	14412
852.434	14408
852.569	14404
852.703	14377
852.838	14438
852.973	14465
853.107	14408
853.242	14339
853.376	14240
853.511	14058
853.645	14073
853.78	14294
853.914	14164
854.048	14206
854.183	14145
854.317	14100
854.451	14347
854.585	14214
854.72	14183
854.854	14248
854.988	14145
855.122	14218
855.256	14084
855.39	14142
855.524	14161
855.658	14221
855.792	14259
855.926	14183
856.06	14119
856.194	14199
856.327	14161
856.461	14172
856.595	14183
856.729	14172
856.862	14263
856.996	14263
857.13	14301
857.263	14351
857.397	14313
857.53	14126
857.664	14294
857.797	14195
857.931	14305
858.064	14218
858.197	14214
858.331	14161
858.464	14168
858.597	14123
858.731	14153
858.864	14221
858.997	14183
859.13	14358
859.263	14187
859.396	14275
859.529	14176
859.662	14218
859.795	14050
859.928	14221
860.061	14324
860.194	14412
860.327	14218
860.46	14115
860.592	14256
860.725	14374
860.858	14301
860.99	14206
861.123	14039
861.256	14142
861.388	14282
861.521	14682
861.653	14126
861.786	14031
861.918	14050
862.05	14073
862.183	14237
862.315	14107
862.447	14199
862.58	14039
862.712	13921
862.844	13890
862.976	14035
863.108	14031
863.24	14294
863.372	13993
863.504	13860
863.636	13917
863.768	14054
863.9	14001
864.032	13883
864.164	13974
864.296	13993
864.428	14183
864.559	13993
864.691	14126
864.823	13974
864.954	13974
865.086	13955
865.217	13989
865.349	13871
865.48	13989
865.612	14050
865.743	14103
865.875	13894
866.006	13921
866.137	13932
866.269	13833
866.4	13883
866.531	13879
866.662	13830
866.793	13860
866.924	13932
867.055	13970
867.186	13963
867.317	13898
867.448	13841
867.579	13875
867.71	13784
867.841	13769
867.972	13928
868.103	13936
868.233	14043
868.364	13978
868.495	14065
868.625	14172
868.756	14256
868.886	14088
869.017	14256
869.147	14339
869.278	14271
869.408	14123
869.539	14202
869.669	14210
869.799	14237
869.929	14290
870.06	14298
870.19	14579
870.32	14560
870.45	14503
870.58	14564
870.71	14773
870.84	14693
870.97	14629
871.1	14594
871.23	14796
871.36	14724
871.489	14731
871.619	14785
871.749	14785
871.879	14845
872.008	14925
872.138	14826
872.267	14876
872.397	14693
872.526	14720
872.656	14571
872.785	14621
872.915	14887
873.044	14830
873.173	14849
873.303	14956
873.432	14895
873.561	14971
873.69	14857
873.819	14842
873.948	14910
874.077	14834
874.206	14899
874.335	14883
874.464	14929
874.593	15058
874.722	15100
874.851	15283
874.979	15161
875.108	15230
875.237	15077
875.365	15081
875.494	15146
875.623	15260
875.751	15192
875.88	15233
876.008	15268
876.136	15447
876.265	15526
876.393	15755
876.521	15827
876.65	15686
876.778	15587
876.906	15595
877.034	15504
877.162	15584
877.29	15481
877.418	15530
877.546	15644
877.674	15595
877.802	15599
877.93	15660
878.058	15477
878.185	15568
878.313	15606
878.441	15606
878.568	15443
878.696	15507
878.824	15557
878.951	15709
879.079	15705
879.206	15808
879.333	15739
879.461	15538
879.588	15694
879.715	15804
879.842	15915
879.97	15568
880.097	15523
880.224	15405
880.351	15466
880.478	15469
880.605	15313
880.732	15325
880.859	15675
880.986	15526
881.112	15538
881.239	15287
881.366	15188
881.493	15127
881.619	15169
881.746	15157
881.872	15081
881.999	15093
882.125	15028
882.252	15150
882.378	15077
882.505	15169
882.631	15017
882.757	14838
882.883	14975
883.01	14830
883.136	14899
883.262	14807
883.388	14781
883.514	14948
883.64	15024
883.766	14857
883.892	14640
884.018	14735
884.143	14929
884.269	15047
884.395	14701
884.52	14632
884.646	14682
884.772	14560
884.897	14541
885.023	14617
885.148	14686
885.274	14750
885.399	14746
885.524	14644
885.65	14587
885.775	14617
885.9	14579
886.025	14663
886.15	14644
886.275	14640
886.4	14526
886.525	14549
886.65	14511
886.775	14530
886.9	14636
887.025	14762
887.149	14644
887.274	14476
887.399	14370
887.523	14351
887.648	14442
887.773	14309
887.897	14530
888.021	14454
888.146	14370
888.27	14568
888.395	14705
888.519	14564
888.643	14568
888.767	14473
888.891	14381
889.015	14313
889.139	14389
889.263	14301
889.387	14469
889.511	14518
889.635	14442
889.759	14278
889.883	14187
890.006	14385
890.13	14396
890.254	14199
890.377	14282
890.501	14153
890.624	14092
890.748	14202
890.871	14088
890.995	14046
891.118	13917
891.241	13947
891.364	14039
891.488	14073
891.611	14046
891.734	13959
891.857	14035
891.98	14008
892.103	14058
892.226	14100
892.349	14046
892.471	13887
892.594	13913
892.717	14008
892.839	13974
892.962	14012
893.085	14046
893.207	14058
893.33	13902
893.452	13997
893.575	14073
893.697	13989
893.819	14168
893.941	14096
894.064	14206
894.186	14008
894.308	13967
894.43	14111
894.552	14214
894.674	14134
894.796	13986
894.918	14084
895.04	14081
895.161	14240
895.283	14058
895.405	14050
895.526	14111
895.648	14065
895.769	14130
895.891	14225
896.012	14267
896.134	14343
896.255	14244
896.376	14164
896.498	14157
896.619	14183
896.74	14164
896.861	14263
896.982	14564
897.103	14689
897.224	14484
897.345	14476
897.466	14294
897.587	14423
897.708	14655
897.828	14522
897.949	14351
898.07	14366
898.19	14427
898.311	14579
898.431	14351
898.552	14537
898.672	14629
898.792	14564
898.913	14621
899.033	14507
899.153	14377
899.273	14343
899.393	14339
899.513	14480
899.633	14351
899.753	14381
899.873	14412
899.993	14465
900.113	14366
900.232	14484
900.352	14393
900.472	14324
900.591	14172
900.711	14298
900.83	14271
900.95	14362
901.069	14461
901.189	14153
901.308	14008
901.427	13864
901.546	13951
901.665	13978
901.784	13986
901.904	13856
902.023	13757
902.141	13540
902.26	13533
902.379	13563
902.498	13567
902.617	13575
902.735	13601
902.854	13472
902.973	13400
903.091	13289
903.21	13259
903.328	13198
903.446	13202
903.565	13129
903.683	13236
903.801	13152
903.919	13137
904.038	13126
904.156	12802
904.274	12954
904.392	12977
904.51	12871
904.627	12882
904.745	12913
904.863	12928
904.981	12798
905.098	12593
905.216	12608
905.334	12620
905.451	12582
905.569	12547
905.686	12635
905.803	12589
905.921	12357
906.038	12464
906.155	12471
906.272	12323
906.389	12380
906.506	12186
906.623	12224
906.74	12155
906.857	12076
906.974	12106
907.091	12239
907.208	12334
907.324	12270
907.441	12125
907.557	12015
907.674	11923
907.79	11840
907.907	11863
908.023	11927
908.139	11942
908.256	11851
908.372	11935
908.488	11805
908.604	11756
908.72	11710
908.836	11745
908.952	11668
909.068	11661
909.184	11813
909.3	11634
909.415	11775
909.531	11695
909.647	11516
909.762	11452
909.878	11436
909.993	11448
910.108	11387
910.224	11395
910.339	11448
910.454	11334
910.57	11315
910.685	11254
910.8	11474
910.915	11452
911.03	11368
911.145	11185
911.259	11071
911.374	11223
911.489	11079
911.604	11086
911.718	10862
911.833	10915
911.947	10801
912.062	10736
912.176	10896
912.291	10930
912.405	10908
912.519	11136
912.633	11121
912.748	11010
912.862	10873
912.976	10774
913.09	10790
913.204	10759
913.318	10721
913.431	10847
913.545	10812
913.659	10850
913.772	10752
913.886	10664
914	10588
914.113	10694
914.226	10721
914.34	10847
914.453	10653
914.566	10786
914.68	10588
914.793	10573
914.906	10405
915.019	10344
915.132	10310
915.245	10363
915.358	10443
915.47	10432
915.583	10489
915.696	10481
915.809	10531
915.921	10565
916.034	10402
916.146	10443
916.259	10348
916.371	10527
916.483	10466
916.595	10284
916.708	10421
916.82	10394
916.932	10318
917.044	10356
917.156	10257
917.268	10223
917.38	10284
917.491	10257
917.603	10238
917.715	10344
917.826	10394
917.938	10257
918.049	10097
918.161	10291
918.272	10398
918.384	10367
918.495	10276
918.606	10181
918.717	10101
918.828	10154
918.939	10177
919.05	10040
919.161	10181
919.272	9930
919.383	9911
919.494	10196
919.604	10455
919.715	10192
919.826	10051
919.936	10139
920.047	10177
920.157	10105
920.267	10390
920.378	10230
920.488	10158
920.598	10337
920.708	10573
920.818	10360
920.928	10284
921.038	10569
921.148	10531
921.258	10261
921.368	10082
921.477	10082
921.587	9968
921.697	9888
921.806	10021
921.916	9831
922.025	9800
922.134	9652
922.244	9770
922.353	9759
922.462	9641
922.571	9549
922.68	9405
922.789	9439
922.898	9428
923.007	9329
923.116	9389
923.224	9405
923.333	9424
923.442	9332
923.55	9302
923.659	9389
923.767	9386
923.876	9287
923.984	9302
924.092	9161
924.201	9264
924.309	9302
924.417	9378
924.525	9275
924.633	9241
924.741	10219
924.849	9077
924.956	9230
925.064	9066
925.172	9017
925.279	9024
925.387	9138
925.494	9142
925.602	9260
925.709	9161
925.816	9020
925.924	9176
926.031	9135
926.138	9062
926.245	9180
926.352	9085
926.459	9211
926.566	9173
926.673	9123
926.779	9017
926.886	8975
926.993	8815
927.099	8857
927.206	8766
927.312	8796
927.419	8887
927.525	8861
927.631	8849
927.737	8720
927.843	8762
927.95	8590
928.056	8735
928.162	8766
928.267	8758
928.373	9405
928.479	8853
928.585	8625
928.69	8701
928.796	8781
928.901	8644
929.007	8507
929.112	8625
929.218	8663
929.323	8579
929.428	8522
929.533	8716
929.638	8518
929.743	8484
929.848	8613
929.953	8518
930.058	8533
930.163	8298
930.267	8370
930.372	8457
930.477	8366
930.581	8564
930.685	8419
930.79	8275
930.894	8328
930.998	8248
931.103	8393
931.207	8092
931.311	8054
931.415	7967
931.519	7750
931.623	7788
