Data from test_V78500241_3383.txt Node
Date: Fri Mar 25 14:57:16 CST 2022
User: usil
Spectrometer: V785-0024
Trigger mode: 0
Integration Time (sec): 4.000000E-1
Scans to average: 1
Nonlinearity correction enabled: false
Boxcar width: 0
Storing dark spectrum: false
XAxis mode: Wavelengths
Number of Pixels in Spectrum: 1024
>>>>>Begin Spectral Data<<<<<
801.071	21899
801.214	21838
801.356	21663
801.499	21637
801.641	21325
801.783	21310
801.926	21317
802.068	21279
802.211	21165
802.353	21093
802.496	20880
802.638	20785
802.78	20861
802.923	20754
803.065	20712
803.208	20682
803.35	20609
803.492	20682
803.635	20716
803.777	20590
803.919	20724
804.061	20902
804.204	20743
804.346	20636
804.488	20552
804.63	20590
804.773	20476
804.915	20617
805.057	20758
805.199	20522
805.341	20613
805.483	20708
805.626	20701
805.768	20518
805.91	20629
806.052	20552
806.194	20571
806.336	20830
806.478	20514
806.62	20571
806.762	20655
806.904	20667
807.046	20982
807.188	21001
807.33	20925
807.472	21009
807.614	20792
807.756	20956
807.898	20720
808.04	20575
808.182	20598
808.324	20564
808.465	20640
808.607	20826
808.749	20910
808.891	20994
809.033	21036
809.174	21020
809.316	20910
809.458	20880
809.6	20758
809.741	21001
809.883	20952
810.025	21195
810.166	21020
810.308	21119
810.45	21039
810.591	20868
810.733	20743
810.875	20769
811.016	20651
811.158	20545
811.299	20655
811.441	20788
811.582	20899
811.724	20625
811.865	20743
812.007	20514
812.148	20655
812.29	20674
812.431	20891
812.573	20887
812.714	21127
812.855	21332
812.997	21268
813.138	21367
813.279	21161
813.421	21340
813.562	21123
813.703	20883
813.845	20739
813.986	20423
814.127	20393
814.268	20263
814.41	20336
814.551	20107
814.692	20183
814.833	20244
814.974	20122
815.115	20206
815.256	20096
815.397	20008
815.539	20039
815.68	20046
815.821	19875
815.962	19868
816.103	19902
816.244	19811
816.385	19780
816.526	19628
816.666	19548
816.807	19403
816.948	19460
817.089	19426
817.23	19350
817.371	19331
817.512	19320
817.653	19487
817.793	19282
817.934	19335
818.075	19335
818.216	19381
818.356	19240
818.497	19194
818.638	19050
818.778	18981
818.919	19095
819.06	19061
819.2	19076
819.341	19259
819.481	19187
819.622	19339
819.762	19533
819.903	19407
820.043	19377
820.184	19350
820.324	19255
820.465	19346
820.605	19384
820.746	19251
820.886	19065
821.026	19369
821.167	19213
821.307	19373
821.447	19206
821.588	19160
821.728	19076
821.868	18852
822.008	18833
822.149	18730
822.289	18700
822.429	18441
822.569	18498
822.709	18429
822.849	18098
822.99	18251
823.13	18167
823.27	18148
823.41	18087
823.55	17901
823.69	18117
823.83	18019
823.97	17802
824.11	17764
824.25	17767
824.389	17767
824.529	17908
824.669	17840
824.809	17942
824.949	17817
825.089	17965
825.228	17840
825.368	17627
825.508	17604
825.648	17596
825.787	17699
825.927	17733
826.067	17547
826.206	17581
826.346	17596
826.485	17676
826.625	17554
826.765	17581
826.904	17570
827.044	17349
827.183	17356
827.323	17258
827.462	17330
827.601	17330
827.741	17318
827.88	17368
828.02	17223
828.159	17185
828.298	17406
828.437	17406
828.577	17258
828.716	17318
828.855	17334
828.994	17121
829.134	17014
829.273	17003
829.412	16942
829.551	16995
829.69	17075
829.829	17098
829.968	17151
830.107	17086
830.246	17014
830.385	16949
830.524	16881
830.663	16805
830.802	16805
830.941	16679
831.08	16588
831.219	16759
831.357	16752
831.496	16847
831.635	16561
831.774	16497
831.913	16489
832.051	16443
832.19	16474
832.329	16500
832.467	16409
832.606	16348
832.744	16348
832.883	16360
833.022	16341
833.16	16325
833.299	16352
833.437	16497
833.576	16341
833.714	16356
833.852	16428
833.991	16489
834.129	16558
834.267	16352
834.406	16398
834.544	16504
834.682	16440
834.821	16382
834.959	16596
835.097	16436
835.235	16485
835.373	16440
835.511	16485
835.65	16318
835.788	16314
835.926	16188
836.064	16169
836.202	16147
836.34	16382
836.478	16360
836.615	16360
836.753	16402
836.891	16337
837.029	16379
837.167	16455
837.305	16299
837.443	16257
837.58	16242
837.718	16295
837.856	16325
837.993	16185
838.131	16150
838.269	16158
838.406	16112
838.544	16131
838.681	15941
838.819	16013
838.956	15690
839.094	15736
839.231	15774
839.369	15972
839.506	16143
839.643	16044
839.781	15838
839.918	15751
840.055	15770
840.193	15838
840.33	15778
840.467	15785
840.604	15816
840.742	16048
840.879	15660
841.016	15709
841.153	15720
841.29	15827
841.427	15736
841.564	15808
841.701	15800
841.838	15698
841.975	15713
842.112	15724
842.249	15599
842.385	15595
842.522	15739
842.659	15610
842.796	15485
842.933	15576
843.069	15606
843.206	15428
843.343	15641
843.479	15606
843.616	15549
843.752	15245
843.889	15306
844.025	15500
844.162	15306
844.298	15511
844.435	15332
844.571	15313
844.708	15420
844.844	15462
844.98	15500
845.117	15519
845.253	15325
845.389	15279
845.525	15272
845.661	15249
845.798	15199
845.934	15207
846.07	15051
846.206	15203
846.342	15245
846.478	15199
846.614	14998
846.75	14796
846.886	14804
847.022	14956
847.158	14952
847.294	14937
847.429	14941
847.565	14910
847.701	15150
847.837	14674
847.972	14606
848.108	14781
848.244	14697
848.379	14545
848.515	14518
848.65	14450
848.786	14476
848.921	14530
849.057	14602
849.192	14476
849.328	14560
849.463	14537
849.598	14480
849.734	14450
849.869	14366
850.004	14294
850.14	14336
850.275	14313
850.41	14237
850.545	14248
850.68	14221
850.815	14332
850.95	14305
851.085	14393
851.22	14343
851.355	14328
851.49	14332
851.625	14275
851.76	14191
851.895	14240
852.03	14134
852.165	14267
852.299	14396
852.434	14347
852.569	14286
852.703	14377
852.838	14434
852.973	14484
853.107	14431
853.242	14214
853.376	14149
853.511	14107
853.645	14096
853.78	14282
853.914	14058
854.048	14134
854.183	14107
854.317	14103
854.451	14263
854.585	14123
854.72	14138
854.854	14202
854.988	14054
855.122	14050
855.256	13974
855.39	14142
855.524	14221
855.658	14237
855.792	14069
855.926	14275
856.06	14199
856.194	14256
856.327	14187
856.461	14077
856.595	14126
856.729	14130
856.862	14210
856.996	14195
857.13	14237
857.263	14202
857.397	14252
857.53	14126
857.664	14248
857.797	14183
857.931	14229
858.064	14275
858.197	14301
858.331	14130
858.464	14103
858.597	14027
858.731	14062
858.864	14096
858.997	14267
859.13	14062
859.263	14149
859.396	14218
859.529	14126
859.662	13982
859.795	14096
859.928	14142
860.061	14347
860.194	14328
860.327	14225
860.46	14263
860.592	14278
860.725	14259
860.858	14271
860.99	14221
861.123	13989
861.256	14142
861.388	14161
861.521	14948
861.653	14107
861.786	13944
861.918	14027
862.05	14020
862.183	14081
862.315	14187
862.447	14191
862.58	14130
862.712	13978
862.844	13795
862.976	14046
863.108	13947
863.24	14442
863.372	13811
863.504	13909
863.636	13974
863.768	14016
863.9	14024
864.032	13864
864.164	13932
864.296	13947
864.428	14062
864.559	13967
864.691	14081
864.823	13944
864.954	13955
865.086	13913
865.217	13887
865.349	13830
865.48	13852
865.612	13913
865.743	14062
865.875	13909
866.006	13887
866.137	13890
866.269	13856
866.4	13932
866.531	13917
866.662	13849
866.793	13890
866.924	13822
867.055	13917
867.186	13898
867.317	13856
867.448	13841
867.579	13830
867.71	13814
867.841	13906
867.972	13932
868.103	13898
868.233	13925
868.364	13913
868.495	13906
868.625	14107
868.756	14229
868.886	14077
869.017	14107
869.147	14328
869.278	14259
869.408	14263
869.539	14187
869.669	14240
869.799	14301
869.929	14244
870.06	14278
870.19	14423
870.32	14503
870.45	14541
870.58	14613
870.71	14640
870.84	14617
870.97	14526
871.1	14457
871.23	14667
871.36	14819
871.489	14686
871.619	14823
871.749	14773
871.879	14830
872.008	14906
872.138	14636
872.267	14781
872.397	14716
872.526	14674
872.656	14598
872.785	14552
872.915	14823
873.044	14819
873.173	14788
873.303	14895
873.432	14861
873.561	14899
873.69	14857
873.819	14731
873.948	14880
874.077	14819
874.206	14815
874.335	14861
874.464	14971
874.593	15157
874.722	15108
874.851	15161
874.979	15161
875.108	15199
875.237	15089
875.365	15142
875.494	15116
875.623	15222
875.751	15176
875.88	15180
876.008	15370
876.136	15321
876.265	15496
876.393	15705
876.521	15743
876.65	15576
876.778	15530
876.906	15523
877.034	15564
877.162	15519
877.29	15443
877.418	15519
877.546	15485
877.674	15553
877.802	15515
877.93	15564
878.058	15492
878.185	15416
878.313	15523
878.441	15485
878.568	15332
878.696	15572
878.824	15564
878.951	15595
879.079	15694
879.206	15869
879.333	15679
879.461	15523
879.588	15736
879.715	15690
879.842	15831
879.97	15481
880.097	15428
880.224	15488
880.351	15526
880.478	15359
880.605	15393
880.732	15450
880.859	15690
880.986	15424
881.112	15435
881.239	15249
881.366	15161
881.493	15062
881.619	15146
881.746	15043
881.872	15150
881.999	14971
882.125	15032
882.252	14971
882.378	15104
882.505	15291
882.631	15043
882.757	14906
882.883	14982
883.01	14883
883.136	14792
883.262	14781
883.388	14781
883.514	14914
883.64	14849
883.766	14811
883.892	14735
884.018	14693
884.143	14891
884.269	14979
884.395	14697
884.52	14617
884.646	14644
884.772	14606
884.897	14381
885.023	14606
885.148	14731
885.274	14807
885.399	14663
885.524	14587
885.65	14610
885.775	14537
885.9	14545
886.025	14705
886.15	14663
886.275	14488
886.4	14465
886.525	14530
886.65	14488
886.775	14442
886.9	14720
887.025	14731
887.149	14602
887.274	14480
887.399	14381
887.523	14381
887.648	14370
887.773	14351
887.897	14446
888.021	14465
888.146	14381
888.27	14526
888.395	14473
888.519	14518
888.643	14583
888.767	14465
888.891	14324
889.015	14237
889.139	14328
889.263	14240
889.387	14469
889.511	14434
889.635	14339
889.759	14320
889.883	14267
890.006	14294
890.13	14503
890.254	14240
890.377	14271
890.501	14107
890.624	14084
890.748	14130
890.871	13982
890.995	13944
891.118	13856
891.241	13993
891.364	13993
891.488	14050
891.611	14046
891.734	14016
891.857	14016
891.98	13978
892.103	14077
892.226	14043
892.349	13951
892.471	13913
892.594	14027
892.717	13925
892.839	13913
892.962	14016
893.085	14024
893.207	14005
893.33	13864
893.452	13883
893.575	14073
893.697	13970
893.819	14088
893.941	14240
894.064	14046
894.186	13909
894.308	13974
894.43	14172
894.552	14172
894.674	14164
894.796	13951
894.918	14027
895.04	13967
895.161	14050
895.283	14062
895.405	14069
895.526	14134
895.648	13989
895.769	14088
895.891	14214
896.012	14218
896.134	14199
896.255	14267
896.376	14107
896.498	14191
896.619	14176
896.74	14073
896.861	14240
896.982	14377
897.103	14644
897.224	14427
897.345	14381
897.466	14324
897.587	14495
897.708	14541
897.828	14465
897.949	14355
898.07	14298
898.19	14423
898.311	14560
898.431	14533
898.552	14484
898.672	14541
898.792	14613
898.913	14434
899.033	14434
899.153	14374
899.273	14275
899.393	14317
899.513	14358
899.633	14339
899.753	14499
899.873	14412
899.993	14442
900.113	14393
900.232	14431
900.352	14370
900.472	14309
900.591	14202
900.711	14161
900.83	14119
900.95	14328
901.069	14298
901.189	14069
901.308	13997
901.427	13795
901.546	13822
901.665	13928
901.784	13936
901.904	13772
902.023	13674
902.141	13533
902.26	13582
902.379	13540
902.498	13506
902.617	13426
902.735	13457
902.854	13430
902.973	13373
903.091	13183
903.21	13202
903.328	13278
903.446	13069
903.565	13031
903.683	13114
903.801	12989
903.919	13008
904.038	13046
904.156	12909
904.274	12894
904.392	12863
904.51	12859
904.627	12939
904.745	12913
904.863	12821
904.981	12574
905.098	12589
905.216	12703
905.334	12555
905.451	12589
905.569	12540
905.686	12570
905.803	12578
905.921	12407
906.038	12486
906.155	12410
906.272	12357
906.389	12308
906.506	12182
906.623	12251
906.74	12148
906.857	12106
906.974	12110
907.091	12190
907.208	12304
907.324	12254
907.441	12030
907.557	11847
907.674	11870
907.79	11855
907.907	11927
908.023	11977
908.139	11988
908.256	11809
908.372	11710
908.488	11733
908.604	11688
908.72	11661
908.836	11627
908.952	11623
909.068	11623
909.184	11798
909.3	11676
909.415	11748
909.531	11707
909.647	11497
909.762	11474
909.878	11440
909.993	11417
910.108	11360
910.224	11452
910.339	11440
910.454	11318
910.57	11269
910.685	11246
910.8	11551
910.915	11417
911.03	11330
911.145	11136
911.259	11121
911.374	11079
911.489	11124
911.604	11037
911.718	10972
911.833	10965
911.947	10843
912.062	10710
912.176	10793
912.291	10866
912.405	10934
912.519	11181
912.633	11109
912.748	11029
912.862	10885
912.976	10782
913.09	10622
913.204	10729
913.318	10767
913.431	10790
913.545	10790
913.659	10911
913.772	10824
913.886	10618
914	10634
914.113	10740
914.226	10763
914.34	10812
914.453	10592
914.566	10744
914.68	10577
914.793	10596
914.906	10371
915.019	10322
915.132	10295
915.245	10295
915.358	10443
915.47	10390
915.583	10500
915.696	10428
915.809	10558
915.921	10554
916.034	10394
916.146	10341
916.259	10379
916.371	10402
916.483	10440
916.595	10299
916.708	10405
916.82	10306
916.932	10291
917.044	10280
917.156	10227
917.268	10207
917.38	10310
917.491	10242
917.603	10261
917.715	10284
917.826	10390
917.938	10188
918.049	10124
918.161	10246
918.272	10352
918.384	10363
918.495	10246
918.606	10162
918.717	10112
918.828	10188
918.939	10188
919.05	10116
919.161	10078
919.272	9884
919.383	10006
919.494	10154
919.604	10386
919.715	10101
919.826	10078
919.936	10097
920.047	10150
920.157	10188
920.267	10344
920.378	10093
920.488	10124
920.598	10253
920.708	10500
920.818	10375
920.928	10280
921.038	10531
921.148	10382
921.258	10207
921.368	10150
921.477	10017
921.587	9983
921.697	9911
921.806	10036
921.916	9911
922.025	9804
922.134	9698
922.244	9701
922.353	9736
922.462	9603
922.571	9500
922.68	9382
922.789	9359
922.898	9443
923.007	9397
923.116	9428
923.224	9424
923.333	9370
923.442	9340
923.55	9275
923.659	9321
923.767	9374
923.876	9287
923.984	9359
924.092	9222
924.201	9291
924.309	9279
924.417	9230
924.525	9165
924.633	9306
924.741	10120
924.849	9020
924.956	9214
925.064	9077
925.172	8971
925.279	9017
925.387	9074
925.494	9074
925.602	9233
925.709	9146
925.816	8979
925.924	9036
926.031	9180
926.138	9131
926.245	9089
926.352	8998
926.459	9108
926.566	9119
926.673	9055
926.779	8914
926.886	8925
926.993	8796
927.099	8758
927.206	8777
927.312	8746
927.419	8766
927.525	8842
927.631	8933
927.737	8735
927.843	8663
927.95	8537
928.056	8568
928.162	8686
928.267	8781
928.373	9313
928.479	8762
928.585	8541
928.69	8674
928.796	8663
928.901	8617
929.007	8484
929.112	8636
929.218	8541
929.323	8492
929.428	8507
929.533	8625
929.638	8400
929.743	8495
929.848	8549
929.953	8469
930.058	8374
930.163	8229
930.267	8324
930.372	8408
930.477	8214
930.581	8495
930.685	8328
930.79	8172
930.894	8286
930.998	8225
931.103	8336
931.207	8054
931.311	7928
931.415	7864
931.519	7731
931.623	7750
