Data from test_V78500241_923.txt Node
Date: Fri Mar 25 14:40:08 CST 2022
User: usil
Spectrometer: V785-0024
Trigger mode: 0
Integration Time (sec): 4.000000E-1
Scans to average: 1
Nonlinearity correction enabled: false
Boxcar width: 0
Storing dark spectrum: false
XAxis mode: Wavelengths
Number of Pixels in Spectrum: 1024
>>>>>Begin Spectral Data<<<<<
801.071	24837
801.214	24627
801.356	24315
801.499	24319
801.641	24117
801.783	24110
801.926	24121
802.068	24026
802.211	23908
802.353	23840
802.496	23596
802.638	23436
802.78	23353
802.923	23482
803.065	23311
803.208	23349
803.35	23414
803.492	23501
803.635	23520
803.777	23360
803.919	23459
804.061	23786
804.204	23547
804.346	23406
804.488	23296
804.63	23414
804.773	23277
804.915	23349
805.057	23505
805.199	23372
805.341	23486
805.483	23554
805.626	23516
805.768	23372
805.91	23459
806.052	23493
806.194	23444
806.336	23718
806.478	23585
806.62	23581
806.762	23745
806.904	23760
807.046	24308
807.188	24072
807.33	24136
807.472	24304
807.614	24342
807.756	24464
807.898	24654
808.04	24783
808.182	25023
808.324	25491
808.465	25913
808.607	26492
808.749	27077
808.891	27389
809.033	27363
809.174	26956
809.316	26446
809.458	26062
809.6	25434
809.741	25259
809.883	24875
810.025	24730
810.166	24730
810.308	24608
810.45	24475
810.591	24285
810.733	24125
810.875	24053
811.016	23805
811.158	23843
811.299	24007
811.441	23950
811.582	23866
811.724	23707
811.865	23634
812.007	23657
812.148	23630
812.29	23665
812.431	23855
812.573	23969
812.714	24030
812.855	24079
812.997	24243
813.138	24429
813.279	24270
813.421	24197
813.562	24216
813.703	23961
813.845	23847
813.986	23376
814.127	23277
814.268	23208
814.41	23121
814.551	23121
814.692	23220
814.833	22980
814.974	23105
815.115	23098
815.256	23006
815.397	22942
815.539	22953
815.68	22869
815.821	22736
815.962	22892
816.103	22831
816.244	22755
816.385	22596
816.526	22710
816.666	22447
816.807	22280
816.948	22303
817.089	22519
817.23	22352
817.371	22223
817.512	22303
817.653	22169
817.793	22223
817.934	22268
818.075	22234
818.216	22306
818.356	22223
818.497	22105
818.638	22036
818.778	21857
818.919	22006
819.06	22029
819.2	21949
819.341	22002
819.481	22040
819.622	22238
819.762	22424
819.903	22352
820.043	22360
820.184	22169
820.324	22230
820.465	22318
820.605	22207
820.746	22177
820.886	21918
821.026	22120
821.167	22166
821.307	22143
821.447	22032
821.588	21854
821.728	21842
821.868	21587
822.008	21675
822.149	21511
822.289	21549
822.429	21241
822.569	21138
822.709	21291
822.849	20914
822.99	21009
823.13	21077
823.27	20963
823.41	20918
823.55	20796
823.69	20895
823.83	20845
823.97	20716
824.11	20590
824.25	20670
824.389	20499
824.529	20613
824.669	20587
824.809	20640
824.949	20644
825.089	20651
825.228	20495
825.368	20294
825.508	20244
825.648	20423
825.787	20450
825.927	20446
826.067	20336
826.206	20393
826.346	20377
826.485	20347
826.625	20339
826.765	20450
826.904	20396
827.044	20187
827.183	20050
827.323	19967
827.462	20107
827.601	20027
827.741	19917
827.88	20111
828.02	19955
828.159	19997
828.298	20046
828.437	20092
828.577	20008
828.716	20122
828.855	19970
828.994	19849
829.134	19769
829.273	19799
829.412	19761
829.551	19685
829.69	19670
829.829	19742
829.968	19818
830.107	19833
830.246	19811
830.385	19616
830.524	19590
830.663	19476
830.802	19476
830.941	19289
831.08	19358
831.219	19552
831.357	19301
831.496	19590
831.635	19244
831.774	19225
831.913	19148
832.051	19183
832.19	19004
832.329	19160
832.467	19012
832.606	18897
832.744	19000
832.883	19095
833.022	18973
833.16	19072
833.299	19046
833.437	19198
833.576	19171
833.714	19183
833.852	19289
833.991	19228
834.129	19213
834.267	19190
834.406	19175
834.544	19213
834.682	19190
834.821	19129
834.959	19217
835.097	19027
835.235	19187
835.373	18981
835.511	19023
835.65	18913
835.788	18951
835.926	18711
836.064	18684
836.202	18665
836.34	18886
836.478	18954
836.615	18890
836.753	18920
836.891	19069
837.029	18852
837.167	18806
837.305	18909
837.443	18719
837.58	18719
837.718	18798
837.856	18688
837.993	18627
838.131	18719
838.269	18620
838.406	18692
838.544	18540
838.681	18483
838.819	18395
838.956	18235
839.094	18205
839.231	18270
839.369	18391
839.506	18540
839.643	18350
839.781	18190
839.918	18110
840.055	18300
840.193	18034
840.33	18224
840.467	18125
840.604	18239
840.742	18376
840.879	18034
841.016	18057
841.153	18011
841.29	18330
841.427	18209
841.564	18178
841.701	18114
841.838	18136
841.975	17996
842.112	18019
842.249	17920
842.385	18003
842.522	18121
842.659	18003
842.796	17832
842.933	17874
843.069	17889
843.206	17764
843.343	18038
843.479	17973
843.616	17992
843.752	17779
843.889	17653
844.025	17935
844.162	17901
844.298	17764
844.435	17824
844.571	17714
844.708	17790
844.844	18030
844.98	17988
845.117	18015
845.253	18121
845.389	18129
845.525	18810
845.661	19552
845.798	20454
845.934	21256
846.07	21606
846.206	21545
846.342	21100
846.478	19925
846.614	18905
846.75	18129
846.886	17866
847.022	17775
847.158	17509
847.294	17387
847.429	17349
847.565	17318
847.701	17539
847.837	16965
847.972	17033
848.108	17086
848.244	17041
848.379	16911
848.515	16805
848.65	16782
848.786	16778
848.921	16831
849.057	16946
849.192	16771
849.328	16767
849.463	16831
849.598	16675
849.734	16615
849.869	16759
850.004	16558
850.14	16672
850.275	16588
850.41	16554
850.545	16474
850.68	16500
850.815	16443
850.95	16512
851.085	16733
851.22	16592
851.355	16554
851.49	16500
851.625	16500
851.76	16428
851.895	16535
852.03	16455
852.165	16402
852.299	16558
852.434	16615
852.569	16500
852.703	16466
852.838	16599
852.973	16554
853.107	16672
853.242	16523
853.376	16386
853.511	16356
853.645	16303
853.78	16417
853.914	16440
854.048	16402
854.183	16451
854.317	16470
854.451	16561
854.585	16382
854.72	16451
854.854	16478
854.988	16306
855.122	16447
855.256	16249
855.39	16333
855.524	16478
855.658	16462
855.792	16481
855.926	16489
856.06	16447
856.194	16481
856.327	16318
856.461	16390
856.595	16303
856.729	16402
856.862	16493
856.996	16440
857.13	16409
857.263	16508
857.397	16481
857.53	16413
857.664	16455
857.797	16447
857.931	16485
858.064	16447
858.197	16451
858.331	16329
858.464	16226
858.597	16188
858.731	16287
858.864	16318
858.997	16185
859.13	16249
859.263	16352
859.396	16371
859.529	16432
859.662	16249
859.795	16185
859.928	16306
860.061	16459
860.194	16455
860.327	16367
860.46	16257
860.592	16402
860.725	16421
860.858	16440
860.99	16272
861.123	16246
861.256	16284
861.388	16284
861.521	16961
861.653	16188
861.786	16101
861.918	16185
862.05	16181
862.183	16261
862.315	16436
862.447	16360
862.58	16242
862.712	16109
862.844	15983
862.976	16185
863.108	16128
863.24	16554
863.372	15987
863.504	16074
863.636	16036
863.768	16105
863.9	16063
864.032	15907
864.164	16112
864.296	16044
864.428	16120
864.559	16131
864.691	16196
864.823	16025
864.954	16135
865.086	16131
865.217	16017
865.349	16017
865.48	16071
865.612	16101
865.743	16169
865.875	16025
866.006	16036
866.137	15953
866.269	16021
866.4	15960
866.531	15937
866.662	15945
866.793	15941
866.924	15987
867.055	16017
867.186	15975
867.317	15930
867.448	15827
867.579	15945
867.71	16021
867.841	15937
867.972	15983
868.103	16044
868.233	16051
868.364	16002
868.495	16090
868.625	16196
868.756	16299
868.886	16249
869.017	16196
869.147	16360
869.278	16348
869.408	16322
869.539	16291
869.669	16390
869.799	16238
869.929	16413
870.06	16356
870.19	16455
870.32	16599
870.45	16546
870.58	16653
870.71	16645
870.84	16752
870.97	16634
871.1	16615
871.23	16740
871.36	16881
871.489	16752
871.619	16702
871.749	16820
871.879	16873
872.008	16869
872.138	16843
872.267	16843
872.397	16767
872.526	16675
872.656	16786
872.785	16618
872.915	16930
873.044	16961
873.173	16801
873.303	16972
873.432	16911
873.561	17048
873.69	17025
873.819	16908
873.948	17105
874.077	16942
874.206	16991
874.335	16942
874.464	16980
874.593	17322
874.722	17086
874.851	17311
874.979	17147
875.108	17193
875.237	17216
875.365	17178
875.494	17212
875.623	17364
875.751	17334
875.88	17387
876.008	17444
876.136	17436
876.265	17699
876.393	17851
876.521	17733
876.65	17859
876.778	17786
876.906	17805
877.034	17707
877.162	17699
877.29	17691
877.418	17809
877.546	17916
877.674	17855
877.802	17828
877.93	17783
878.058	17767
878.185	17859
878.313	17931
878.441	17904
878.568	18041
878.696	18015
878.824	18201
878.951	18464
879.079	18741
879.206	19202
879.333	19331
879.461	19578
879.588	19803
879.715	19883
879.842	19799
879.97	19339
880.097	18867
880.224	18540
880.351	18296
880.478	18285
880.605	18053
880.732	18121
880.859	18315
880.986	17980
881.112	17969
881.239	17904
881.366	17748
881.493	17714
881.619	17630
881.746	17672
881.872	17680
881.999	17535
882.125	17596
882.252	17687
882.378	17589
882.505	17722
882.631	17615
882.757	17558
882.883	17638
883.01	17330
883.136	17448
883.262	17364
883.388	17318
883.514	17535
883.64	17535
883.766	17395
883.892	17239
884.018	17299
884.143	17505
884.269	17512
884.395	17189
884.52	17200
884.646	17178
884.772	17105
884.897	17105
885.023	17094
885.148	17250
885.274	17193
885.399	17277
885.524	17056
885.65	17037
885.775	17098
885.9	16976
886.025	17208
886.15	17155
886.275	17025
886.4	16881
886.525	16873
886.65	16881
886.775	16892
886.9	17086
887.025	17132
887.149	16831
887.274	16615
887.399	16573
887.523	16626
887.648	16470
887.773	16649
887.897	16691
888.021	16683
888.146	16615
888.27	16645
888.395	16649
888.519	16702
888.643	16626
888.767	16683
888.891	16535
889.015	16459
889.139	16371
889.263	16386
889.387	16508
889.511	16634
889.635	16580
889.759	16421
889.883	16379
890.006	16287
890.13	16478
890.254	16272
890.377	16356
890.501	16147
890.624	16097
890.748	16188
890.871	16093
890.995	15903
891.118	15937
891.241	16055
891.364	15907
891.488	16082
891.611	16048
891.734	15949
891.857	16036
891.98	16017
892.103	16097
892.226	15968
892.349	15968
892.471	15781
892.594	15945
892.717	16051
892.839	15949
892.962	15964
893.085	15960
893.207	15983
893.33	15698
893.452	15819
893.575	16040
893.697	15854
893.819	16040
893.941	16067
894.064	16051
894.186	15918
894.308	15778
894.43	16063
894.552	16200
894.674	15972
894.796	15892
894.918	15983
895.04	15793
895.161	15979
895.283	15930
895.405	15876
895.526	15956
895.648	15930
895.769	15987
895.891	16074
896.012	16029
896.134	16158
896.255	16105
896.376	16048
896.498	16036
896.619	16128
896.74	16055
896.861	16097
896.982	16344
897.103	16504
897.224	16295
897.345	16242
897.466	16306
897.587	16287
897.708	16485
897.828	16242
897.949	16196
898.07	16204
898.19	16223
898.311	16390
898.431	16272
898.552	16272
898.672	16398
898.792	16402
898.913	16485
899.033	16211
899.153	16150
899.273	16139
899.393	16120
899.513	16196
899.633	16207
899.753	16150
899.873	16219
899.993	16272
900.113	16074
900.232	16257
900.352	16154
900.472	16082
900.591	16044
900.711	16059
900.83	15911
900.95	16112
901.069	16135
901.189	16074
901.308	15717
901.427	15759
901.546	15739
901.665	15781
901.784	15709
901.904	15576
902.023	15485
902.141	15329
902.26	15249
902.379	15298
902.498	15184
902.617	15199
902.735	15195
902.854	15097
902.973	15081
903.091	14963
903.21	14842
903.328	14864
903.446	14887
903.565	14735
903.683	14739
903.801	14602
903.919	14678
904.038	14640
904.156	14522
904.274	14651
904.392	14594
904.51	14503
904.627	14377
904.745	14495
904.863	14492
904.981	14233
905.098	14123
905.216	14111
905.334	14225
905.451	14180
905.569	14126
905.686	14172
905.803	14206
905.921	14081
906.038	14012
906.155	13906
906.272	13830
906.389	13826
906.506	13674
906.623	13753
906.74	13731
906.857	13544
906.974	13578
907.091	13651
907.208	13925
907.324	13712
907.441	13582
907.557	13502
907.674	13346
907.79	13362
907.907	13369
908.023	13354
908.139	13369
908.256	13381
908.372	13266
908.488	13316
908.604	13129
908.72	13114
908.836	13072
908.952	13156
909.068	13202
909.184	13236
909.3	13110
909.415	13160
909.531	13156
909.647	12909
909.762	12901
909.878	12897
909.993	12909
910.108	12882
910.224	12897
910.339	12810
910.454	12802
910.57	12711
910.685	12658
910.8	12947
910.915	12886
911.03	12700
911.145	12631
911.259	12521
911.374	12498
911.489	12513
911.604	12456
911.718	12334
911.833	12315
911.947	12201
912.062	12068
912.176	12262
912.291	12300
912.405	12323
912.519	12525
912.633	12475
912.748	12319
912.862	12315
912.976	12083
913.09	12022
913.204	12034
913.318	12140
913.431	12216
913.545	12197
913.659	12224
913.772	12121
913.886	12072
914	11969
914.113	12087
914.226	12155
914.34	12072
914.453	11908
914.566	12102
914.68	11931
914.793	11988
914.906	11802
915.019	11779
915.132	11627
915.245	11783
915.358	11676
915.47	11741
915.583	11783
915.696	11680
915.809	11817
915.921	11817
916.034	11699
916.146	11710
916.259	11608
916.371	11771
916.483	11653
916.595	11657
916.708	11688
916.82	11596
916.932	11627
917.044	11634
917.156	11566
917.268	11490
917.38	11452
917.491	11482
917.603	11547
917.715	11585
917.826	11600
917.938	11577
918.049	11448
918.161	11455
918.272	11554
918.384	11646
918.495	11459
918.606	11292
918.717	11296
918.828	11402
918.939	11410
919.05	11231
919.161	11421
919.272	11098
919.383	11208
919.494	11379
919.604	11589
919.715	11417
919.826	11258
919.936	11284
920.047	11417
920.157	11353
920.267	11535
920.378	11379
920.488	11307
920.598	11585
920.708	11699
920.818	11581
920.928	11421
921.038	11623
921.148	11691
921.258	11337
921.368	11288
921.477	11121
921.587	11105
921.697	11037
921.806	11239
921.916	10968
922.025	10812
922.134	10820
922.244	10828
922.353	10900
922.462	10748
922.571	10630
922.68	10535
922.789	10512
922.898	10550
923.007	10508
923.116	10527
923.224	10504
923.333	10508
923.442	10371
923.55	10386
923.659	10409
923.767	10440
923.876	10356
923.984	10413
924.092	10322
924.201	10322
924.309	10314
924.417	10318
924.525	10215
924.633	10325
924.741	11151
924.849	10124
924.956	10287
925.064	10131
925.172	10017
925.279	10055
925.387	10185
925.494	10067
925.602	10188
925.709	10139
925.816	10074
925.924	10071
926.031	10219
926.138	10147
926.245	10120
926.352	9987
926.459	10181
926.566	10188
926.673	10097
926.779	9895
926.886	9907
926.993	9854
927.099	9800
927.206	9766
927.312	9686
927.419	9823
927.525	9747
927.631	9808
927.737	9728
927.843	9652
927.95	9485
928.056	9648
928.162	9663
928.267	9747
928.373	10306
928.479	9743
928.585	9511
928.69	9663
928.796	9743
928.901	9519
929.007	9431
929.112	9542
929.218	9492
929.323	9500
929.428	9466
929.533	9542
929.638	9424
929.743	9370
929.848	9450
929.953	9477
930.058	9332
930.163	9302
930.267	9214
930.372	9374
930.477	9203
930.581	9458
930.685	9325
930.79	9188
930.894	9154
930.998	9077
931.103	9260
931.207	8921
931.311	8941
931.415	8750
931.519	8602
931.623	8629
