Data from test_V78500241_2531.txt Node
Date: Fri Mar 25 14:51:20 CST 2022
User: usil
Spectrometer: V785-0024
Trigger mode: 0
Integration Time (sec): 4.000000E-1
Scans to average: 1
Nonlinearity correction enabled: false
Boxcar width: 0
Storing dark spectrum: false
XAxis mode: Wavelengths
Number of Pixels in Spectrum: 1024
>>>>>Begin Spectral Data<<<<<
801.071	22105
801.214	22013
801.356	21797
801.499	21572
801.641	21504
801.783	21348
801.926	21469
802.068	21260
802.211	21252
802.353	21112
802.496	20933
802.638	20800
802.78	20921
802.923	20838
803.065	20697
803.208	20708
803.35	20727
803.492	20880
803.635	20937
803.777	20823
803.919	20773
804.061	21024
804.204	20807
804.346	20590
804.488	20686
804.63	20785
804.773	20469
804.915	20587
805.057	20807
805.199	20609
805.341	20712
805.483	20807
805.626	20667
805.768	20644
805.91	20686
806.052	20796
806.194	20552
806.336	20750
806.478	20587
806.62	20571
806.762	20727
806.904	20800
807.046	21123
807.188	20979
807.33	21013
807.472	20979
807.614	20925
807.756	20823
807.898	20769
808.04	20606
808.182	20587
808.324	20583
808.465	20693
808.607	21005
808.749	20986
808.891	21112
809.033	21081
809.174	21085
809.316	20921
809.458	21104
809.6	20967
809.741	21123
809.883	21051
810.025	21116
810.166	21195
810.308	21218
810.45	21112
810.591	20952
810.733	20891
810.875	20853
811.016	20686
811.158	20651
811.299	20804
811.441	20963
811.582	20906
811.724	20918
811.865	20743
812.007	20693
812.148	20754
812.29	20883
812.431	20872
812.573	21093
812.714	21039
812.855	21359
812.997	21249
813.138	21443
813.279	21351
813.421	21222
813.562	21131
813.703	21047
813.845	20948
813.986	20522
814.127	20530
814.268	20431
814.41	20431
814.551	20362
814.692	20313
814.833	20267
814.974	20233
815.115	20412
815.256	20168
815.397	20081
815.539	20225
815.68	20092
815.821	20062
815.962	20039
816.103	19936
816.244	19811
816.385	19890
816.526	19696
816.666	19624
816.807	19556
816.948	19495
817.089	19563
817.23	19544
817.371	19476
817.512	19464
817.653	19487
817.793	19468
817.934	19369
818.075	19510
818.216	19468
818.356	19324
818.497	19274
818.638	19095
818.778	19209
818.919	19103
819.06	19133
819.2	19270
819.341	19331
819.481	19324
819.622	19510
819.762	19738
819.903	19563
820.043	19723
820.184	19457
820.324	19460
820.465	19487
820.605	19495
820.746	19472
820.886	19312
821.026	19331
821.167	19308
821.307	19403
821.447	19304
821.588	19365
821.728	19050
821.868	19012
822.008	18901
822.149	18894
822.289	18833
822.429	18661
822.569	18506
822.709	18483
822.849	18319
822.99	18262
823.13	18334
823.27	18262
823.41	18178
823.55	18019
823.69	18136
823.83	18194
823.97	17977
824.11	17988
824.25	17908
824.389	17889
824.529	17992
824.669	17859
824.809	18121
824.949	17920
825.089	17935
825.228	17870
825.368	17748
825.508	17805
825.648	17764
825.787	17653
825.927	17798
826.067	17619
826.206	17600
826.346	17821
826.485	17779
826.625	17805
826.765	17748
826.904	17703
827.044	17505
827.183	17554
827.323	17223
827.462	17448
827.601	17395
827.741	17490
827.88	17433
828.02	17345
828.159	17242
828.298	17433
828.437	17440
828.577	17414
828.716	17619
828.855	17334
828.994	17200
829.134	17132
829.273	17227
829.412	17086
829.551	17155
829.69	17242
829.829	17159
829.968	17410
830.107	17254
830.246	17227
830.385	17121
830.524	17113
830.663	16968
830.802	16877
830.941	16877
831.08	16801
831.219	16828
831.357	16904
831.496	17018
831.635	16736
831.774	16710
831.913	16713
832.051	16607
832.19	16618
832.329	16615
832.467	16523
832.606	16478
832.744	16455
832.883	16500
833.022	16519
833.16	16375
833.299	16535
833.437	16493
833.576	16470
833.714	16550
833.852	16508
833.991	16653
834.129	16698
834.267	16660
834.406	16504
834.544	16550
834.682	16512
834.821	16497
834.959	16675
835.097	16603
835.235	16603
835.373	16531
835.511	16580
835.65	16478
835.788	16417
835.926	16284
836.064	16299
836.202	16291
836.34	16421
836.478	16561
836.615	16394
836.753	16371
836.891	16489
837.029	16489
837.167	16424
837.305	16466
837.443	16375
837.58	16356
837.718	16314
837.856	16398
837.993	16299
838.131	16352
838.269	16314
838.406	16291
838.544	16124
838.681	16002
838.819	16067
838.956	15854
839.094	15861
839.231	15949
839.369	16032
839.506	16306
839.643	16139
839.781	15899
839.918	15846
840.055	15850
840.193	15880
840.33	15827
840.467	15873
840.604	15907
840.742	16166
840.879	15785
841.016	15789
841.153	15804
841.29	15937
841.427	15907
841.564	15899
841.701	15968
841.838	15876
841.975	15854
842.112	15789
842.249	15865
842.385	15743
842.522	15831
842.659	15709
842.796	15614
842.933	15698
843.069	15606
843.206	15622
843.343	15827
843.479	15625
843.616	15789
843.752	15450
843.889	15466
844.025	15564
844.162	15306
844.298	15530
844.435	15473
844.571	15443
844.708	15523
844.844	15663
844.98	15557
845.117	15557
845.253	15462
845.389	15317
845.525	15412
845.661	15416
845.798	15272
845.934	15291
846.07	15214
846.206	15268
846.342	15447
846.478	15287
846.614	15135
846.75	15017
846.886	15036
847.022	15192
847.158	15032
847.294	15119
847.429	15043
847.565	15043
847.701	15192
847.837	14773
847.972	14674
848.108	14883
848.244	14819
848.379	14716
848.515	14594
848.65	14697
848.786	14648
848.921	14606
849.057	14739
849.192	14758
849.328	14746
849.463	14705
849.598	14602
849.734	14511
849.869	14446
850.004	14374
850.14	14488
850.275	14393
850.41	14324
850.545	14374
850.68	14324
850.815	14370
850.95	14385
851.085	14564
851.22	14465
851.355	14400
851.49	14377
851.625	14374
851.76	14339
851.895	14195
852.03	14225
852.165	14313
852.299	14412
852.434	14514
852.569	14393
852.703	14431
852.838	14446
852.973	14655
853.107	14533
853.242	14408
853.376	14256
853.511	14195
853.645	14267
853.78	14396
853.914	14317
854.048	14305
854.183	14134
854.317	14298
854.451	14419
854.585	14206
854.72	14145
854.854	14275
854.988	14275
855.122	14240
855.256	14088
855.39	14187
855.524	14339
855.658	14275
855.792	14263
855.926	14305
856.06	14286
856.194	14282
856.327	14157
856.461	14233
856.595	14161
856.729	14282
856.862	14389
856.996	14313
857.13	14263
857.263	14484
857.397	14339
857.53	14271
857.664	14294
857.797	14244
857.931	14358
858.064	14336
858.197	14343
858.331	14317
858.464	14275
858.597	14134
858.731	14229
858.864	14259
858.997	14214
859.13	14290
859.263	14324
859.396	14225
859.529	14294
859.662	14202
859.795	14164
859.928	14278
860.061	14381
860.194	14454
860.327	14358
860.46	14313
860.592	14355
860.725	14366
860.858	14457
860.99	14301
861.123	14149
861.256	14161
861.388	14267
861.521	14625
861.653	14138
861.786	14081
861.918	14149
862.05	14206
862.183	14275
862.315	14298
862.447	14240
862.58	14199
862.712	13936
862.844	14039
862.976	14187
863.108	14077
863.24	14415
863.372	13902
863.504	14001
863.636	14073
863.768	14142
863.9	14046
864.032	13947
864.164	14062
864.296	14103
864.428	14069
864.559	14069
864.691	14126
864.823	14164
864.954	14134
865.086	14103
865.217	13967
865.349	13898
865.48	14134
865.612	14016
865.743	14157
865.875	14005
866.006	13989
866.137	14005
866.269	14134
866.4	14008
866.531	13925
866.662	13936
866.793	14096
866.924	13978
867.055	13997
867.186	13974
867.317	13989
867.448	13894
867.579	13970
867.71	13921
867.841	13898
867.972	14058
868.103	14077
868.233	14073
868.364	14039
868.495	14027
868.625	14248
868.756	14324
868.886	14138
869.017	14282
869.147	14324
869.278	14408
869.408	14237
869.539	14221
869.669	14374
869.799	14294
869.929	14385
870.06	14370
870.19	14518
870.32	14541
870.45	14560
870.58	14659
870.71	14838
870.84	14727
870.97	14655
871.1	14644
871.23	14876
871.36	14887
871.489	14777
871.619	14842
871.749	14796
871.879	14895
872.008	14956
872.138	14781
872.267	14830
872.397	14705
872.526	14621
872.656	14651
872.785	14739
872.915	14819
873.044	15039
873.173	14937
873.303	15032
873.432	14891
873.561	15062
873.69	14944
873.819	15024
873.948	15032
874.077	14944
874.206	15013
874.335	14845
874.464	15123
874.593	15184
874.722	15135
874.851	15298
874.979	15233
875.108	15279
875.237	15279
875.365	15138
875.494	15226
875.623	15287
875.751	15245
875.88	15321
876.008	15374
876.136	15428
876.265	15656
876.393	15770
876.521	15751
876.65	15698
876.778	15633
876.906	15622
877.034	15561
877.162	15614
877.29	15656
877.418	15652
877.546	15690
877.674	15564
877.802	15682
877.93	15667
878.058	15576
878.185	15439
878.313	15675
878.441	15694
878.568	15549
878.696	15561
878.824	15660
878.951	15705
879.079	15785
879.206	16010
879.333	15728
879.461	15656
879.588	15785
879.715	15808
879.842	15869
879.97	15781
880.097	15424
880.224	15473
880.351	15572
880.478	15466
880.605	15507
880.732	15401
880.859	15747
880.986	15545
881.112	15500
881.239	15397
881.366	15344
881.493	15195
881.619	15222
881.746	15135
881.872	15188
881.999	15146
882.125	15100
882.252	15184
882.378	15119
882.505	15302
882.631	15100
882.757	15108
882.883	15066
883.01	14941
883.136	14937
883.262	14819
883.388	14754
883.514	15047
883.64	15028
883.766	14929
883.892	14773
884.018	14769
884.143	14944
884.269	14975
884.395	14743
884.52	14716
884.646	14750
884.772	14575
884.897	14583
885.023	14724
885.148	14792
885.274	14731
885.399	14693
885.524	14651
885.65	14731
885.775	14629
885.9	14629
886.025	14750
886.15	14750
886.275	14640
886.4	14606
886.525	14621
886.65	14571
886.775	14610
886.9	14750
887.025	14861
887.149	14606
887.274	14480
887.399	14419
887.523	14522
887.648	14511
887.773	14374
887.897	14537
888.021	14560
888.146	14404
888.27	14613
888.395	14678
888.519	14514
888.643	14613
888.767	14571
888.891	14427
889.015	14309
889.139	14370
889.263	14457
889.387	14499
889.511	14629
889.635	14484
889.759	14313
889.883	14286
890.006	14336
890.13	14530
890.254	14366
890.377	14259
890.501	14164
890.624	14134
890.748	14218
890.871	14138
890.995	13955
891.118	13890
891.241	14123
891.364	14111
891.488	14176
891.611	13932
891.734	14081
891.857	14107
891.98	14088
892.103	14229
892.226	14039
892.349	14005
892.471	14005
892.594	14065
892.717	14012
892.839	14039
892.962	14107
893.085	14240
893.207	14073
893.33	14073
893.452	13955
893.575	14130
893.697	14024
893.819	14301
893.941	14199
894.064	14172
894.186	14062
894.308	13997
894.43	14187
894.552	14324
894.674	14130
894.796	14039
894.918	14126
895.04	14111
895.161	14259
895.283	14081
895.405	14145
895.526	14126
895.648	14183
895.769	14187
895.891	14248
896.012	14290
896.134	14210
896.255	14195
896.376	14172
896.498	14313
896.619	14309
896.74	14256
896.861	14301
896.982	14625
897.103	14739
897.224	14621
897.345	14419
897.466	14336
897.587	14587
897.708	14587
897.828	14560
897.949	14571
898.07	14381
898.19	14374
898.311	14682
898.431	14522
898.552	14579
898.672	14693
898.792	14632
898.913	14594
899.033	14655
899.153	14465
899.273	14377
899.393	14423
899.513	14385
899.633	14476
899.753	14431
899.873	14336
899.993	14507
900.113	14450
900.232	14492
900.352	14446
900.472	14362
900.591	14240
900.711	14332
900.83	14271
900.95	14427
901.069	14377
901.189	14233
901.308	13959
901.427	13963
901.546	14020
901.665	13944
901.784	13898
901.904	13913
902.023	13769
902.141	13575
902.26	13510
902.379	13708
902.498	13544
902.617	13419
902.735	13502
902.854	13514
902.973	13582
903.091	13301
903.21	13255
903.328	13263
903.446	13236
903.565	13084
903.683	13183
903.801	13012
903.919	13107
904.038	13008
904.156	12947
904.274	12939
904.392	12966
904.51	13023
904.627	12932
904.745	13038
904.863	12924
904.981	12810
905.098	12616
905.216	12684
905.334	12692
905.451	12627
905.569	12658
905.686	12730
905.803	12566
905.921	12490
906.038	12616
906.155	12528
906.272	12376
906.389	12395
906.506	12228
906.623	12239
906.74	12296
906.857	12201
906.974	12182
907.091	12285
907.208	12350
907.324	12277
907.441	12144
907.557	11961
907.674	12041
907.79	11840
907.907	12045
908.023	11996
908.139	11870
908.256	11805
908.372	12034
908.488	11790
908.604	11786
908.72	11630
908.836	11726
908.952	11710
909.068	11710
909.184	11859
909.3	11752
909.415	11668
909.531	11828
909.647	11398
909.762	11516
909.878	11528
909.993	11596
910.108	11490
910.224	11433
910.339	11482
910.454	11471
910.57	11326
910.685	11307
910.8	11596
910.915	11505
911.03	11395
911.145	11311
911.259	11220
911.374	11239
911.489	11136
911.604	11113
911.718	10991
911.833	11025
911.947	10828
912.062	10687
912.176	10934
912.291	10900
912.405	10942
912.519	11147
912.633	11208
912.748	11029
912.862	10976
912.976	10782
913.09	10774
913.204	10778
913.318	10896
913.431	10984
913.545	10900
913.659	10987
913.772	10698
913.886	10778
914	10656
914.113	10809
914.226	10885
914.34	10767
914.453	10649
914.566	10733
914.68	10656
914.793	10584
914.906	10466
915.019	10474
915.132	10341
915.245	10455
915.358	10466
915.47	10538
915.583	10527
915.696	10466
915.809	10569
915.921	10584
916.034	10432
916.146	10390
916.259	10432
916.371	10474
916.483	10447
916.595	10337
916.708	10386
916.82	10375
916.932	10447
917.044	10280
917.156	10333
917.268	10265
917.38	10284
917.491	10215
917.603	10306
917.715	10329
917.826	10398
917.938	10272
918.049	10211
918.161	10352
918.272	10459
918.384	10443
918.495	10386
918.606	10082
918.717	10188
918.828	10192
918.939	10211
919.05	10109
919.161	10131
919.272	9922
919.383	10006
919.494	10265
919.604	10337
919.715	10181
919.826	10242
919.936	10128
920.047	10230
920.157	10238
920.267	10417
920.378	10280
920.488	10185
920.598	10280
920.708	10565
920.818	10341
920.928	10386
921.038	10592
921.148	10531
921.258	10207
921.368	10128
921.477	10071
921.587	10067
921.697	9926
921.806	10006
921.916	10021
922.025	9717
922.134	9770
922.244	9766
922.353	9743
922.462	9644
922.571	9587
922.68	9511
922.789	9416
922.898	9435
923.007	9359
923.116	9458
923.224	9397
923.333	9473
923.442	9332
923.55	9302
923.659	9336
923.767	9351
923.876	9264
923.984	9397
924.092	9249
924.201	9283
924.309	9367
924.417	9363
924.525	9283
924.633	9321
924.741	10177
924.849	9085
924.956	9188
925.064	9013
925.172	8944
925.279	9077
925.387	9135
925.494	9184
925.602	9241
925.709	9180
925.816	9047
925.924	9093
926.031	9154
926.138	9131
926.245	9165
926.352	9009
926.459	9131
926.566	9146
926.673	9039
926.779	8944
926.886	8994
926.993	8769
927.099	8800
927.206	8781
927.312	8743
927.419	8830
927.525	8811
927.631	8842
927.737	8746
927.843	8632
927.95	8632
928.056	8644
928.162	8716
928.267	8845
928.373	9363
928.479	8838
928.585	8594
928.69	8708
928.796	8762
928.901	8689
929.007	8568
929.112	8640
929.218	8667
929.323	8568
929.428	8590
929.533	8629
929.638	8526
929.743	8484
929.848	8594
929.953	8545
930.058	8484
930.163	8317
930.267	8305
930.372	8575
930.477	8267
930.581	8514
930.685	8377
930.79	8263
930.894	8259
930.998	8206
931.103	8419
931.207	8084
931.311	8035
931.415	7913
931.519	7780
931.623	7727
