Data from test_V78500241_583.txt Node
Date: Fri Mar 25 14:37:46 CST 2022
User: usil
Spectrometer: V785-0024
Trigger mode: 0
Integration Time (sec): 4.000000E-1
Scans to average: 1
Nonlinearity correction enabled: false
Boxcar width: 0
Storing dark spectrum: false
XAxis mode: Wavelengths
Number of Pixels in Spectrum: 1024
>>>>>Begin Spectral Data<<<<<
801.071	27895
801.214	27888
801.356	27466
801.499	27462
801.641	27256
801.783	27249
801.926	27344
802.068	27184
802.211	27195
802.353	26998
802.496	26895
802.638	26880
802.78	26739
802.923	26758
803.065	26807
803.208	26663
803.35	26781
803.492	26819
803.635	27005
803.777	26773
803.919	26895
804.061	27188
804.204	26842
804.346	26883
804.488	26834
804.63	26902
804.773	26781
804.915	26998
805.057	27195
805.199	26986
805.341	27245
805.483	27150
805.626	27291
805.768	27150
805.91	27397
806.052	27245
806.194	27359
806.336	27743
806.478	27641
806.62	27720
806.762	28059
806.904	28257
807.046	28710
807.188	28888
807.33	29178
807.472	29539
807.614	29748
807.756	30490
807.898	31103
808.04	32001
808.182	33321
808.324	35029
808.465	36730
808.607	38781
808.749	40527
808.891	41649
809.033	41794
809.174	40573
809.316	38621
809.458	36738
809.6	34592
809.741	33028
809.883	31818
810.025	30962
810.166	30281
810.308	29695
810.45	29227
810.591	28854
810.733	28687
810.875	28360
811.016	28188
811.158	28093
811.299	27987
811.441	28093
811.582	27884
811.724	27701
811.865	27591
812.007	27507
812.148	27450
812.29	27553
812.431	27610
812.573	27728
812.714	27759
812.855	27838
812.997	27876
813.138	28086
813.279	27884
813.421	27736
813.562	27709
813.703	27416
813.845	27359
813.986	26838
814.127	26773
814.268	26762
814.41	26838
814.551	26663
814.692	26743
814.833	26526
814.974	26571
815.115	26484
815.256	26480
815.397	26438
815.539	26309
815.68	26298
815.821	26218
815.962	26183
816.103	26225
816.244	26050
816.385	25833
816.526	25966
816.666	25693
816.807	25563
816.948	25746
817.089	25715
817.23	25647
817.371	25601
817.512	25548
817.653	25400
817.793	25533
817.934	25400
818.075	25499
818.216	25457
818.356	25415
818.497	25369
818.638	25206
818.778	25175
818.919	25213
819.06	25225
819.2	25327
819.341	25438
819.481	25392
819.622	25521
819.762	25746
819.903	25575
820.043	25460
820.184	25438
820.324	25415
820.465	25525
820.605	25499
820.746	25449
820.886	25206
821.026	25259
821.167	25274
821.307	25396
821.447	25278
821.588	25015
821.728	25012
821.868	24764
822.008	24589
822.149	24696
822.289	24711
822.429	24479
822.569	24327
822.709	24391
822.849	24251
822.99	24197
823.13	24045
823.27	24057
823.41	23973
823.55	23722
823.69	23984
823.83	23969
823.97	23775
824.11	23703
824.25	23649
824.389	23714
824.529	23908
824.669	23745
824.809	23653
824.949	23798
825.089	23771
825.228	23779
825.368	23596
825.508	23421
825.648	23516
825.787	23379
825.927	23501
826.067	23436
826.206	23383
826.346	23516
826.485	23410
826.625	23433
826.765	23615
826.904	23490
827.044	23136
827.183	23204
827.323	23250
827.462	23181
827.601	23090
827.741	23102
827.88	23128
828.02	22953
828.159	23006
828.298	23105
828.437	23124
828.577	22995
828.716	23124
828.855	22915
828.994	22771
829.134	22759
829.273	22809
829.412	22866
829.551	22744
829.69	22790
829.829	22816
829.968	22698
830.107	22892
830.246	22641
830.385	22653
830.524	22687
830.663	22504
830.802	22432
830.941	22268
831.08	22314
831.219	22443
831.357	22329
831.496	22546
831.635	22314
831.774	22276
831.913	22181
832.051	22139
832.19	22109
832.329	22238
832.467	22090
832.606	21994
832.744	22086
832.883	22249
833.022	22200
833.16	22242
833.299	22409
833.437	22333
833.576	22512
833.714	22596
833.852	22721
833.991	22923
834.129	22824
834.267	22797
834.406	22778
834.544	22793
834.682	22729
834.821	22516
834.959	22641
835.097	22367
835.235	22322
835.373	22367
835.511	22238
835.65	22135
835.788	22059
835.926	21842
836.064	21789
836.202	21717
836.34	21903
836.478	21979
836.615	21808
836.753	21918
836.891	21884
837.029	21800
837.167	21755
837.305	21785
837.443	21762
837.58	21572
837.718	21895
837.856	21648
837.993	21606
838.131	21576
838.269	21603
838.406	21675
838.544	21367
838.681	21435
838.819	21283
838.956	21077
839.094	21036
839.231	21146
839.369	21260
839.506	21538
839.643	21355
839.781	21116
839.918	20937
840.055	21096
840.193	21066
840.33	20956
840.467	20971
840.604	20979
840.742	21325
840.879	20914
841.016	21001
841.153	20925
841.29	21142
841.427	20941
841.564	21047
841.701	20975
841.838	20941
841.975	20857
842.112	20963
842.249	20891
842.385	20853
842.522	21024
842.659	20830
842.796	20777
842.933	20804
843.069	20842
843.206	20815
843.343	21066
843.479	20937
843.616	20887
843.752	20735
843.889	20781
844.025	20826
844.162	20815
844.298	20819
844.435	20902
844.571	21089
844.708	21306
844.844	21542
844.98	21755
845.117	22169
845.253	22649
845.389	23623
845.525	25811
845.661	29048
845.798	33252
845.934	36650
846.07	37978
846.206	37240
846.342	34729
846.478	30349
846.614	26686
846.75	24197
846.886	22672
847.022	22013
847.158	21401
847.294	20925
847.429	20731
847.565	20617
847.701	20758
847.837	20103
847.972	19982
848.108	20001
848.244	19989
848.379	19727
848.515	19769
848.65	19696
848.786	19662
848.921	19689
849.057	19624
849.192	19708
849.328	19674
849.463	19677
849.598	19689
849.734	19601
849.869	19514
850.004	19327
850.14	19365
850.275	19392
850.41	19175
850.545	19289
850.68	19175
850.815	19285
850.95	19339
851.085	19468
851.22	19335
851.355	19228
851.49	19335
851.625	19282
851.76	19217
851.895	19266
852.03	19217
852.165	19259
852.299	19285
852.434	19392
852.569	19407
852.703	19308
852.838	19453
852.973	19304
853.107	19491
853.242	19369
853.376	19293
853.511	19126
853.645	19217
853.78	19285
853.914	19392
854.048	19369
854.183	19400
854.317	19445
854.451	19609
854.585	19354
854.72	19365
854.854	19422
854.988	19316
855.122	19297
855.256	19217
855.39	19168
855.524	19339
855.658	19327
855.792	19221
855.926	19324
856.06	19133
856.194	19232
856.327	19118
856.461	19133
856.595	19065
856.729	19034
856.862	19255
856.996	19076
857.13	19065
857.263	19133
857.397	19187
857.53	19019
857.664	19164
857.797	19152
857.931	19190
858.064	19133
858.197	19107
858.331	19015
858.464	19110
858.597	18977
858.731	18954
858.864	19015
858.997	18958
859.13	18951
859.263	19061
859.396	19069
859.529	18932
859.662	19000
859.795	18856
859.928	19050
860.061	19129
860.194	19110
860.327	19065
860.46	18977
860.592	19103
860.725	19114
860.858	18970
860.99	19008
861.123	18966
861.256	18844
861.388	18875
861.521	19586
861.653	18829
861.786	18810
861.918	18825
862.05	18932
862.183	18916
862.315	19004
862.447	18989
862.58	18886
862.712	18730
862.844	18703
862.976	18738
863.108	18791
863.24	19000
863.372	18719
863.504	18722
863.636	18696
863.768	18726
863.9	18654
864.032	18574
864.164	18612
864.296	18661
864.428	18768
864.559	18779
864.691	18730
864.823	18768
864.954	18677
865.086	18525
865.217	18608
865.349	18620
865.48	18646
865.612	18665
865.743	18833
865.875	18654
866.006	18498
866.137	18608
866.269	18525
866.4	18574
866.531	18578
866.662	18536
866.793	18544
866.924	18528
867.055	18589
867.186	18464
867.317	18528
867.448	18384
867.579	18547
867.71	18414
867.841	18407
867.972	18650
868.103	18570
868.233	18658
868.364	18566
868.495	18627
868.625	18745
868.756	18840
868.886	18764
869.017	18776
869.147	18837
869.278	18924
869.408	18764
869.539	18715
869.669	18871
869.799	18825
869.929	18993
870.06	18833
870.19	19168
870.32	19171
870.45	19137
870.58	19209
870.71	19343
870.84	19304
870.97	19255
871.1	19282
871.23	19369
871.36	19403
871.489	19495
871.619	19373
871.749	19514
871.879	19510
872.008	19518
872.138	19422
872.267	19438
872.397	19324
872.526	19434
872.656	19316
872.785	19335
872.915	19571
873.044	19658
873.173	19559
873.303	19609
873.432	19613
873.561	19746
873.69	19594
873.819	19567
873.948	19772
874.077	19601
874.206	19689
874.335	19727
874.464	19894
874.593	19982
874.722	19986
874.851	19967
874.979	20103
875.108	20263
875.237	20111
875.365	19955
875.494	20050
875.623	20267
875.751	20115
875.88	20183
876.008	20320
876.136	20552
876.265	20788
876.393	20830
876.521	20838
876.65	20815
876.778	20781
876.906	20834
877.034	20975
877.162	20998
877.29	20864
877.418	21028
877.546	21108
877.674	21123
877.802	21142
877.93	21233
878.058	21382
878.185	21439
878.313	21759
878.441	21880
878.568	21949
878.696	22367
878.824	23060
878.951	23638
879.079	24631
879.206	25966
879.333	27260
879.461	28268
879.588	28972
879.715	29052
879.842	28363
879.97	27245
880.097	25826
880.224	24654
880.351	24171
880.478	23539
880.605	23044
880.732	22953
880.859	23025
880.986	22615
881.112	22675
881.239	22459
881.366	22280
881.493	22173
881.619	22128
881.746	22135
881.872	22188
881.999	22192
882.125	22207
882.252	22337
882.378	22192
882.505	22280
882.631	22223
882.757	22299
882.883	22246
883.01	22173
883.136	22150
883.262	21968
883.388	22002
883.514	22219
883.64	22154
883.766	21968
883.892	21842
884.018	21918
884.143	22067
884.269	22188
884.395	21926
884.52	21747
884.646	21861
884.772	21629
884.897	21705
885.023	21720
885.148	21819
885.274	21736
885.399	21831
885.524	21663
885.65	21519
885.775	21504
885.9	21351
886.025	21462
886.15	21317
886.275	21108
886.4	20906
886.525	21001
886.65	20804
886.775	20838
886.9	20804
887.025	20883
887.149	20613
887.274	20362
887.399	20248
887.523	20278
887.648	20157
887.773	20069
887.897	20233
888.021	20050
888.146	19944
888.27	20138
888.395	20020
888.519	19967
888.643	19959
888.767	20043
888.891	19734
889.015	19731
889.139	19662
889.263	19559
889.387	19670
889.511	19791
889.635	19662
889.759	19533
889.883	19430
890.006	19491
890.13	19597
890.254	19388
890.377	19247
890.501	19152
890.624	19061
890.748	19209
890.871	19000
890.995	18905
891.118	18871
891.241	18954
891.364	18882
891.488	18989
891.611	18840
891.734	18875
891.857	18973
891.98	18840
892.103	18882
892.226	18848
892.349	18734
892.471	18566
892.594	18661
892.717	18616
892.839	18681
892.962	18692
893.085	18665
893.207	18574
893.33	18551
893.452	18357
893.575	18589
893.697	18635
893.819	18696
893.941	18582
894.064	18787
894.186	18441
894.308	18346
894.43	18528
894.552	18494
894.674	18483
894.796	18429
894.918	18380
895.04	18437
895.161	18410
895.283	18467
895.405	18270
895.526	18448
895.648	18311
895.769	18308
895.891	18445
896.012	18566
896.134	18426
896.255	18327
896.376	18403
896.498	18338
896.619	18380
896.74	18323
896.861	18418
896.982	18669
897.103	18726
897.224	18639
897.345	18570
897.466	18540
897.587	18506
897.708	18635
897.828	18544
897.949	18334
898.07	18471
898.19	18559
898.311	18608
898.431	18532
898.552	18471
898.672	18608
898.792	18623
898.913	18601
899.033	18391
899.153	18445
899.273	18308
899.393	18395
899.513	18365
899.633	18224
899.753	18319
899.873	18213
899.993	18357
900.113	18273
900.232	18308
900.352	18262
900.472	18152
900.591	18083
900.711	18053
900.83	18098
900.95	18174
901.069	18174
901.189	17965
901.308	17847
901.427	17684
901.546	17684
901.665	17691
901.784	17665
901.904	17566
902.023	17474
902.141	17197
902.26	17269
902.379	17231
902.498	17132
902.617	17075
902.735	17170
902.854	17155
902.973	17037
903.091	16759
903.21	16831
903.328	16828
903.446	16736
903.565	16649
903.683	16698
903.801	16474
903.919	16531
904.038	16508
904.156	16455
904.274	16474
904.392	16394
904.51	16246
904.627	16314
904.745	16348
904.863	16436
904.981	16158
905.098	15991
905.216	16059
905.334	16036
905.451	16044
905.569	15922
905.686	16002
905.803	15941
905.921	15762
906.038	15835
906.155	15857
906.272	15720
906.389	15587
906.506	15519
906.623	15477
906.74	15401
906.857	15431
906.974	15504
907.091	15549
907.208	15720
907.324	15564
907.441	15458
907.557	15329
907.674	15291
907.79	15176
907.907	15176
908.023	15211
908.139	15237
908.256	15203
908.372	15119
908.488	15089
908.604	14994
908.72	14910
908.836	14960
908.952	14868
909.068	14899
909.184	14982
909.3	14872
909.415	14842
909.531	14944
909.647	14708
909.762	14636
909.878	14598
909.993	14743
910.108	14621
910.224	14648
910.339	14693
910.454	14556
910.57	14492
910.685	14423
910.8	14648
910.915	14663
911.03	14537
911.145	14286
911.259	14294
911.374	14233
911.489	14172
911.604	14278
911.718	14062
911.833	14039
911.947	13967
912.062	13887
912.176	13989
912.291	13940
912.405	13959
912.519	14202
912.633	14130
912.748	14172
912.862	13894
912.976	13849
913.09	13742
913.204	13784
913.318	13898
913.431	13856
913.545	13978
913.659	13963
913.772	13856
913.886	13643
914	13662
914.113	13693
914.226	13776
914.34	13761
914.453	13609
914.566	13788
914.68	13643
914.793	13556
914.906	13419
915.019	13392
915.132	13327
915.245	13362
915.358	13358
915.47	13449
915.583	13343
915.696	13426
915.809	13529
915.921	13601
916.034	13247
916.146	13285
916.259	13335
916.371	13525
916.483	13350
916.595	13285
916.708	13320
916.82	13282
916.932	13194
917.044	13320
917.156	13175
917.268	13118
917.38	13091
917.491	13084
917.603	12989
917.715	13164
917.826	13194
917.938	13038
918.049	12954
918.161	13095
918.272	13126
918.384	13099
918.495	13107
918.606	12821
918.717	12867
918.828	12909
918.939	12901
919.05	12768
919.161	12844
919.272	12662
919.383	12681
919.494	12913
919.604	12981
919.715	12783
919.826	12760
919.936	12677
920.047	12867
920.157	12783
920.267	12977
920.378	12802
920.488	12863
920.598	13015
920.708	13190
920.818	12928
920.928	12996
921.038	13088
921.148	13080
921.258	12802
921.368	12696
921.477	12627
921.587	12582
921.697	12471
921.806	12570
921.916	12422
922.025	12323
922.134	12262
922.244	12133
922.353	12243
922.462	12114
922.571	12110
922.68	11889
922.789	11874
922.898	11904
923.007	11874
923.116	11984
923.224	11836
923.333	11840
923.442	11771
923.55	11752
923.659	11737
923.767	11817
923.876	11699
923.984	11798
924.092	11600
924.201	11699
924.309	11733
924.417	11718
924.525	11627
924.633	11672
924.741	12365
924.849	11376
924.956	11547
925.064	11490
925.172	11421
925.279	11372
925.387	11463
925.494	11356
925.602	11455
925.709	11455
925.816	11368
925.924	11459
926.031	11478
926.138	11330
926.245	11383
926.352	11353
926.459	11398
926.566	11505
926.673	11239
926.779	11143
926.886	11216
926.993	10976
927.099	10957
927.206	10957
927.312	10961
927.419	11109
927.525	10987
927.631	11113
927.737	10949
927.843	10919
927.95	10812
928.056	10869
928.162	10919
928.267	10885
928.373	11493
928.479	10938
928.585	10725
928.69	10805
928.796	10938
928.901	10767
929.007	10618
929.112	10793
929.218	10873
929.323	10771
929.428	10641
929.533	10771
929.638	10641
929.743	10535
929.848	10645
929.953	10626
930.058	10523
930.163	10367
930.267	10329
930.372	10531
930.477	10329
930.581	10538
930.685	10318
930.79	10207
930.894	10242
930.998	10257
931.103	10322
931.207	10036
931.311	9911
931.415	9842
931.519	9694
931.623	9694
