Data from test_V78500241_2697.txt Node
Date: Fri Mar 25 14:52:29 CST 2022
User: usil
Spectrometer: V785-0024
Trigger mode: 0
Integration Time (sec): 4.000000E-1
Scans to average: 1
Nonlinearity correction enabled: false
Boxcar width: 0
Storing dark spectrum: false
XAxis mode: Wavelengths
Number of Pixels in Spectrum: 1024
>>>>>Begin Spectral Data<<<<<
801.071	22002
801.214	21827
801.356	21603
801.499	21488
801.641	21507
801.783	21367
801.926	21279
802.068	21203
802.211	21275
802.353	21077
802.496	20975
802.638	20899
802.78	20861
802.923	20648
803.065	20655
803.208	20670
803.35	20621
803.492	20819
803.635	20800
803.777	20838
803.919	20781
804.061	21070
804.204	20708
804.346	20648
804.488	20514
804.63	20712
804.773	20499
804.915	20507
805.057	20693
805.199	20533
805.341	20499
805.483	20788
805.626	20708
805.768	20450
805.91	20613
806.052	20632
806.194	20518
806.336	20750
806.478	20617
806.62	20503
806.762	20693
806.904	20781
807.046	20906
807.188	20921
807.33	21039
807.472	20910
807.614	20796
807.756	20807
807.898	20697
808.04	20590
808.182	20720
808.324	20667
808.465	20689
808.607	20864
808.749	21032
808.891	21188
809.033	21169
809.174	21135
809.316	20899
809.458	20982
809.6	20906
809.741	20914
809.883	20956
810.025	21112
810.166	21104
810.308	21192
810.45	21161
810.591	20952
810.733	20823
810.875	20629
811.016	20701
811.158	20701
811.299	20708
811.441	20842
811.582	20948
811.724	20739
811.865	20678
812.007	20697
812.148	20807
812.29	20716
812.431	20937
812.573	21081
812.714	21077
812.855	21237
812.997	21382
813.138	21443
813.279	21374
813.421	21218
813.562	21127
813.703	21017
813.845	20815
813.986	20571
814.127	20412
814.268	20434
814.41	20351
814.551	20210
814.692	20473
814.833	20161
814.974	20145
815.115	20237
815.256	20130
815.397	20168
815.539	20027
815.68	20077
815.821	19902
815.962	20130
816.103	19890
816.244	19894
816.385	19723
816.526	19719
816.666	19559
816.807	19525
816.948	19613
817.089	19434
817.23	19434
817.371	19377
817.512	19445
817.653	19480
817.793	19339
817.934	19407
818.075	19422
818.216	19362
818.356	19365
818.497	19095
818.638	19019
818.778	19095
818.919	19050
819.06	19183
819.2	19183
819.341	19304
819.481	19263
819.622	19499
819.762	19506
819.903	19548
820.043	19480
820.184	19362
820.324	19377
820.465	19525
820.605	19411
820.746	19441
820.886	19217
821.026	19369
821.167	19255
821.307	19419
821.447	19278
821.588	19209
821.728	19038
821.868	19023
822.008	18905
822.149	18753
822.289	18817
822.429	18582
822.569	18410
822.709	18532
822.849	18365
822.99	18395
823.13	18239
823.27	18190
823.41	18026
823.55	18155
823.69	18163
823.83	18144
823.97	18148
824.11	17802
824.25	17912
824.389	17870
824.529	17859
824.669	17874
824.809	17847
824.949	17927
825.089	17897
825.228	17950
825.368	17634
825.508	17642
825.648	17604
825.787	17703
825.927	17661
826.067	17547
826.206	17512
826.346	17649
826.485	17619
826.625	17600
826.765	17726
826.904	17691
827.044	17379
827.183	17368
827.323	17311
827.462	17501
827.601	17334
827.741	17368
827.88	17360
828.02	17273
828.159	17315
828.298	17360
828.437	17376
828.577	17376
828.716	17452
828.855	17368
828.994	17117
829.134	17159
829.273	17185
829.412	16999
829.551	16957
829.69	17075
829.829	17056
829.968	17178
830.107	17113
830.246	17105
830.385	17090
830.524	16976
830.663	17010
830.802	16839
830.941	16694
831.08	16653
831.219	16881
831.357	16816
831.496	16892
831.635	16607
831.774	16675
831.913	16630
832.051	16554
832.19	16569
832.329	16481
832.467	16356
832.606	16402
832.744	16360
832.883	16459
833.022	16341
833.16	16474
833.299	16485
833.437	16485
833.576	16417
833.714	16508
833.852	16481
833.991	16565
834.129	16565
834.267	16500
834.406	16459
834.544	16508
834.682	16569
834.821	16428
834.959	16538
835.097	16443
835.235	16615
835.373	16485
835.511	16500
835.65	16413
835.788	16398
835.926	16272
836.064	16246
836.202	16196
836.34	16451
836.478	16504
836.615	16481
836.753	16413
836.891	16531
837.029	16413
837.167	16322
837.305	16382
837.443	16306
837.58	16204
837.718	16284
837.856	16348
837.993	16310
838.131	16211
838.269	16223
838.406	16223
838.544	16158
838.681	15934
838.819	15899
838.956	15808
839.094	15823
839.231	15838
839.369	15937
839.506	16280
839.643	16063
839.781	15876
839.918	15838
840.055	15797
840.193	15857
840.33	15728
840.467	15728
840.604	15838
840.742	16010
840.879	15713
841.016	15747
841.153	15724
841.29	15922
841.427	15835
841.564	15774
841.701	15736
841.838	15823
841.975	15755
842.112	15732
842.249	15603
842.385	15526
842.522	15770
842.659	15667
842.796	15610
842.933	15644
843.069	15637
843.206	15622
843.343	15572
843.479	15671
843.616	15663
843.752	15511
843.889	15336
844.025	15492
844.162	15351
844.298	15431
844.435	15458
844.571	15321
844.708	15477
844.844	15530
844.98	15660
845.117	15401
845.253	15401
845.389	15393
845.525	15447
845.661	15378
845.798	15161
845.934	15241
846.07	15176
846.206	15226
846.342	15310
846.478	15188
846.614	15020
846.75	14998
846.886	14906
847.022	15142
847.158	15051
847.294	15013
847.429	15020
847.565	14887
847.701	15085
847.837	14743
847.972	14750
848.108	14800
848.244	14811
848.379	14610
848.515	14560
848.65	14488
848.786	14556
848.921	14568
849.057	14636
849.192	14644
849.328	14602
849.463	14590
849.598	14533
849.734	14503
849.869	14431
850.004	14366
850.14	14294
850.275	14389
850.41	14298
850.545	14271
850.68	14267
850.815	14305
850.95	14305
851.085	14450
851.22	14499
851.355	14358
851.49	14332
851.625	14332
851.76	14317
851.895	14218
852.03	14225
852.165	14389
852.299	14358
852.434	14339
852.569	14358
852.703	14370
852.838	14381
852.973	14438
853.107	14400
853.242	14347
853.376	14187
853.511	14130
853.645	14240
853.78	14263
853.914	14233
854.048	14206
854.183	14134
854.317	14218
854.451	14396
854.585	14252
854.72	14164
854.854	14282
854.988	14142
855.122	14134
855.256	14024
855.39	14176
855.524	14233
855.658	14294
855.792	14259
855.926	14240
856.06	14294
856.194	14286
856.327	14240
856.461	14119
856.595	14183
856.729	14218
856.862	14267
856.996	14233
857.13	14278
857.263	14336
857.397	14404
857.53	14119
857.664	14298
857.797	14244
857.931	14389
858.064	14305
858.197	14393
858.331	14259
858.464	14218
858.597	14168
858.731	14202
858.864	14206
858.997	14244
859.13	14301
859.263	14248
859.396	14278
859.529	14229
859.662	14081
859.795	14092
859.928	14248
860.061	14339
860.194	14370
860.327	14199
860.46	14187
860.592	14381
860.725	14423
860.858	14374
860.99	14107
861.123	14100
861.256	14046
861.388	14149
861.521	14826
861.653	14138
861.786	14092
861.918	14062
862.05	14161
862.183	14164
862.315	14225
862.447	14256
862.58	14111
862.712	14027
862.844	13955
862.976	14077
863.108	14027
863.24	14499
863.372	13944
863.504	14027
863.636	13928
863.768	14008
863.9	14077
864.032	13864
864.164	13947
864.296	13982
864.428	14100
864.559	14088
864.691	14126
864.823	14054
864.954	14012
865.086	14092
865.217	13993
865.349	13963
865.48	14031
865.612	14008
865.743	14130
865.875	14039
866.006	13986
866.137	13951
866.269	13921
866.4	13928
866.531	13974
866.662	13955
866.793	13856
866.924	13917
867.055	13925
867.186	14039
867.317	13944
867.448	13894
867.579	13967
867.71	13928
867.841	13906
867.972	13875
868.103	14012
868.233	13841
868.364	14005
868.495	14031
868.625	14206
868.756	14240
868.886	14062
869.017	14153
869.147	14305
869.278	14355
869.408	14294
869.539	14199
869.669	14377
869.799	14229
869.929	14431
870.06	14267
870.19	14461
870.32	14465
870.45	14556
870.58	14610
870.71	14811
870.84	14796
870.97	14667
871.1	14610
871.23	14765
871.36	14868
871.489	14716
871.619	14777
871.749	14815
871.879	14857
872.008	14948
872.138	14857
872.267	14823
872.397	14613
872.526	14629
872.656	14689
872.785	14701
872.915	14956
873.044	14845
873.173	14804
873.303	14804
873.432	14956
873.561	14842
873.69	14845
873.819	14899
873.948	14929
874.077	14777
874.206	14826
874.335	14925
874.464	14967
874.593	15165
874.722	15127
874.851	15241
874.979	15192
875.108	15310
875.237	15146
875.365	15104
875.494	15195
875.623	15256
875.751	15081
875.88	15165
876.008	15237
876.136	15431
876.265	15644
876.393	15713
876.521	15652
876.65	15732
876.778	15663
876.906	15614
877.034	15553
877.162	15523
877.29	15538
877.418	15603
877.546	15736
877.674	15564
877.802	15553
877.93	15549
878.058	15622
878.185	15549
878.313	15641
878.441	15538
878.568	15462
878.696	15580
878.824	15644
878.951	15591
879.079	15838
879.206	15994
879.333	15770
879.461	15660
879.588	15686
879.715	15819
879.842	15804
879.97	15679
880.097	15428
880.224	15511
880.351	15584
880.478	15515
880.605	15447
880.732	15496
880.859	15663
880.986	15458
881.112	15622
881.239	15466
881.366	15272
881.493	15131
881.619	15055
881.746	15123
881.872	15112
881.999	15093
882.125	15195
882.252	15195
882.378	15165
882.505	15291
882.631	15135
882.757	14960
882.883	15047
883.01	14998
883.136	14963
883.262	14765
883.388	14762
883.514	14883
883.64	14971
883.766	14887
883.892	14781
884.018	14800
884.143	14994
884.269	15104
884.395	14689
884.52	14678
884.646	14644
884.772	14651
884.897	14522
885.023	14640
885.148	14804
885.274	14826
885.399	14693
885.524	14648
885.65	14670
885.775	14648
885.9	14667
886.025	14682
886.15	14720
886.275	14651
886.4	14450
886.525	14598
886.65	14629
886.775	14587
886.9	14838
887.025	14834
887.149	14606
887.274	14431
887.399	14419
887.523	14362
887.648	14412
887.773	14400
887.897	14606
888.021	14503
888.146	14503
888.27	14537
888.395	14636
888.519	14507
888.643	14480
888.767	14625
888.891	14328
889.015	14301
889.139	14355
889.263	14240
889.387	14503
889.511	14556
889.635	14465
889.759	14263
889.883	14202
890.006	14438
890.13	14404
890.254	14218
890.377	14233
890.501	14084
890.624	14138
890.748	14183
890.871	14176
890.995	14001
891.118	13917
891.241	14027
891.364	14035
891.488	14138
891.611	14050
891.734	14054
891.857	14123
891.98	14024
892.103	14107
892.226	14020
892.349	14050
892.471	13860
892.594	13989
892.717	14096
892.839	14092
892.962	14065
893.085	14161
893.207	14039
893.33	13925
893.452	13970
893.575	14054
893.697	14142
893.819	14180
893.941	14229
894.064	14183
894.186	14062
894.308	13936
894.43	14187
894.552	14259
894.674	14195
894.796	14111
894.918	14084
895.04	14119
895.161	14164
895.283	14149
895.405	14084
895.526	14126
895.648	14065
895.769	14252
895.891	14282
896.012	14275
896.134	14225
896.255	14157
896.376	14172
896.498	14180
896.619	14210
896.74	14263
896.861	14362
896.982	14476
897.103	14686
897.224	14587
897.345	14457
897.466	14320
897.587	14442
897.708	14541
897.828	14533
897.949	14431
898.07	14419
898.19	14495
898.311	14590
898.431	14454
898.552	14560
898.672	14610
898.792	14602
898.913	14610
899.033	14488
899.153	14461
899.273	14362
899.393	14377
899.513	14442
899.633	14313
899.753	14476
899.873	14328
899.993	14442
900.113	14343
900.232	14480
900.352	14412
900.472	14286
900.591	14275
900.711	14355
900.83	14202
900.95	14400
901.069	14351
901.189	14240
901.308	14008
901.427	13807
901.546	13868
901.665	14069
901.784	13944
901.904	13887
902.023	13807
902.141	13594
902.26	13495
902.379	13525
902.498	13529
902.617	13434
902.735	13540
902.854	13563
902.973	13373
903.091	13164
903.21	13221
903.328	13244
903.446	13099
903.565	13095
903.683	13202
903.801	13000
903.919	13088
904.038	13023
904.156	12909
904.274	12947
904.392	12890
904.51	12897
904.627	12875
904.745	12894
904.863	12962
904.981	12719
905.098	12589
905.216	12540
905.334	12574
905.451	12612
905.569	12604
905.686	12642
905.803	12662
905.921	12414
906.038	12578
906.155	12498
906.272	12369
906.389	12353
906.506	12178
906.623	12243
906.74	12133
906.857	12155
906.974	12148
907.091	12285
907.208	12323
907.324	12273
907.441	12106
907.557	11923
907.674	11916
907.79	11870
907.907	11980
908.023	11942
908.139	12038
908.256	11946
908.372	11866
908.488	11859
908.604	11794
908.72	11691
908.836	11745
908.952	11653
909.068	11680
909.184	11843
909.3	11798
909.415	11870
909.531	11756
909.647	11619
909.762	11570
909.878	11474
909.993	11455
910.108	11512
910.224	11486
910.339	11490
910.454	11402
910.57	11410
910.685	11341
910.8	11577
910.915	11509
911.03	11356
911.145	11239
911.259	11254
911.374	11208
911.489	11212
911.604	11113
911.718	11010
911.833	11090
911.947	10831
912.062	10828
912.176	10923
912.291	10957
912.405	10900
912.519	11159
912.633	11208
912.748	11060
912.862	10984
912.976	10812
913.09	10740
913.204	10850
913.318	10896
913.431	10930
913.545	10980
913.659	11033
913.772	10866
913.886	10763
914	10778
914.113	10797
914.226	10843
914.34	10782
914.453	10653
914.566	10782
914.68	10668
914.793	10698
914.906	10485
915.019	10546
915.132	10375
915.245	10474
915.358	10519
915.47	10470
915.583	10462
915.696	10508
915.809	10679
915.921	10733
916.034	10447
916.146	10398
916.259	10329
916.371	10580
916.483	10531
916.595	10325
916.708	10485
916.82	10405
916.932	10329
917.044	10360
917.156	10348
917.268	10230
917.38	10363
917.491	10253
917.603	10325
917.715	10436
917.826	10500
917.938	10272
918.049	10284
918.161	10242
918.272	10531
918.384	10436
918.495	10348
918.606	10207
918.717	10166
918.828	10173
918.939	10295
919.05	10128
919.161	10158
919.272	9987
919.383	10032
919.494	10238
919.604	10360
919.715	10185
919.826	10116
919.936	10215
920.047	10234
920.157	10234
920.267	10436
920.378	10280
920.488	10223
920.598	10413
920.708	10535
920.818	10409
920.928	10310
921.038	10550
921.148	10599
921.258	10188
921.368	10265
921.477	10002
921.587	10067
921.697	9998
921.806	10071
921.916	9968
922.025	9755
922.134	9766
922.244	9728
922.353	9819
922.462	9671
922.571	9622
922.68	9454
922.789	9420
922.898	9443
923.007	9355
923.116	9599
923.224	9420
923.333	9431
923.442	9317
923.55	9253
923.659	9367
923.767	9412
923.876	9272
923.984	9481
924.092	9279
924.201	9325
924.309	9283
924.417	9313
924.525	9287
924.633	9283
924.741	10063
924.849	9131
924.956	9287
925.064	9108
925.172	8986
925.279	9077
925.387	9058
925.494	9123
925.602	9264
925.709	9226
925.816	9108
925.924	9127
926.031	9203
926.138	9093
926.245	9226
926.352	9005
926.459	9222
926.566	9211
926.673	9104
926.779	8952
926.886	9001
926.993	8830
927.099	8857
927.206	8762
927.312	8819
927.419	8830
927.525	8937
927.631	8887
927.737	8762
927.843	8716
927.95	8632
928.056	8743
928.162	8750
928.267	8788
928.373	9325
928.479	8788
928.585	8629
928.69	8766
928.796	8785
928.901	8598
929.007	8499
929.112	8655
929.218	8674
929.323	8533
929.428	8568
929.533	8705
929.638	8488
929.743	8590
929.848	8530
929.953	8556
930.058	8393
930.163	8339
930.267	8259
930.372	8514
930.477	8294
930.581	8552
930.685	8473
930.79	8248
930.894	8229
930.998	8313
931.103	8393
931.207	8058
931.311	7986
931.415	7967
931.519	7795
931.623	7750
