Data from test_V78500241_351.txt Node
Date: Fri Mar 25 14:36:09 CST 2022
User: usil
Spectrometer: V785-0024
Trigger mode: 0
Integration Time (sec): 4.000000E-1
Scans to average: 1
Nonlinearity correction enabled: false
Boxcar width: 0
Storing dark spectrum: false
XAxis mode: Wavelengths
Number of Pixels in Spectrum: 1024
>>>>>Begin Spectral Data<<<<<
801.071	26724
801.214	26739
801.356	26613
801.499	26530
801.641	26343
801.783	26183
801.926	26214
802.068	26164
802.211	26134
802.353	26027
802.496	25928
802.638	25974
802.78	25776
802.923	25837
803.065	25491
803.208	25750
803.35	25822
803.492	25830
803.635	25986
803.777	25761
803.919	25826
804.061	26111
804.204	25875
804.346	25746
804.488	25719
804.63	25765
804.773	25784
804.915	25864
805.057	25940
805.199	25655
805.341	25852
805.483	25883
805.626	25959
805.768	25704
805.91	25803
806.052	25776
806.194	25791
806.336	25974
806.478	25776
806.62	25689
806.762	25898
806.904	25951
807.046	26374
807.188	26100
807.33	26221
807.472	26240
807.614	26126
807.756	26058
807.898	26115
808.04	25864
808.182	26046
808.324	26134
808.465	26168
808.607	26164
808.749	26362
808.891	26518
809.033	26663
809.174	26351
809.316	26275
809.458	26298
809.6	26396
809.741	26366
809.883	26218
810.025	26457
810.166	26549
810.308	26511
810.45	26522
810.591	26374
810.733	26320
810.875	26210
811.016	26180
811.158	26005
811.299	26237
811.441	26362
811.582	26396
811.724	26267
811.865	26164
812.007	26180
812.148	26229
812.29	26138
812.431	26252
812.573	26423
812.714	26514
812.855	26625
812.997	26720
813.138	26796
813.279	26731
813.421	26651
813.562	26621
813.703	26552
813.845	26480
813.986	25974
814.127	25944
814.268	25928
814.41	25757
814.551	25635
814.692	25811
814.833	25791
814.974	25712
815.115	25742
815.256	25479
815.397	25533
815.539	25609
815.68	25601
815.821	25415
815.962	25400
816.103	25479
816.244	25293
816.385	25270
816.526	25152
816.666	25046
816.807	24867
816.948	24985
817.089	24943
817.23	24939
817.371	24844
817.512	25057
817.653	24977
817.793	24665
817.934	24848
818.075	24829
818.216	24810
818.356	24768
818.497	24681
818.638	24528
818.778	24578
818.919	24475
819.06	24471
819.2	24604
819.341	24897
819.481	24684
819.622	24897
819.762	25126
819.903	24913
820.043	24802
820.184	24947
820.324	24764
820.465	24913
820.605	24749
820.746	24802
820.886	24719
821.026	24886
821.167	24692
821.307	24905
821.447	24795
821.588	24627
821.728	24384
821.868	24338
822.008	24235
822.149	24178
822.289	24167
822.429	23931
822.569	23832
822.709	23828
822.849	23703
822.99	23771
823.13	23756
823.27	23543
823.41	23345
823.55	23284
823.69	23486
823.83	23474
823.97	23360
824.11	23170
824.25	23136
824.389	23277
824.529	23330
824.669	23235
824.809	23231
824.949	23330
825.089	23231
825.228	23322
825.368	22968
825.508	23064
825.648	22987
825.787	23052
825.927	23067
826.067	22877
826.206	22991
826.346	22942
826.485	22980
826.625	22881
826.765	23010
826.904	22987
827.044	22911
827.183	22687
827.323	22603
827.462	22774
827.601	22790
827.741	22569
827.88	22759
828.02	22413
828.159	22615
828.298	22588
828.437	22733
828.577	22535
828.716	22774
828.855	22523
828.994	22417
829.134	22257
829.273	22375
829.412	22318
829.551	22329
829.69	22352
829.829	22310
829.968	22367
830.107	22318
830.246	22223
830.385	22310
830.524	22272
830.663	22150
830.802	22040
830.941	21941
831.08	21991
831.219	21945
831.357	21994
831.496	22177
831.635	22025
831.774	21903
831.913	21789
832.051	21671
832.19	21663
832.329	21667
832.467	21629
832.606	21553
832.744	21568
832.883	21545
833.022	21564
833.16	21603
833.299	21523
833.437	21637
833.576	21686
833.714	21652
833.852	21572
833.991	21583
834.129	21599
834.267	21690
834.406	21648
834.544	21656
834.682	21637
834.821	21587
834.959	21675
835.097	21511
835.235	21797
835.373	21587
835.511	21545
835.65	21500
835.788	21530
835.926	21428
836.064	21291
836.202	21283
836.34	21435
836.478	21545
836.615	21477
836.753	21507
836.891	21462
837.029	21557
837.167	21466
837.305	21386
837.443	21310
837.58	21325
837.718	21329
837.856	21355
837.993	21249
838.131	21340
838.269	21176
838.406	21161
838.544	21131
838.681	21039
838.819	20857
838.956	20800
839.094	20773
839.231	20804
839.369	20861
839.506	21108
839.643	20891
839.781	20781
839.918	20609
840.055	20670
840.193	20632
840.33	20488
840.467	20773
840.604	20746
840.742	20906
840.879	20488
841.016	20499
841.153	20564
841.29	20826
841.427	20720
841.564	20697
841.701	20598
841.838	20621
841.975	20347
842.112	20575
842.249	20377
842.385	20412
842.522	20533
842.659	20370
842.796	20419
842.933	20408
843.069	20423
843.206	20377
843.343	20480
843.479	20404
843.616	20442
843.752	20225
843.889	20183
844.025	20385
844.162	20081
844.298	20073
844.435	20149
844.571	20020
844.708	20210
844.844	20225
844.98	20210
845.117	20157
845.253	20164
845.389	20084
845.525	19986
845.661	20130
845.798	19803
845.934	20046
846.07	19871
846.206	19909
846.342	20027
846.478	19894
846.614	19750
846.75	19666
846.886	19670
847.022	19647
847.158	19712
847.294	19643
847.429	19757
847.565	19594
847.701	19814
847.837	19350
847.972	19247
848.108	19464
848.244	19392
848.379	19213
848.515	19213
848.65	19107
848.786	19213
848.921	19278
849.057	19259
849.192	19259
849.328	19190
849.463	19213
849.598	19118
849.734	19038
849.869	19103
850.004	18958
850.14	18989
850.275	18913
850.41	18867
850.545	18821
850.68	18943
850.815	18909
850.95	18924
851.085	18996
851.22	18993
851.355	18905
851.49	18909
851.625	18768
851.76	18928
851.895	18837
852.03	18776
852.165	18901
852.299	18905
852.434	18882
852.569	18913
852.703	18966
852.838	18901
852.973	19046
853.107	19110
853.242	18768
853.376	18726
853.511	18677
853.645	18658
853.78	18814
853.914	18764
854.048	18620
854.183	18719
854.317	18684
854.451	18894
854.585	18734
854.72	18825
854.854	18700
854.988	18540
855.122	18692
855.256	18608
855.39	18665
855.524	18848
855.658	18760
855.792	18726
855.926	18867
856.06	18840
856.194	18772
856.327	18760
856.461	18673
856.595	18673
856.729	18741
856.862	18764
856.996	18745
857.13	18688
857.263	18772
857.397	18844
857.53	18661
857.664	18677
857.797	18726
857.931	18795
858.064	18692
858.197	18814
858.331	18513
858.464	18635
858.597	18490
858.731	18517
858.864	18570
858.997	18555
859.13	18719
859.263	18597
859.396	18783
859.529	18570
859.662	18521
859.795	18597
859.928	18597
860.061	18833
860.194	18825
860.327	18673
860.46	18677
860.592	18677
860.725	18760
860.858	18738
860.99	18684
861.123	18559
861.256	18536
861.388	18681
861.521	19346
861.653	18376
861.786	18380
861.918	18467
862.05	18582
862.183	18612
862.315	18738
862.447	18738
862.58	18559
862.712	18372
862.844	18323
862.976	18483
863.108	18467
863.24	18623
863.372	18296
863.504	18254
863.636	18407
863.768	18380
863.9	18372
864.032	18262
864.164	18300
864.296	18319
864.428	18441
864.559	18464
864.691	18361
864.823	18380
864.954	18407
865.086	18391
865.217	18258
865.349	18262
865.48	18296
865.612	18330
865.743	18479
865.875	18304
866.006	18251
866.137	18201
866.269	18380
866.4	18243
866.531	18220
866.662	18136
866.793	18205
866.924	18243
867.055	18232
867.186	18277
867.317	18159
867.448	18114
867.579	18216
867.71	18152
867.841	18213
867.972	18254
868.103	18136
868.233	18159
868.364	18304
868.495	18300
868.625	18448
868.756	18635
868.886	18441
869.017	18475
869.147	18544
869.278	18460
869.408	18399
869.539	18479
869.669	18551
869.799	18555
869.929	18547
870.06	18589
870.19	18787
870.32	18715
870.45	18806
870.58	18867
870.71	18966
870.84	18890
870.97	18768
871.1	18749
871.23	19103
871.36	18993
871.489	18958
871.619	18981
871.749	19042
871.879	19126
872.008	19141
872.138	19141
872.267	19012
872.397	18924
872.526	18871
872.656	18863
872.785	18867
872.915	18905
873.044	19088
873.173	19091
873.303	19038
873.432	19175
873.561	19213
873.69	19129
873.819	19110
873.948	19031
874.077	19080
874.206	19122
874.335	19084
874.464	19282
874.593	19312
874.722	19236
874.851	19430
874.979	19316
875.108	19468
875.237	19289
875.365	19236
875.494	19350
875.623	19426
875.751	19293
875.88	19632
876.008	19563
876.136	19582
876.265	19811
876.393	19845
876.521	19887
876.65	19906
876.778	19784
876.906	19696
877.034	19544
877.162	19795
877.29	19544
877.418	19818
877.546	19601
877.674	19738
877.802	19628
877.93	19788
878.058	19704
878.185	19575
878.313	19689
878.441	19791
878.568	19639
878.696	19723
878.824	19772
878.951	19871
879.079	19940
879.206	19974
879.333	19909
879.461	19830
879.588	19959
879.715	19982
879.842	20172
879.97	19868
880.097	19594
880.224	19499
880.351	19563
880.478	19601
880.605	19548
880.732	19708
880.859	19788
880.986	19567
881.112	19552
881.239	19533
881.366	19388
881.493	19289
881.619	19168
881.746	19251
881.872	19331
881.999	19190
882.125	19141
882.252	19270
882.378	19118
882.505	19525
882.631	19095
882.757	18993
882.883	18962
883.01	18981
883.136	18932
883.262	18909
883.388	18844
883.514	18954
883.64	19046
883.766	18871
883.892	18768
884.018	18692
884.143	19012
884.269	19015
884.395	18669
884.52	18631
884.646	18612
884.772	18475
884.897	18521
885.023	18627
885.148	18669
885.274	18817
885.399	18738
885.524	18658
885.65	18665
885.775	18528
885.9	18589
886.025	18726
886.15	18703
886.275	18544
886.4	18483
886.525	18547
886.65	18460
886.775	18452
886.9	18661
887.025	18802
887.149	18688
887.274	18350
887.399	18448
887.523	18384
887.648	18281
887.773	18232
887.897	18418
888.021	18399
888.146	18376
888.27	18460
888.395	18506
888.519	18426
888.643	18380
888.767	18540
888.891	18270
889.015	18152
889.139	18292
889.263	18095
889.387	18296
889.511	18323
889.635	18224
889.759	18186
889.883	18178
890.006	18213
890.13	18285
890.254	18030
890.377	18038
890.501	17954
890.624	17916
890.748	18019
890.871	17817
890.995	17779
891.118	17817
891.241	17798
891.364	17767
891.488	17961
891.611	17783
891.734	17718
891.857	17843
891.98	17832
892.103	17794
892.226	17836
892.349	17596
892.471	17668
892.594	17646
892.717	17794
892.839	17722
892.962	17710
893.085	17855
893.207	17752
893.33	17589
893.452	17733
893.575	17733
893.697	17707
893.819	17847
893.941	18011
894.064	17897
894.186	17634
894.308	17630
894.43	17779
894.552	17828
894.674	17897
894.796	17760
894.918	17745
895.04	17779
895.161	17847
895.283	17836
895.405	17684
895.526	17680
895.648	17771
895.769	17809
895.891	17836
896.012	17779
896.134	17878
896.255	17794
896.376	17802
896.498	17821
896.619	17828
896.74	17809
896.861	17889
896.982	18201
897.103	18388
897.224	18110
897.345	18041
897.466	17980
897.587	18049
897.708	18155
897.828	18110
897.949	18083
898.07	18003
898.19	18007
898.311	18091
898.431	17999
898.552	18030
898.672	18159
898.792	18121
898.913	18144
899.033	17885
899.153	17874
899.273	17699
899.393	17897
899.513	17923
899.633	17832
899.753	17783
899.873	17756
899.993	17847
900.113	17741
900.232	17840
900.352	17680
900.472	17676
900.591	17668
900.711	17714
900.83	17573
900.95	17805
901.069	17722
901.189	17615
901.308	17318
901.427	17315
901.546	17341
901.665	17356
901.784	17345
901.904	17060
902.023	17189
902.141	16828
902.26	16839
902.379	16843
902.498	16843
902.617	16736
902.735	16847
902.854	16782
902.973	16683
903.091	16481
903.21	16470
903.328	16546
903.446	16443
903.565	16348
903.683	16265
903.801	16162
903.919	16230
904.038	16325
904.156	16128
904.274	16078
904.392	16078
904.51	16090
904.627	16074
904.745	16048
904.863	16055
904.981	15930
905.098	15614
905.216	15747
905.334	15827
905.451	15781
905.569	15736
905.686	15800
905.803	15739
905.921	15576
906.038	15644
906.155	15625
906.272	15473
906.389	15500
906.506	15325
906.623	15272
906.74	15382
906.857	15154
906.974	15176
907.091	15469
907.208	15393
907.324	15367
907.441	15218
907.557	15104
907.674	15062
907.79	14986
907.907	15036
908.023	15020
908.139	15039
908.256	14899
908.372	14925
908.488	14868
908.604	14842
908.72	14667
908.836	14617
908.952	14689
909.068	14788
909.184	14750
909.3	14708
909.415	14762
909.531	14739
909.647	14511
909.762	14511
909.878	14461
909.993	14480
910.108	14450
910.224	14465
910.339	14415
910.454	14309
910.57	14206
910.685	14237
910.8	14450
910.915	14434
911.03	14256
911.145	14107
911.259	14039
911.374	13986
911.489	13993
911.604	14035
911.718	13875
911.833	13902
911.947	13738
912.062	13704
912.176	13814
912.291	13871
912.405	13746
912.519	13936
912.633	14001
912.748	13871
912.862	13750
912.976	13677
913.09	13514
913.204	13510
913.318	13666
913.431	13784
913.545	13788
913.659	13761
913.772	13643
913.886	13533
914	13495
914.113	13544
914.226	13636
914.34	13548
914.453	13362
914.566	13491
914.68	13377
914.793	13392
914.906	13213
915.019	13179
915.132	13152
915.245	13126
915.358	13232
915.47	13194
915.583	13179
915.696	13171
915.809	13327
915.921	13343
916.034	13171
916.146	13137
916.259	13080
916.371	13266
916.483	13164
916.595	13141
916.708	12981
916.82	13065
916.932	13034
917.044	13027
917.156	12932
917.268	12916
917.38	12970
917.491	12798
917.603	12833
917.715	13015
917.826	12993
917.938	12867
918.049	12738
918.161	12875
918.272	13065
918.384	13050
918.495	12859
918.606	12760
918.717	12574
918.828	12662
918.939	12696
919.05	12612
919.161	12650
919.272	12513
919.383	12555
919.494	12738
919.604	12787
919.715	12662
919.826	12623
919.936	12620
920.047	12669
920.157	12665
920.267	12878
920.378	12639
920.488	12506
920.598	12848
920.708	12981
920.818	12776
920.928	12772
921.038	12989
921.148	12856
921.258	12703
921.368	12517
921.477	12429
921.587	12342
921.697	12270
921.806	12407
921.916	12327
922.025	12102
922.134	12076
922.244	11984
922.353	12015
922.462	12007
922.571	11916
922.68	11684
922.789	11752
922.898	11741
923.007	11691
923.116	11836
923.224	11722
923.333	11714
923.442	11608
923.55	11486
923.659	11684
923.767	11661
923.876	11627
923.984	11573
924.092	11516
924.201	11554
924.309	11573
924.417	11520
924.525	11497
924.633	11566
924.741	12228
924.849	11261
924.956	11452
925.064	11280
925.172	11185
925.279	11231
925.387	11376
925.494	11220
925.602	11414
925.709	11395
925.816	11147
925.924	11239
926.031	11360
926.138	11372
926.245	11250
926.352	11151
926.459	11258
926.566	11307
926.673	11151
926.779	11071
926.886	11102
926.993	10927
927.099	10930
927.206	10904
927.312	10873
927.419	10896
927.525	10877
927.631	10953
927.737	10866
927.843	10790
927.95	10717
928.056	10706
928.162	10740
928.267	10790
928.373	11459
928.479	10820
928.585	10653
928.69	10793
928.796	10771
928.901	10664
929.007	10466
929.112	10641
929.218	10592
929.323	10580
929.428	10470
929.533	10622
929.638	10512
929.743	10508
929.848	10523
929.953	10462
930.058	10360
930.163	10185
930.267	10265
930.372	10398
930.477	10223
930.581	10367
930.685	10192
930.79	10143
930.894	10215
930.998	10071
931.103	10211
931.207	9945
931.311	9762
931.415	9717
931.519	9584
931.623	9591
