Data from test_V78500241_1285.txt Node
Date: Fri Mar 25 14:42:39 CST 2022
User: usil
Spectrometer: V785-0024
Trigger mode: 0
Integration Time (sec): 4.000000E-1
Scans to average: 1
Nonlinearity correction enabled: false
Boxcar width: 0
Storing dark spectrum: false
XAxis mode: Wavelengths
Number of Pixels in Spectrum: 1024
>>>>>Begin Spectral Data<<<<<
801.071	22428
801.214	22291
801.356	22086
801.499	21869
801.641	21736
801.783	21739
801.926	21660
802.068	21671
802.211	21663
802.353	21599
802.496	21275
802.638	21310
802.78	21230
802.923	21165
803.065	20929
803.208	21127
803.35	21032
803.492	21131
803.635	21222
803.777	21009
803.919	21252
804.061	21435
804.204	21066
804.346	20952
804.488	20899
804.63	20975
804.773	20906
804.915	21013
805.057	21074
805.199	21005
805.341	21058
805.483	21127
805.626	21127
805.768	21024
805.91	20975
806.052	21055
806.194	20895
806.336	20979
806.478	21032
806.62	20925
806.762	21001
806.904	21272
807.046	21523
807.188	21275
807.33	21291
807.472	21351
807.614	21169
807.756	21329
807.898	21146
808.04	21222
808.182	21184
808.324	21051
808.465	21310
808.607	21374
808.749	21545
808.891	21644
809.033	21622
809.174	21580
809.316	21488
809.458	21424
809.6	21477
809.741	21469
809.883	21545
810.025	21625
810.166	21530
810.308	21504
810.45	21603
810.591	21511
810.733	21348
810.875	21188
811.016	21036
811.158	21112
811.299	21173
811.441	21397
811.582	21226
811.724	21154
811.865	21169
812.007	21222
812.148	21051
812.29	21233
812.431	21469
812.573	21450
812.714	21641
812.855	21720
812.997	21743
813.138	21888
813.279	21743
813.421	21587
813.562	21610
813.703	21336
813.845	21294
813.986	21077
814.127	20925
814.268	20739
814.41	20834
814.551	20705
814.692	20781
814.833	20678
814.974	20708
815.115	20594
815.256	20495
815.397	20552
815.539	20564
815.68	20415
815.821	20473
815.962	20503
816.103	20396
816.244	20355
816.385	20119
816.526	20195
816.666	20054
816.807	20008
816.948	19982
817.089	19989
817.23	19967
817.371	19932
817.512	20039
817.653	19803
817.793	19833
817.934	19967
818.075	19890
818.216	19845
818.356	19856
818.497	19643
818.638	19620
818.778	19529
818.919	19586
819.06	19590
819.2	19635
819.341	19807
819.481	19712
819.622	19868
819.762	19986
819.903	20035
820.043	19894
820.184	19826
820.324	19799
820.465	19902
820.605	19906
820.746	19826
820.886	19670
821.026	19909
821.167	19814
821.307	19852
821.447	19753
821.588	19647
821.728	19438
821.868	19362
822.008	19335
822.149	19247
822.289	19240
822.429	19050
822.569	18973
822.709	18863
822.849	18772
822.99	18871
823.13	18810
823.27	18726
823.41	18578
823.55	18490
823.69	18502
823.83	18631
823.97	18441
824.11	18445
824.25	18296
824.389	18327
824.529	18388
824.669	18327
824.809	18365
824.949	18407
825.089	18292
825.228	18365
825.368	18258
825.508	18083
825.648	18129
825.787	18148
825.927	18152
826.067	18121
826.206	18129
826.346	18178
826.485	18072
826.625	18091
826.765	18262
826.904	18163
827.044	17874
827.183	17760
827.323	17767
827.462	17866
827.601	17832
827.741	17718
827.88	17813
828.02	17627
828.159	17695
828.298	17824
828.437	17863
828.577	17790
828.716	17969
828.855	17790
828.994	17554
829.134	17596
829.273	17630
829.412	17455
829.551	17562
829.69	17539
829.829	17570
829.968	17642
830.107	17554
830.246	17592
830.385	17448
830.524	17463
830.663	17429
830.802	17356
830.941	17292
831.08	17216
831.219	17311
831.357	17174
831.496	17459
831.635	17166
831.774	17109
831.913	17128
832.051	17033
832.19	17025
832.329	16995
832.467	16881
832.606	16797
832.744	16862
832.883	16889
833.022	16900
833.16	17003
833.299	17006
833.437	16873
833.576	16953
833.714	16953
833.852	16854
833.991	16999
834.129	17029
834.267	17029
834.406	16885
834.544	16987
834.682	16957
834.821	16934
834.959	17090
835.097	16892
835.235	17010
835.373	16942
835.511	16900
835.65	16873
835.788	16896
835.926	16771
836.064	16752
836.202	16706
836.34	16911
836.478	16873
836.615	16835
836.753	16805
836.891	16927
837.029	16858
837.167	16828
837.305	16771
837.443	16725
837.58	16660
837.718	16767
837.856	16752
837.993	16679
838.131	16675
838.269	16713
838.406	16596
838.544	16599
838.681	16424
838.819	16344
838.956	16295
839.094	16261
839.231	16405
839.369	16329
839.506	16694
839.643	16554
839.781	16265
839.918	16196
840.055	16341
840.193	16306
840.33	16291
840.467	16284
840.604	16348
840.742	16485
840.879	16204
841.016	16169
841.153	16120
841.29	16360
841.427	16173
841.564	16348
841.701	16382
841.838	16257
841.975	16139
842.112	16188
842.249	16124
842.385	16116
842.522	16246
842.659	16013
842.796	16063
842.933	16025
843.069	16044
843.206	16002
843.343	16226
843.479	16013
843.616	16040
843.752	15842
843.889	15819
844.025	15991
844.162	15751
844.298	15934
844.435	15892
844.571	15793
844.708	15937
844.844	15968
844.98	16059
845.117	16071
845.253	15766
845.389	15724
845.525	15816
845.661	15869
845.798	15808
845.934	15831
846.07	15850
846.206	15899
846.342	15873
846.478	15625
846.614	15504
846.75	15359
846.886	15420
847.022	15561
847.158	15386
847.294	15389
847.429	15515
847.565	15466
847.701	15606
847.837	15180
847.972	15081
848.108	15268
848.244	15195
848.379	15070
848.515	14975
848.65	15055
848.786	15093
848.921	15039
849.057	15089
849.192	15203
849.328	15097
849.463	15074
849.598	15028
849.734	15039
849.869	14868
850.004	14868
850.14	14842
850.275	14876
850.41	14754
850.545	14701
850.68	14777
850.815	14731
850.95	14739
851.085	14990
851.22	14838
851.355	14834
851.49	14800
851.625	14796
851.76	14769
851.895	14712
852.03	14644
852.165	14693
852.299	14796
852.434	14937
852.569	14872
852.703	14880
852.838	14956
852.973	14872
853.107	14902
853.242	14792
853.376	14811
853.511	14606
853.645	14682
853.78	14864
853.914	14720
854.048	14712
854.183	14686
854.317	14739
854.451	14819
854.585	14632
854.72	14606
854.854	14762
854.988	14564
855.122	14583
855.256	14492
855.39	14636
855.524	14773
855.658	14777
855.792	14686
855.926	14724
856.06	14701
856.194	14815
856.327	14602
856.461	14533
856.595	14594
856.729	14705
856.862	14754
856.996	14693
857.13	14735
857.263	14830
857.397	14838
857.53	14739
857.664	14720
857.797	14697
857.931	14769
858.064	14724
858.197	14720
858.331	14720
858.464	14568
858.597	14644
858.731	14659
858.864	14621
858.997	14629
859.13	14712
859.263	14689
859.396	14712
859.529	14552
859.662	14556
859.795	14594
859.928	14705
860.061	14838
860.194	14769
860.327	14754
860.46	14667
860.592	14815
860.725	14811
860.858	14777
860.99	14636
861.123	14598
861.256	14632
861.388	14724
861.521	15458
861.653	14625
861.786	14575
861.918	14522
862.05	14636
862.183	14590
862.315	14537
862.447	14735
862.58	14564
862.712	14457
862.844	14309
862.976	14518
863.108	14518
863.24	14845
863.372	14339
863.504	14476
863.636	14454
863.768	14434
863.9	14526
864.032	14366
864.164	14412
864.296	14454
864.428	14568
864.559	14514
864.691	14610
864.823	14526
864.954	14564
865.086	14450
865.217	14423
865.349	14404
865.48	14366
865.612	14560
865.743	14598
865.875	14450
866.006	14351
866.137	14412
866.269	14465
866.4	14473
866.531	14404
866.662	14358
866.793	14332
866.924	14393
867.055	14351
867.186	14396
867.317	14351
867.448	14336
867.579	14343
867.71	14305
867.841	14301
867.972	14431
868.103	14377
868.233	14461
868.364	14454
868.495	14431
868.625	14575
868.756	14838
868.886	14503
869.017	14667
869.147	14693
869.278	14777
869.408	14773
869.539	14777
869.669	14743
869.799	14648
869.929	14762
870.06	14800
870.19	15020
870.32	14975
870.45	15005
870.58	15024
870.71	15077
870.84	15230
870.97	15081
871.1	15093
871.23	15142
871.36	15245
871.489	15218
871.619	15192
871.749	15245
871.879	15283
872.008	15260
872.138	15313
872.267	15306
872.397	15192
872.526	15028
872.656	15127
872.785	15154
872.915	15325
873.044	15386
873.173	15294
873.303	15386
873.432	15370
873.561	15370
873.69	15363
873.819	15435
873.948	15329
874.077	15424
874.206	15355
874.335	15294
874.464	15462
874.593	15671
874.722	15545
874.851	15679
874.979	15739
875.108	15542
875.237	15553
875.365	15610
875.494	15496
875.623	15564
875.751	15557
875.88	15648
876.008	15717
876.136	15827
876.265	16029
876.393	16185
876.521	16082
876.65	16097
876.778	16067
876.906	16067
877.034	15960
877.162	16059
877.29	15934
877.418	16006
877.546	16006
877.674	16120
877.802	16055
877.93	15998
878.058	16010
878.185	15968
878.313	15960
878.441	15998
878.568	15873
878.696	16040
878.824	16006
878.951	16204
879.079	16291
879.206	16348
879.333	16211
879.461	16124
879.588	16249
879.715	16211
879.842	16409
879.97	16246
880.097	16029
880.224	15975
880.351	15903
880.478	15945
880.605	15869
880.732	15903
880.859	16166
880.986	15930
881.112	15937
881.239	15785
881.366	15656
881.493	15701
881.619	15507
881.746	15523
881.872	15694
881.999	15534
882.125	15500
882.252	15584
882.378	15603
882.505	15641
882.631	15557
882.757	15287
882.883	15443
883.01	15370
883.136	15336
883.262	15222
883.388	15192
883.514	15332
883.64	15450
883.766	15203
883.892	15173
884.018	15123
884.143	15393
884.269	15428
884.395	15165
884.52	15055
884.646	15058
884.772	15062
884.897	15001
885.023	15116
885.148	15184
885.274	15249
885.399	15199
885.524	15074
885.65	15058
885.775	15135
885.9	14960
886.025	15081
886.15	15081
886.275	15028
886.4	15017
886.525	14963
886.65	15036
886.775	15039
886.9	15112
887.025	15264
887.149	15062
887.274	15074
887.399	14845
887.523	14845
887.648	14834
887.773	14750
887.897	15036
888.021	15009
888.146	14918
888.27	14929
888.395	15017
888.519	14979
888.643	15032
888.767	14948
888.891	14883
889.015	14807
889.139	14701
889.263	14689
889.387	14891
889.511	14910
889.635	14842
889.759	14697
889.883	14712
890.006	14743
890.13	14880
890.254	14625
890.377	14678
890.501	14530
890.624	14571
890.748	14606
890.871	14450
890.995	14366
891.118	14473
891.241	14355
891.364	14393
891.488	14655
891.611	14461
891.734	14575
891.857	14522
891.98	14450
892.103	14530
892.226	14404
892.349	14469
892.471	14339
892.594	14313
892.717	14518
892.839	14393
892.962	14412
893.085	14575
893.207	14423
893.33	14362
893.452	14343
893.575	14526
893.697	14427
893.819	14552
893.941	14621
894.064	14564
894.186	14408
894.308	14389
894.43	14587
894.552	14518
894.674	14461
894.796	14438
894.918	14476
895.04	14457
895.161	14492
895.283	14678
895.405	14476
895.526	14522
895.648	14438
895.769	14632
895.891	14583
896.012	14602
896.134	14625
896.255	14617
896.376	14522
896.498	14518
896.619	14644
896.74	14564
896.861	14659
896.982	14941
897.103	15135
897.224	14891
897.345	14842
897.466	14830
897.587	14895
897.708	14998
897.828	14937
897.949	14769
898.07	14720
898.19	14800
898.311	14975
898.431	14804
898.552	14914
898.672	15005
898.792	15058
898.913	14971
899.033	14811
899.153	14811
899.273	14712
899.393	14739
899.513	14712
899.633	14716
899.753	14777
899.873	14705
899.993	14826
900.113	14648
900.232	14826
900.352	14708
900.472	14648
900.591	14446
900.711	14621
900.83	14606
900.95	14693
901.069	14861
901.189	14545
901.308	14374
901.427	14248
901.546	14313
901.665	14347
901.784	14332
901.904	14229
902.023	14149
902.141	13883
902.26	13898
902.379	13902
902.498	13833
902.617	13795
902.735	13944
902.854	13769
902.973	13852
903.091	13597
903.21	13647
903.328	13575
903.446	13518
903.565	13377
903.683	13381
903.801	13362
903.919	13445
904.038	13316
904.156	13244
904.274	13377
904.392	13221
904.51	13266
904.627	13194
904.745	13266
904.863	13282
904.981	13008
905.098	12981
905.216	12890
905.334	13008
905.451	12939
905.569	12939
905.686	12939
905.803	12939
905.921	12768
906.038	12897
906.155	12722
906.272	12578
906.389	12673
906.506	12509
906.623	12540
906.74	12540
906.857	12414
906.974	12407
907.091	12589
907.208	12696
907.324	12563
907.441	12517
907.557	12277
907.674	12216
907.79	12247
907.907	12258
908.023	12213
908.139	12194
908.256	12144
908.372	12296
908.488	12220
908.604	12110
908.72	12015
908.836	12049
908.952	11969
909.068	12019
909.184	12117
909.3	11946
909.415	12148
909.531	11942
909.647	11824
909.762	11828
909.878	11847
909.993	11813
910.108	11912
910.224	11802
910.339	11752
910.454	11649
910.57	11680
910.685	11535
910.8	11794
910.915	11756
911.03	11657
911.145	11459
911.259	11410
911.374	11467
911.489	11459
911.604	11391
911.718	11261
911.833	11311
911.947	11208
912.062	11048
912.176	11204
912.291	11216
912.405	11280
912.519	11345
912.633	11474
912.748	11277
912.862	11208
912.976	11045
913.09	11025
913.204	11033
913.318	11109
913.431	11235
913.545	11128
913.659	11250
913.772	11124
913.886	11010
914	10968
914.113	11132
914.226	11094
914.34	11094
914.453	10930
914.566	11064
914.68	10873
914.793	10911
914.906	10736
915.019	10660
915.132	10694
915.245	10706
915.358	10790
915.47	10786
915.583	10778
915.696	10771
915.809	10866
915.921	10839
916.034	10645
916.146	10683
916.259	10668
916.371	10744
916.483	10767
916.595	10744
916.708	10740
916.82	10679
916.932	10660
917.044	10733
917.156	10611
917.268	10554
917.38	10516
917.491	10485
917.603	10561
917.715	10641
917.826	10660
917.938	10607
918.049	10409
918.161	10599
918.272	10736
918.384	10702
918.495	10603
918.606	10447
918.717	10348
918.828	10504
918.939	10421
919.05	10386
919.161	10478
919.272	10303
919.383	10295
919.494	10588
919.604	10683
919.715	10470
919.826	10428
919.936	10462
920.047	10569
920.157	10474
920.267	10683
920.378	10519
920.488	10440
920.598	10668
920.708	10790
920.818	10637
920.928	10710
921.038	10881
921.148	10759
921.258	10485
921.368	10504
921.477	10356
921.587	10318
921.697	10173
921.806	10322
921.916	10128
922.025	10006
922.134	10124
922.244	9926
922.353	10101
922.462	9865
922.571	9846
922.68	9740
922.789	9728
922.898	9762
923.007	9709
923.116	9656
923.224	9698
923.333	9610
923.442	9587
923.55	9572
923.659	9641
923.767	9701
923.876	9545
923.984	9599
924.092	9557
924.201	9530
924.309	9614
924.417	9591
924.525	9500
924.633	9538
924.741	10325
924.849	9363
924.956	9485
925.064	9336
925.172	9329
925.279	9329
925.387	9389
925.494	9363
925.602	9485
925.709	9382
925.816	9313
925.924	9298
926.031	9458
926.138	9325
926.245	9367
926.352	9287
926.459	9428
926.566	9504
926.673	9226
926.779	9245
926.886	9169
926.993	9085
927.099	9104
927.206	8982
927.312	8986
927.419	9123
927.525	9074
927.631	9119
927.737	8933
927.843	8952
927.95	8800
928.056	8868
928.162	8921
928.267	8948
928.373	9667
928.479	8994
928.585	8800
928.69	8895
928.796	8952
928.901	8853
929.007	8693
929.112	8838
929.218	8853
929.323	8823
929.428	8766
929.533	8902
929.638	8655
929.743	8712
929.848	8743
929.953	8815
930.058	8701
930.163	8511
930.267	8598
930.372	8648
930.477	8530
930.581	8766
930.685	8598
930.79	8461
930.894	8484
930.998	8415
931.103	8587
931.207	8294
931.311	8218
931.415	8153
931.519	7951
931.623	7978
