Data from test_V78500241_2666.txt Node
Date: Fri Mar 25 14:52:16 CST 2022
User: usil
Spectrometer: V785-0024
Trigger mode: 0
Integration Time (sec): 4.000000E-1
Scans to average: 1
Nonlinearity correction enabled: false
Boxcar width: 0
Storing dark spectrum: false
XAxis mode: Wavelengths
Number of Pixels in Spectrum: 1024
>>>>>Begin Spectral Data<<<<<
801.071	22025
801.214	21953
801.356	21648
801.499	21511
801.641	21488
801.783	21428
801.926	21428
802.068	21260
802.211	21256
802.353	21116
802.496	20941
802.638	21001
802.78	20788
802.923	20743
803.065	20727
803.208	20632
803.35	20765
803.492	20788
803.635	20769
803.777	20735
803.919	20720
804.061	21089
804.204	20735
804.346	20526
804.488	20556
804.63	20708
804.773	20556
804.915	20598
805.057	20674
805.199	20438
805.341	20712
805.483	20686
805.626	20598
805.768	20537
805.91	20533
806.052	20625
806.194	20537
806.336	20765
806.478	20552
806.62	20556
806.762	20701
806.904	20925
807.046	20948
807.188	20853
807.33	20823
807.472	20891
807.614	20853
807.756	20887
807.898	20644
808.04	20625
808.182	20598
808.324	20682
808.465	20689
808.607	20781
808.749	21001
808.891	21066
809.033	21096
809.174	20979
809.316	20937
809.458	21077
809.6	20891
809.741	21051
809.883	20979
810.025	21157
810.166	21036
810.308	21108
810.45	21119
810.591	21024
810.733	20811
810.875	20724
811.016	20727
811.158	20621
811.299	20804
811.441	20857
811.582	20746
811.724	20788
811.865	20655
812.007	20693
812.148	20746
812.29	20819
812.431	20895
812.573	20979
812.714	21138
812.855	21230
812.997	21336
813.138	21473
813.279	21313
813.421	21222
813.562	21077
813.703	21017
813.845	20979
813.986	20575
814.127	20492
814.268	20366
814.41	20324
814.551	20172
814.692	20313
814.833	20286
814.974	20161
815.115	20248
815.256	20073
815.397	20176
815.539	20161
815.68	19928
815.821	20031
815.962	19913
816.103	19947
816.244	19917
816.385	19700
816.526	19571
816.666	19571
816.807	19415
816.948	19411
817.089	19578
817.23	19521
817.371	19438
817.512	19438
817.653	19331
817.793	19426
817.934	19335
818.075	19422
818.216	19441
818.356	19301
818.497	19183
818.638	19118
818.778	19091
818.919	19084
819.06	19168
819.2	19274
819.341	19217
819.481	19221
819.622	19392
819.762	19510
819.903	19521
820.043	19464
820.184	19350
820.324	19426
820.465	19502
820.605	19331
820.746	19369
820.886	19194
821.026	19392
821.167	19263
821.307	19362
821.447	19331
821.588	19126
821.728	19190
821.868	18973
822.008	18817
822.149	18878
822.289	18753
822.429	18502
822.569	18464
822.709	18460
822.849	18323
822.99	18213
823.13	18277
823.27	18254
823.41	18106
823.55	17977
823.69	18152
823.83	18114
823.97	18034
824.11	17904
824.25	17855
824.389	17794
824.529	17897
824.669	17802
824.809	17992
824.949	17855
825.089	17977
825.228	17885
825.368	17676
825.508	17729
825.648	17676
825.787	17657
825.927	17619
826.067	17634
826.206	17634
826.346	17703
826.485	17710
826.625	17638
826.765	17707
826.904	17684
827.044	17398
827.183	17395
827.323	17239
827.462	17433
827.601	17345
827.741	17280
827.88	17440
828.02	17185
828.159	17337
828.298	17307
828.437	17421
828.577	17273
828.716	17573
828.855	17330
828.994	17185
829.134	17143
829.273	17189
829.412	17083
829.551	16919
829.69	17056
829.829	17121
829.968	17197
830.107	17128
830.246	17143
830.385	17025
830.524	16968
830.663	16885
830.802	16862
830.941	16679
831.08	16607
831.219	16850
831.357	16809
831.496	16927
831.635	16736
831.774	16691
831.913	16466
832.051	16588
832.19	16538
832.329	16592
832.467	16421
832.606	16337
832.744	16382
832.883	16413
833.022	16314
833.16	16432
833.299	16538
833.437	16481
833.576	16440
833.714	16371
833.852	16500
833.991	16523
834.129	16519
834.267	16542
834.406	16523
834.544	16459
834.682	16497
834.821	16516
834.959	16668
835.097	16478
835.235	16512
835.373	16523
835.511	16565
835.65	16303
835.788	16249
835.926	16253
836.064	16215
836.202	16257
836.34	16451
836.478	16535
836.615	16402
836.753	16398
836.891	16504
837.029	16375
837.167	16329
837.305	16306
837.443	16215
837.58	16211
837.718	16268
837.856	16341
837.993	16135
838.131	16322
838.269	16185
838.406	16234
838.544	16166
838.681	16002
838.819	15899
838.956	15755
839.094	15804
839.231	15915
839.369	16002
839.506	16139
839.643	15983
839.781	15816
839.918	15728
840.055	15892
840.193	15816
840.33	15846
840.467	15930
840.604	15869
840.742	16013
840.879	15743
841.016	15755
841.153	15816
841.29	15964
841.427	15800
841.564	15728
841.701	15876
841.838	15785
841.975	15766
842.112	15823
842.249	15625
842.385	15625
842.522	15819
842.659	15682
842.796	15637
842.933	15561
843.069	15485
843.206	15576
843.343	15705
843.479	15648
843.616	15580
843.752	15408
843.889	15412
844.025	15523
844.162	15412
844.298	15584
844.435	15469
844.571	15382
844.708	15420
844.844	15515
844.98	15500
845.117	15523
845.253	15374
845.389	15317
845.525	15458
845.661	15268
845.798	15256
845.934	15211
846.07	15245
846.206	15332
846.342	15332
846.478	15165
846.614	15058
846.75	14914
846.886	14918
847.022	15116
847.158	14994
847.294	14941
847.429	15036
847.565	14929
847.701	15188
847.837	14750
847.972	14724
848.108	14804
848.244	14842
848.379	14579
848.515	14590
848.65	14594
848.786	14545
848.921	14594
849.057	14693
849.192	14705
849.328	14663
849.463	14648
849.598	14503
849.734	14450
849.869	14408
850.004	14396
850.14	14461
850.275	14332
850.41	14229
850.545	14442
850.68	14298
850.815	14317
850.95	14309
851.085	14594
851.22	14431
851.355	14446
851.49	14374
851.625	14320
851.76	14278
851.895	14225
852.03	14229
852.165	14419
852.299	14419
852.434	14389
852.569	14389
852.703	14427
852.838	14434
852.973	14579
853.107	14423
853.242	14355
853.376	14199
853.511	14130
853.645	14199
853.78	14286
853.914	14195
854.048	14199
854.183	14176
854.317	14263
854.451	14358
854.585	14229
854.72	14153
854.854	14317
854.988	14031
855.122	14123
855.256	14088
855.39	14168
855.524	14263
855.658	14301
855.792	14221
855.926	14172
856.06	14298
856.194	14351
856.327	14145
856.461	14206
856.595	14183
856.729	14157
856.862	14313
856.996	14282
857.13	14248
857.263	14419
857.397	14301
857.53	14282
857.664	14313
857.797	14309
857.931	14381
858.064	14267
858.197	14286
858.331	14202
858.464	14096
858.597	14149
858.731	14210
858.864	14172
858.997	14157
859.13	14290
859.263	14202
859.396	14339
859.529	14176
859.662	14168
859.795	14176
859.928	14187
860.061	14286
860.194	14313
860.327	14221
860.46	14206
860.592	14336
860.725	14370
860.858	14290
860.99	14313
861.123	14062
861.256	14088
861.388	14176
861.521	14735
861.653	14024
861.786	14054
861.918	13989
862.05	14103
862.183	14187
862.315	14187
862.447	14240
862.58	14111
862.712	14054
862.844	13898
862.976	14012
863.108	13974
863.24	14320
863.372	13852
863.504	13967
863.636	13841
863.768	14096
863.9	13993
864.032	13963
864.164	13974
864.296	13997
864.428	14096
864.559	14115
864.691	14206
864.823	14058
864.954	13997
865.086	14081
865.217	13986
865.349	13921
865.48	13955
865.612	13936
865.743	14130
865.875	14035
866.006	13986
866.137	13940
866.269	13989
866.4	13883
866.531	14069
866.662	13955
866.793	13932
866.924	14016
867.055	14016
867.186	13982
867.317	13970
867.448	13906
867.579	13883
867.71	13890
867.841	13921
867.972	14005
868.103	13963
868.233	14008
868.364	14005
868.495	14039
868.625	14187
868.756	14396
868.886	14111
869.017	14183
869.147	14336
869.278	14355
869.408	14355
869.539	14252
869.669	14282
869.799	14237
869.929	14404
870.06	14339
870.19	14518
870.32	14480
870.45	14579
870.58	14674
870.71	14773
870.84	14773
870.97	14667
871.1	14613
871.23	14785
871.36	14880
871.489	14689
871.619	14811
871.749	14788
871.879	14880
872.008	14883
872.138	14815
872.267	14762
872.397	14708
872.526	14663
872.656	14659
872.785	14621
872.915	14876
873.044	14948
873.173	14902
873.303	15005
873.432	14929
873.561	14956
873.69	14963
873.819	14906
873.948	14929
874.077	14899
874.206	14853
874.335	14918
874.464	15024
874.593	15081
874.722	15093
874.851	15298
874.979	15294
875.108	15184
875.237	15150
875.365	15077
875.494	15131
875.623	15233
875.751	15169
875.88	15226
876.008	15424
876.136	15416
876.265	15599
876.393	15831
876.521	15728
876.65	15698
876.778	15625
876.906	15694
877.034	15507
877.162	15644
877.29	15576
877.418	15679
877.546	15534
877.674	15637
877.802	15686
877.93	15584
878.058	15473
878.185	15553
878.313	15584
878.441	15644
878.568	15473
878.696	15553
878.824	15603
878.951	15644
879.079	15686
879.206	15880
879.333	15797
879.461	15584
879.588	15694
879.715	15804
879.842	15968
879.97	15663
880.097	15526
880.224	15447
880.351	15412
880.478	15424
880.605	15355
880.732	15420
880.859	15679
880.986	15447
881.112	15515
881.239	15302
881.366	15313
881.493	15173
881.619	15100
881.746	15230
881.872	15043
881.999	15024
882.125	15055
882.252	15176
882.378	15157
882.505	15298
882.631	15017
882.757	14944
882.883	14971
883.01	14963
883.136	14872
883.262	14815
883.388	14785
883.514	14921
883.64	15039
883.766	14910
883.892	14686
884.018	14807
884.143	14872
884.269	15058
884.395	14743
884.52	14590
884.646	14670
884.772	14590
884.897	14530
885.023	14598
885.148	14796
885.274	14781
885.399	14735
885.524	14613
885.65	14583
885.775	14670
885.9	14750
886.025	14811
886.15	14640
886.275	14522
886.4	14587
886.525	14587
886.65	14575
886.775	14507
886.9	14693
887.025	14838
887.149	14613
887.274	14549
887.399	14484
887.523	14396
887.648	14461
887.773	14305
887.897	14507
888.021	14450
888.146	14408
888.27	14518
888.395	14606
888.519	14465
888.643	14598
888.767	14503
888.891	14415
889.015	14339
889.139	14473
889.263	14240
889.387	14469
889.511	14537
889.635	14488
889.759	14377
889.883	14427
890.006	14328
890.13	14575
890.254	14328
890.377	14252
890.501	14240
890.624	14134
890.748	14161
890.871	14077
890.995	14005
891.118	13902
891.241	13963
891.364	14039
891.488	14123
891.611	14046
891.734	14172
891.857	14123
891.98	14183
892.103	14096
892.226	14111
892.349	13989
892.471	13940
892.594	14035
892.717	14020
892.839	14062
892.962	14054
893.085	14180
893.207	14012
893.33	13818
893.452	13967
893.575	14103
893.697	14050
893.819	14157
893.941	14298
894.064	14256
894.186	14092
894.308	14043
894.43	14176
894.552	14317
894.674	14221
894.796	14058
894.918	14103
895.04	14119
895.161	14298
895.283	14183
895.405	14001
895.526	14142
895.648	14153
895.769	14195
895.891	14225
896.012	14214
896.134	14259
896.255	14221
896.376	14111
896.498	14256
896.619	14271
896.74	14244
896.861	14214
896.982	14450
897.103	14667
897.224	14492
897.345	14495
897.466	14366
897.587	14522
897.708	14571
897.828	14575
897.949	14385
898.07	14404
898.19	14499
898.311	14629
898.431	14526
898.552	14682
898.672	14682
898.792	14686
898.913	14625
899.033	14507
899.153	14332
899.273	14355
899.393	14381
899.513	14412
899.633	14366
899.753	14480
899.873	14419
899.993	14526
900.113	14495
900.232	14358
900.352	14393
900.472	14305
900.591	14275
900.711	14355
900.83	14183
900.95	14442
901.069	14434
901.189	14271
901.308	14024
901.427	13940
901.546	13940
901.665	13951
901.784	13970
901.904	13814
902.023	13803
902.141	13537
902.26	13529
902.379	13510
902.498	13521
902.617	13441
902.735	13613
902.854	13586
902.973	13426
903.091	13213
903.21	13369
903.328	13198
903.446	13118
903.565	13091
903.683	13141
903.801	12973
903.919	13057
904.038	13050
904.156	12996
904.274	13080
904.392	12935
904.51	12909
904.627	12833
904.745	12909
904.863	13034
904.981	12688
905.098	12623
905.216	12662
905.334	12635
905.451	12604
905.569	12559
905.686	12574
905.803	12642
905.921	12441
906.038	12506
906.155	12448
906.272	12350
906.389	12414
906.506	12220
906.623	12186
906.74	12182
906.857	12095
906.974	12167
907.091	12190
907.208	12327
907.324	12270
907.441	12117
907.557	11973
907.674	11942
907.79	11901
907.907	11908
908.023	12019
908.139	11984
908.256	11939
908.372	11817
908.488	11836
908.604	11756
908.72	11691
908.836	11752
908.952	11676
909.068	11668
909.184	11859
909.3	11668
909.415	11756
909.531	11710
909.647	11516
909.762	11463
909.878	11421
909.993	11604
910.108	11406
910.224	11379
910.339	11429
910.454	11440
910.57	11376
910.685	11326
910.8	11604
910.915	11581
911.03	11429
911.145	11151
911.259	11220
911.374	11204
911.489	11174
911.604	11109
911.718	10919
911.833	11022
911.947	10850
912.062	10809
912.176	10938
912.291	10976
912.405	10984
912.519	11185
912.633	11143
912.748	11067
912.862	10987
912.976	10854
913.09	10744
913.204	10835
913.318	10904
913.431	10930
913.545	10797
913.659	10934
913.772	10771
913.886	10717
914	10687
914.113	10850
914.226	10816
914.34	10740
914.453	10558
914.566	10782
914.68	10672
914.793	10744
914.906	10508
915.019	10440
915.132	10386
915.245	10424
915.358	10390
915.47	10478
915.583	10485
915.696	10413
915.809	10626
915.921	10584
916.034	10455
916.146	10447
916.259	10352
916.371	10512
916.483	10500
916.595	10390
916.708	10405
916.82	10375
916.932	10344
917.044	10348
917.156	10318
917.268	10276
917.38	10348
917.491	10257
917.603	10341
917.715	10367
917.826	10375
917.938	10333
918.049	10139
918.161	10295
918.272	10478
918.384	10405
918.495	10284
918.606	10166
918.717	10166
918.828	10204
918.939	10139
919.05	10074
919.161	10078
919.272	9934
919.383	10040
919.494	10169
919.604	10394
919.715	10246
919.826	10124
919.936	10196
920.047	10188
920.157	10120
920.267	10348
920.378	10249
920.488	10120
920.598	10424
920.708	10550
920.818	10348
920.928	10424
921.038	10630
921.148	10459
921.258	10204
921.368	10078
921.477	10074
921.587	10017
921.697	9964
921.806	10086
921.916	9865
922.025	9751
922.134	9690
922.244	9656
922.353	9812
922.462	9724
922.571	9587
922.68	9458
922.789	9450
922.898	9367
923.007	9412
923.116	9500
923.224	9443
923.333	9462
923.442	9340
923.55	9287
923.659	9359
923.767	9367
923.876	9313
923.984	9443
924.092	9272
924.201	9306
924.309	9336
924.417	9355
924.525	9230
924.633	9283
924.741	10059
924.849	9081
924.956	9192
925.064	9055
925.172	9017
925.279	9081
925.387	9104
925.494	9131
925.602	9192
925.709	9085
925.816	9074
925.924	9093
926.031	9211
926.138	9116
926.245	9188
926.352	9051
926.459	9165
926.566	9165
926.673	9017
926.779	8944
926.886	8914
926.993	8777
927.099	8811
927.206	8708
927.312	8727
927.419	8872
927.525	8823
927.631	8849
927.737	8724
927.843	8686
927.95	8629
928.056	8651
928.162	8739
928.267	8792
928.373	9363
928.479	8807
928.585	8518
928.69	8629
928.796	8724
928.901	8644
929.007	8434
929.112	8663
929.218	8602
929.323	8499
929.428	8518
929.533	8606
929.638	8461
929.743	8537
929.848	8545
929.953	8568
930.058	8438
930.163	8225
930.267	8332
930.372	8476
930.477	8233
930.581	8480
930.685	8412
930.79	8210
930.894	8244
930.998	8221
931.103	8389
931.207	8027
931.311	8039
931.415	7936
931.519	7792
931.623	7753
