Data from test_V78500241_617.txt Node
Date: Fri Mar 25 14:38:00 CST 2022
User: usil
Spectrometer: V785-0024
Trigger mode: 0
Integration Time (sec): 4.000000E-1
Scans to average: 1
Nonlinearity correction enabled: false
Boxcar width: 0
Storing dark spectrum: false
XAxis mode: Wavelengths
Number of Pixels in Spectrum: 1024
>>>>>Begin Spectral Data<<<<<
801.071	27937
801.214	27732
801.356	27587
801.499	27530
801.641	27359
801.783	27427
801.926	27416
802.068	27302
802.211	27104
802.353	27051
802.496	26834
802.638	26804
802.78	26667
802.923	26689
803.065	26670
803.208	26754
803.35	26773
803.492	26800
803.635	26887
803.777	26781
803.919	26982
804.061	27294
804.204	27009
804.346	26781
804.488	26895
804.63	26975
804.773	26895
804.915	27020
805.057	27252
805.199	27093
805.341	27283
805.483	27469
805.626	27306
805.768	27321
805.91	27485
806.052	27572
806.194	27679
806.336	28017
806.478	28021
806.62	28105
806.762	28249
806.904	28691
807.046	29090
807.188	29337
807.33	29585
807.472	30053
807.614	30380
807.756	31126
807.898	31906
808.04	32960
808.182	34485
808.324	36505
808.465	38568
808.607	41109
808.749	43240
808.891	44415
809.033	44758
809.174	43400
809.316	41098
809.458	38598
809.6	35988
809.741	34128
809.883	32533
810.025	31700
810.166	30802
810.308	30239
810.45	29786
810.591	29436
810.733	28942
810.875	28592
811.016	28291
811.158	28101
811.299	28196
811.441	28177
811.582	28025
811.724	27857
811.865	27766
812.007	27690
812.148	27591
812.29	27633
812.431	27553
812.573	27819
812.714	27732
812.855	27903
812.997	27846
813.138	28090
813.279	27854
813.421	27876
813.562	27701
813.703	27542
813.845	27408
813.986	27055
814.127	26788
814.268	26689
814.41	26670
814.551	26575
814.692	26708
814.833	26518
814.974	26518
815.115	26640
815.256	26385
815.397	26252
815.539	26461
815.68	26164
815.821	26142
815.962	26298
816.103	26206
816.244	26001
816.385	25902
816.526	25879
816.666	25712
816.807	25597
816.948	25666
817.089	25651
817.23	25719
817.371	25537
817.512	25411
817.653	25472
817.793	25335
817.934	25453
818.075	25312
818.216	25403
818.356	25438
818.497	25259
818.638	25031
818.778	25129
818.919	25091
819.06	25194
819.2	25240
819.341	25403
819.481	25377
819.622	25476
819.762	25666
819.903	25502
820.043	25343
820.184	25426
820.324	25289
820.465	25320
820.605	25377
820.746	25320
820.886	25244
821.026	25088
821.167	25137
821.307	25381
821.447	25183
821.588	25152
821.728	24882
821.868	24745
822.008	24627
822.149	24608
822.289	24551
822.429	24311
822.569	24194
822.709	24239
822.849	24053
822.99	24186
823.13	24018
823.27	23908
823.41	23882
823.55	23687
823.69	23722
823.83	23737
823.97	23828
824.11	23520
824.25	23558
824.389	23543
824.529	23710
824.669	23638
824.809	23653
824.949	23608
825.089	23596
825.228	23570
825.368	23406
825.508	23337
825.648	23326
825.787	23326
825.927	23531
826.067	23318
826.206	23280
826.346	23296
826.485	23376
826.625	23341
826.765	23455
826.904	23391
827.044	23159
827.183	22980
827.323	22915
827.462	22968
827.601	23003
827.741	22923
827.88	23056
828.02	22889
828.159	22995
828.298	22831
828.437	22923
828.577	22820
828.716	23060
828.855	22831
828.994	22698
829.134	22660
829.273	22710
829.412	22656
829.551	22596
829.69	22733
829.829	22611
829.968	22755
830.107	22554
830.246	22615
830.385	22668
830.524	22546
830.663	22516
830.802	22284
830.941	22204
831.08	22265
831.219	22466
831.357	22276
831.496	22474
831.635	22352
831.774	22150
831.913	22078
832.051	22101
832.19	22006
832.329	22135
832.467	22086
832.606	22055
832.744	22162
832.883	22101
833.022	22150
833.16	22185
833.299	22318
833.437	22360
833.576	22599
833.714	22580
833.852	22778
833.991	22713
834.129	22968
834.267	22869
834.406	22843
834.544	22755
834.682	22721
834.821	22645
834.959	22698
835.097	22367
835.235	22394
835.373	22280
835.511	22143
835.65	22135
835.788	21998
835.926	21781
836.064	21625
836.202	21766
836.34	21911
836.478	21892
836.615	21915
836.753	21778
836.891	21831
837.029	21892
837.167	21622
837.305	21603
837.443	21599
837.58	21553
837.718	21591
837.856	21564
837.993	21599
838.131	21705
838.269	21485
838.406	21576
838.544	21374
838.681	21287
838.819	21180
838.956	21055
839.094	21070
839.231	21070
839.369	21081
839.506	21374
839.643	21222
839.781	21036
839.918	20948
840.055	20899
840.193	20960
840.33	20811
840.467	21055
840.604	21009
840.742	21211
840.879	20804
841.016	20834
841.153	20754
841.29	20918
841.427	20941
841.564	20975
841.701	20998
841.838	20838
841.975	20941
842.112	20876
842.249	20765
842.385	20621
842.522	20887
842.659	20773
842.796	20617
842.933	20769
843.069	20712
843.206	20758
843.343	20876
843.479	20914
843.616	20830
843.752	20678
843.889	20689
844.025	20937
844.162	20781
844.298	21017
844.435	20914
844.571	21096
844.708	21313
844.844	21644
844.98	21983
845.117	22443
845.253	23044
845.389	24304
845.525	26743
845.661	30916
845.798	36228
845.934	40036
846.07	41596
846.206	40447
846.342	37194
846.478	32168
846.614	27599
846.75	24905
846.886	23235
847.022	22162
847.158	21454
847.294	21077
847.429	20834
847.565	20514
847.701	20659
847.837	20111
847.972	19940
848.108	20062
848.244	20073
848.379	19753
848.515	19693
848.65	19594
848.786	19594
848.921	19708
849.057	19734
849.192	19818
849.328	19639
849.463	19521
849.598	19502
849.734	19415
849.869	19411
850.004	19228
850.14	19514
850.275	19362
850.41	19240
850.545	19206
850.68	19266
850.815	19270
850.95	19289
851.085	19457
851.22	19502
851.355	19304
851.49	19259
851.625	19346
851.76	19156
851.895	19259
852.03	19255
852.165	19190
852.299	19388
852.434	19430
852.569	19228
852.703	19278
852.838	19354
852.973	19521
853.107	19457
853.242	19259
853.376	19198
853.511	19171
853.645	19388
853.78	19400
853.914	19365
854.048	19293
854.183	19362
854.317	19460
854.451	19521
854.585	19472
854.72	19369
854.854	19419
854.988	19263
855.122	19346
855.256	19141
855.39	19206
855.524	19266
855.658	19244
855.792	19232
855.926	19270
856.06	19141
856.194	19263
856.327	19110
856.461	19084
856.595	19175
856.729	19206
856.862	19171
856.996	19175
857.13	19156
857.263	19110
857.397	19259
857.53	18985
857.664	19156
857.797	19042
857.931	19187
858.064	19069
858.197	19114
858.331	19084
858.464	18981
858.597	18840
858.731	19004
858.864	18962
858.997	19042
859.13	19038
859.263	18977
859.396	18973
859.529	18909
859.662	18947
859.795	18954
859.928	19008
860.061	19069
860.194	19141
860.327	18996
860.46	19027
860.592	19103
860.725	19000
860.858	19088
860.99	18947
861.123	18897
861.256	18715
861.388	19023
861.521	19597
861.653	18863
861.786	18650
861.918	18814
862.05	18924
862.183	18973
862.315	18932
862.447	19023
862.58	18772
862.712	18616
862.844	18566
862.976	18665
863.108	18681
863.24	19023
863.372	18585
863.504	18604
863.636	18593
863.768	18726
863.9	18574
864.032	18711
864.164	18574
864.296	18620
864.428	18654
864.559	18544
864.691	18688
864.823	18616
864.954	18654
865.086	18623
865.217	18612
865.349	18490
865.48	18547
865.612	18559
865.743	18665
865.875	18555
866.006	18521
866.137	18536
866.269	18517
866.4	18669
866.531	18452
866.662	18483
866.793	18521
866.924	18536
867.055	18486
867.186	18574
867.317	18433
867.448	18369
867.579	18376
867.71	18426
867.841	18361
867.972	18566
868.103	18517
868.233	18456
868.364	18559
868.495	18452
868.625	18730
868.756	18897
868.886	18623
869.017	18802
869.147	18840
869.278	18837
869.408	18840
869.539	18711
869.669	18821
869.799	18837
869.929	18837
870.06	18920
870.19	19095
870.32	19110
870.45	19080
870.58	19198
870.71	19373
870.84	19320
870.97	19255
871.1	19285
871.23	19339
871.36	19468
871.489	19209
871.619	19335
871.749	19327
871.879	19518
872.008	19472
872.138	19529
872.267	19487
872.397	19422
872.526	19301
872.656	19445
872.785	19346
872.915	19491
873.044	19594
873.173	19575
873.303	19552
873.432	19670
873.561	19742
873.69	19731
873.819	19571
873.948	19738
874.077	19696
874.206	19533
874.335	19681
874.464	19833
874.593	20043
874.722	19947
874.851	20046
874.979	20138
875.108	20119
875.237	20065
875.365	20054
875.494	20065
875.623	20214
875.751	20290
875.88	20415
876.008	20495
876.136	20514
876.265	20769
876.393	20956
876.521	20845
876.65	21005
876.778	21020
876.906	20902
877.034	21077
877.162	21058
877.29	21070
877.418	21116
877.546	21241
877.674	21302
877.802	21344
877.93	21538
878.058	21622
878.185	21606
878.313	21915
878.441	22226
878.568	22421
878.696	22938
878.824	23493
878.951	24327
879.079	25495
879.206	26925
879.333	28577
879.461	29718
879.588	30509
879.715	30700
879.842	30072
879.97	28512
880.097	26880
880.224	25727
880.351	24749
880.478	24239
880.605	23817
880.732	23490
880.859	23535
880.986	23208
881.112	23003
881.239	22904
881.366	22729
881.493	22744
881.619	22694
881.746	22763
881.872	22664
881.999	22733
882.125	22778
882.252	22755
882.378	22835
882.505	22934
882.631	22809
882.757	22554
882.883	22744
883.01	22713
883.136	22611
883.262	22569
883.388	22527
883.514	22634
883.64	22656
883.766	22531
883.892	22333
884.018	22466
884.143	22577
884.269	22713
884.395	22325
884.52	22253
884.646	22375
884.772	22226
884.897	22303
885.023	22382
885.148	22322
885.274	22424
885.399	22272
885.524	22223
885.65	22128
885.775	21934
885.9	21956
886.025	21918
886.15	21755
886.275	21504
886.4	21306
886.525	21447
886.65	21294
886.775	21066
886.9	21245
887.025	21359
887.149	21051
887.274	20739
887.399	20689
887.523	20541
887.648	20431
887.773	20267
887.897	20457
888.021	20427
888.146	20381
888.27	20389
888.395	20317
888.519	20191
888.643	20275
888.767	20202
888.891	20027
889.015	19925
889.139	20020
889.263	19723
889.387	19955
889.511	19955
889.635	19788
889.759	19643
889.883	19624
890.006	19731
890.13	19746
890.254	19666
890.377	19499
890.501	19339
890.624	19362
890.748	19441
890.871	19141
890.995	19122
891.118	19076
891.241	19114
891.364	19038
891.488	19160
891.611	19027
891.734	19095
891.857	19004
891.98	18935
892.103	18981
892.226	19057
892.349	18871
892.471	18730
892.594	18856
892.717	18814
892.839	18642
892.962	18779
893.085	18760
893.207	18779
893.33	18570
893.452	18536
893.575	18654
893.697	18521
893.819	18738
893.941	18829
894.064	18696
894.186	18494
894.308	18380
894.43	18658
894.552	18703
894.674	18574
894.796	18395
894.918	18471
895.04	18353
895.161	18540
895.283	18574
895.405	18422
895.526	18452
895.648	18330
895.769	18460
895.891	18456
896.012	18574
896.134	18460
896.255	18422
896.376	18391
896.498	18350
896.619	18525
896.74	18372
896.861	18456
896.982	18688
897.103	18741
897.224	18650
897.345	18612
897.466	18498
897.587	18502
897.708	18749
897.828	18589
897.949	18486
898.07	18414
898.19	18475
898.311	18658
898.431	18597
898.552	18646
898.672	18749
898.792	18661
898.913	18563
899.033	18464
899.153	18395
899.273	18258
899.393	18365
899.513	18338
899.633	18235
899.753	18376
899.873	18262
899.993	18399
900.113	18262
900.232	18281
900.352	18304
900.472	18159
900.591	18152
900.711	18197
900.83	18133
900.95	18235
901.069	18213
901.189	18068
901.308	17764
901.427	17718
901.546	17733
901.665	17729
901.784	17752
901.904	17642
902.023	17520
902.141	17269
902.26	17223
902.379	17280
902.498	17178
902.617	17056
902.735	17208
902.854	17181
902.973	17083
903.091	16828
903.21	16820
903.328	16873
903.446	16744
903.565	16710
903.683	16683
903.801	16569
903.919	16607
904.038	16630
904.156	16481
904.274	16379
904.392	16421
904.51	16348
904.627	16386
904.745	16413
904.863	16413
904.981	16139
905.098	16010
905.216	16006
905.334	16040
905.451	15998
905.569	16044
905.686	16105
905.803	15994
905.921	15888
906.038	15892
906.155	15778
906.272	15633
906.389	15675
906.506	15553
906.623	15625
906.74	15545
906.857	15447
906.974	15507
907.091	15549
907.208	15625
907.324	15507
907.441	15367
907.557	15249
907.674	15241
907.79	15093
907.907	15192
908.023	15351
908.139	15344
908.256	15184
908.372	15180
908.488	15055
908.604	14994
908.72	14918
908.836	14880
908.952	14975
909.068	14937
909.184	14956
909.3	15028
909.415	14918
909.531	14876
909.647	14686
909.762	14667
909.878	14499
909.993	14739
910.108	14526
910.224	14579
910.339	14579
910.454	14560
910.57	14404
910.685	14389
910.8	14682
910.915	14590
911.03	14434
911.145	14362
911.259	14282
911.374	14324
911.489	14229
911.604	14119
911.718	14050
911.833	13925
911.947	13936
912.062	13753
912.176	13997
912.291	13997
912.405	14012
912.519	14221
912.633	14168
912.748	14043
912.862	13967
912.976	13883
913.09	13738
913.204	13833
913.318	13746
913.431	13986
913.545	13967
913.659	13967
913.772	13788
913.886	13803
914	13643
914.113	13776
914.226	13860
914.34	13860
914.453	13601
914.566	13723
914.68	13658
914.793	13639
914.906	13487
915.019	13384
915.132	13301
915.245	13339
915.358	13407
915.47	13487
915.583	13426
915.696	13472
915.809	13464
915.921	13521
916.034	13358
916.146	13324
916.259	13396
916.371	13464
916.483	13339
916.595	13202
916.708	13282
916.82	13278
916.932	13251
917.044	13244
917.156	13202
917.268	13099
917.38	13168
917.491	13141
917.603	13145
917.715	13126
917.826	13183
917.938	13034
918.049	12943
918.161	13015
918.272	13225
918.384	13091
918.495	12962
918.606	12894
918.717	12817
918.828	12909
918.939	12871
919.05	12806
919.161	12833
919.272	12669
919.383	12711
919.494	12924
919.604	13031
919.715	12760
919.826	12749
919.936	12848
920.047	12833
920.157	12894
920.267	13042
920.378	12859
920.488	12825
920.598	13027
920.708	13145
920.818	12882
920.928	12981
921.038	12985
921.148	13053
921.258	12837
921.368	12639
921.477	12631
921.587	12631
921.697	12403
921.806	12612
921.916	12426
922.025	12323
922.134	12251
922.244	12205
922.353	12353
922.462	12140
922.571	12106
922.68	11992
922.789	11927
922.898	11999
923.007	11714
923.116	11874
923.224	12003
923.333	11859
923.442	11737
923.55	11760
923.659	11718
923.767	11817
923.876	11828
923.984	11786
924.092	11676
924.201	11680
924.309	11634
924.417	11688
924.525	11592
924.633	11589
924.741	12399
924.849	11452
924.956	11638
925.064	11467
925.172	11334
925.279	11414
925.387	11452
925.494	11398
925.602	11493
925.709	11505
925.816	11383
925.924	11417
926.031	11482
926.138	11337
926.245	11463
926.352	11318
926.459	11474
926.566	11474
926.673	11330
926.779	11231
926.886	11246
926.993	11132
927.099	11037
927.206	10987
927.312	11018
927.419	11121
927.525	10984
927.631	11048
927.737	10968
927.843	10968
927.95	10717
928.056	10805
928.162	10934
928.267	10919
928.373	11459
928.479	11090
928.585	10729
928.69	10946
928.796	10839
928.901	10790
929.007	10618
929.112	10733
929.218	10691
929.323	10607
929.428	10634
929.533	10774
929.638	10592
929.743	10592
929.848	10664
929.953	10664
930.058	10508
930.163	10344
930.267	10375
930.372	10554
930.477	10314
930.581	10607
930.685	10421
930.79	10249
930.894	10382
930.998	10223
931.103	10360
931.207	10013
931.311	9994
931.415	9934
931.519	9679
931.623	9644
