Data from test_V78500241_3690.txt Node
Date: Fri Mar 25 14:59:24 CST 2022
User: usil
Spectrometer: V785-0024
Trigger mode: 0
Integration Time (sec): 4.000000E-1
Scans to average: 1
Nonlinearity correction enabled: false
Boxcar width: 0
Storing dark spectrum: false
XAxis mode: Wavelengths
Number of Pixels in Spectrum: 1024
>>>>>Begin Spectral Data<<<<<
801.071	21991
801.214	21774
801.356	21637
801.499	21435
801.641	21313
801.783	21249
801.926	21256
802.068	21249
802.211	21157
802.353	21096
802.496	20918
802.638	20800
802.78	20697
802.923	20739
803.065	20640
803.208	20606
803.35	20621
803.492	20712
803.635	20746
803.777	20511
803.919	20663
804.061	20845
804.204	20682
804.346	20552
804.488	20537
804.63	20579
804.773	20564
804.915	20545
805.057	20571
805.199	20556
805.341	20495
805.483	20644
805.626	20545
805.768	20537
805.91	20560
806.052	20476
806.194	20396
806.336	20579
806.478	20438
806.62	20503
806.762	20537
806.904	20785
807.046	20948
807.188	20876
807.33	20918
807.472	20887
807.614	20788
807.756	20731
807.898	20564
808.04	20556
808.182	20621
808.324	20629
808.465	20750
808.607	20708
808.749	20921
808.891	20880
809.033	21093
809.174	20960
809.316	20811
809.458	20861
809.6	20807
809.741	20982
809.883	20933
810.025	21081
810.166	21032
810.308	21020
810.45	20933
810.591	20868
810.733	20686
810.875	20617
811.016	20465
811.158	20636
811.299	20724
811.441	20678
811.582	20785
811.724	20632
811.865	20533
812.007	20625
812.148	20617
812.29	20598
812.431	20788
812.573	20910
812.714	20952
812.855	21051
812.997	21233
813.138	21279
813.279	21245
813.421	21222
813.562	21013
813.703	20918
813.845	20777
813.986	20412
814.127	20320
814.268	20259
814.41	20355
814.551	20103
814.692	20195
814.833	19970
814.974	20088
815.115	20191
815.256	20043
815.397	19982
815.539	19974
815.68	19890
815.821	19856
815.962	19913
816.103	19803
816.244	19674
816.385	19696
816.526	19441
816.666	19483
816.807	19232
816.948	19381
817.089	19438
817.23	19232
817.371	19274
817.512	19278
817.653	19320
817.793	19232
817.934	19278
818.075	19270
818.216	19270
818.356	19350
818.497	19209
818.638	18993
818.778	18958
818.919	19042
819.06	19027
819.2	19091
819.341	19179
819.481	19183
819.622	19400
819.762	19426
819.903	19316
820.043	19354
820.184	19247
820.324	19187
820.465	19373
820.605	19263
820.746	19278
820.886	19164
821.026	19164
821.167	19221
821.307	19350
821.447	19213
821.588	19099
821.728	19019
821.868	18928
822.008	18673
822.149	18795
822.289	18684
822.429	18376
822.569	18296
822.709	18369
822.849	18319
822.99	18174
823.13	18102
823.27	18106
823.41	17961
823.55	17992
823.69	17988
823.83	18041
823.97	17931
824.11	17748
824.25	17726
824.389	17767
824.529	17901
824.669	17863
824.809	17859
824.949	17809
825.089	17790
825.228	17729
825.368	17661
825.508	17642
825.648	17543
825.787	17512
825.927	17676
826.067	17512
826.206	17486
826.346	17585
826.485	17623
826.625	17478
826.765	17516
826.904	17619
827.044	17315
827.183	17261
827.323	17189
827.462	17258
827.601	17223
827.741	17246
827.88	17265
828.02	17048
828.159	17189
828.298	17258
828.437	17311
828.577	17170
828.716	17387
828.855	17212
828.994	16976
829.134	17029
829.273	17052
829.412	16858
829.551	16839
829.69	16900
829.829	16991
829.968	17102
830.107	16995
830.246	16987
830.385	17022
830.524	16915
830.663	16835
830.802	16771
830.941	16588
831.08	16641
831.219	16755
831.357	16710
831.496	16805
831.635	16561
831.774	16500
831.913	16474
832.051	16497
832.19	16409
832.329	16360
832.467	16325
832.606	16287
832.744	16303
832.883	16211
833.022	16242
833.16	16318
833.299	16352
833.437	16367
833.576	16459
833.714	16390
833.852	16379
833.991	16398
834.129	16363
834.267	16451
834.406	16268
834.544	16405
834.682	16504
834.821	16325
834.959	16630
835.097	16352
835.235	16432
835.373	16356
835.511	16405
835.65	16272
835.788	16253
835.926	16181
836.064	16067
836.202	16112
836.34	16337
836.478	16398
836.615	16246
836.753	16322
836.891	16303
837.029	16284
837.167	16143
837.305	16257
837.443	16276
837.58	16120
837.718	16272
837.856	16143
837.993	16147
838.131	16139
838.269	16078
838.406	16055
838.544	16101
838.681	15960
838.819	15907
838.956	15728
839.094	15584
839.231	15724
839.369	15831
839.506	16139
839.643	15880
839.781	15728
839.918	15652
840.055	15778
840.193	15705
840.33	15751
840.467	15682
840.604	15743
840.742	15991
840.879	15561
841.016	15686
841.153	15633
841.29	15846
841.427	15747
841.564	15694
841.701	15690
841.838	15614
841.975	15622
842.112	15675
842.249	15545
842.385	15435
842.522	15713
842.659	15496
842.796	15519
842.933	15580
843.069	15492
843.206	15496
843.343	15507
843.479	15424
843.616	15587
843.752	15306
843.889	15344
844.025	15488
844.162	15154
844.298	15412
844.435	15336
844.571	15310
844.708	15363
844.844	15374
844.98	15370
845.117	15393
845.253	15047
845.389	15241
845.525	15298
845.661	15230
845.798	15150
845.934	15142
846.07	15017
846.206	15062
846.342	15260
846.478	15055
846.614	14994
846.75	14891
846.886	14785
847.022	15077
847.158	14872
847.294	14880
847.429	14845
847.565	14933
847.701	15055
847.837	14587
847.972	14568
848.108	14693
848.244	14754
848.379	14454
848.515	14499
848.65	14473
848.786	14408
848.921	14415
849.057	14606
849.192	14545
849.328	14560
849.463	14640
849.598	14431
849.734	14366
849.869	14393
850.004	14233
850.14	14320
850.275	14191
850.41	14123
850.545	14180
850.68	14172
850.815	14328
850.95	14214
851.085	14355
851.22	14294
851.355	14145
851.49	14214
851.625	14256
851.76	14176
851.895	14126
852.03	14092
852.165	14172
852.299	14183
852.434	14282
852.569	14240
852.703	14210
852.838	14374
852.973	14370
853.107	14294
853.242	14252
853.376	14164
853.511	13986
853.645	14016
853.78	14134
853.914	14084
854.048	14039
854.183	14081
854.317	14164
854.451	14271
854.585	14084
854.72	14103
854.854	14119
854.988	14046
855.122	14100
855.256	13947
855.39	14027
855.524	14187
855.658	14237
855.792	14164
855.926	14172
856.06	14168
856.194	14142
856.327	14092
856.461	14130
856.595	13978
856.729	13997
856.862	14168
856.996	14172
857.13	14202
857.263	14290
857.397	14161
857.53	14046
857.664	14202
857.797	14180
857.931	14210
858.064	14100
858.197	14210
858.331	14096
858.464	14126
858.597	14001
858.731	14134
858.864	14111
858.997	14073
859.13	14134
859.263	14157
859.396	14199
859.529	14024
859.662	14073
859.795	14043
859.928	14088
860.061	14317
860.194	14355
860.327	14138
860.46	14142
860.592	14256
860.725	14301
860.858	14191
860.99	14138
861.123	14138
861.256	14062
861.388	14024
861.521	14830
861.653	13909
861.786	13879
861.918	13955
862.05	14081
862.183	14153
862.315	14035
862.447	14058
862.58	14005
862.712	14024
862.844	13818
862.976	14024
863.108	13974
863.24	14305
863.372	13761
863.504	13913
863.636	13871
863.768	14065
863.9	13887
864.032	13894
864.164	13799
864.296	13837
864.428	13917
864.559	14054
864.691	13906
864.823	13917
864.954	13913
865.086	13909
865.217	13833
865.349	13738
865.48	13864
865.612	13849
865.743	13944
865.875	13841
866.006	13909
866.137	13940
866.269	13936
866.4	13936
866.531	13807
866.662	13818
866.793	13833
866.924	13826
867.055	13871
867.186	13860
867.317	13845
867.448	13727
867.579	13769
867.71	13753
867.841	13811
867.972	13871
868.103	13845
868.233	13852
868.364	13928
868.495	13982
868.625	14100
868.756	14225
868.886	14081
869.017	14202
869.147	14233
869.278	14271
869.408	14130
869.539	14111
869.669	14199
869.799	14130
869.929	14240
870.06	14206
870.19	14419
870.32	14412
870.45	14530
870.58	14537
870.71	14674
870.84	14514
870.97	14511
871.1	14442
871.23	14708
871.36	14712
871.489	14579
871.619	14693
871.749	14720
871.879	14762
872.008	14868
872.138	14758
872.267	14743
872.397	14579
872.526	14655
872.656	14522
872.785	14495
872.915	14678
873.044	14838
873.173	14792
873.303	14788
873.432	14758
873.561	14933
873.69	14769
873.819	14819
873.948	14792
874.077	14689
874.206	14804
874.335	14735
874.464	15005
874.593	15058
874.722	14990
874.851	15097
874.979	15135
875.108	15146
875.237	15070
875.365	15058
875.494	15058
875.623	15203
875.751	15150
875.88	15180
876.008	15252
876.136	15454
876.265	15492
876.393	15682
876.521	15637
876.65	15686
876.778	15557
876.906	15526
877.034	15393
877.162	15454
877.29	15492
877.418	15435
877.546	15603
877.674	15545
877.802	15420
877.93	15450
878.058	15435
878.185	15401
878.313	15454
878.441	15553
878.568	15336
878.696	15424
878.824	15557
878.951	15542
879.079	15747
879.206	15884
879.333	15652
879.461	15523
879.588	15724
879.715	15686
879.842	15747
879.97	15485
880.097	15313
880.224	15233
880.351	15408
880.478	15393
880.605	15367
880.732	15408
880.859	15622
880.986	15477
881.112	15416
881.239	15230
881.366	15188
881.493	15085
881.619	15032
881.746	15127
881.872	15013
881.999	14994
882.125	14921
882.252	15043
882.378	15036
882.505	15108
882.631	15001
882.757	14899
882.883	14921
883.01	14887
883.136	14807
883.262	14693
883.388	14731
883.514	14918
883.64	14929
883.766	14769
883.892	14667
884.018	14613
884.143	14785
884.269	14895
884.395	14617
884.52	14686
884.646	14613
884.772	14480
884.897	14579
885.023	14549
885.148	14731
885.274	14659
885.399	14659
885.524	14526
885.65	14602
885.775	14560
885.9	14514
886.025	14629
886.15	14625
886.275	14511
886.4	14549
886.525	14579
886.65	14575
886.775	14434
886.9	14629
887.025	14811
887.149	14632
887.274	14419
887.399	14313
887.523	14389
887.648	14259
887.773	14294
887.897	14511
888.021	14434
888.146	14351
888.27	14556
888.395	14461
888.519	14408
888.643	14434
888.767	14473
888.891	14225
889.015	14278
889.139	14278
889.263	14271
889.387	14370
889.511	14450
889.635	14370
889.759	14191
889.883	14240
890.006	14252
890.13	14374
890.254	14229
890.377	14237
890.501	14054
890.624	14123
890.748	14103
890.871	14005
890.995	13887
891.118	13833
891.241	14012
891.364	14039
891.488	13982
891.611	13894
891.734	14012
891.857	13989
891.98	13860
892.103	14062
892.226	13978
892.349	13970
892.471	13803
892.594	13944
892.717	13970
892.839	13890
892.962	13963
893.085	14016
893.207	14031
893.33	13761
893.452	13879
893.575	14016
893.697	13982
893.819	14039
893.941	14229
894.064	14176
894.186	13940
894.308	13947
894.43	14073
894.552	14103
894.674	14149
894.796	13989
894.918	14058
895.04	13974
895.161	14115
895.283	14077
895.405	13970
895.526	14016
895.648	14062
895.769	14096
895.891	14244
896.012	14123
896.134	14168
896.255	14119
896.376	14069
896.498	14084
896.619	14225
896.74	14164
896.861	14130
896.982	14438
897.103	14568
897.224	14465
897.345	14320
897.466	14351
897.587	14457
897.708	14473
897.828	14446
897.949	14374
898.07	14309
898.19	14366
898.311	14488
898.431	14370
898.552	14427
898.672	14564
898.792	14590
898.913	14503
899.033	14442
899.153	14298
899.273	14305
899.393	14278
899.513	14366
899.633	14336
899.753	14415
899.873	14252
899.993	14427
900.113	14332
900.232	14389
900.352	14366
900.472	14240
900.591	14142
900.711	14176
900.83	14142
900.95	14290
901.069	14301
901.189	14046
901.308	13986
901.427	13784
901.546	13875
901.665	13940
901.784	13871
901.904	13753
902.023	13723
902.141	13422
902.26	13415
902.379	13457
902.498	13438
902.617	13377
902.735	13430
902.854	13502
902.973	13312
903.091	13187
903.21	13255
903.328	13251
903.446	13129
903.565	13034
903.683	13114
903.801	12958
903.919	12958
904.038	12943
904.156	12783
904.274	12886
904.392	12802
904.51	12802
904.627	12829
904.745	12924
904.863	12863
904.981	12623
905.098	12506
905.216	12551
905.334	12525
905.451	12483
905.569	12547
905.686	12585
905.803	12620
905.921	12384
906.038	12426
906.155	12353
906.272	12228
906.389	12262
906.506	12140
906.623	12167
906.74	12083
906.857	12087
906.974	11996
907.091	12186
907.208	12247
907.324	12117
907.441	12053
907.557	11893
907.674	11923
907.79	11764
907.907	11847
908.023	11859
908.139	11832
908.256	11840
908.372	11828
908.488	11737
908.604	11680
908.72	11657
908.836	11729
908.952	11615
909.068	11649
909.184	11771
909.3	11615
909.415	11794
909.531	11756
909.647	11421
909.762	11429
909.878	11372
909.993	11414
910.108	11364
910.224	11356
910.339	11391
910.454	11303
910.57	11201
910.685	11193
910.8	11474
910.915	11448
911.03	11440
911.145	11155
911.259	11071
911.374	11102
911.489	10972
911.604	11041
911.718	10923
911.833	10881
911.947	10691
912.062	10824
912.176	10858
912.291	10850
912.405	10866
912.519	11029
912.633	11086
912.748	10930
912.862	10911
912.976	10786
913.09	10626
913.204	10694
913.318	10759
913.431	10858
913.545	10858
913.659	10771
913.772	10679
913.886	10664
914	10634
914.113	10755
914.226	10752
914.34	10763
914.453	10569
914.566	10725
914.68	10618
914.793	10588
914.906	10485
915.019	10329
915.132	10299
915.245	10341
915.358	10409
915.47	10337
915.583	10451
915.696	10436
915.809	10493
915.921	10523
916.034	10265
916.146	10382
916.259	10310
916.371	10413
916.483	10333
916.595	10249
916.708	10417
916.82	10318
916.932	10249
917.044	10299
917.156	10295
917.268	10185
917.38	10238
917.491	10246
917.603	10246
917.715	10295
917.826	10303
917.938	10249
918.049	10150
918.161	10253
918.272	10310
918.384	10310
918.495	10215
918.606	10158
918.717	9991
918.828	10166
918.939	10124
919.05	9994
919.161	10109
919.272	9895
919.383	10002
919.494	10112
919.604	10325
919.715	10078
919.826	10036
919.936	10059
920.047	10154
920.157	10211
920.267	10284
920.378	10219
920.488	10215
920.598	10337
920.708	10462
920.818	10348
920.928	10333
921.038	10459
921.148	10428
921.258	10162
921.368	10093
921.477	10017
921.587	9979
921.697	9930
921.806	9998
921.916	9911
922.025	9755
922.134	9614
922.244	9656
922.353	9736
922.462	9603
922.571	9557
922.68	9378
922.789	9363
922.898	9454
923.007	9355
923.116	9378
923.224	9412
923.333	9374
923.442	9298
923.55	9226
923.659	9207
923.767	9370
923.876	9222
923.984	9367
924.092	9253
924.201	9272
924.309	9260
924.417	9237
924.525	9279
924.633	9199
924.741	9994
924.849	9032
924.956	9230
925.064	9001
925.172	8979
925.279	8925
925.387	9112
925.494	9077
925.602	9192
925.709	9100
925.816	8971
925.924	9032
926.031	9116
926.138	9020
926.245	9097
926.352	8918
926.459	9074
926.566	9169
926.673	9001
926.779	8823
926.886	8887
926.993	8758
927.099	8773
927.206	8815
927.312	8708
927.419	8804
927.525	8758
927.631	8857
927.737	8678
927.843	8651
927.95	8568
928.056	8610
928.162	8629
928.267	8689
928.373	9195
928.479	8762
928.585	8560
928.69	8625
928.796	8686
928.901	8564
929.007	8412
929.112	8670
929.218	8541
929.323	8488
929.428	8442
929.533	8575
929.638	8415
929.743	8381
929.848	8613
929.953	8419
930.058	8355
930.163	8229
930.267	8225
930.372	8385
930.477	8256
930.581	8454
930.685	8317
930.79	8225
930.894	8218
930.998	8214
931.103	8301
931.207	8005
931.311	7959
931.415	7871
931.519	7708
931.623	7689
