Data from test_V78500241_1982.txt Node
Date: Fri Mar 25 14:47:30 CST 2022
User: usil
Spectrometer: V785-0024
Trigger mode: 0
Integration Time (sec): 4.000000E-1
Scans to average: 1
Nonlinearity correction enabled: false
Boxcar width: 0
Storing dark spectrum: false
XAxis mode: Wavelengths
Number of Pixels in Spectrum: 1024
>>>>>Begin Spectral Data<<<<<
801.071	21991
801.214	22063
801.356	21701
801.499	21739
801.641	21473
801.783	21447
801.926	21454
802.068	21386
802.211	21401
802.353	21226
802.496	21066
802.638	20998
802.78	20887
802.923	20849
803.065	20811
803.208	20735
803.35	20792
803.492	20910
803.635	20906
803.777	20667
803.919	20765
804.061	21180
804.204	20918
804.346	20769
804.488	20705
804.63	20727
804.773	20636
804.915	20781
805.057	20750
805.199	20663
805.341	20769
805.483	20914
805.626	20811
805.768	20594
805.91	20773
806.052	20632
806.194	20735
806.336	20842
806.478	20674
806.62	20697
806.762	20902
806.904	20872
807.046	21222
807.188	21131
807.33	21062
807.472	21036
807.614	20891
807.756	21009
807.898	20910
808.04	20811
808.182	20777
808.324	20811
808.465	20883
808.607	20868
808.749	21070
808.891	21252
809.033	21146
809.174	21138
809.316	20952
809.458	21096
809.6	21074
809.741	21188
809.883	21108
810.025	21199
810.166	21317
810.308	21241
810.45	21294
810.591	21142
810.733	21047
810.875	20941
811.016	20845
811.158	20842
811.299	21036
811.441	20906
811.582	20933
811.724	20857
811.865	20887
812.007	20792
812.148	20807
812.29	20960
812.431	21066
812.573	21222
812.714	21184
812.855	21245
812.997	21511
813.138	21538
813.279	21458
813.421	21260
813.562	21294
813.703	21116
813.845	21047
813.986	20830
814.127	20556
814.268	20511
814.41	20431
814.551	20400
814.692	20423
814.833	20309
814.974	20541
815.115	20332
815.256	20278
815.397	20218
815.539	20259
815.68	20176
815.821	20073
815.962	20145
816.103	20069
816.244	19936
816.385	19986
816.526	19894
816.666	19727
816.807	19521
816.948	19689
817.089	19689
817.23	19647
817.371	19571
817.512	19472
817.653	19453
817.793	19514
817.934	19590
818.075	19567
818.216	19502
818.356	19590
818.497	19400
818.638	19118
818.778	19194
818.919	19168
819.06	19232
819.2	19304
819.341	19354
819.481	19403
819.622	19704
819.762	19803
819.903	19613
820.043	19578
820.184	19620
820.324	19521
820.465	19590
820.605	19559
820.746	19510
820.886	19419
821.026	19567
821.167	19518
821.307	19571
821.447	19480
821.588	19362
821.728	19221
821.868	19061
822.008	18901
822.149	18951
822.289	18901
822.429	18582
822.569	18620
822.709	18608
822.849	18433
822.99	18388
823.13	18509
823.27	18437
823.41	18311
823.55	18114
823.69	18327
823.83	18155
823.97	18232
824.11	18030
824.25	18019
824.389	18072
824.529	18041
824.669	17935
824.809	18232
824.949	18079
825.089	18095
825.228	18034
825.368	17855
825.508	17920
825.648	17767
825.787	17809
825.927	17840
826.067	17714
826.206	17764
826.346	17752
826.485	17779
826.625	17783
826.765	17897
826.904	17840
827.044	17589
827.183	17482
827.323	17444
827.462	17463
827.601	17623
827.741	17478
827.88	17539
828.02	17356
828.159	17611
828.298	17554
828.437	17516
828.577	17471
828.716	17406
828.855	17444
828.994	17189
829.134	17227
829.273	17223
829.412	17178
829.551	17200
829.69	17242
829.829	17239
829.968	17337
830.107	17181
830.246	17258
830.385	17151
830.524	17231
830.663	17098
830.802	16976
830.941	16854
831.08	16873
831.219	16892
831.357	16938
831.496	17113
831.635	16771
831.774	16881
831.913	16713
832.051	16634
832.19	16611
832.329	16778
832.467	16546
832.606	16542
832.744	16489
832.883	16493
833.022	16599
833.16	16603
833.299	16508
833.437	16634
833.576	16641
833.714	16641
833.852	16691
833.991	16607
834.129	16573
834.267	16782
834.406	16626
834.544	16687
834.682	16584
834.821	16683
834.959	16782
835.097	16577
835.235	16812
835.373	16538
835.511	16736
835.65	16535
835.788	16447
835.926	16402
836.064	16363
836.202	16459
836.34	16474
836.478	16573
836.615	16615
836.753	16546
836.891	16660
837.029	16535
837.167	16447
837.305	16500
837.443	16417
837.58	16325
837.718	16432
837.856	16459
837.993	16329
838.131	16447
838.269	16348
838.406	16287
838.544	16253
838.681	16139
838.819	16112
838.956	15937
839.094	15880
839.231	16006
839.369	16188
839.506	16382
839.643	16105
839.781	15884
839.918	15911
840.055	15956
840.193	15960
840.33	16017
840.467	15960
840.604	16032
840.742	16112
840.879	15778
841.016	15903
841.153	15827
841.29	16013
841.427	15972
841.564	15945
841.701	16048
841.838	15907
841.975	15934
842.112	15854
842.249	15736
842.385	15701
842.522	15945
842.659	15789
842.796	15797
842.933	15679
843.069	15675
843.206	15770
843.343	15869
843.479	15701
843.616	15819
843.752	15469
843.889	15523
844.025	15751
844.162	15431
844.298	15648
844.435	15656
844.571	15500
844.708	15519
844.844	15652
844.98	15629
845.117	15641
845.253	15504
845.389	15428
845.525	15393
845.661	15329
845.798	15317
845.934	15306
846.07	15260
846.206	15321
846.342	15389
846.478	15393
846.614	15157
846.75	15039
846.886	15070
847.022	15093
847.158	15070
847.294	15074
847.429	15222
847.565	15017
847.701	15329
847.837	14845
847.972	14842
848.108	14914
848.244	14902
848.379	14853
848.515	14720
848.65	14682
848.786	14530
848.921	14708
849.057	14853
849.192	14792
849.328	14678
849.463	14648
849.598	14617
849.734	14541
849.869	14579
850.004	14370
850.14	14492
850.275	14537
850.41	14377
850.545	14461
850.68	14442
850.815	14480
850.95	14503
851.085	14667
851.22	14590
851.355	14454
851.49	14408
851.625	14358
851.76	14381
851.895	14343
852.03	14374
852.165	14412
852.299	14488
852.434	14571
852.569	14552
852.703	14499
852.838	14511
852.973	14568
853.107	14556
853.242	14347
853.376	14298
853.511	14214
853.645	14355
853.78	14495
853.914	14237
854.048	14351
854.183	14328
854.317	14423
854.451	14454
854.585	14320
854.72	14218
854.854	14362
854.988	14225
855.122	14263
855.256	14187
855.39	14313
855.524	14419
855.658	14355
855.792	14271
855.926	14404
856.06	14412
856.194	14400
856.327	14317
856.461	14282
856.595	14199
856.729	14320
856.862	14400
856.996	14366
857.13	14457
857.263	14488
857.397	14446
857.53	14278
857.664	14446
857.797	14492
857.931	14537
858.064	14393
858.197	14415
858.331	14305
858.464	14320
858.597	14275
858.731	14218
858.864	14309
858.997	14252
859.13	14381
859.263	14396
859.396	14404
859.529	14256
859.662	14214
859.795	14286
859.928	14438
860.061	14457
860.194	14518
860.327	14332
860.46	14339
860.592	14533
860.725	14434
860.858	14442
860.99	14415
861.123	14237
861.256	14256
861.388	14328
861.521	15055
861.653	14237
861.786	14100
861.918	14191
862.05	14202
862.183	14347
862.315	14298
862.447	14278
862.58	14225
862.712	14111
862.844	14027
862.976	14256
863.108	14195
863.24	14408
863.372	13947
863.504	14107
863.636	14142
863.768	14149
863.9	14157
864.032	14111
864.164	14073
864.296	14096
864.428	14183
864.559	14145
864.691	14202
864.823	14096
864.954	14191
865.086	14077
865.217	14046
865.349	14062
865.48	13997
865.612	14168
865.743	14218
865.875	14092
866.006	14100
866.137	14043
866.269	14142
866.4	14073
866.531	14176
866.662	13967
866.793	14031
866.924	13955
867.055	14081
867.186	14111
867.317	13989
867.448	14077
867.579	14088
867.71	13932
867.841	13989
867.972	14111
868.103	14039
868.233	14111
868.364	14138
868.495	14065
868.625	14366
868.756	14442
868.886	14252
869.017	14355
869.147	14362
869.278	14419
869.408	14396
869.539	14381
869.669	14343
869.799	14381
869.929	14450
870.06	14476
870.19	14720
870.32	14621
870.45	14636
870.58	14667
870.71	14807
870.84	14785
870.97	14785
871.1	14735
871.23	14830
871.36	14921
871.489	14891
871.619	14876
871.749	15043
871.879	14990
872.008	15020
872.138	14975
872.267	14929
872.397	14792
872.526	14845
872.656	14758
872.785	14807
872.915	14952
873.044	14979
873.173	14845
873.303	15104
873.432	15062
873.561	15085
873.69	15028
873.819	15032
873.948	15070
874.077	14971
874.206	15036
874.335	14994
874.464	15135
874.593	15218
874.722	15298
874.851	15340
874.979	15420
875.108	15424
875.237	15180
875.365	15188
875.494	15207
875.623	15393
875.751	15173
875.88	15370
876.008	15401
876.136	15496
876.265	15671
876.393	15816
876.521	15793
876.65	15823
876.778	15797
876.906	15652
877.034	15572
877.162	15812
877.29	15568
877.418	15701
877.546	15804
877.674	15755
877.802	15781
877.93	15724
878.058	15637
878.185	15595
878.313	15694
878.441	15618
878.568	15595
878.696	15759
878.824	15808
878.951	15873
879.079	15975
879.206	15972
879.333	15884
879.461	15736
879.588	15800
879.715	15854
879.842	15968
879.97	15880
880.097	15561
880.224	15576
880.351	15595
880.478	15622
880.605	15538
880.732	15545
880.859	15812
880.986	15549
881.112	15587
881.239	15538
881.366	15332
881.493	15279
881.619	15169
881.746	15256
881.872	15184
881.999	15218
882.125	15192
882.252	15241
882.378	15287
882.505	15283
882.631	15089
882.757	15066
882.883	15089
883.01	15028
883.136	14963
883.262	14868
883.388	14891
883.514	15017
883.64	15077
883.766	14956
883.892	14826
884.018	14804
884.143	14944
884.269	15081
884.395	14731
884.52	14697
884.646	14796
884.772	14720
884.897	14667
885.023	14754
885.148	14891
885.274	14849
885.399	14956
885.524	14735
885.65	14762
885.775	14769
885.9	14762
886.025	14857
886.15	14876
886.275	14800
886.4	14640
886.525	14849
886.65	14659
886.775	14670
886.9	14925
887.025	14982
887.149	14727
887.274	14625
887.399	14488
887.523	14484
887.648	14465
887.773	14476
887.897	14670
888.021	14670
888.146	14552
888.27	14663
888.395	14708
888.519	14629
888.643	14648
888.767	14636
888.891	14533
889.015	14374
889.139	14461
889.263	14423
889.387	14625
889.511	14583
889.635	14492
889.759	14351
889.883	14366
890.006	14442
890.13	14606
890.254	14320
890.377	14374
890.501	14305
890.624	14237
890.748	14347
890.871	14180
890.995	14069
891.118	14069
891.241	14252
891.364	14069
891.488	14267
891.611	14149
891.734	14138
891.857	14256
891.98	14134
892.103	14214
892.226	14183
892.349	14134
892.471	13967
892.594	14168
892.717	14187
892.839	14164
892.962	14176
893.085	14195
893.207	14126
893.33	14096
893.452	14027
893.575	14111
893.697	14111
893.819	14305
893.941	14366
894.064	14324
894.186	14046
894.308	14103
894.43	14267
894.552	14370
894.674	14290
894.796	14123
894.918	14240
895.04	14145
895.161	14294
895.283	14256
895.405	14149
895.526	14343
895.648	14229
895.769	14294
895.891	14336
896.012	14396
896.134	14229
896.255	14393
896.376	14328
896.498	14309
896.619	14362
896.74	14389
896.861	14358
896.982	14621
897.103	14838
897.224	14552
897.345	14530
897.466	14484
897.587	14613
897.708	14743
897.828	14613
897.949	14541
898.07	14412
898.19	14659
898.311	14762
898.431	14617
898.552	14667
898.672	14849
898.792	14769
898.913	14651
899.033	14598
899.153	14495
899.273	14347
899.393	14583
899.513	14522
899.633	14560
899.753	14606
899.873	14492
899.993	14625
900.113	14454
900.232	14503
900.352	14404
900.472	14431
900.591	14324
900.711	14336
900.83	14328
900.95	14450
901.069	14465
901.189	14320
901.308	14088
901.427	14027
901.546	14107
901.665	14073
901.784	14005
901.904	13955
902.023	13765
902.141	13677
902.26	13761
902.379	13693
902.498	13578
902.617	13506
902.735	13651
902.854	13613
902.973	13601
903.091	13270
903.21	13346
903.328	13331
903.446	13278
903.565	13179
903.683	13183
903.801	13023
903.919	13209
904.038	13126
904.156	12989
904.274	13072
904.392	13008
904.51	12951
904.627	13008
904.745	12996
904.863	13046
904.981	12875
905.098	12764
905.216	12734
905.334	12696
905.451	12677
905.569	12540
905.686	12757
905.803	12768
905.921	12494
906.038	12566
906.155	12509
906.272	12433
906.389	12467
906.506	12285
906.623	12243
906.74	12281
906.857	12163
906.974	12148
907.091	12350
907.208	12414
907.324	12251
907.441	12285
907.557	12095
907.674	12007
907.79	11988
907.907	12072
908.023	12045
908.139	12045
908.256	11996
908.372	11942
908.488	11935
908.604	11813
908.72	11779
908.836	11851
908.952	11843
909.068	11764
909.184	11984
909.3	11794
909.415	11847
909.531	11851
909.647	11459
909.762	11539
909.878	11570
909.993	11604
910.108	11505
910.224	11554
910.339	11585
910.454	11440
910.57	11376
910.685	11440
910.8	11566
910.915	11532
911.03	11528
911.145	11246
911.259	11204
911.374	11258
911.489	11155
911.604	11109
911.718	11071
911.833	11025
911.947	10949
912.062	10873
912.176	11033
912.291	10976
912.405	10961
912.519	11227
912.633	11162
912.748	11048
912.862	11010
912.976	10881
913.09	10812
913.204	10816
913.318	10908
913.431	10927
913.545	10904
913.659	11037
913.772	10892
913.886	10755
914	10755
914.113	10824
914.226	10915
914.34	10889
914.453	10729
914.566	10759
914.68	10691
914.793	10698
914.906	10558
915.019	10550
915.132	10474
915.245	10459
915.358	10611
915.47	10618
915.583	10554
915.696	10535
915.809	10649
915.921	10691
916.034	10459
916.146	10512
916.259	10421
916.371	10554
916.483	10584
916.595	10409
916.708	10428
916.82	10443
916.932	10363
917.044	10382
917.156	10462
917.268	10306
917.38	10348
917.491	10348
917.603	10314
917.715	10402
917.826	10436
917.938	10268
918.049	10253
918.161	10272
918.272	10398
918.384	10417
918.495	10303
918.606	10265
918.717	10204
918.828	10284
918.939	10230
919.05	10105
919.161	10185
919.272	10086
919.383	10048
919.494	10257
919.604	10413
919.715	10204
919.826	10196
919.936	10246
920.047	10299
920.157	10238
920.267	10386
920.378	10265
920.488	10230
920.598	10436
920.708	10569
920.818	10466
920.928	10485
921.038	10622
921.148	10607
921.258	10284
921.368	10139
921.477	10112
921.587	10097
921.697	9994
921.806	10124
921.916	9991
922.025	9842
922.134	9740
922.244	9713
922.353	9873
922.462	9717
922.571	9603
922.68	9511
922.789	9504
922.898	9515
923.007	9416
923.116	9538
923.224	9496
923.333	9443
923.442	9469
923.55	9378
923.659	9428
923.767	9405
923.876	9233
923.984	9504
924.092	9310
924.201	9397
924.309	9279
924.417	9340
924.525	9359
924.633	9298
924.741	10303
924.849	9135
924.956	9241
925.064	9138
925.172	9036
925.279	9097
925.387	9157
925.494	9127
925.602	9237
925.709	9199
925.816	9146
925.924	9138
926.031	9222
926.138	9100
926.245	9192
926.352	9043
926.459	9176
926.566	9214
926.673	9070
926.779	9009
926.886	8948
926.993	8876
927.099	8834
927.206	8838
927.312	8876
927.419	8880
927.525	8864
927.631	8948
927.737	8796
927.843	8731
927.95	8667
928.056	8720
928.162	8716
928.267	8788
928.373	9351
928.479	8914
928.585	8590
928.69	8762
928.796	8777
928.901	8686
929.007	8484
929.112	8663
929.218	8651
929.323	8537
929.428	8568
929.533	8708
929.638	8514
929.743	8526
929.848	8594
929.953	8552
930.058	8488
930.163	8309
930.267	8393
930.372	8457
930.477	8282
930.581	8571
930.685	8419
930.79	8355
930.894	8328
930.998	8275
931.103	8442
931.207	8054
931.311	7993
931.415	7967
931.519	7734
931.623	7780
