Data from test_V78500241_1112.txt Node
Date: Fri Mar 25 14:41:27 CST 2022
User: usil
Spectrometer: V785-0024
Trigger mode: 0
Integration Time (sec): 4.000000E-1
Scans to average: 1
Nonlinearity correction enabled: false
Boxcar width: 0
Storing dark spectrum: false
XAxis mode: Wavelengths
Number of Pixels in Spectrum: 1024
>>>>>Begin Spectral Data<<<<<
801.071	22717
801.214	22440
801.356	22253
801.499	22086
801.641	22074
801.783	21953
801.926	21899
802.068	21964
802.211	21880
802.353	21686
802.496	21511
802.638	21389
802.78	21595
802.923	21454
803.065	21344
803.208	21355
803.35	21462
803.492	21523
803.635	21401
803.777	21466
803.919	21454
804.061	21770
804.204	21431
804.346	21226
804.488	21192
804.63	21355
804.773	21237
804.915	21306
805.057	21344
805.199	21412
805.341	21485
805.483	21462
805.626	21351
805.768	21226
805.91	21272
806.052	21275
806.194	21146
806.336	21408
806.478	21294
806.62	21252
806.762	21275
806.904	21496
807.046	21595
807.188	21549
807.33	21591
807.472	21694
807.614	21671
807.756	21625
807.898	21637
808.04	21549
808.182	21507
808.324	21519
808.465	21633
808.607	21945
808.749	22162
808.891	22131
809.033	22196
809.174	22063
809.316	21884
809.458	22002
809.6	21789
809.741	21850
809.883	21895
810.025	21873
810.166	21880
810.308	21838
810.45	21846
810.591	21797
810.733	21698
810.875	21561
811.016	21447
811.158	21496
811.299	21583
811.441	21728
811.582	21591
811.724	21500
811.865	21405
812.007	21428
812.148	21534
812.29	21549
812.431	21705
812.573	21838
812.714	21827
812.855	21972
812.997	21934
813.138	22215
813.279	22055
813.421	21956
813.562	22017
813.703	21755
813.845	21781
813.986	21340
814.127	21256
814.268	21222
814.41	21085
814.551	21074
814.692	21157
814.833	20956
814.974	20910
815.115	21032
815.256	20823
815.397	20842
815.539	20819
815.68	20750
815.821	20743
815.962	20765
816.103	20769
816.244	20689
816.385	20568
816.526	20533
816.666	20313
816.807	20229
816.948	20218
817.089	20301
817.23	20157
817.371	20183
817.512	20100
817.653	20206
817.793	20126
817.934	20092
818.075	20180
818.216	20130
818.356	20096
818.497	19993
818.638	19727
818.778	19887
818.919	19818
819.06	19890
819.2	19959
819.341	19951
819.481	20088
819.622	20214
819.762	20370
819.903	20366
820.043	20229
820.184	20119
820.324	20267
820.465	20202
820.605	20145
820.746	20138
820.886	20065
821.026	20100
821.167	20218
821.307	20229
821.447	20122
821.588	19909
821.728	19826
821.868	19738
822.008	19590
822.149	19552
822.289	19586
822.429	19354
822.569	19335
822.709	19255
822.849	19065
822.99	19027
823.13	18973
823.27	18996
823.41	18947
823.55	18901
823.69	18951
823.83	18829
823.97	18844
824.11	18620
824.25	18650
824.389	18665
824.529	18703
824.669	18585
824.809	18825
824.949	18779
825.089	18749
825.228	18749
825.368	18528
825.508	18410
825.648	18570
825.787	18517
825.927	18426
826.067	18395
826.206	18353
826.346	18471
826.485	18426
826.625	18334
826.765	18429
826.904	18437
827.044	18357
827.183	18121
827.323	18133
827.462	18323
827.601	18117
827.741	18091
827.88	18136
828.02	17992
828.159	18144
828.298	18087
828.437	18346
828.577	18087
828.716	18281
828.855	18110
828.994	17980
829.134	17897
829.273	17992
829.412	17805
829.551	17805
829.69	17916
829.829	17946
829.968	18102
830.107	17939
830.246	17882
830.385	17927
830.524	17843
830.663	17665
830.802	17585
830.941	17581
831.08	17467
831.219	17615
831.357	17619
831.496	17684
831.635	17410
831.774	17448
831.913	17436
832.051	17261
832.19	17204
832.329	17345
832.467	17307
832.606	17185
832.744	17178
832.883	17075
833.022	17246
833.16	17246
833.299	17216
833.437	17356
833.576	17269
833.714	17250
833.852	17330
833.991	17265
834.129	17356
834.267	17334
834.406	17292
834.544	17311
834.682	17288
834.821	17220
834.959	17482
835.097	17315
835.235	17368
835.373	17372
835.511	17231
835.65	17200
835.788	17197
835.926	17018
836.064	16919
836.202	16930
836.34	17170
836.478	17258
836.615	17136
836.753	17105
836.891	17360
837.029	17140
837.167	17102
837.305	17083
837.443	17075
837.58	16972
837.718	17075
837.856	17105
837.993	17018
838.131	17071
838.269	16904
838.406	16911
838.544	16904
838.681	16702
838.819	16672
838.956	16664
839.094	16535
839.231	16622
839.369	16713
839.506	16881
839.643	16858
839.781	16603
839.918	16622
840.055	16645
840.193	16558
840.33	16542
840.467	16535
840.604	16546
840.742	16786
840.879	16424
841.016	16577
841.153	16413
841.29	16637
841.427	16550
841.564	16698
841.701	16569
841.838	16462
841.975	16440
842.112	16493
842.249	16371
842.385	16329
842.522	16561
842.659	16379
842.796	16268
842.933	16276
843.069	16306
843.206	16398
843.343	16386
843.479	16295
843.616	16360
843.752	16071
843.889	16116
844.025	16249
844.162	16086
844.298	16322
844.435	16135
844.571	16101
844.708	16211
844.844	16230
844.98	16249
845.117	16226
845.253	16158
845.389	16154
845.525	16131
845.661	16215
845.798	16173
845.934	16451
846.07	16363
846.206	16344
846.342	16299
846.478	16188
846.614	15979
846.75	15701
846.886	15793
847.022	15850
847.158	15682
847.294	15709
847.429	15736
847.565	15698
847.701	15972
847.837	15412
847.972	15355
848.108	15492
848.244	15424
848.379	15302
848.515	15283
848.65	15351
848.786	15268
848.921	15355
849.057	15424
849.192	15412
849.328	15378
849.463	15313
849.598	15332
849.734	15222
849.869	15131
850.004	14990
850.14	15093
850.275	15028
850.41	14902
850.545	14933
850.68	15074
850.815	15058
850.95	15036
851.085	15226
851.22	15142
851.355	15104
851.49	15005
851.625	15001
851.76	14994
851.895	14971
852.03	15001
852.165	15009
852.299	14994
852.434	15138
852.569	15062
852.703	14937
852.838	15184
852.973	15233
853.107	15154
853.242	15024
853.376	14895
853.511	14952
853.645	14864
853.78	14998
853.914	14868
854.048	14834
854.183	14925
854.317	14910
854.451	15089
854.585	14883
854.72	14921
854.854	14941
854.988	14815
855.122	14952
855.256	14746
855.39	14842
855.524	15032
855.658	14956
855.792	14944
855.926	14952
856.06	14948
856.194	15009
856.327	14861
856.461	14807
856.595	14872
856.729	14952
856.862	15013
856.996	14944
857.13	14994
857.263	14948
857.397	15017
857.53	14853
857.664	14883
857.797	14967
857.931	14986
858.064	14883
858.197	14937
858.331	14933
858.464	14929
858.597	14826
858.731	14876
858.864	14815
858.997	14861
859.13	14994
859.263	14979
859.396	14956
859.529	14830
859.662	14788
859.795	14887
859.928	14963
860.061	15070
860.194	15089
860.327	14918
860.46	14864
860.592	15104
860.725	15066
860.858	15043
860.99	14880
861.123	14910
861.256	14864
861.388	15028
861.521	15511
861.653	14731
861.786	14697
861.918	14792
862.05	14830
862.183	14921
862.315	14914
862.447	14948
862.58	14792
862.712	14590
862.844	14579
862.976	14724
863.108	14705
863.24	15237
863.372	14659
863.504	14625
863.636	14678
863.768	14670
863.9	14568
864.032	14560
864.164	14663
864.296	14689
864.428	14823
864.559	14708
864.691	14720
864.823	14655
864.954	14697
865.086	14765
865.217	14640
865.349	14682
865.48	14587
865.612	14583
865.743	14815
865.875	14613
866.006	14606
866.137	14693
866.269	14514
866.4	14746
866.531	14606
866.662	14583
866.793	14560
866.924	14594
867.055	14705
867.186	14610
867.317	14575
867.448	14503
867.579	14571
867.71	14556
867.841	14686
867.972	14644
868.103	14587
868.233	14651
868.364	14735
868.495	14697
868.625	14845
868.756	14819
868.886	14750
869.017	14861
869.147	14986
869.278	14944
869.408	14948
869.539	14952
869.669	15020
869.799	15017
869.929	15119
870.06	15001
870.19	15161
870.32	15154
870.45	15275
870.58	15355
870.71	15401
870.84	15401
870.97	15272
871.1	15317
871.23	15416
871.36	15462
871.489	15412
871.619	15447
871.749	15454
871.879	15614
872.008	15557
872.138	15424
872.267	15454
872.397	15310
872.526	15401
872.656	15325
872.785	15264
872.915	15485
873.044	15580
873.173	15515
873.303	15485
873.432	15534
873.561	15553
873.69	15549
873.819	15519
873.948	15652
874.077	15557
874.206	15431
874.335	15549
874.464	15656
874.593	15819
874.722	15743
874.851	15869
874.979	15842
875.108	15953
875.237	15823
875.365	15755
875.494	15717
875.623	15823
875.751	15778
875.88	15835
876.008	16017
876.136	16082
876.265	16238
876.393	16424
876.521	16333
876.65	16318
876.778	16230
876.906	16284
877.034	16226
877.162	16253
877.29	16204
877.418	16272
877.546	16192
877.674	16303
877.802	16322
877.93	16356
878.058	16253
878.185	16154
878.313	16318
878.441	16272
878.568	16120
878.696	16280
878.824	16295
878.951	16379
879.079	16523
879.206	16618
879.333	16611
879.461	16584
879.588	16622
879.715	16603
879.842	16740
879.97	16447
880.097	16234
880.224	16280
880.351	16299
880.478	16139
880.605	16131
880.732	16204
880.859	16405
880.986	16158
881.112	16143
881.239	16109
881.366	15987
881.493	15835
881.619	15732
881.746	15831
881.872	15835
881.999	15781
882.125	15751
882.252	15915
882.378	15819
882.505	15979
882.631	15739
882.757	15641
882.883	15698
883.01	15542
883.136	15538
883.262	15534
883.388	15428
883.514	15663
883.64	15584
883.766	15519
883.892	15378
884.018	15542
884.143	15481
884.269	15610
884.395	15359
884.52	15351
884.646	15332
884.772	15203
884.897	15332
885.023	15321
885.148	15401
885.274	15485
885.399	15405
885.524	15226
885.65	15336
885.775	15279
885.9	15310
886.025	15412
886.15	15329
886.275	15291
886.4	15161
886.525	15268
886.65	15230
886.775	15211
886.9	15435
887.025	15473
887.149	15302
887.274	15233
887.399	15028
887.523	15058
887.648	15032
887.773	14979
887.897	15081
888.021	15241
888.146	15062
888.27	15146
888.395	15211
888.519	15226
888.643	15097
888.767	15089
888.891	15017
889.015	14902
889.139	15055
889.263	14994
889.387	15077
889.511	15154
889.635	15028
889.759	14876
889.883	14952
890.006	14986
890.13	15112
890.254	14906
890.377	14876
890.501	14735
890.624	14777
890.748	14853
890.871	14731
890.995	14549
891.118	14537
891.241	14651
891.364	14701
891.488	14758
891.611	14636
891.734	14617
891.857	14659
891.98	14659
892.103	14731
892.226	14762
892.349	14636
892.471	14396
892.594	14621
892.717	14716
892.839	14579
892.962	14648
893.085	14686
893.207	14651
893.33	14530
893.452	14530
893.575	14651
893.697	14575
893.819	14823
893.941	14811
894.064	14868
894.186	14625
894.308	14511
894.43	14697
894.552	14788
894.674	14629
894.796	14602
894.918	14613
895.04	14598
895.161	14724
895.283	14716
895.405	14621
895.526	14765
895.648	14693
895.769	14667
895.891	14785
896.012	14800
896.134	14834
896.255	14769
896.376	14792
896.498	14777
896.619	14861
896.74	14811
896.861	14857
896.982	15104
897.103	15268
897.224	15039
897.345	15001
897.466	14979
897.587	14956
897.708	15226
897.828	15089
897.949	15017
898.07	14929
898.19	14937
898.311	15161
898.431	15032
898.552	15058
898.672	15192
898.792	15169
898.913	15157
899.033	15032
899.153	14960
899.273	14906
899.393	14937
899.513	14963
899.633	14963
899.753	14975
899.873	14925
899.993	14948
900.113	14967
900.232	14960
900.352	14868
900.472	14842
900.591	14769
900.711	14807
900.83	14804
900.95	14910
901.069	14887
901.189	14697
901.308	14514
901.427	14461
901.546	14526
901.665	14469
901.784	14549
901.904	14412
902.023	14275
902.141	14084
902.26	14027
902.379	14054
902.498	14092
902.617	13989
902.735	14123
902.854	13989
902.973	14024
903.091	13769
903.21	13681
903.328	13772
903.446	13685
903.565	13632
903.683	13586
903.801	13502
903.919	13609
904.038	13540
904.156	13438
904.274	13422
904.392	13407
904.51	13403
904.627	13434
904.745	13449
904.863	13472
904.981	13236
905.098	13084
905.216	13126
905.334	13202
905.451	13129
905.569	13076
905.686	13122
905.803	13099
905.921	12867
906.038	13065
906.155	12875
906.272	12837
906.389	12886
906.506	12726
906.623	12749
906.74	12642
906.857	12566
906.974	12574
907.091	12703
907.208	12833
907.324	12688
907.441	12665
907.557	12403
907.674	12460
907.79	12311
907.907	12388
908.023	12407
908.139	12479
908.256	12445
908.372	12273
908.488	12372
908.604	12235
908.72	12148
908.836	12182
908.952	12121
909.068	12163
909.184	12311
909.3	12072
909.415	12216
909.531	12182
909.647	11965
909.762	11946
909.878	11950
909.993	11958
910.108	11920
910.224	11813
910.339	12022
910.454	11843
910.57	11756
910.685	11729
910.8	12034
910.915	11969
911.03	11843
911.145	11726
911.259	11532
911.374	11623
911.489	11615
911.604	11528
911.718	11387
911.833	11410
911.947	11288
912.062	11235
912.176	11421
912.291	11356
912.405	11387
912.519	11543
912.633	11627
912.748	11467
912.862	11414
912.976	11204
913.09	11083
913.204	11216
913.318	11242
913.431	11364
913.545	11410
913.659	11356
913.772	11212
913.886	11143
914	11117
914.113	11242
914.226	11288
914.34	11181
914.453	11086
914.566	11242
914.68	11102
914.793	11102
914.906	10965
915.019	10858
915.132	10862
915.245	10790
915.358	10858
915.47	10908
915.583	10889
915.696	10938
915.809	11018
915.921	11014
916.034	10873
916.146	10843
916.259	10790
916.371	10957
916.483	10908
916.595	10793
916.708	10862
916.82	10824
916.932	10733
917.044	10755
917.156	10740
917.268	10660
917.38	10752
917.491	10618
917.603	10694
917.715	10767
917.826	10763
917.938	10649
918.049	10542
918.161	10649
918.272	10820
918.384	10805
918.495	10694
918.606	10584
918.717	10409
918.828	10512
918.939	10607
919.05	10474
919.161	10580
919.272	10299
919.383	10474
919.494	10668
919.604	10721
919.715	10550
919.826	10489
919.936	10561
920.047	10637
920.157	10584
920.267	10831
920.378	10565
920.488	10512
920.598	10748
920.708	10896
920.818	10755
920.928	10672
921.038	10900
921.148	10843
921.258	10649
921.368	10504
921.477	10371
921.587	10386
921.697	10398
921.806	10352
921.916	10276
922.025	10128
922.134	10067
922.244	9975
922.353	10196
922.462	10010
922.571	9998
922.68	9842
922.789	9766
922.898	9869
923.007	9694
923.116	9759
923.224	9842
923.333	9774
923.442	9728
923.55	9682
923.659	9747
923.767	9823
923.876	9675
923.984	9736
924.092	9610
924.201	9663
924.309	9667
924.417	9705
924.525	9587
924.633	9625
924.741	10341
924.849	9401
924.956	9519
925.064	9500
925.172	9332
925.279	9344
925.387	9435
925.494	9389
925.602	9576
925.709	9530
925.816	9306
925.924	9382
926.031	9530
926.138	9389
926.245	9428
926.352	9325
926.459	9447
926.566	9526
926.673	9367
926.779	9287
926.886	9344
926.993	9165
927.099	9116
927.206	9070
927.312	9043
927.419	9203
927.525	9116
927.631	9211
927.737	9100
927.843	9005
927.95	8906
928.056	8990
928.162	8994
928.267	9066
928.373	9644
928.479	9165
928.585	8823
928.69	8986
928.796	9108
928.901	8883
929.007	8785
929.112	8994
929.218	8963
929.323	8910
929.428	8845
929.533	8952
929.638	8834
929.743	8842
929.848	8906
929.953	8834
930.058	8746
930.163	8621
930.267	8625
930.372	8705
930.477	8556
930.581	8826
930.685	8651
930.79	8537
930.894	8610
930.998	8537
931.103	8644
931.207	8317
931.311	8214
931.415	8206
931.519	8069
931.623	8119
