Data from test_V78500241_1779.txt Node
Date: Fri Mar 25 14:46:06 CST 2022
User: usil
Spectrometer: V785-0024
Trigger mode: 0
Integration Time (sec): 4.000000E-1
Scans to average: 1
Nonlinearity correction enabled: false
Boxcar width: 0
Storing dark spectrum: false
XAxis mode: Wavelengths
Number of Pixels in Spectrum: 1024
>>>>>Begin Spectral Data<<<<<
801.071	22207
801.214	22063
801.356	21671
801.499	21701
801.641	21469
801.783	21351
801.926	21545
802.068	21458
802.211	21336
802.353	21218
802.496	21074
802.638	20960
802.78	20948
802.923	21013
803.065	20838
803.208	20804
803.35	20849
803.492	20956
803.635	21005
803.777	20921
803.919	20910
804.061	21146
804.204	21051
804.346	20769
804.488	20697
804.63	20876
804.773	20792
804.915	20864
805.057	20826
805.199	20720
805.341	20800
805.483	20880
805.626	20849
805.768	20689
805.91	20739
806.052	20842
806.194	20739
806.336	20929
806.478	20682
806.62	20800
806.762	20982
806.904	20963
807.046	21165
807.188	21127
807.33	21226
807.472	21226
807.614	21009
807.756	20975
807.898	20891
808.04	20838
808.182	20933
808.324	20872
808.465	20948
808.607	21062
808.749	21188
808.891	21275
809.033	21424
809.174	21116
809.316	21043
809.458	21089
809.6	21070
809.741	21230
809.883	21245
810.025	21424
810.166	21317
810.308	21310
810.45	21412
810.591	21226
810.733	21112
810.875	21020
811.016	20944
811.158	20823
811.299	20960
811.441	21085
811.582	21100
811.724	20849
811.865	20826
812.007	20861
812.148	20845
812.29	20960
812.431	21089
812.573	21287
812.714	21336
812.855	21435
812.997	21492
813.138	21713
813.279	21572
813.421	21435
813.562	21439
813.703	21317
813.845	21009
813.986	20758
814.127	20644
814.268	20434
814.41	20541
814.551	20473
814.692	20537
814.833	20389
814.974	20473
815.115	20431
815.256	20347
815.397	20358
815.539	20271
815.68	20168
815.821	20282
815.962	20332
816.103	20218
816.244	20115
816.385	20005
816.526	19902
816.666	19841
816.807	19639
816.948	19807
817.089	19765
817.23	19780
817.371	19552
817.512	19677
817.653	19616
817.793	19559
817.934	19601
818.075	19734
818.216	19658
818.356	19559
818.497	19441
818.638	19282
818.778	19308
818.919	19335
819.06	19293
819.2	19388
819.341	19563
819.481	19491
819.622	19696
819.762	19799
819.903	19833
820.043	19681
820.184	19624
820.324	19681
820.465	19655
820.605	19719
820.746	19552
820.886	19464
821.026	19525
821.167	19609
821.307	19674
821.447	19453
821.588	19453
821.728	19331
821.868	19194
822.008	18970
822.149	18943
822.289	18920
822.429	18772
822.569	18715
822.709	18585
822.849	18498
822.99	18452
823.13	18357
823.27	18509
823.41	18391
823.55	18247
823.69	18289
823.83	18323
823.97	18311
824.11	18038
824.25	18167
824.389	18171
824.529	18083
824.669	18129
824.809	18114
824.949	18136
825.089	18117
825.228	18117
825.368	17927
825.508	17817
825.648	17878
825.787	17882
825.927	17942
826.067	17805
826.206	17889
826.346	17843
826.485	17824
826.625	17855
826.765	17870
826.904	17946
827.044	17619
827.183	17608
827.323	17581
827.462	17608
827.601	17551
827.741	17535
827.88	17668
828.02	17528
828.159	17558
828.298	17672
828.437	17630
828.577	17547
828.716	17668
828.855	17505
828.994	17429
829.134	17318
829.273	17471
829.412	17288
829.551	17193
829.69	17292
829.829	17341
829.968	17372
830.107	17296
830.246	17334
830.385	17288
830.524	17151
830.663	17075
830.802	17140
830.941	16968
831.08	16778
831.219	17006
831.357	16873
831.496	17197
831.635	17025
831.774	16843
831.913	16831
832.051	16744
832.19	16713
832.329	16774
832.467	16668
832.606	16607
832.744	16554
832.883	16618
833.022	16618
833.16	16664
833.299	16615
833.437	16755
833.576	16736
833.714	16599
833.852	16679
833.991	16691
834.129	16698
834.267	16702
834.406	16710
834.544	16736
834.682	16679
834.821	16599
834.959	16801
835.097	16687
835.235	16793
835.373	16668
835.511	16687
835.65	16554
835.788	16653
835.926	16390
836.064	16478
836.202	16348
836.34	16550
836.478	16683
836.615	16577
836.753	16679
836.891	16744
837.029	16592
837.167	16428
837.305	16489
837.443	16451
837.58	16375
837.718	16637
837.856	16436
837.993	16291
838.131	16398
838.269	16329
838.406	16394
838.544	16242
838.681	16200
838.819	16109
838.956	16055
839.094	15930
839.231	16074
839.369	16162
839.506	16306
839.643	16185
839.781	16093
839.918	15945
840.055	15987
840.193	16051
840.33	15876
840.467	16029
840.604	15998
840.742	16219
840.879	15865
841.016	15823
841.153	16032
841.29	16101
841.427	16013
841.564	16013
841.701	16067
841.838	16025
841.975	15918
842.112	15979
842.249	15804
842.385	15743
842.522	15861
842.659	15774
842.796	15778
842.933	15854
843.069	15713
843.206	15660
843.343	15804
843.479	15869
843.616	15713
843.752	15523
843.889	15523
844.025	15652
844.162	15538
844.298	15755
844.435	15526
844.571	15500
844.708	15667
844.844	15698
844.98	15701
845.117	15835
845.253	15545
845.389	15485
845.525	15564
845.661	15481
845.798	15351
845.934	15477
846.07	15310
846.206	15393
846.342	15450
846.478	15405
846.614	15100
846.75	15074
846.886	15108
847.022	15195
847.158	15192
847.294	15131
847.429	15135
847.565	15131
847.701	15336
847.837	14861
847.972	14906
848.108	14986
848.244	14944
848.379	14682
848.515	14739
848.65	14727
848.786	14754
848.921	14712
849.057	14800
849.192	14857
849.328	14769
849.463	14838
849.598	14697
849.734	14655
849.869	14636
850.004	14583
850.14	14590
850.275	14511
850.41	14434
850.545	14473
850.68	14473
850.815	14590
850.95	14526
851.085	14636
851.22	14587
851.355	14495
851.49	14545
851.625	14442
851.76	14511
851.895	14374
852.03	14355
852.165	14541
852.299	14526
852.434	14602
852.569	14514
852.703	14488
852.838	14621
852.973	14640
853.107	14545
853.242	14484
853.376	14419
853.511	14240
853.645	14374
853.78	14473
853.914	14358
854.048	14332
854.183	14370
854.317	14469
854.451	14606
854.585	14339
854.72	14278
854.854	14465
854.988	14305
855.122	14377
855.256	14244
855.39	14313
855.524	14415
855.658	14518
855.792	14434
855.926	14351
856.06	14366
856.194	14533
856.327	14275
856.461	14271
856.595	14408
856.729	14229
856.862	14442
856.996	14393
857.13	14381
857.263	14484
857.397	14412
857.53	14347
857.664	14377
857.797	14415
857.931	14457
858.064	14393
858.197	14446
858.331	14434
858.464	14339
858.597	14240
858.731	14396
858.864	14328
858.997	14358
859.13	14351
859.263	14431
859.396	14442
859.529	14377
859.662	14366
859.795	14362
859.928	14343
860.061	14503
860.194	14568
860.327	14381
860.46	14385
860.592	14473
860.725	14530
860.858	14457
860.99	14351
861.123	14248
861.256	14351
861.388	14442
861.521	15123
861.653	14267
861.786	14142
861.918	14225
862.05	14336
862.183	14328
862.315	14393
862.447	14495
862.58	14275
862.712	14164
862.844	14115
862.976	14183
863.108	14149
863.24	14480
863.372	14062
863.504	14164
863.636	14107
863.768	14202
863.9	14134
864.032	14065
864.164	14073
864.296	14157
864.428	14282
864.559	14195
864.691	14195
864.823	14191
864.954	14214
865.086	14138
865.217	14123
865.349	14062
865.48	14153
865.612	14172
865.743	14271
865.875	14145
866.006	14153
866.137	14180
866.269	14145
866.4	14081
866.531	14050
866.662	14096
866.793	14092
866.924	14092
867.055	14126
867.186	14077
867.317	13997
867.448	13997
867.579	14119
867.71	14062
867.841	14016
867.972	14103
868.103	14157
868.233	14183
868.364	14233
868.495	14153
868.625	14355
868.756	14495
868.886	14263
869.017	14377
869.147	14503
869.278	14518
869.408	14469
869.539	14434
869.669	14461
869.799	14374
869.929	14476
870.06	14457
870.19	14655
870.32	14682
870.45	14781
870.58	14830
870.71	14914
870.84	14830
870.97	14746
871.1	14655
871.23	15043
871.36	15036
871.489	14944
871.619	15013
871.749	14967
871.879	14998
872.008	15043
872.138	14933
872.267	14979
872.397	14838
872.526	14792
872.656	14864
872.785	14887
872.915	14956
873.044	15081
873.173	14906
873.303	15024
873.432	15100
873.561	15001
873.69	15051
873.819	15001
873.948	15176
874.077	15024
874.206	15009
874.335	15005
874.464	15161
874.593	15382
874.722	15310
874.851	15389
874.979	15344
875.108	15378
875.237	15313
875.365	15275
875.494	15310
875.623	15389
875.751	15393
875.88	15428
876.008	15511
876.136	15580
876.265	15751
876.393	15941
876.521	15838
876.65	15926
876.778	15804
876.906	15694
877.034	15644
877.162	15705
877.29	15644
877.418	15743
877.546	15709
877.674	15747
877.802	15793
877.93	15800
878.058	15789
878.185	15622
878.313	15762
878.441	15755
878.568	15701
878.696	15732
878.824	15732
878.951	15804
879.079	15888
879.206	16116
879.333	15911
879.461	15797
879.588	15884
879.715	15922
879.842	15975
879.97	15880
880.097	15557
880.224	15561
880.351	15728
880.478	15591
880.605	15568
880.732	15584
880.859	15766
880.986	15701
881.112	15553
881.239	15557
881.366	15389
881.493	15233
881.619	15119
881.746	15222
881.872	15207
881.999	15256
882.125	15192
882.252	15317
882.378	15199
882.505	15412
882.631	15127
882.757	15116
882.883	15211
883.01	15062
883.136	14986
883.262	14937
883.388	14925
883.514	15039
883.64	15123
883.766	15032
883.892	14800
884.018	14933
884.143	15032
884.269	15154
884.395	14792
884.52	14727
884.646	14727
884.772	14754
884.897	14640
885.023	14815
885.148	14807
885.274	14925
885.399	14883
885.524	14796
885.65	14857
885.775	14735
885.9	14807
886.025	14967
886.15	14887
886.275	14754
886.4	14773
886.525	14735
886.65	14682
886.775	14724
886.9	14990
887.025	14925
887.149	14746
887.274	14606
887.399	14560
887.523	14617
887.648	14556
887.773	14480
887.897	14708
888.021	14712
888.146	14617
888.27	14697
888.395	14693
888.519	14640
888.643	14606
888.767	14705
888.891	14514
889.015	14480
889.139	14499
889.263	14461
889.387	14644
889.511	14762
889.635	14651
889.759	14541
889.883	14503
890.006	14465
890.13	14598
890.254	14358
890.377	14476
890.501	14267
890.624	14229
890.748	14286
890.871	14286
890.995	14130
891.118	14103
891.241	14126
891.364	14153
891.488	14271
891.611	14119
891.734	14119
891.857	14218
891.98	14237
892.103	14252
892.226	14225
892.349	14157
892.471	13989
892.594	14153
892.717	14206
892.839	14149
892.962	14164
893.085	14202
893.207	14271
893.33	14088
893.452	14130
893.575	14309
893.697	14157
893.819	14336
893.941	14332
894.064	14225
894.186	14149
894.308	14161
894.43	14229
894.552	14370
894.674	14275
894.796	14214
894.918	14172
895.04	14172
895.161	14240
895.283	14305
895.405	14267
895.526	14267
895.648	14218
895.769	14286
895.891	14351
896.012	14351
896.134	14385
896.255	14362
896.376	14332
896.498	14282
896.619	14366
896.74	14408
896.861	14446
896.982	14739
897.103	14838
897.224	14708
897.345	14492
897.466	14488
897.587	14541
897.708	14777
897.828	14629
897.949	14571
898.07	14541
898.19	14560
898.311	14678
898.431	14560
898.552	14678
898.672	14705
898.792	14716
898.913	14644
899.033	14610
899.153	14549
899.273	14495
899.393	14499
899.513	14587
899.633	14526
899.753	14450
899.873	14457
899.993	14533
900.113	14507
900.232	14556
900.352	14514
900.472	14377
900.591	14393
900.711	14385
900.83	14320
900.95	14560
901.069	14541
901.189	14336
901.308	14126
901.427	14035
901.546	14081
901.665	14119
901.784	14096
901.904	13963
902.023	13913
902.141	13719
902.26	13723
902.379	13712
902.498	13636
902.617	13620
902.735	13677
902.854	13624
902.973	13563
903.091	13377
903.21	13301
903.328	13316
903.446	13190
903.565	13301
903.683	13202
903.801	13206
903.919	13228
904.038	13202
904.156	13008
904.274	13152
904.392	12993
904.51	12996
904.627	12985
904.745	13065
904.863	13000
904.981	12905
905.098	12719
905.216	12745
905.334	12817
905.451	12741
905.569	12745
905.686	12825
905.803	12802
905.921	12566
906.038	12639
906.155	12582
906.272	12445
906.389	12471
906.506	12327
906.623	12391
906.74	12258
906.857	12114
906.974	12213
907.091	12357
907.208	12426
907.324	12258
907.441	12266
907.557	12072
907.674	12034
907.79	11996
907.907	12007
908.023	12026
908.139	12072
908.256	12015
908.372	12007
908.488	11984
908.604	11802
908.72	11798
908.836	11794
908.952	11786
909.068	11851
909.184	11992
909.3	11794
909.415	11908
909.531	11824
909.647	11585
909.762	11592
909.878	11589
909.993	11661
910.108	11577
910.224	11558
910.339	11619
910.454	11436
910.57	11383
910.685	11414
910.8	11596
910.915	11592
911.03	11448
911.145	11307
911.259	11296
911.374	11212
911.489	11143
911.604	11197
911.718	11018
911.833	11052
911.947	10889
912.062	10862
912.176	11018
912.291	11010
912.405	11048
912.519	11239
912.633	11174
912.748	11067
912.862	10987
912.976	10900
913.09	10805
913.204	10927
913.318	10953
913.431	11006
913.545	10976
913.659	11014
913.772	10930
913.886	10881
914	10786
914.113	10904
914.226	11003
914.34	10904
914.453	10729
914.566	10843
914.68	10759
914.793	10752
914.906	10630
915.019	10512
915.132	10424
915.245	10538
915.358	10519
915.47	10538
915.583	10607
915.696	10607
915.809	10675
915.921	10668
916.034	10569
916.146	10459
916.259	10493
916.371	10565
916.483	10561
916.595	10455
916.708	10485
916.82	10493
916.932	10443
917.044	10470
917.156	10428
917.268	10375
917.38	10352
917.491	10348
917.603	10413
917.715	10447
917.826	10504
917.938	10379
918.049	10238
918.161	10325
918.272	10516
918.384	10478
918.495	10436
918.606	10261
918.717	10131
918.828	10306
918.939	10204
919.05	10158
919.161	10295
919.272	10051
919.383	10032
919.494	10272
919.604	10512
919.715	10265
919.826	10200
919.936	10188
920.047	10417
920.157	10234
920.267	10470
920.378	10341
920.488	10325
920.598	10428
920.708	10531
920.818	10497
920.928	10447
921.038	10641
921.148	10531
921.258	10314
921.368	10147
921.477	10169
921.587	10093
921.697	9964
921.806	10181
921.916	10051
922.025	9850
922.134	9740
922.244	9724
922.353	9819
922.462	9671
922.571	9713
922.68	9572
922.789	9568
922.898	9580
923.007	9439
923.116	9557
923.224	9450
923.333	9576
923.442	9405
923.55	9382
923.659	9393
923.767	9485
923.876	9336
923.984	9462
924.092	9386
924.201	9481
924.309	9367
924.417	9363
924.525	9310
924.633	9382
924.741	10280
924.849	9157
924.956	9306
925.064	9112
925.172	9146
925.279	9157
925.387	9226
925.494	9203
925.602	9351
925.709	9218
925.816	9112
925.924	9165
926.031	9294
926.138	9222
926.245	9230
926.352	9058
926.459	9230
926.566	9298
926.673	9074
926.779	9047
926.886	8971
926.993	8876
927.099	8861
927.206	8769
927.312	8796
927.419	8910
927.525	8842
927.631	8941
927.737	8838
927.843	8819
927.95	8667
928.056	8750
928.162	8819
928.267	8750
928.373	9447
928.479	8853
928.585	8575
928.69	8716
928.796	8785
928.901	8667
929.007	8579
929.112	8640
929.218	8655
929.323	8629
929.428	8564
929.533	8701
929.638	8598
929.743	8629
929.848	8533
929.953	8571
930.058	8480
930.163	8286
930.267	8339
930.372	8556
930.477	8271
930.581	8571
930.685	8408
930.79	8286
930.894	8324
930.998	8282
931.103	8499
931.207	8069
931.311	8039
931.415	7970
931.519	7799
931.623	7826
