Data from test_V78500241_2436.txt Node
Date: Fri Mar 25 14:50:40 CST 2022
User: usil
Spectrometer: V785-0024
Trigger mode: 0
Integration Time (sec): 4.000000E-1
Scans to average: 1
Nonlinearity correction enabled: false
Boxcar width: 0
Storing dark spectrum: false
XAxis mode: Wavelengths
Number of Pixels in Spectrum: 1024
>>>>>Begin Spectral Data<<<<<
801.071	22082
801.214	22017
801.356	21679
801.499	21633
801.641	21477
801.783	21515
801.926	21515
802.068	21363
802.211	21321
802.353	21249
802.496	21043
802.638	20937
802.78	20956
802.923	20826
803.065	20765
803.208	20754
803.35	20819
803.492	20838
803.635	20937
803.777	20697
803.919	20880
804.061	21138
804.204	20929
804.346	20769
804.488	20625
804.63	20686
804.773	20564
804.915	20621
805.057	20861
805.199	20636
805.341	20781
805.483	20952
805.626	20735
805.768	20678
805.91	20724
806.052	20758
806.194	20625
806.336	20838
806.478	20746
806.62	20636
806.762	20667
806.904	20998
807.046	21123
807.188	21009
807.33	21150
807.472	21058
807.614	20994
807.756	20918
807.898	20796
808.04	20765
808.182	20724
808.324	20800
808.465	20880
808.607	21028
808.749	21036
808.891	21184
809.033	21272
809.174	21100
809.316	21028
809.458	20929
809.6	21001
809.741	21195
809.883	21154
810.025	21203
810.166	21192
810.308	21195
810.45	21180
810.591	21131
810.733	20967
810.875	20914
811.016	20861
811.158	20777
811.299	20921
811.441	21036
811.582	20914
811.724	20975
811.865	20880
812.007	20876
812.148	20762
812.29	20967
812.431	20876
812.573	21207
812.714	21173
812.855	21439
812.997	21507
813.138	21629
813.279	21553
813.421	21340
813.562	21367
813.703	21237
813.845	21005
813.986	20807
814.127	20598
814.268	20336
814.41	20465
814.551	20404
814.692	20408
814.833	20404
814.974	20404
815.115	20377
815.256	20317
815.397	20115
815.539	20218
815.68	20096
815.821	20119
815.962	20202
816.103	20122
816.244	20016
816.385	19814
816.526	19830
816.666	19719
816.807	19620
816.948	19601
817.089	19635
817.23	19529
817.371	19540
817.512	19605
817.653	19480
817.793	19571
817.934	19620
818.075	19487
818.216	19487
818.356	19476
818.497	19419
818.638	19141
818.778	19202
818.919	19206
819.06	19259
819.2	19331
819.341	19392
819.481	19422
819.622	19594
819.762	19693
819.903	19685
820.043	19620
820.184	19480
820.324	19548
820.465	19666
820.605	19533
820.746	19445
820.886	19373
821.026	19483
821.167	19495
821.307	19457
821.447	19365
821.588	19331
821.728	19247
821.868	19148
822.008	18947
822.149	18844
822.289	18844
822.429	18707
822.569	18650
822.709	18521
822.849	18418
822.99	18311
823.13	18494
823.27	18407
823.41	18254
823.55	18235
823.69	18209
823.83	18148
823.97	18174
824.11	18159
824.25	18011
824.389	18045
824.529	18060
824.669	18034
824.809	18178
824.949	18106
825.089	17996
825.228	18019
825.368	17745
825.508	17836
825.648	17866
825.787	17939
825.927	17832
826.067	17687
826.206	17703
826.346	17707
826.485	17824
826.625	17676
826.765	17779
826.904	17783
827.044	17512
827.183	17478
827.323	17356
827.462	17455
827.601	17501
827.741	17493
827.88	17490
828.02	17356
828.159	17421
828.298	17474
828.437	17554
828.577	17349
828.716	17520
828.855	17387
828.994	17159
829.134	17181
829.273	17269
829.412	17166
829.551	17174
829.69	17197
829.829	17178
829.968	17345
830.107	17360
830.246	17132
830.385	17128
830.524	17067
830.663	17170
830.802	16957
830.941	16778
831.08	16839
831.219	16934
831.357	16869
831.496	17071
831.635	16809
831.774	16733
831.913	16733
832.051	16603
832.19	16683
832.329	16611
832.467	16451
832.606	16394
832.744	16538
832.883	16455
833.022	16455
833.16	16451
833.299	16596
833.437	16474
833.576	16527
833.714	16500
833.852	16519
833.991	16535
834.129	16569
834.267	16702
834.406	16656
834.544	16618
834.682	16538
834.821	16489
834.959	16725
835.097	16512
835.235	16634
835.373	16596
835.511	16599
835.65	16489
835.788	16443
835.926	16226
836.064	16329
836.202	16428
836.34	16519
836.478	16542
836.615	16371
836.753	16493
836.891	16523
837.029	16565
837.167	16417
837.305	16287
837.443	16394
837.58	16284
837.718	16478
837.856	16341
837.993	16424
838.131	16333
838.269	16238
838.406	16348
838.544	16253
838.681	16090
838.819	15926
838.956	15846
839.094	15759
839.231	15884
839.369	16017
839.506	16181
839.643	16150
839.781	15827
839.918	15846
840.055	15918
840.193	15831
840.33	15854
840.467	15926
840.604	15968
840.742	16211
840.879	15789
841.016	15713
841.153	15724
841.29	15975
841.427	15804
841.564	15937
841.701	15922
841.838	15812
841.975	15812
842.112	15797
842.249	15637
842.385	15648
842.522	15816
842.659	15625
842.796	15587
842.933	15675
843.069	15660
843.206	15629
843.343	15667
843.479	15606
843.616	15625
843.752	15340
843.889	15466
844.025	15739
844.162	15428
844.298	15545
844.435	15488
844.571	15317
844.708	15526
844.844	15568
844.98	15469
845.117	15637
845.253	15412
845.389	15321
845.525	15279
845.661	15359
845.798	15294
845.934	15268
846.07	15112
846.206	15268
846.342	15298
846.478	15302
846.614	15150
846.75	14986
846.886	15009
847.022	15180
847.158	15085
847.294	15001
847.429	15017
847.565	15017
847.701	15275
847.837	14845
847.972	14735
848.108	14807
848.244	14796
848.379	14743
848.515	14602
848.65	14571
848.786	14598
848.921	14697
849.057	14754
849.192	14727
849.328	14659
849.463	14598
849.598	14533
849.734	14606
849.869	14385
850.004	14393
850.14	14480
850.275	14419
850.41	14324
850.545	14351
850.68	14259
850.815	14434
850.95	14271
851.085	14473
851.22	14480
851.355	14355
851.49	14324
851.625	14301
851.76	14355
851.895	14317
852.03	14267
852.165	14484
852.299	14324
852.434	14537
852.569	14469
852.703	14419
852.838	14454
852.973	14484
853.107	14427
853.242	14210
853.376	14176
853.511	14054
853.645	14168
853.78	14355
853.914	14290
854.048	14206
854.183	14164
854.317	14256
854.451	14366
854.585	14145
854.72	14172
854.854	14229
854.988	14134
855.122	14233
855.256	14096
855.39	14149
855.524	14404
855.658	14259
855.792	14305
855.926	14225
856.06	14374
856.194	14278
856.327	14339
856.461	14199
856.595	14134
856.729	14145
856.862	14271
856.996	14343
857.13	14278
857.263	14332
857.397	14408
857.53	14305
857.664	14320
857.797	14332
857.931	14381
858.064	14366
858.197	14275
858.331	14225
858.464	14206
858.597	14145
858.731	14256
858.864	14134
858.997	14271
859.13	14218
859.263	14301
859.396	14415
859.529	14290
859.662	14180
859.795	14271
859.928	14248
860.061	14404
860.194	14423
860.327	14244
860.46	14195
860.592	14351
860.725	14450
860.858	14381
860.99	14210
861.123	14126
861.256	14134
861.388	14275
861.521	14823
861.653	14062
861.786	14161
861.918	14081
862.05	14050
862.183	14191
862.315	14214
862.447	14286
862.58	14195
862.712	13970
862.844	13913
862.976	14115
863.108	14035
863.24	14355
863.372	14031
863.504	14005
863.636	13974
863.768	14126
863.9	14043
864.032	14008
864.164	13986
864.296	14126
864.428	14119
864.559	14107
864.691	14046
864.823	14046
864.954	14050
865.086	14077
865.217	13989
865.349	13932
865.48	13967
865.612	14073
865.743	14107
865.875	14043
866.006	13902
866.137	14073
866.269	14073
866.4	13875
866.531	14027
866.662	13986
866.793	14024
866.924	13902
867.055	14065
867.186	14073
867.317	14020
867.448	13982
867.579	14027
867.71	13879
867.841	13883
867.972	14149
868.103	13932
868.233	14081
868.364	14043
868.495	14077
868.625	14214
868.756	14404
868.886	14286
869.017	14275
869.147	14347
869.278	14415
869.408	14408
869.539	14263
869.669	14275
869.799	14454
869.929	14469
870.06	14366
870.19	14632
870.32	14602
870.45	14663
870.58	14724
870.71	14769
870.84	14861
870.97	14788
871.1	14651
871.23	14838
871.36	14887
871.489	14788
871.619	14861
871.749	14876
871.879	14857
872.008	15036
872.138	14914
872.267	14838
872.397	14746
872.526	14693
872.656	14613
872.785	14762
872.915	14929
873.044	15047
873.173	14899
873.303	14914
873.432	14933
873.561	15009
873.69	14963
873.819	14944
873.948	15020
874.077	15005
874.206	14925
874.335	14975
874.464	15070
874.593	15298
874.722	15249
874.851	15192
874.979	15302
875.108	15416
875.237	15226
875.365	15226
875.494	15207
875.623	15298
875.751	15230
875.88	15260
876.008	15496
876.136	15435
876.265	15675
876.393	15842
876.521	15701
876.65	15759
876.778	15713
876.906	15690
877.034	15682
877.162	15625
877.29	15507
877.418	15698
877.546	15625
877.674	15652
877.802	15732
877.93	15690
878.058	15629
878.185	15481
878.313	15641
878.441	15755
878.568	15439
878.696	15686
878.824	15717
878.951	15713
879.079	15972
879.206	16013
879.333	15835
879.461	15804
879.588	15827
879.715	15842
879.842	15972
879.97	15827
880.097	15606
880.224	15408
880.351	15542
880.478	15564
880.605	15568
880.732	15370
880.859	15679
880.986	15515
881.112	15595
881.239	15378
881.366	15192
881.493	15203
881.619	15135
881.746	15287
881.872	15192
881.999	15165
882.125	15161
882.252	15252
882.378	15203
882.505	15264
882.631	15100
882.757	14998
882.883	15157
883.01	14971
883.136	14876
883.262	14857
883.388	14815
883.514	15039
883.64	15001
883.766	14933
883.892	14792
884.018	14819
884.143	15017
884.269	15085
884.395	14705
884.52	14667
884.646	14678
884.772	14640
884.897	14617
885.023	14708
885.148	14815
885.274	14891
885.399	14815
885.524	14670
885.65	14712
885.775	14712
885.9	14765
886.025	14777
886.15	14754
886.275	14686
886.4	14640
886.525	14610
886.65	14651
886.775	14606
886.9	14921
887.025	14986
887.149	14758
887.274	14545
887.399	14518
887.523	14415
887.648	14488
887.773	14358
887.897	14617
888.021	14606
888.146	14556
888.27	14590
888.395	14617
888.519	14716
888.643	14606
888.767	14667
888.891	14389
889.015	14351
889.139	14423
889.263	14301
889.387	14484
889.511	14530
889.635	14579
889.759	14278
889.883	14317
890.006	14427
890.13	14499
890.254	14317
890.377	14282
890.501	14218
890.624	14206
890.748	14248
890.871	14103
890.995	13989
891.118	13997
891.241	14138
891.364	14107
891.488	14218
891.611	14035
891.734	14088
891.857	14275
891.98	14073
892.103	14248
892.226	14157
892.349	13963
892.471	14039
892.594	14016
892.717	14065
892.839	14043
892.962	14100
893.085	14256
893.207	14096
893.33	13989
893.452	13959
893.575	14145
893.697	14065
893.819	14290
893.941	14317
894.064	14256
894.186	14107
894.308	14069
894.43	14157
894.552	14351
894.674	14229
894.796	14161
894.918	14153
895.04	14100
895.161	14233
895.283	14218
895.405	14130
895.526	14202
895.648	14244
895.769	14240
895.891	14298
896.012	14218
896.134	14298
896.255	14305
896.376	14343
896.498	14298
896.619	14286
896.74	14298
896.861	14400
896.982	14663
897.103	14861
897.224	14602
897.345	14545
897.466	14469
897.587	14625
897.708	14629
897.828	14568
897.949	14549
898.07	14400
898.19	14530
898.311	14670
898.431	14522
898.552	14636
898.672	14670
898.792	14838
898.913	14697
899.033	14564
899.153	14503
899.273	14351
899.393	14507
899.513	14434
899.633	14465
899.753	14533
899.873	14503
899.993	14476
900.113	14454
900.232	14545
900.352	14499
900.472	14385
900.591	14187
900.711	14431
900.83	14374
900.95	14530
901.069	14438
901.189	14298
901.308	14035
901.427	14001
901.546	13947
901.665	14050
901.784	14043
901.904	13898
902.023	13830
902.141	13658
902.26	13449
902.379	13613
902.498	13525
902.617	13616
902.735	13658
902.854	13571
902.973	13540
903.091	13346
903.21	13335
903.328	13308
903.446	13244
903.565	13164
903.683	13259
903.801	13076
903.919	13187
904.038	13149
904.156	12970
904.274	13072
904.392	13042
904.51	12973
904.627	12977
904.745	13103
904.863	13095
904.981	12787
905.098	12658
905.216	12719
905.334	12642
905.451	12688
905.569	12658
905.686	12700
905.803	12722
905.921	12445
906.038	12525
906.155	12559
906.272	12418
906.389	12410
906.506	12292
906.623	12213
906.74	12235
906.857	12129
906.974	12110
907.091	12266
907.208	12304
907.324	12327
907.441	12190
907.557	12015
907.674	11942
907.79	11950
907.907	11965
908.023	12049
908.139	12068
908.256	11931
908.372	11889
908.488	11893
908.604	11737
908.72	11699
908.836	11783
908.952	11790
909.068	11771
909.184	11866
909.3	11779
909.415	11813
909.531	11733
909.647	11543
909.762	11665
909.878	11509
909.993	11608
910.108	11573
910.224	11482
910.339	11482
910.454	11433
910.57	11379
910.685	11322
910.8	11558
910.915	11516
911.03	11436
911.145	11212
911.259	11261
911.374	11299
911.489	11117
911.604	11102
911.718	10995
911.833	11060
911.947	10881
912.062	10847
912.176	10911
912.291	11045
912.405	11029
912.519	11102
912.633	11117
912.748	11121
912.862	11033
912.976	10896
913.09	10740
913.204	10881
913.318	10881
913.431	10976
913.545	10896
913.659	10957
913.772	10862
913.886	10812
914	10672
914.113	10816
914.226	10896
914.34	10824
914.453	10698
914.566	10801
914.68	10702
914.793	10675
914.906	10519
915.019	10386
915.132	10440
915.245	10527
915.358	10474
915.47	10493
915.583	10554
915.696	10489
915.809	10599
915.921	10641
916.034	10432
916.146	10474
916.259	10417
916.371	10535
916.483	10459
916.595	10428
916.708	10348
916.82	10459
916.932	10344
917.044	10443
917.156	10398
917.268	10356
917.38	10379
917.491	10356
917.603	10386
917.715	10421
917.826	10443
917.938	10299
918.049	10257
918.161	10356
918.272	10447
918.384	10455
918.495	10306
918.606	10230
918.717	10169
918.828	10192
918.939	10177
919.05	10135
919.161	10158
919.272	9972
919.383	10135
919.494	10284
919.604	10466
919.715	10169
919.826	10093
919.936	10177
920.047	10287
920.157	10173
920.267	10481
920.378	10242
920.488	10242
920.598	10451
920.708	10493
920.818	10455
920.928	10440
921.038	10531
921.148	10592
921.258	10265
921.368	10150
921.477	10109
921.587	10040
921.697	9892
921.806	10086
921.916	9949
922.025	9857
922.134	9690
922.244	9736
922.353	9861
922.462	9603
922.571	9606
922.68	9458
922.789	9447
922.898	9481
923.007	9492
923.116	9549
923.224	9428
923.333	9447
923.442	9408
923.55	9317
923.659	9336
923.767	9462
923.876	9359
923.984	9405
924.092	9298
924.201	9313
924.309	9302
924.417	9348
924.525	9260
924.633	9249
924.741	9998
924.849	9135
924.956	9241
925.064	9093
925.172	9047
925.279	9058
925.387	9180
925.494	9089
925.602	9230
925.709	9214
925.816	9097
925.924	9119
926.031	9214
926.138	9157
926.245	9226
926.352	9051
926.459	9146
926.566	9222
926.673	9066
926.779	8952
926.886	8975
926.993	8868
927.099	8826
927.206	8785
927.312	8788
927.419	8895
927.525	8902
927.631	8826
927.737	8750
927.843	8754
927.95	8655
928.056	8796
928.162	8731
928.267	8796
928.373	9389
928.479	8819
928.585	8667
928.69	8720
928.796	8724
928.901	8613
929.007	8575
929.112	8667
929.218	8590
929.323	8613
929.428	8587
929.533	8693
929.638	8495
929.743	8526
929.848	8587
929.953	8518
930.058	8480
930.163	8279
930.267	8317
930.372	8442
930.477	8324
930.581	8545
930.685	8328
930.79	8282
930.894	8298
930.998	8313
931.103	8469
931.207	8069
931.311	8035
931.415	8005
931.519	7765
931.623	7734
