Data from test_V78500241_2539.txt Node
Date: Fri Mar 25 14:51:23 CST 2022
User: usil
Spectrometer: V785-0024
Trigger mode: 0
Integration Time (sec): 4.000000E-1
Scans to average: 1
Nonlinearity correction enabled: false
Boxcar width: 0
Storing dark spectrum: false
XAxis mode: Wavelengths
Number of Pixels in Spectrum: 1024
>>>>>Begin Spectral Data<<<<<
801.071	21930
801.214	21930
801.356	21694
801.499	21534
801.641	21523
801.783	21405
801.926	21386
802.068	21363
802.211	21272
802.353	21180
802.496	21036
802.638	20925
802.78	20849
802.923	20861
803.065	20731
803.208	20720
803.35	20716
803.492	20845
803.635	20872
803.777	20800
803.919	20834
804.061	21055
804.204	20800
804.346	20777
804.488	20579
804.63	20796
804.773	20598
804.915	20659
805.057	20674
805.199	20613
805.341	20720
805.483	20880
805.626	20743
805.768	20575
805.91	20701
806.052	20644
806.194	20621
806.336	20701
806.478	20720
806.62	20526
806.762	20785
806.904	20864
807.046	21100
807.188	21104
807.33	21070
807.472	21020
807.614	20902
807.756	21001
807.898	20724
808.04	20720
808.182	20716
808.324	20804
808.465	20804
808.607	21051
808.749	21058
808.891	21249
809.033	21279
809.174	21062
809.316	21020
809.458	21032
809.6	21032
809.741	21096
809.883	21165
810.025	21203
810.166	21138
810.308	21127
810.45	21104
810.591	21047
810.733	20895
810.875	20785
811.016	20708
811.158	20758
811.299	20739
811.441	20921
811.582	20918
811.724	20819
811.865	20693
812.007	20693
812.148	20754
812.29	20861
812.431	21024
812.573	21100
812.714	21245
812.855	21233
812.997	21382
813.138	21534
813.279	21344
813.421	21272
813.562	21325
813.703	21047
813.845	20933
813.986	20625
814.127	20571
814.268	20454
814.41	20412
814.551	20400
814.692	20408
814.833	20385
814.974	20286
815.115	20351
815.256	20244
815.397	20176
815.539	20218
815.68	20176
815.821	19978
815.962	20111
816.103	19970
816.244	20077
816.385	19879
816.526	19864
816.666	19681
816.807	19533
816.948	19502
817.089	19624
817.23	19521
817.371	19407
817.512	19499
817.653	19491
817.793	19464
817.934	19548
818.075	19445
818.216	19499
818.356	19480
818.497	19259
818.638	19228
818.778	19103
818.919	19118
819.06	19217
819.2	19320
819.341	19301
819.481	19422
819.622	19548
819.762	19693
819.903	19700
820.043	19601
820.184	19460
820.324	19533
820.465	19453
820.605	19548
820.746	19430
820.886	19354
821.026	19407
821.167	19544
821.307	19537
821.447	19324
821.588	19346
821.728	19171
821.868	19076
822.008	18817
822.149	18768
822.289	18840
822.429	18601
822.569	18585
822.709	18593
822.849	18388
822.99	18342
823.13	18372
823.27	18308
823.41	18277
823.55	18140
823.69	18315
823.83	18197
823.97	18125
824.11	17950
824.25	17824
824.389	17942
824.529	18083
824.669	17908
824.809	18053
824.949	18041
825.089	18053
825.228	17992
825.368	17737
825.508	17714
825.648	17737
825.787	17874
825.927	17859
826.067	17680
826.206	17684
826.346	17767
826.485	17756
826.625	17703
826.765	17764
826.904	17684
827.044	17516
827.183	17509
827.323	17395
827.462	17459
827.601	17414
827.741	17391
827.88	17452
828.02	17254
828.159	17440
828.298	17474
828.437	17463
828.577	17395
828.716	17535
828.855	17330
828.994	17200
829.134	17250
829.273	17155
829.412	17124
829.551	17181
829.69	17178
829.829	17235
829.968	17140
830.107	17212
830.246	17189
830.385	17048
830.524	17102
830.663	17117
830.802	16850
830.941	16820
831.08	16801
831.219	16873
831.357	16908
831.496	17018
831.635	16691
831.774	16664
831.913	16584
832.051	16527
832.19	16519
832.329	16569
832.467	16493
832.606	16382
832.744	16409
832.883	16523
833.022	16462
833.16	16443
833.299	16516
833.437	16603
833.576	16504
833.714	16527
833.852	16462
833.991	16577
834.129	16645
834.267	16459
834.406	16447
834.544	16523
834.682	16504
834.821	16550
834.959	16618
835.097	16447
835.235	16664
835.373	16538
835.511	16637
835.65	16516
835.788	16489
835.926	16284
836.064	16303
836.202	16249
836.34	16554
836.478	16599
836.615	16402
836.753	16405
836.891	16516
837.029	16440
837.167	16386
837.305	16402
837.443	16337
837.58	16234
837.718	16402
837.856	16382
837.993	16352
838.131	16310
838.269	16226
838.406	16284
838.544	16169
838.681	16025
838.819	16032
838.956	15884
839.094	15892
839.231	15880
839.369	15949
839.506	16303
839.643	16169
839.781	15819
839.918	15869
840.055	15922
840.193	15930
840.33	15865
840.467	15857
840.604	15827
840.742	16116
840.879	15656
841.016	15663
841.153	15816
841.29	15892
841.427	15842
841.564	15922
841.701	15911
841.838	15804
841.975	15759
842.112	15793
842.249	15656
842.385	15553
842.522	15842
842.659	15713
842.796	15591
842.933	15614
843.069	15679
843.206	15584
843.343	15743
843.479	15739
843.616	15728
843.752	15340
843.889	15386
844.025	15644
844.162	15485
844.298	15511
844.435	15374
844.571	15447
844.708	15473
844.844	15622
844.98	15652
845.117	15526
845.253	15481
845.389	15325
845.525	15412
845.661	15386
845.798	15203
845.934	15298
846.07	15157
846.206	15211
846.342	15397
846.478	15150
846.614	15047
846.75	14883
846.886	15024
847.022	15119
847.158	15020
847.294	14960
847.429	15104
847.565	15058
847.701	15310
847.837	14697
847.972	14682
848.108	14785
848.244	14819
848.379	14575
848.515	14545
848.65	14610
848.786	14526
848.921	14613
849.057	14625
849.192	14667
849.328	14606
849.463	14617
849.598	14602
849.734	14507
849.869	14476
850.004	14450
850.14	14454
850.275	14389
850.41	14259
850.545	14271
850.68	14309
850.815	14393
850.95	14351
851.085	14469
851.22	14514
851.355	14362
851.49	14351
851.625	14358
851.76	14347
851.895	14256
852.03	14237
852.165	14347
852.299	14446
852.434	14385
852.569	14370
852.703	14366
852.838	14355
852.973	14434
853.107	14526
853.242	14332
853.376	14317
853.511	14058
853.645	14138
853.78	14324
853.914	14320
854.048	14202
854.183	14237
854.317	14237
854.451	14476
854.585	14199
854.72	14168
854.854	14336
854.988	14126
855.122	14157
855.256	14180
855.39	14210
855.524	14157
855.658	14233
855.792	14237
855.926	14286
856.06	14355
856.194	14336
856.327	14324
856.461	14271
856.595	14233
856.729	14214
856.862	14298
856.996	14298
857.13	14309
857.263	14332
857.397	14381
857.53	14317
857.664	14320
857.797	14355
857.931	14385
858.064	14191
858.197	14545
858.331	14259
858.464	14096
858.597	14111
858.731	14229
858.864	14248
858.997	14259
859.13	14244
859.263	14282
859.396	14286
859.529	14195
859.662	14157
859.795	14221
859.928	14282
860.061	14339
860.194	14419
860.327	14168
860.46	14237
860.592	14381
860.725	14465
860.858	14415
860.99	14168
861.123	14195
861.256	14191
861.388	14187
861.521	14838
861.653	14180
861.786	14065
861.918	14096
862.05	14195
862.183	14275
862.315	14282
862.447	14275
862.58	14199
862.712	14050
862.844	13925
862.976	14130
863.108	14046
863.24	14358
863.372	13963
863.504	14043
863.636	14115
863.768	14100
863.9	13993
864.032	14058
864.164	13913
864.296	14115
864.428	14172
864.559	14130
864.691	14100
864.823	14100
864.954	14111
865.086	14016
865.217	14020
865.349	13944
865.48	13963
865.612	13986
865.743	14126
865.875	13928
866.006	13986
866.137	14008
866.269	13982
866.4	13993
866.531	13951
866.662	14001
866.793	14046
866.924	13989
867.055	13989
867.186	14001
867.317	14046
867.448	13913
867.579	14005
867.71	13951
867.841	13925
867.972	13963
868.103	14035
868.233	14046
868.364	14008
868.495	14111
868.625	14233
868.756	14427
868.886	14145
869.017	14263
869.147	14408
869.278	14324
869.408	14328
869.539	14229
869.669	14324
869.799	14355
869.929	14400
870.06	14320
870.19	14575
870.32	14541
870.45	14533
870.58	14739
870.71	14872
870.84	14819
870.97	14712
871.1	14602
871.23	14910
871.36	14933
871.489	14727
871.619	14765
871.749	14872
871.879	14910
872.008	14895
872.138	14857
872.267	14910
872.397	14621
872.526	14689
872.656	14682
872.785	14781
872.915	14864
873.044	14937
873.173	14880
873.303	14960
873.432	14998
873.561	14982
873.69	15043
873.819	14902
873.948	14941
874.077	14944
874.206	14880
874.335	14937
874.464	15032
874.593	15176
874.722	15097
874.851	15214
874.979	15211
875.108	15260
875.237	15138
875.365	15218
875.494	15108
875.623	15275
875.751	15169
875.88	15256
876.008	15336
876.136	15473
876.265	15675
876.393	15686
876.521	15679
876.65	15793
876.778	15606
876.906	15652
877.034	15530
877.162	15709
877.29	15545
877.418	15629
877.546	15667
877.674	15545
877.802	15576
877.93	15679
878.058	15644
878.185	15534
878.313	15549
878.441	15663
878.568	15477
878.696	15477
878.824	15584
878.951	15739
879.079	15785
879.206	15918
879.333	15808
879.461	15667
879.588	15797
879.715	15732
879.842	15930
879.97	15778
880.097	15466
880.224	15557
880.351	15519
880.478	15580
880.605	15462
880.732	15488
880.859	15785
880.986	15584
881.112	15572
881.239	15340
881.366	15226
881.493	15154
881.619	15135
881.746	15203
881.872	15112
881.999	15161
882.125	15036
882.252	15237
882.378	15173
882.505	15321
882.631	15097
882.757	14937
882.883	15066
883.01	14990
883.136	14864
883.262	14872
883.388	14838
883.514	14963
883.64	15009
883.766	15020
883.892	14819
884.018	14830
884.143	14956
884.269	15024
884.395	14731
884.52	14682
884.646	14773
884.772	14625
884.897	14602
885.023	14594
885.148	14773
885.274	14777
885.399	14811
885.524	14651
885.65	14731
885.775	14552
885.9	14712
886.025	14724
886.15	14697
886.275	14602
886.4	14564
886.525	14568
886.65	14686
886.775	14617
886.9	14807
887.025	14826
887.149	14739
887.274	14667
887.399	14499
887.523	14598
887.648	14438
887.773	14396
887.897	14514
888.021	14583
888.146	14427
888.27	14606
888.395	14545
888.519	14522
888.643	14518
888.767	14621
888.891	14385
889.015	14343
889.139	14370
889.263	14358
889.387	14568
889.511	14484
889.635	14385
889.759	14389
889.883	14248
890.006	14377
890.13	14507
890.254	14301
890.377	14298
890.501	14103
890.624	14172
890.748	14229
890.871	14126
890.995	13986
891.118	14005
891.241	14100
891.364	14065
891.488	14077
891.611	14069
891.734	14111
891.857	14096
891.98	14161
892.103	14046
892.226	14145
892.349	14016
892.471	14024
892.594	13997
892.717	14058
892.839	14027
892.962	13967
893.085	14046
893.207	14024
893.33	13928
893.452	14039
893.575	14039
893.697	14024
893.819	14259
893.941	14305
894.064	14172
894.186	14054
894.308	14134
894.43	14153
894.552	14282
894.674	14214
894.796	14020
894.918	14084
895.04	14084
895.161	14138
895.283	14199
895.405	14115
895.526	14164
895.648	14123
895.769	14271
895.891	14259
896.012	14172
896.134	14271
896.255	14225
896.376	14161
896.498	14187
896.619	14263
896.74	14153
896.861	14366
896.982	14545
897.103	14788
897.224	14564
897.345	14469
897.466	14587
897.587	14473
897.708	14610
897.828	14499
897.949	14492
898.07	14400
898.19	14511
898.311	14705
898.431	14442
898.552	14640
898.672	14610
898.792	14674
898.913	14606
899.033	14575
899.153	14484
899.273	14374
899.393	14457
899.513	14457
899.633	14446
899.753	14476
899.873	14263
899.993	14526
900.113	14473
900.232	14537
900.352	14381
900.472	14415
900.591	14244
900.711	14267
900.83	14267
900.95	14389
901.069	14324
901.189	14278
901.308	13978
901.427	13970
901.546	13967
901.665	13951
901.784	14065
901.904	13860
902.023	13826
902.141	13590
902.26	13544
902.379	13636
902.498	13548
902.617	13441
902.735	13662
902.854	13533
902.973	13506
903.091	13251
903.21	13369
903.328	13270
903.446	13232
903.565	13152
903.683	13149
903.801	13076
903.919	13107
904.038	13164
904.156	12951
904.274	13012
904.392	12894
904.51	12947
904.627	12973
904.745	12985
904.863	13019
904.981	12654
905.098	12608
905.216	12582
905.334	12669
905.451	12726
905.569	12650
905.686	12677
905.803	12658
905.921	12483
906.038	12547
906.155	12467
906.272	12384
906.389	12353
906.506	12228
906.623	12334
906.74	12266
906.857	12155
906.974	12178
907.091	12346
907.208	12346
907.324	12243
907.441	12114
907.557	12015
907.674	11996
907.79	11893
907.907	11821
908.023	12011
908.139	11999
908.256	11889
908.372	11927
908.488	11904
908.604	11756
908.72	11741
908.836	11760
908.952	11642
909.068	11710
909.184	11805
909.3	11665
909.415	11809
909.531	11741
909.647	11509
909.762	11501
909.878	11512
909.993	11486
910.108	11619
910.224	11509
910.339	11482
910.454	11379
910.57	11349
910.685	11265
910.8	11649
910.915	11570
911.03	11349
911.145	11223
911.259	11216
911.374	11201
911.489	11132
911.604	11064
911.718	10991
911.833	10930
911.947	10862
912.062	10809
912.176	10923
912.291	10987
912.405	10911
912.519	11098
912.633	11170
912.748	10938
912.862	10995
912.976	10839
913.09	10691
913.204	10767
913.318	10809
913.431	10885
913.545	10949
913.659	10976
913.772	10797
913.886	10706
914	10755
914.113	10797
914.226	10839
914.34	10748
914.453	10656
914.566	10759
914.68	10698
914.793	10656
914.906	10440
915.019	10375
915.132	10394
915.245	10447
915.358	10360
915.47	10428
915.583	10519
915.696	10512
915.809	10641
915.921	10611
916.034	10409
916.146	10424
916.259	10367
916.371	10504
916.483	10455
916.595	10329
916.708	10375
916.82	10348
916.932	10402
917.044	10303
917.156	10287
917.268	10268
917.38	10310
917.491	10284
917.603	10322
917.715	10409
917.826	10367
917.938	10306
918.049	10253
918.161	10295
918.272	10481
918.384	10421
918.495	10303
918.606	10177
918.717	10143
918.828	10211
918.939	10257
919.05	10131
919.161	10135
919.272	10021
919.383	10010
919.494	10169
919.604	10363
919.715	10230
919.826	10112
919.936	10154
920.047	10227
920.157	10188
920.267	10390
920.378	10318
920.488	10219
920.598	10428
920.708	10611
920.818	10310
920.928	10379
921.038	10565
921.148	10508
921.258	10238
921.368	10154
921.477	10181
921.587	10010
921.697	9899
921.806	10112
921.916	9915
922.025	9698
922.134	9724
922.244	9701
922.353	9823
922.462	9675
922.571	9610
922.68	9447
922.789	9462
922.898	9443
923.007	9374
923.116	9523
923.224	9405
923.333	9408
923.442	9302
923.55	9344
923.659	9302
923.767	9386
923.876	9287
923.984	9397
924.092	9279
924.201	9302
924.309	9275
924.417	9363
924.525	9226
924.633	9275
924.741	10207
924.849	9119
924.956	9241
925.064	9017
925.172	8937
925.279	9100
925.387	9097
925.494	9123
925.602	9230
925.709	9142
925.816	9001
925.924	9058
926.031	9233
926.138	9184
926.245	9097
926.352	9123
926.459	9150
926.566	9272
926.673	9066
926.779	8990
926.886	8998
926.993	8887
927.099	8868
927.206	8724
927.312	8655
927.419	8868
927.525	8785
927.631	8861
927.737	8670
927.843	8731
927.95	8678
928.056	8804
928.162	8758
928.267	8819
928.373	9408
928.479	8823
928.585	8560
928.69	8758
928.796	8754
928.901	8537
929.007	8522
929.112	8564
929.218	8587
929.323	8556
929.428	8503
929.533	8708
929.638	8503
929.743	8564
929.848	8594
929.953	8537
930.058	8393
930.163	8259
930.267	8332
930.372	8431
930.477	8309
930.581	8514
930.685	8396
930.79	8263
930.894	8313
930.998	8259
931.103	8396
931.207	8012
931.311	7982
931.415	7947
931.519	7788
931.623	7761
