Data from test_V78500241_1978.txt Node
Date: Fri Mar 25 14:47:29 CST 2022
User: usil
Spectrometer: V785-0024
Trigger mode: 0
Integration Time (sec): 4.000000E-1
Scans to average: 1
Nonlinearity correction enabled: false
Boxcar width: 0
Storing dark spectrum: false
XAxis mode: Wavelengths
Number of Pixels in Spectrum: 1024
>>>>>Begin Spectral Data<<<<<
801.071	22112
801.214	22082
801.356	21728
801.499	21641
801.641	21504
801.783	21504
801.926	21431
802.068	21431
802.211	21466
802.353	21211
802.496	21123
802.638	20979
802.78	20941
802.923	20838
803.065	20689
803.208	20781
803.35	20743
803.492	20868
803.635	20842
803.777	20815
803.919	20830
804.061	21085
804.204	20807
804.346	20792
804.488	20800
804.63	20796
804.773	20708
804.915	20807
805.057	20857
805.199	20663
805.341	20765
805.483	20941
805.626	20781
805.768	20514
805.91	20788
806.052	20720
806.194	20621
806.336	20861
806.478	20708
806.62	20659
806.762	20746
806.904	20891
807.046	21150
807.188	21077
807.33	21142
807.472	21062
807.614	21001
807.756	20967
807.898	20830
808.04	20686
808.182	20804
808.324	20823
808.465	20891
808.607	20967
808.749	20990
808.891	21112
809.033	21344
809.174	21302
809.316	21032
809.458	21123
809.6	21070
809.741	21207
809.883	21283
810.025	21302
810.166	21249
810.308	21294
810.45	21116
810.591	21032
810.733	20963
810.875	20960
811.016	20823
811.158	20727
811.299	20792
811.441	20998
811.582	21001
811.724	20918
811.865	20807
812.007	20819
812.148	20868
812.29	20796
812.431	20994
812.573	21154
812.714	21226
812.855	21374
812.997	21576
813.138	21690
813.279	21363
813.421	21424
813.562	21317
813.703	21207
813.845	20952
813.986	20625
814.127	20522
814.268	20286
814.41	20374
814.551	20446
814.692	20450
814.833	20301
814.974	20278
815.115	20431
815.256	20267
815.397	20290
815.539	20168
815.68	20077
815.821	20134
815.962	20229
816.103	20077
816.244	19913
816.385	19974
816.526	19811
816.666	19681
816.807	19502
816.948	19540
817.089	19685
817.23	19620
817.371	19533
817.512	19658
817.653	19384
817.793	19468
817.934	19502
818.075	19514
818.216	19510
818.356	19434
818.497	19278
818.638	19171
818.778	19206
818.919	19304
819.06	19346
819.2	19464
819.341	19441
819.481	19464
819.622	19559
819.762	19677
819.903	19571
820.043	19628
820.184	19476
820.324	19586
820.465	19445
820.605	19491
820.746	19499
820.886	19411
821.026	19472
821.167	19411
821.307	19578
821.447	19548
821.588	19373
821.728	19095
821.868	19137
822.008	19012
822.149	18894
822.289	18848
822.429	18616
822.569	18555
822.709	18658
822.849	18456
822.99	18365
823.13	18422
823.27	18407
823.41	18243
823.55	18163
823.69	18266
823.83	18186
823.97	18163
824.11	17973
824.25	17870
824.389	18003
824.529	18102
824.669	17999
824.809	18095
824.949	18007
825.089	18068
825.228	17942
825.368	17832
825.508	17726
825.648	17855
825.787	17767
825.927	17775
826.067	17653
826.206	17665
826.346	17798
826.485	17863
826.625	17748
826.765	17783
826.904	17752
827.044	17509
827.183	17589
827.323	17448
827.462	17474
827.601	17478
827.741	17414
827.88	17547
828.02	17387
828.159	17474
828.298	17436
828.437	17562
828.577	17429
828.716	17554
828.855	17364
828.994	17315
829.134	17223
829.273	17227
829.412	17140
829.551	17246
829.69	17155
829.829	17242
829.968	17368
830.107	17330
830.246	17174
830.385	17200
830.524	17162
830.663	17033
830.802	17094
830.941	16809
831.08	16915
831.219	16968
831.357	16835
831.496	17025
831.635	16854
831.774	16733
831.913	16691
832.051	16679
832.19	16596
832.329	16675
832.467	16630
832.606	16485
832.744	16618
832.883	16592
833.022	16470
833.16	16607
833.299	16596
833.437	16637
833.576	16626
833.714	16679
833.852	16641
833.991	16668
834.129	16649
834.267	16634
834.406	16558
834.544	16538
834.682	16668
834.821	16573
834.959	16797
835.097	16596
835.235	16660
835.373	16664
835.511	16611
835.65	16634
835.788	16497
835.926	16371
836.064	16276
836.202	16375
836.34	16546
836.478	16713
836.615	16470
836.753	16569
836.891	16588
837.029	16626
837.167	16432
837.305	16512
837.443	16409
837.58	16306
837.718	16455
837.856	16421
837.993	16348
838.131	16379
838.269	16375
838.406	16367
838.544	16310
838.681	16158
838.819	15987
838.956	15968
839.094	15892
839.231	15949
839.369	16101
839.506	16322
839.643	16188
839.781	16029
839.918	15861
840.055	16048
840.193	15998
840.33	15934
840.467	15895
840.604	16051
840.742	16318
840.879	15774
841.016	15873
841.153	15888
841.29	16044
841.427	15934
841.564	16036
841.701	16010
841.838	15926
841.975	16002
842.112	15918
842.249	15854
842.385	15660
842.522	15861
842.659	15785
842.796	15709
842.933	15766
843.069	15728
843.206	15572
843.343	15755
843.479	15751
843.616	15770
843.752	15545
843.889	15542
844.025	15656
844.162	15416
844.298	15675
844.435	15504
844.571	15401
844.708	15572
844.844	15614
844.98	15690
845.117	15644
845.253	15511
845.389	15393
845.525	15526
845.661	15355
845.798	15291
845.934	15428
846.07	15218
846.206	15317
846.342	15382
846.478	15351
846.614	15146
846.75	15036
846.886	15074
847.022	15146
847.158	15081
847.294	15211
847.429	15154
847.565	15062
847.701	15382
847.837	14807
847.972	14861
848.108	14918
848.244	14899
848.379	14644
848.515	14727
848.65	14564
848.786	14731
848.921	14720
849.057	14705
849.192	14731
849.328	14743
849.463	14625
849.598	14724
849.734	14602
849.869	14598
850.004	14492
850.14	14495
850.275	14511
850.41	14404
850.545	14450
850.68	14461
850.815	14461
850.95	14385
851.085	14678
851.22	14587
851.355	14355
851.49	14461
851.625	14400
851.76	14332
851.895	14328
852.03	14248
852.165	14305
852.299	14442
852.434	14503
852.569	14400
852.703	14442
852.838	14446
852.973	14583
853.107	14636
853.242	14317
853.376	14317
853.511	14199
853.645	14381
853.78	14385
853.914	14366
854.048	14332
854.183	14298
854.317	14301
854.451	14480
854.585	14290
854.72	14313
854.854	14385
854.988	14233
855.122	14309
855.256	14187
855.39	14240
855.524	14396
855.658	14446
855.792	14355
855.926	14305
856.06	14343
856.194	14450
856.327	14225
856.461	14301
856.595	14305
856.729	14221
856.862	14400
856.996	14328
857.13	14404
857.263	14514
857.397	14400
857.53	14370
857.664	14355
857.797	14320
857.931	14461
858.064	14393
858.197	14423
858.331	14339
858.464	14259
858.597	14202
858.731	14320
858.864	14278
858.997	14290
859.13	14355
859.263	14385
859.396	14267
859.529	14199
859.662	14244
859.795	14294
859.928	14317
860.061	14476
860.194	14450
860.327	14431
860.46	14332
860.592	14438
860.725	14507
860.858	14450
860.99	14267
861.123	14259
861.256	14328
861.388	14366
861.521	14982
861.653	14183
861.786	14180
861.918	14191
862.05	14210
862.183	14244
862.315	14199
862.447	14385
862.58	14282
862.712	14024
862.844	14016
862.976	14237
863.108	14199
863.24	14499
863.372	13982
863.504	14065
863.636	14096
863.768	14221
863.9	14035
864.032	14100
864.164	14142
864.296	14130
864.428	14157
864.559	14183
864.691	14164
864.823	14058
864.954	14153
865.086	14088
865.217	13986
865.349	14046
865.48	14031
865.612	14062
865.743	14210
865.875	14073
866.006	14092
866.137	14058
866.269	14123
866.4	14145
866.531	14103
866.662	14050
866.793	13913
866.924	14062
867.055	14077
867.186	14130
867.317	14084
867.448	14035
867.579	14031
867.71	14069
867.841	13963
867.972	14111
868.103	14065
868.233	14233
868.364	14168
868.495	14164
868.625	14339
868.756	14480
868.886	14183
869.017	14305
869.147	14366
869.278	14427
869.408	14366
869.539	14374
869.669	14381
869.799	14328
869.929	14492
870.06	14442
870.19	14689
870.32	14651
870.45	14590
870.58	14712
870.71	14830
870.84	14800
870.97	14720
871.1	14705
871.23	14910
871.36	14952
871.489	14849
871.619	14902
871.749	14952
871.879	15024
872.008	15001
872.138	14910
872.267	14876
872.397	14804
872.526	14788
872.656	14674
872.785	14800
872.915	14956
873.044	14963
873.173	14902
873.303	15039
873.432	15020
873.561	15066
873.69	14967
873.819	15009
873.948	14971
874.077	15032
874.206	14895
874.335	14914
874.464	15051
874.593	15233
874.722	15214
874.851	15340
874.979	15405
875.108	15256
875.237	15272
875.365	15230
875.494	15272
875.623	15306
875.751	15142
875.88	15332
876.008	15466
876.136	15523
876.265	15762
876.393	15797
876.521	15865
876.65	15827
876.778	15694
876.906	15713
877.034	15606
877.162	15751
877.29	15622
877.418	15667
877.546	15720
877.674	15675
877.802	15656
877.93	15622
878.058	15671
878.185	15576
878.313	15663
878.441	15671
878.568	15599
878.696	15717
878.824	15747
878.951	15736
879.079	15892
879.206	16006
879.333	15865
879.461	15709
879.588	15633
879.715	15949
879.842	16010
879.97	15793
880.097	15587
880.224	15553
880.351	15591
880.478	15515
880.605	15420
880.732	15587
880.859	15831
880.986	15686
881.112	15580
881.239	15443
881.366	15351
881.493	15226
881.619	15142
881.746	15283
881.872	15218
881.999	15283
882.125	15138
882.252	15218
882.378	15256
882.505	15382
882.631	15169
882.757	14952
882.883	15173
883.01	14967
883.136	14998
883.262	14899
883.388	14899
883.514	15085
883.64	15039
883.766	15077
883.892	14929
884.018	14902
884.143	15036
884.269	15058
884.395	14762
884.52	14682
884.646	14727
884.772	14659
884.897	14716
885.023	14670
885.148	14834
885.274	14838
885.399	14960
885.524	14746
885.65	14674
885.775	14838
885.9	14682
886.025	14895
886.15	14834
886.275	14716
886.4	14556
886.525	14682
886.65	14659
886.775	14670
886.9	14857
887.025	14921
887.149	14777
887.274	14575
887.399	14488
887.523	14514
887.648	14480
887.773	14492
887.897	14629
888.021	14625
888.146	14522
888.27	14640
888.395	14693
888.519	14590
888.643	14739
888.767	14583
888.891	14545
889.015	14423
889.139	14351
889.263	14431
889.387	14461
889.511	14636
889.635	14556
889.759	14499
889.883	14339
890.006	14488
890.13	14522
890.254	14294
890.377	14282
890.501	14210
890.624	14191
890.748	14332
890.871	14145
890.995	14126
891.118	14065
891.241	14077
891.364	14161
891.488	14275
891.611	14142
891.734	14073
891.857	14195
891.98	14164
892.103	14271
892.226	14164
892.349	14214
892.471	14020
892.594	14157
892.717	14153
892.839	14126
892.962	14161
893.085	14161
893.207	14103
893.33	14081
893.452	14073
893.575	14214
893.697	14043
893.819	14290
893.941	14313
894.064	14358
894.186	14073
894.308	14111
894.43	14214
894.552	14298
894.674	14195
894.796	14081
894.918	14240
895.04	14259
895.161	14263
895.283	14180
895.405	14187
895.526	14221
895.648	14225
895.769	14324
895.891	14248
896.012	14324
896.134	14438
896.255	14324
896.376	14286
896.498	14351
896.619	14298
896.74	14263
896.861	14442
896.982	14629
897.103	14941
897.224	14594
897.345	14415
897.466	14442
897.587	14530
897.708	14686
897.828	14659
897.949	14617
898.07	14362
898.19	14423
898.311	14636
898.431	14594
898.552	14560
898.672	14796
898.792	14754
898.913	14621
899.033	14621
899.153	14514
899.273	14389
899.393	14393
899.513	14495
899.633	14503
899.753	14537
899.873	14434
899.993	14621
900.113	14473
900.232	14530
900.352	14400
900.472	14473
900.591	14294
900.711	14332
900.83	14385
900.95	14465
901.069	14431
901.189	14259
901.308	14035
901.427	14035
901.546	13951
901.665	14008
901.784	14035
901.904	13925
902.023	13982
902.141	13575
902.26	13605
902.379	13666
902.498	13544
902.617	13548
902.735	13578
902.854	13613
902.973	13533
903.091	13365
903.21	13339
903.328	13320
903.446	13270
903.565	13179
903.683	13175
903.801	13156
903.919	13050
904.038	13122
904.156	13042
904.274	13031
904.392	13019
904.51	12951
904.627	12920
904.745	13034
904.863	13004
904.981	12825
905.098	12700
905.216	12696
905.334	12753
905.451	12738
905.569	12627
905.686	12711
905.803	12719
905.921	12620
906.038	12658
906.155	12502
906.272	12437
906.389	12429
906.506	12315
906.623	12319
906.74	12388
906.857	12175
906.974	12152
907.091	12395
907.208	12361
907.324	12243
907.441	12205
907.557	12060
907.674	11935
907.79	11946
907.907	11969
908.023	12136
908.139	11893
908.256	12072
908.372	11942
908.488	11939
908.604	11855
908.72	11752
908.836	11760
908.952	11779
909.068	11771
909.184	11878
909.3	11802
909.415	11855
909.531	11836
909.647	11634
909.762	11528
909.878	11482
909.993	11585
910.108	11551
910.224	11444
910.339	11543
910.454	11474
910.57	11414
910.685	11345
910.8	11585
910.915	11611
911.03	11440
911.145	11345
911.259	11318
911.374	11334
911.489	11147
911.604	11014
911.718	11136
911.833	11014
911.947	10904
912.062	10839
912.176	11105
912.291	11109
912.405	11037
912.519	11170
912.633	11178
912.748	11037
912.862	11022
912.976	10843
913.09	10828
913.204	10892
913.318	10934
913.431	10953
913.545	10927
913.659	10915
913.772	10866
913.886	10736
914	10733
914.113	10831
914.226	10919
914.34	10892
914.453	10664
914.566	10858
914.68	10740
914.793	10752
914.906	10592
915.019	10561
915.132	10417
915.245	10519
915.358	10516
915.47	10512
915.583	10618
915.696	10660
915.809	10702
915.921	10611
916.034	10424
916.146	10402
916.259	10367
916.371	10519
916.483	10531
916.595	10398
916.708	10451
916.82	10424
916.932	10432
917.044	10481
917.156	10390
917.268	10310
917.38	10356
917.491	10265
917.603	10428
917.715	10409
917.826	10436
917.938	10402
918.049	10219
918.161	10265
918.272	10504
918.384	10493
918.495	10386
918.606	10215
918.717	10078
918.828	10238
918.939	10192
919.05	10131
919.161	10204
919.272	10036
919.383	10143
919.494	10242
919.604	10462
919.715	10265
919.826	10177
919.936	10139
920.047	10363
920.157	10306
920.267	10478
920.378	10204
920.488	10211
920.598	10443
920.708	10519
920.818	10493
920.928	10451
921.038	10550
921.148	10569
921.258	10291
921.368	10204
921.477	10116
921.587	10131
921.697	9991
921.806	10013
921.916	9956
922.025	9895
922.134	9827
922.244	9770
922.353	9827
922.462	9751
922.571	9629
922.68	9485
922.789	9450
922.898	9530
923.007	9447
923.116	9545
923.224	9530
923.333	9511
923.442	9447
923.55	9340
923.659	9408
923.767	9420
923.876	9348
923.984	9405
924.092	9306
924.201	9386
924.309	9393
924.417	9393
924.525	9302
924.633	9321
924.741	10230
924.849	9085
924.956	9268
925.064	9154
925.172	9062
925.279	9085
925.387	9116
925.494	9199
925.602	9294
925.709	9264
925.816	9089
925.924	9207
926.031	9226
926.138	9154
926.245	9195
926.352	9077
926.459	9214
926.566	9195
926.673	9009
926.779	8998
926.886	9005
926.993	8838
927.099	8899
927.206	8762
927.312	8815
927.419	8868
927.525	8868
927.631	8899
927.737	8830
927.843	8743
927.95	8625
928.056	8682
928.162	8697
928.267	8785
928.373	9370
928.479	8872
928.585	8663
928.69	8758
928.796	8785
928.901	8651
929.007	8522
929.112	8682
929.218	8651
929.323	8602
929.428	8545
929.533	8739
929.638	8492
929.743	8568
929.848	8598
929.953	8556
930.058	8465
930.163	8381
930.267	8374
930.372	8492
930.477	8339
930.581	8545
930.685	8396
930.79	8282
930.894	8385
930.998	8263
931.103	8396
931.207	8046
931.311	7993
931.415	8024
931.519	7750
931.623	7799
