Data from test_V78500241_2712.txt Node
Date: Fri Mar 25 14:52:35 CST 2022
User: usil
Spectrometer: V785-0024
Trigger mode: 0
Integration Time (sec): 4.000000E-1
Scans to average: 1
Nonlinearity correction enabled: false
Boxcar width: 0
Storing dark spectrum: false
XAxis mode: Wavelengths
Number of Pixels in Spectrum: 1024
>>>>>Begin Spectral Data<<<<<
801.071	21972
801.214	21861
801.356	21698
801.499	21644
801.641	21481
801.783	21283
801.926	21275
802.068	21408
802.211	21268
802.353	21089
802.496	21047
802.638	20967
802.78	20902
802.923	20754
803.065	20678
803.208	20705
803.35	20800
803.492	20868
803.635	20826
803.777	20663
803.919	20712
804.061	21081
804.204	20739
804.346	20663
804.488	20606
804.63	20629
804.773	20613
804.915	20667
805.057	20724
805.199	20598
805.341	20708
805.483	20777
805.626	20716
805.768	20564
805.91	20670
806.052	20636
806.194	20511
806.336	20682
806.478	20583
806.62	20533
806.762	20716
806.904	20792
807.046	21024
807.188	20994
807.33	20975
807.472	20967
807.614	20781
807.756	20777
807.898	20731
808.04	20720
808.182	20724
808.324	20682
808.465	20781
808.607	20815
808.749	20925
808.891	21085
809.033	21169
809.174	21108
809.316	20979
809.458	20933
809.6	20998
809.741	21070
809.883	21112
810.025	21173
810.166	21077
810.308	21108
810.45	21116
810.591	20944
810.733	20899
810.875	20777
811.016	20636
811.158	20705
811.299	20864
811.441	20773
811.582	20963
811.724	20800
811.865	20849
812.007	20686
812.148	20765
812.29	20754
812.431	20998
812.573	21039
812.714	21135
812.855	21306
812.997	21245
813.138	21492
813.279	21485
813.421	21237
813.562	21039
813.703	21112
813.845	20906
813.986	20636
814.127	20537
814.268	20317
814.41	20434
814.551	20408
814.692	20347
814.833	20191
814.974	20221
815.115	20324
815.256	20180
815.397	20111
815.539	20252
815.68	19944
815.821	19989
815.962	19993
816.103	19955
816.244	19887
816.385	19799
816.526	19655
816.666	19578
816.807	19483
816.948	19521
817.089	19453
817.23	19552
817.371	19377
817.512	19480
817.653	19339
817.793	19324
817.934	19403
818.075	19453
818.216	19388
818.356	19403
818.497	19209
818.638	19175
818.778	19168
818.919	19107
819.06	19168
819.2	19171
819.341	19251
819.481	19289
819.622	19590
819.762	19628
819.903	19537
820.043	19502
820.184	19274
820.324	19384
820.465	19426
820.605	19419
820.746	19411
820.886	19301
821.026	19358
821.167	19480
821.307	19346
821.447	19320
821.588	19285
821.728	19152
821.868	18943
822.008	18859
822.149	18787
822.289	18726
822.429	18532
822.569	18490
822.709	18551
822.849	18308
822.99	18281
823.13	18330
823.27	18209
823.41	18174
823.55	18087
823.69	18125
823.83	18098
823.97	17996
824.11	17961
824.25	17859
824.389	17904
824.529	18072
824.669	17935
824.809	17973
824.949	18015
825.089	17939
825.228	17935
825.368	17733
825.508	17733
825.648	17687
825.787	17657
825.927	17729
826.067	17608
826.206	17699
826.346	17646
826.485	17760
826.625	17638
826.765	17783
826.904	17611
827.044	17414
827.183	17398
827.323	17353
827.462	17425
827.601	17478
827.741	17322
827.88	17269
828.02	17174
828.159	17254
828.298	17376
828.437	17395
828.577	17337
828.716	17436
828.855	17284
828.994	17147
829.134	17246
829.273	17102
829.412	17022
829.551	17136
829.69	17098
829.829	17105
829.968	17265
830.107	17212
830.246	17090
830.385	16999
830.524	16976
830.663	16896
830.802	16759
830.941	16736
831.08	16634
831.219	16778
831.357	16812
831.496	16980
831.635	16664
831.774	16634
831.913	16618
832.051	16542
832.19	16512
832.329	16622
832.467	16398
832.606	16276
832.744	16413
832.883	16459
833.022	16318
833.16	16413
833.299	16535
833.437	16356
833.576	16485
833.714	16436
833.852	16493
833.991	16474
834.129	16554
834.267	16588
834.406	16466
834.544	16561
834.682	16596
834.821	16519
834.959	16706
835.097	16424
835.235	16675
835.373	16512
835.511	16542
835.65	16409
835.788	16363
835.926	16280
836.064	16147
836.202	16154
836.34	16436
836.478	16466
836.615	16306
836.753	16417
836.891	16451
837.029	16459
837.167	16333
837.305	16314
837.443	16177
837.58	16276
837.718	16413
837.856	16310
837.993	16177
838.131	16272
838.269	16139
838.406	16257
838.544	16173
838.681	15987
838.819	16025
838.956	15793
839.094	15903
839.231	15884
839.369	16071
839.506	16200
839.643	16105
839.781	15861
839.918	15785
840.055	15774
840.193	15846
840.33	15785
840.467	15892
840.604	15781
840.742	16143
840.879	15717
841.016	15713
841.153	15778
841.29	16006
841.427	15880
841.564	15842
841.701	15838
841.838	15800
841.975	15736
842.112	15816
842.249	15690
842.385	15614
842.522	15850
842.659	15526
842.796	15591
842.933	15682
843.069	15542
843.206	15606
843.343	15755
843.479	15720
843.616	15603
843.752	15439
843.889	15397
844.025	15538
844.162	15291
844.298	15511
844.435	15420
844.571	15428
844.708	15492
844.844	15477
844.98	15545
845.117	15519
845.253	15367
845.389	15291
845.525	15405
845.661	15214
845.798	15180
845.934	15176
846.07	15176
846.206	15306
846.342	15279
846.478	15233
846.614	14998
846.75	15020
846.886	14910
847.022	15150
847.158	14994
847.294	14963
847.429	15108
847.565	14960
847.701	15313
847.837	14727
847.972	14602
848.108	14800
848.244	14857
848.379	14682
848.515	14454
848.65	14560
848.786	14533
848.921	14549
849.057	14621
849.192	14693
849.328	14590
849.463	14636
849.598	14511
849.734	14488
849.869	14492
850.004	14400
850.14	14404
850.275	14362
850.41	14267
850.545	14347
850.68	14290
850.815	14328
850.95	14377
851.085	14621
851.22	14450
851.355	14343
851.49	14370
851.625	14362
851.76	14317
851.895	14294
852.03	14210
852.165	14248
852.299	14408
852.434	14461
852.569	14381
852.703	14358
852.838	14419
852.973	14484
853.107	14507
853.242	14336
853.376	14229
853.511	14221
853.645	14043
853.78	14336
853.914	14180
854.048	14142
854.183	14191
854.317	14164
854.451	14408
854.585	14210
854.72	14191
854.854	14320
854.988	14149
855.122	14126
855.256	14111
855.39	14115
855.524	14263
855.658	14404
855.792	14240
855.926	14336
856.06	14218
856.194	14377
856.327	14252
856.461	14168
856.595	14123
856.729	14282
856.862	14271
856.996	14339
857.13	14248
857.263	14233
857.397	14370
857.53	14096
857.664	14271
857.797	14317
857.931	14343
858.064	14271
858.197	14362
858.331	14267
858.464	14153
858.597	14081
858.731	14237
858.864	14240
858.997	14172
859.13	14191
859.263	14290
859.396	14320
859.529	14199
859.662	14138
859.795	14088
859.928	14252
860.061	14393
860.194	14389
860.327	14286
860.46	14214
860.592	14256
860.725	14419
860.858	14434
860.99	14210
861.123	14138
861.256	14237
861.388	14202
861.521	14785
861.653	14119
861.786	13951
861.918	13925
862.05	14088
862.183	14187
862.315	14138
862.447	14332
862.58	14225
862.712	14024
862.844	13959
862.976	14058
863.108	14115
863.24	14465
863.372	13955
863.504	14016
863.636	13974
863.768	14100
863.9	13967
864.032	13902
864.164	13993
864.296	14005
864.428	14069
864.559	14073
864.691	14183
864.823	14043
864.954	14012
865.086	13986
865.217	14050
865.349	13898
865.48	14001
865.612	14100
865.743	14168
865.875	13978
866.006	13951
866.137	13989
866.269	14016
866.4	14020
866.531	13925
866.662	13955
866.793	13936
866.924	13913
867.055	13925
867.186	13917
867.317	13902
867.448	13909
867.579	13849
867.71	13868
867.841	13932
867.972	13928
868.103	13993
868.233	14043
868.364	13974
868.495	14005
868.625	14229
868.756	14298
868.886	14123
869.017	14278
869.147	14324
869.278	14336
869.408	14172
869.539	14267
869.669	14278
869.799	14336
869.929	14332
870.06	14347
870.19	14541
870.32	14545
870.45	14503
870.58	14549
870.71	14796
870.84	14743
870.97	14659
871.1	14613
871.23	14838
871.36	14876
871.489	14682
871.619	14804
871.749	14785
871.879	14857
872.008	14914
872.138	14823
872.267	14838
872.397	14750
872.526	14651
872.656	14625
872.785	14594
872.915	14876
873.044	14921
873.173	14800
873.303	14864
873.432	14906
873.561	14910
873.69	14765
873.819	14899
873.948	15005
874.077	14937
874.206	14876
874.335	14902
874.464	15001
874.593	15199
874.722	15085
874.851	15180
874.979	15112
875.108	15127
875.237	15176
875.365	15135
875.494	15203
875.623	15359
875.751	15188
875.88	15264
876.008	15351
876.136	15435
876.265	15526
876.393	15743
876.521	15732
876.65	15690
876.778	15614
876.906	15572
877.034	15454
877.162	15694
877.29	15542
877.418	15663
877.546	15690
877.674	15739
877.802	15656
877.93	15545
878.058	15549
878.185	15519
878.313	15584
878.441	15599
878.568	15473
878.696	15542
878.824	15701
878.951	15610
879.079	15785
879.206	15827
879.333	15717
879.461	15705
879.588	15701
879.715	15743
879.842	15823
879.97	15705
880.097	15386
880.224	15469
880.351	15408
880.478	15431
880.605	15401
880.732	15488
880.859	15717
880.986	15481
881.112	15401
881.239	15355
881.366	15192
881.493	15222
881.619	15116
881.746	15116
881.872	15150
881.999	15127
882.125	15180
882.252	15142
882.378	15245
882.505	15249
882.631	15100
882.757	14990
882.883	15017
883.01	14910
883.136	14918
883.262	14746
883.388	14819
883.514	14921
883.64	14880
883.766	14937
883.892	14781
884.018	14815
884.143	14899
884.269	15032
884.395	14727
884.52	14705
884.646	14701
884.772	14606
884.897	14594
885.023	14758
885.148	14693
885.274	14861
885.399	14785
885.524	14583
885.65	14655
885.775	14785
885.9	14640
886.025	14758
886.15	14648
886.275	14579
886.4	14568
886.525	14594
886.65	14541
886.775	14568
886.9	14678
887.025	14914
887.149	14632
887.274	14473
887.399	14495
887.523	14389
887.648	14469
887.773	14374
887.897	14587
888.021	14457
888.146	14438
888.27	14503
888.395	14659
888.519	14533
888.643	14514
888.767	14560
888.891	14351
889.015	14339
889.139	14427
889.263	14294
889.387	14507
889.511	14610
889.635	14396
889.759	14294
889.883	14271
890.006	14355
890.13	14446
890.254	14199
890.377	14313
890.501	14267
890.624	14225
890.748	14180
890.871	14073
890.995	14031
891.118	13906
891.241	14054
891.364	13989
891.488	14172
891.611	14046
891.734	13993
891.857	14111
891.98	14088
892.103	14161
892.226	14039
892.349	14005
892.471	13951
892.594	14077
892.717	14134
892.839	14065
892.962	14130
893.085	14191
893.207	14077
893.33	13967
893.452	14050
893.575	14092
893.697	14062
893.819	14225
893.941	14225
894.064	14218
894.186	14088
894.308	14062
894.43	14138
894.552	14256
894.674	14229
894.796	14005
894.918	14130
895.04	14043
895.161	14176
895.283	14229
895.405	14092
895.526	14096
895.648	14142
895.769	14237
895.891	14221
896.012	14301
896.134	14278
896.255	14164
896.376	14103
896.498	14278
896.619	14259
896.74	14278
896.861	14286
896.982	14480
897.103	14663
897.224	14560
897.345	14476
897.466	14442
897.587	14427
897.708	14617
897.828	14564
897.949	14461
898.07	14438
898.19	14450
898.311	14511
898.431	14438
898.552	14526
898.672	14689
898.792	14716
898.913	14621
899.033	14480
899.153	14415
899.273	14400
899.393	14476
899.513	14461
899.633	14415
899.753	14412
899.873	14362
899.993	14454
900.113	14484
900.232	14507
900.352	14408
900.472	14347
900.591	14278
900.711	14377
900.83	14202
900.95	14457
901.069	14358
901.189	14282
901.308	13951
901.427	13906
901.546	14024
901.665	13970
901.784	13978
901.904	13902
902.023	13757
902.141	13506
902.26	13590
902.379	13628
902.498	13514
902.617	13426
902.735	13578
902.854	13472
902.973	13426
903.091	13244
903.21	13209
903.328	13285
903.446	13149
903.565	13110
903.683	13156
903.801	13046
903.919	13061
904.038	13133
904.156	12878
904.274	12954
904.392	12962
904.51	12913
904.627	12909
904.745	13038
904.863	12981
904.981	12669
905.098	12665
905.216	12677
905.334	12684
905.451	12601
905.569	12547
905.686	12700
905.803	12635
905.921	12407
906.038	12608
906.155	12410
906.272	12433
906.389	12372
906.506	12152
906.623	12258
906.74	12285
906.857	11996
906.974	12110
907.091	12270
907.208	12319
907.324	12315
907.441	12102
907.557	11961
907.674	11946
907.79	11885
907.907	11935
908.023	11992
908.139	11980
908.256	11950
908.372	11988
908.488	11863
908.604	11760
908.72	11653
908.836	11737
908.952	11672
909.068	11688
909.184	11813
909.3	11745
909.415	11805
909.531	11733
909.647	11543
909.762	11554
909.878	11501
909.993	11505
910.108	11440
910.224	11486
910.339	11516
910.454	11410
910.57	11341
910.685	11261
910.8	11562
910.915	11474
911.03	11311
911.145	11178
911.259	11181
911.374	11181
911.489	11166
911.604	11090
911.718	10987
911.833	10934
911.947	10869
912.062	10831
912.176	10968
912.291	10942
912.405	10919
912.519	11170
912.633	11136
912.748	11018
912.862	10987
912.976	10904
913.09	10675
913.204	10816
913.318	10790
913.431	10915
913.545	10911
913.659	11033
913.772	10790
913.886	10656
914	10691
914.113	10767
914.226	10911
914.34	10828
914.453	10660
914.566	10759
914.68	10546
914.793	10603
914.906	10447
915.019	10398
915.132	10375
915.245	10363
915.358	10394
915.47	10497
915.583	10436
915.696	10504
915.809	10618
915.921	10554
916.034	10451
916.146	10352
916.259	10356
916.371	10489
916.483	10466
916.595	10390
916.708	10360
916.82	10375
916.932	10318
917.044	10360
917.156	10363
917.268	10295
917.38	10367
917.491	10238
917.603	10352
917.715	10295
917.826	10386
917.938	10333
918.049	10181
918.161	10356
918.272	10421
918.384	10443
918.495	10329
918.606	10185
918.717	10109
918.828	10188
918.939	10227
919.05	10059
919.161	10185
919.272	9937
919.383	10055
919.494	10219
919.604	10402
919.715	10215
919.826	10181
919.936	10234
920.047	10295
920.157	10105
920.267	10348
920.378	10223
920.488	10173
920.598	10333
920.708	10474
920.818	10428
920.928	10348
921.038	10577
921.148	10535
921.258	10147
921.368	10128
921.477	10006
921.587	10086
921.697	9884
921.806	10044
921.916	9903
922.025	9736
922.134	9740
922.244	9625
922.353	9842
922.462	9572
922.571	9625
922.68	9416
922.789	9435
922.898	9424
923.007	9424
923.116	9439
923.224	9420
923.333	9405
923.442	9363
923.55	9268
923.659	9283
923.767	9359
923.876	9272
923.984	9355
924.092	9214
924.201	9321
924.309	9359
924.417	9317
924.525	9283
924.633	9291
924.741	10013
924.849	9146
924.956	9203
925.064	9093
925.172	9047
925.279	8990
925.387	9100
925.494	9089
925.602	9188
925.709	9222
925.816	9036
925.924	9070
926.031	9203
926.138	9116
926.245	9161
926.352	9051
926.459	9165
926.566	9199
926.673	9070
926.779	8895
926.886	8952
926.993	8830
927.099	8845
927.206	8830
927.312	8773
927.419	8800
927.525	8800
927.631	8857
927.737	8750
927.843	8731
927.95	8590
928.056	8716
928.162	8670
928.267	8724
928.373	9389
928.479	8804
928.585	8564
928.69	8686
928.796	8792
928.901	8552
929.007	8514
929.112	8613
929.218	8560
929.323	8590
929.428	8530
929.533	8583
929.638	8457
929.743	8511
929.848	8610
929.953	8549
930.058	8457
930.163	8267
930.267	8301
930.372	8427
930.477	8347
930.581	8533
930.685	8362
930.79	8191
930.894	8225
930.998	8221
931.103	8358
931.207	8012
931.311	8020
931.415	7887
931.519	7753
931.623	7776
