Data from test_V78500241_639.txt Node
Date: Fri Mar 25 14:38:10 CST 2022
User: usil
Spectrometer: V785-0024
Trigger mode: 0
Integration Time (sec): 4.000000E-1
Scans to average: 1
Nonlinearity correction enabled: false
Boxcar width: 0
Storing dark spectrum: false
XAxis mode: Wavelengths
Number of Pixels in Spectrum: 1024
>>>>>Begin Spectral Data<<<<<
801.071	28051
801.214	27861
801.356	27511
801.499	27511
801.641	27332
801.783	27230
801.926	27123
802.068	27169
802.211	27074
802.353	26967
802.496	26902
802.638	26819
802.78	26674
802.923	26785
803.065	26781
803.208	26693
803.35	26602
803.492	26842
803.635	26910
803.777	26815
803.919	26765
804.061	27264
804.204	26971
804.346	26842
804.488	26868
804.63	27081
804.773	26769
804.915	27017
805.057	27203
805.199	27032
805.341	27291
805.483	27355
805.626	27344
805.768	27348
805.91	27466
806.052	27572
806.194	27667
806.336	27934
806.478	27972
806.62	28086
806.762	28527
806.904	28862
807.046	29193
807.188	29452
807.33	29627
807.472	30228
807.614	30639
807.756	31540
807.898	32400
808.04	33618
808.182	35387
808.324	37472
808.465	40166
808.607	42817
808.749	45176
808.891	46542
809.033	46691
809.174	45329
809.316	42977
809.458	40185
809.6	37179
809.741	35079
809.883	33241
810.025	32043
810.166	31343
810.308	30353
810.45	29988
810.591	29634
810.733	28984
810.875	28740
811.016	28432
811.158	28093
811.299	28185
811.441	28147
811.582	28032
811.724	27789
811.865	27622
812.007	27690
812.148	27618
812.29	27618
812.431	27591
812.573	27789
812.714	27667
812.855	27819
812.997	27895
813.138	27964
813.279	27812
813.421	27743
813.562	27572
813.703	27477
813.845	27272
813.986	27017
814.127	26762
814.268	26613
814.41	26750
814.551	26469
814.692	26495
814.833	26480
814.974	26438
815.115	26412
815.256	26320
815.397	26256
815.539	26240
815.68	26180
815.821	26134
815.962	26172
816.103	26088
816.244	25833
816.385	25807
816.526	25849
816.666	25662
816.807	25434
816.948	25582
817.089	25647
817.23	25453
817.371	25354
817.512	25346
817.653	25354
817.793	25324
817.934	25445
818.075	25289
818.216	25327
818.356	25293
818.497	25225
818.638	25187
818.778	25050
818.919	25133
819.06	25031
819.2	25126
819.341	25213
819.481	25213
819.622	25285
819.762	25518
819.903	25487
820.043	25392
820.184	25362
820.324	25209
820.465	25377
820.605	25050
820.746	25118
820.886	25023
821.026	25225
821.167	25076
821.307	25179
821.447	25133
821.588	24989
821.728	24779
821.868	24658
822.008	24456
822.149	24494
822.289	24372
822.429	24266
822.569	24174
822.709	24022
822.849	23961
822.99	23783
823.13	23961
823.27	23767
823.41	23684
823.55	23634
823.69	23756
823.83	23691
823.97	23718
824.11	23608
824.25	23589
824.389	23452
824.529	23497
824.669	23280
824.809	23589
824.949	23535
825.089	23562
825.228	23436
825.368	23372
825.508	23315
825.648	23356
825.787	23250
825.927	23395
826.067	23140
826.206	23235
826.346	23261
826.485	23185
826.625	23280
826.765	23185
826.904	23197
827.044	23083
827.183	22968
827.323	22797
827.462	23025
827.601	22968
827.741	22892
827.88	22915
828.02	22702
828.159	22831
828.298	22786
828.437	22942
828.577	22889
828.716	22930
828.855	22771
828.994	22584
829.134	22649
829.273	22664
829.412	22565
829.551	22538
829.69	22474
829.829	22512
829.968	22759
830.107	22626
830.246	22497
830.385	22519
830.524	22573
830.663	22382
830.802	22280
830.941	22074
831.08	22166
831.219	22158
831.357	22162
831.496	22329
831.635	22238
831.774	22048
831.913	22017
832.051	21930
832.19	22040
832.329	22097
832.467	21975
832.606	21918
832.744	22105
832.883	22048
833.022	22078
833.16	22124
833.299	22215
833.437	22459
833.576	22535
833.714	22710
833.852	22748
833.991	22854
834.129	22908
834.267	22995
834.406	22831
834.544	22755
834.682	22645
834.821	22580
834.959	22622
835.097	22329
835.235	22413
835.373	22318
835.511	22135
835.65	22002
835.788	21781
835.926	21770
836.064	21583
836.202	21816
836.34	21766
836.478	21880
836.615	21667
836.753	21713
836.891	21774
837.029	21739
837.167	21629
837.305	21462
837.443	21496
837.58	21530
837.718	21549
837.856	21534
837.993	21378
838.131	21549
838.269	21420
838.406	21389
838.544	21348
838.681	21100
838.819	21131
838.956	20998
839.094	20956
839.231	20899
839.369	21043
839.506	21302
839.643	21062
839.781	20994
839.918	20811
840.055	20880
840.193	20857
840.33	20746
840.467	20880
840.604	20739
840.742	21085
840.879	20750
841.016	20727
841.153	20826
841.29	20960
841.427	20872
841.564	20986
841.701	20902
841.838	20777
841.975	20845
842.112	20746
842.249	20590
842.385	20632
842.522	20823
842.659	20724
842.796	20644
842.933	20705
843.069	20648
843.206	20697
843.343	20811
843.479	20815
843.616	20849
843.752	20541
843.889	20686
844.025	20887
844.162	20819
844.298	21032
844.435	20982
844.571	20982
844.708	21473
844.844	21793
844.98	22059
845.117	22455
845.253	23353
845.389	24772
845.525	27633
845.661	32389
845.798	38062
845.934	42578
846.07	44050
846.206	43011
846.342	39138
846.478	33542
846.614	28523
846.75	25331
846.886	23512
847.022	22284
847.158	21515
847.294	21062
847.429	20857
847.565	20609
847.701	20609
847.837	20138
847.972	20043
848.108	19978
848.244	19997
848.379	19731
848.515	19624
848.65	19643
848.786	19601
848.921	19658
849.057	19643
849.192	19674
849.328	19601
849.463	19521
849.598	19400
849.734	19422
849.869	19244
850.004	19270
850.14	19259
850.275	19221
850.41	19190
850.545	19133
850.68	19145
850.815	19225
850.95	19164
851.085	19373
851.22	19282
851.355	19343
851.49	19206
851.625	19202
851.76	19129
851.895	19168
852.03	19031
852.165	19080
852.299	19308
852.434	19422
852.569	19263
852.703	19335
852.838	19312
852.973	19438
853.107	19464
853.242	19392
853.376	19206
853.511	19088
853.645	19084
853.78	19411
853.914	19422
854.048	19293
854.183	19384
854.317	19457
854.451	19655
854.585	19297
854.72	19426
854.854	19377
854.988	19320
855.122	19145
855.256	19137
855.39	19164
855.524	19293
855.658	19168
855.792	19107
855.926	19145
856.06	19183
856.194	19240
856.327	19004
856.461	19046
856.595	18977
856.729	19015
856.862	19240
856.996	18970
857.13	19137
857.263	19168
857.397	19202
857.53	18863
857.664	19088
857.797	19168
857.931	19023
858.064	18947
858.197	19012
858.331	18913
858.464	18787
858.597	18856
858.731	18916
858.864	18848
858.997	18932
859.13	18833
859.263	18909
859.396	18981
859.529	18829
859.662	19004
859.795	18817
859.928	18878
860.061	19034
860.194	19110
860.327	18993
860.46	18878
860.592	18909
860.725	19042
860.858	19061
860.99	18783
861.123	18741
861.256	18894
861.388	18837
861.521	19506
861.653	18696
861.786	18772
861.918	18692
862.05	18848
862.183	18878
862.315	18806
862.447	18882
862.58	18837
862.712	18768
862.844	18559
862.976	18639
863.108	18616
863.24	18920
863.372	18494
863.504	18593
863.636	18540
863.768	18646
863.9	18486
864.032	18528
864.164	18467
864.296	18479
864.428	18566
864.559	18604
864.691	18566
864.823	18623
864.954	18460
865.086	18540
865.217	18490
865.349	18418
865.48	18509
865.612	18536
865.743	18555
865.875	18467
866.006	18384
866.137	18502
866.269	18486
866.4	18380
866.531	18422
866.662	18414
866.793	18403
866.924	18414
867.055	18502
867.186	18536
867.317	18426
867.448	18311
867.579	18479
867.71	18350
867.841	18247
867.972	18502
868.103	18429
868.233	18448
868.364	18380
868.495	18582
868.625	18700
868.756	18802
868.886	18509
869.017	18700
869.147	18795
869.278	18787
869.408	18719
869.539	18646
869.669	18669
869.799	18703
869.929	18711
870.06	18711
870.19	19004
870.32	18935
870.45	19038
870.58	19069
870.71	19251
870.84	19168
870.97	19091
871.1	19053
871.23	19415
871.36	19365
871.489	19171
871.619	19354
871.749	19369
871.879	19358
872.008	19457
872.138	19400
872.267	19362
872.397	19148
872.526	19202
872.656	19266
872.785	19373
872.915	19445
873.044	19563
873.173	19495
873.303	19575
873.432	19601
873.561	19635
873.69	19586
873.819	19575
873.948	19780
874.077	19696
874.206	19655
874.335	19677
874.464	19902
874.593	19963
874.722	19978
874.851	20111
874.979	20054
875.108	20138
875.237	20065
875.365	20062
875.494	20107
875.623	20286
875.751	20214
875.88	20256
876.008	20362
876.136	20609
876.265	20899
876.393	21020
876.521	20998
876.65	21047
876.778	21157
876.906	20990
877.034	20902
877.162	21085
877.29	21074
877.418	21214
877.546	21340
877.674	21405
877.802	21591
877.93	21595
878.058	21724
878.185	21800
878.313	22078
878.441	22318
878.568	22607
878.696	23235
878.824	23824
878.951	24768
879.079	26107
879.206	27823
879.333	29562
879.461	30844
879.588	31807
879.715	31784
879.842	31145
879.97	29600
880.097	27682
880.224	26400
880.351	25331
880.478	24661
880.605	24091
880.732	23874
880.859	23840
880.986	23539
881.112	23414
881.239	23250
881.366	23170
881.493	22987
881.619	22949
881.746	23056
881.872	22999
881.999	23113
882.125	22987
882.252	23185
882.378	23136
882.505	23261
882.631	23094
882.757	23018
882.883	23162
883.01	23025
883.136	22934
883.262	22866
883.388	22858
883.514	23018
883.64	22896
883.766	22869
883.892	22698
884.018	22694
884.143	23010
884.269	23064
884.395	22710
884.52	22729
884.646	22683
884.772	22694
884.897	22535
885.023	22694
885.148	22645
885.274	22607
885.399	22630
885.524	22451
885.65	22249
885.775	22394
885.9	22166
886.025	22299
886.15	21934
886.275	21747
886.4	21625
886.525	21610
886.65	21363
886.775	21370
886.9	21462
887.025	21367
887.149	21199
887.274	20845
887.399	20754
887.523	20655
887.648	20590
887.773	20484
887.897	20598
888.021	20530
888.146	20294
888.27	20446
888.395	20442
888.519	20290
888.643	20336
888.767	20259
888.891	20103
889.015	20008
889.139	19921
889.263	19894
889.387	20008
889.511	20115
889.635	20005
889.759	19830
889.883	19769
890.006	19742
890.13	19795
890.254	19533
890.377	19578
890.501	19495
890.624	19365
890.748	19529
890.871	19255
890.995	19164
891.118	19012
891.241	19053
891.364	19160
891.488	19213
891.611	18970
891.734	19031
891.857	19069
891.98	18916
892.103	19038
892.226	19004
892.349	18848
892.471	18730
892.594	18760
892.717	18669
892.839	18646
892.962	18764
893.085	18760
893.207	18623
893.33	18616
893.452	18646
893.575	18665
893.697	18547
893.819	18802
893.941	18692
894.064	18669
894.186	18410
894.308	18475
894.43	18521
894.552	18601
894.674	18494
894.796	18407
894.918	18471
895.04	18357
895.161	18467
895.283	18460
895.405	18254
895.526	18490
895.648	18262
895.769	18532
895.891	18342
896.012	18407
896.134	18407
896.255	18460
896.376	18399
896.498	18418
896.619	18357
896.74	18220
896.861	18433
896.982	18627
897.103	18863
897.224	18509
897.345	18414
897.466	18441
897.587	18486
897.708	18757
897.828	18616
897.949	18483
898.07	18319
898.19	18334
898.311	18521
898.431	18414
898.552	18456
898.672	18642
898.792	18604
898.913	18494
899.033	18433
899.153	18281
899.273	18228
899.393	18338
899.513	18243
899.633	18334
899.753	18277
899.873	18220
899.993	18273
900.113	18205
900.232	18224
900.352	18235
900.472	18087
900.591	18148
900.711	18136
900.83	17946
900.95	18121
901.069	18098
901.189	17984
901.308	17840
901.427	17649
901.546	17691
901.665	17668
901.784	17630
901.904	17501
902.023	17467
902.141	17265
902.26	17109
902.379	17178
902.498	17181
902.617	16980
902.735	17090
902.854	17041
902.973	16957
903.091	16706
903.21	16702
903.328	16771
903.446	16668
903.565	16611
903.683	16493
903.801	16485
903.919	16462
904.038	16455
904.156	16249
904.274	16363
904.392	16318
904.51	16329
904.627	16280
904.745	16253
904.863	16257
904.981	16044
905.098	15941
905.216	15911
905.334	15865
905.451	15915
905.569	15884
905.686	15945
905.803	15884
905.921	15717
906.038	15800
906.155	15720
906.272	15511
906.389	15641
906.506	15515
906.623	15424
906.74	15439
906.857	15336
906.974	15287
907.091	15473
907.208	15576
907.324	15405
907.441	15291
907.557	15218
907.674	15298
907.79	15085
907.907	15036
908.023	15074
908.139	15157
908.256	15131
908.372	14960
908.488	15017
908.604	14880
908.72	14845
908.836	14762
908.952	14724
909.068	14872
909.184	14880
909.3	14910
909.415	14868
909.531	14872
909.647	14590
909.762	14617
909.878	14530
909.993	14659
910.108	14541
910.224	14560
910.339	14476
910.454	14522
910.57	14434
910.685	14351
910.8	14598
910.915	14484
911.03	14404
911.145	14263
911.259	14199
911.374	14168
911.489	14103
911.604	13978
911.718	13883
911.833	13921
911.947	13890
912.062	13780
912.176	13860
912.291	14005
912.405	13868
912.519	14092
912.633	14100
912.748	13913
912.862	13902
912.976	13822
913.09	13666
913.204	13803
913.318	13693
913.431	13978
913.545	13849
913.659	13826
913.772	13632
913.886	13719
914	13548
914.113	13624
914.226	13753
914.34	13681
914.453	13544
914.566	13643
914.68	13597
914.793	13483
914.906	13449
915.019	13377
915.132	13304
915.245	13236
915.358	13396
915.47	13312
915.583	13278
915.696	13415
915.809	13422
915.921	13438
916.034	13297
916.146	13221
916.259	13190
916.371	13301
916.483	13316
916.595	13179
916.708	13221
916.82	13384
916.932	13164
917.044	13301
917.156	13168
917.268	13114
917.38	13057
917.491	13107
917.603	13107
917.715	13164
917.826	13084
917.938	12943
918.049	12935
918.161	12947
918.272	13122
918.384	13099
918.495	12981
918.606	12779
918.717	12806
918.828	12821
918.939	12829
919.05	12677
919.161	12760
919.272	12604
919.383	12772
919.494	12764
919.604	12954
919.715	12753
919.826	12642
919.936	12817
920.047	12749
920.157	12806
920.267	12970
920.378	12806
920.488	12776
920.598	12924
920.708	13069
920.818	12924
920.928	12954
921.038	13050
921.148	13027
921.258	12654
921.368	12673
921.477	12509
921.587	12532
921.697	12395
921.806	12555
921.916	12380
922.025	12308
922.134	12205
922.244	12144
922.353	12140
922.462	12072
922.571	12011
922.68	11999
922.789	11786
922.898	11836
923.007	11813
923.116	11874
923.224	11866
923.333	11813
923.442	11672
923.55	11745
923.659	11710
923.767	11779
923.876	11623
923.984	11817
924.092	11615
924.201	11665
924.309	11657
924.417	11672
924.525	11623
924.633	11501
924.741	12251
924.849	11337
924.956	11474
925.064	11406
925.172	11334
925.279	11398
925.387	11379
925.494	11421
925.602	11433
925.709	11501
925.816	11212
925.924	11372
926.031	11368
926.138	11330
926.245	11379
926.352	11189
926.459	11337
926.566	11330
926.673	11246
926.779	11136
926.886	11174
926.993	11018
927.099	10953
927.206	10984
927.312	10938
927.419	11006
927.525	10991
927.631	10938
927.737	10850
927.843	10862
927.95	10691
928.056	10797
928.162	10858
928.267	10934
928.373	11455
928.479	10862
928.585	10664
928.69	10828
928.796	10873
928.901	10729
929.007	10565
929.112	10717
929.218	10672
929.323	10615
929.428	10634
929.533	10733
929.638	10497
929.743	10550
929.848	10596
929.953	10546
930.058	10489
930.163	10322
930.267	10242
930.372	10527
930.477	10299
930.581	10500
930.685	10367
930.79	10162
930.894	10200
930.998	10230
931.103	10310
931.207	9991
931.311	9937
931.415	9922
931.519	9656
931.623	9690
