Data from test_V78500241_1148.txt Node
Date: Fri Mar 25 14:41:42 CST 2022
User: usil
Spectrometer: V785-0024
Trigger mode: 0
Integration Time (sec): 4.000000E-1
Scans to average: 1
Nonlinearity correction enabled: false
Boxcar width: 0
Storing dark spectrum: false
XAxis mode: Wavelengths
Number of Pixels in Spectrum: 1024
>>>>>Begin Spectral Data<<<<<
801.071	22588
801.214	22462
801.356	22226
801.499	22093
801.641	21922
801.783	21972
801.926	21975
802.068	21884
802.211	21770
802.353	21622
802.496	21462
802.638	21363
802.78	21260
802.923	21135
803.065	21226
803.208	21310
803.35	21214
803.492	21310
803.635	21374
803.777	21256
803.919	21283
804.061	21603
804.204	21340
804.346	21275
804.488	21043
804.63	21131
804.773	21058
804.915	21188
805.057	21275
805.199	21207
805.341	21249
805.483	21260
805.626	21382
805.768	21077
805.91	21195
806.052	21173
806.194	21188
806.336	21321
806.478	21119
806.62	21085
806.762	21264
806.904	21393
807.046	21606
807.188	21526
807.33	21633
807.472	21595
807.614	21523
807.756	21462
807.898	21454
808.04	21477
808.182	21294
808.324	21462
808.465	21443
808.607	21576
808.749	21743
808.891	21819
809.033	21911
809.174	21770
809.316	21728
809.458	21709
809.6	21603
809.741	21732
809.883	21561
810.025	21838
810.166	21720
810.308	21618
810.45	21743
810.591	21694
810.733	21386
810.875	21564
811.016	21336
811.158	21306
811.299	21393
811.441	21412
811.582	21515
811.724	21298
811.865	21397
812.007	21203
812.148	21462
812.29	21382
812.431	21473
812.573	21652
812.714	21766
812.855	21835
812.997	21918
813.138	22173
813.279	21861
813.421	21816
813.562	21873
813.703	21629
813.845	21439
813.986	21180
814.127	21043
814.268	20960
814.41	20804
814.551	20994
814.692	21001
814.833	20857
814.974	20746
815.115	20868
815.256	20727
815.397	20682
815.539	20716
815.68	20697
815.821	20651
815.962	20667
816.103	20617
816.244	20499
816.385	20431
816.526	20400
816.666	20237
816.807	20073
816.948	20168
817.089	20195
817.23	20161
817.371	20065
817.512	20092
817.653	19974
817.793	20050
817.934	20130
818.075	20073
818.216	20084
818.356	19970
818.497	19864
818.638	19723
818.778	19715
818.919	19830
819.06	19883
819.2	19852
819.341	19860
819.481	19978
819.622	20153
819.762	20298
819.903	20126
820.043	20103
820.184	20164
820.324	20058
820.465	20012
820.605	20145
820.746	20081
820.886	19841
821.026	20027
821.167	19986
821.307	20115
821.447	19982
821.588	19864
821.728	19849
821.868	19639
822.008	19567
822.149	19426
822.289	19457
822.429	19141
822.569	19015
822.709	19122
822.849	18920
822.99	18905
823.13	18916
823.27	18954
823.41	18871
823.55	18627
823.69	18810
823.83	18669
823.97	18608
824.11	18540
824.25	18464
824.389	18502
824.529	18604
824.669	18566
824.809	18635
824.949	18464
825.089	18528
825.228	18559
825.368	18410
825.508	18232
825.648	18281
825.787	18289
825.927	18365
826.067	18228
826.206	18190
826.346	18334
826.485	18292
826.625	18224
826.765	18418
826.904	18327
827.044	17992
827.183	17950
827.323	18026
827.462	18049
827.601	18003
827.741	17920
827.88	18064
828.02	17904
828.159	17996
828.298	18095
828.437	17984
828.577	17882
828.716	18155
828.855	18034
828.994	17779
829.134	17748
829.273	17726
829.412	17764
829.551	17699
829.69	17790
829.829	17722
829.968	17889
830.107	17851
830.246	17786
830.385	17805
830.524	17729
830.663	17634
830.802	17493
830.941	17425
831.08	17364
831.219	17421
831.357	17387
831.496	17551
831.635	17330
831.774	17284
831.913	17322
832.051	17140
832.19	17193
832.329	17265
832.467	17064
832.606	17067
832.744	17003
832.883	17060
833.022	17117
833.16	17151
833.299	17136
833.437	17136
833.576	17147
833.714	17102
833.852	17098
833.991	17166
834.129	17299
834.267	17235
834.406	17124
834.544	17185
834.682	17174
834.821	17064
834.959	17288
835.097	17109
835.235	17296
835.373	17220
835.511	17220
835.65	17010
835.788	16980
835.926	16995
836.064	16896
836.202	16858
836.34	17136
836.478	17181
836.615	17075
836.753	17022
836.891	17197
837.029	17132
837.167	17010
837.305	16999
837.443	16934
837.58	16790
837.718	17121
837.856	16911
837.993	16877
838.131	16911
838.269	16820
838.406	16839
838.544	16694
838.681	16611
838.819	16641
838.956	16455
839.094	16409
839.231	16504
839.369	16558
839.506	16805
839.643	16778
839.781	16428
839.918	16390
840.055	16470
840.193	16421
840.33	16443
840.467	16398
840.604	16413
840.742	16649
840.879	16352
841.016	16287
841.153	16443
841.29	16447
841.427	16421
841.564	16413
841.701	16497
841.838	16421
841.975	16413
842.112	16424
842.249	16253
842.385	16230
842.522	16329
842.659	16306
842.796	16162
842.933	16306
843.069	16185
843.206	16169
843.343	16257
843.479	16261
843.616	16192
843.752	16063
843.889	16025
844.025	16162
844.162	15956
844.298	16071
844.435	15899
844.571	16036
844.708	16074
844.844	16154
844.98	16238
845.117	16223
845.253	16017
845.389	15915
845.525	15956
845.661	16173
845.798	15953
845.934	16204
846.07	16105
846.206	16013
846.342	16230
846.478	15983
846.614	15690
846.75	15629
846.886	15652
847.022	15717
847.158	15633
847.294	15587
847.429	15545
847.565	15500
847.701	15911
847.837	15260
847.972	15275
848.108	15389
848.244	15397
848.379	15195
848.515	15195
848.65	15104
848.786	15161
848.921	15298
849.057	15374
849.192	15291
849.328	15195
849.463	15195
849.598	15112
849.734	15138
849.869	15028
850.004	14929
850.14	15009
850.275	14941
850.41	14769
850.545	14891
850.68	14933
850.815	14921
850.95	15013
851.085	15104
851.22	15028
851.355	14937
851.49	14880
851.625	14895
851.76	14902
851.895	14845
852.03	14838
852.165	14880
852.299	14941
852.434	15127
852.569	14960
852.703	14925
852.838	15070
852.973	15150
853.107	15074
853.242	14941
853.376	14887
853.511	14697
853.645	14785
853.78	14963
853.914	14902
854.048	14864
854.183	14769
854.317	14815
854.451	15032
854.585	14842
854.72	14724
854.854	14906
854.988	14754
855.122	14735
855.256	14655
855.39	14800
855.524	14918
855.658	14883
855.792	14834
855.926	14788
856.06	14788
856.194	14933
856.327	14743
856.461	14746
856.595	14701
856.729	14773
856.862	14887
856.996	14868
857.13	14891
857.263	14899
857.397	14925
857.53	14804
857.664	14887
857.797	14785
857.931	14975
858.064	14823
858.197	14872
858.331	14762
858.464	14788
858.597	14735
858.731	14842
858.864	14826
858.997	14743
859.13	14845
859.263	14857
859.396	14941
859.529	14811
859.662	14739
859.795	14720
859.928	14804
860.061	14982
860.194	14963
860.327	14849
860.46	14902
860.592	14872
860.725	14998
860.858	14990
860.99	14895
861.123	14724
861.256	14724
861.388	14857
861.521	15526
861.653	14731
861.786	14667
861.918	14587
862.05	14727
862.183	14724
862.315	14667
862.447	14777
862.58	14811
862.712	14613
862.844	14499
862.976	14678
863.108	14689
863.24	15058
863.372	14541
863.504	14610
863.636	14511
863.768	14667
863.9	14552
864.032	14499
864.164	14560
864.296	14465
864.428	14636
864.559	14689
864.691	14682
864.823	14606
864.954	14606
865.086	14564
865.217	14583
865.349	14454
865.48	14492
865.612	14632
865.743	14838
865.875	14674
866.006	14454
866.137	14587
866.269	14549
866.4	14533
866.531	14648
866.662	14446
866.793	14571
866.924	14492
867.055	14526
867.186	14518
867.317	14454
867.448	14480
867.579	14511
867.71	14461
867.841	14362
867.972	14564
868.103	14541
868.233	14442
868.364	14492
868.495	14632
868.625	14727
868.756	14876
868.886	14758
869.017	14788
869.147	14796
869.278	14861
869.408	14861
869.539	14750
869.669	14902
869.799	14762
869.929	14933
870.06	14933
870.19	15039
870.32	14994
870.45	15241
870.58	15176
870.71	15268
870.84	15370
870.97	15241
871.1	15108
871.23	15370
871.36	15321
871.489	15306
871.619	15351
871.749	15351
871.879	15519
872.008	15447
872.138	15393
872.267	15389
872.397	15367
872.526	15218
872.656	15203
872.785	15199
872.915	15363
873.044	15538
873.173	15469
873.303	15435
873.432	15473
873.561	15568
873.69	15496
873.819	15469
873.948	15473
874.077	15462
874.206	15386
874.335	15462
874.464	15564
874.593	15717
874.722	15709
874.851	15778
874.979	15762
875.108	15690
875.237	15667
875.365	15625
875.494	15671
875.623	15816
875.751	15709
875.88	15743
876.008	15937
876.136	15937
876.265	16101
876.393	16291
876.521	16196
876.65	16246
876.778	16200
876.906	16063
877.034	16017
877.162	16093
877.29	16017
877.418	16177
877.546	16192
877.674	16147
877.802	16166
877.93	16185
878.058	16162
878.185	16166
878.313	16078
878.441	16139
878.568	16048
878.696	16200
878.824	16215
878.951	16234
879.079	16413
879.206	16424
879.333	16440
879.461	16341
879.588	16424
879.715	16466
879.842	16626
879.97	16421
880.097	16071
880.224	16059
880.351	16162
880.478	16169
880.605	16071
880.732	16032
880.859	16234
880.986	16128
881.112	16040
881.239	15915
881.366	15793
881.493	15797
881.619	15652
881.746	15747
881.872	15679
881.999	15690
882.125	15701
882.252	15728
882.378	15701
882.505	15842
882.631	15637
882.757	15458
882.883	15545
883.01	15534
883.136	15397
883.262	15386
883.388	15412
883.514	15587
883.64	15553
883.766	15458
883.892	15294
884.018	15332
884.143	15469
884.269	15542
884.395	15329
884.52	15195
884.646	15222
884.772	15188
884.897	15085
885.023	15218
885.148	15218
885.274	15287
885.399	15188
885.524	15226
885.65	15176
885.775	15249
885.9	15176
886.025	15344
886.15	15264
886.275	15176
886.4	15150
886.525	15211
886.65	15169
886.775	15104
886.9	15294
887.025	15458
887.149	15214
887.274	15055
887.399	14963
887.523	14990
887.648	14914
887.773	14971
887.897	15154
888.021	15055
888.146	14960
888.27	15154
888.395	15127
888.519	15009
888.643	15058
888.767	15138
888.891	14960
889.015	14868
889.139	14994
889.263	14929
889.387	14899
889.511	15146
889.635	15074
889.759	14842
889.883	14830
890.006	14902
890.13	15039
890.254	14883
890.377	14952
890.501	14674
890.624	14644
890.748	14762
890.871	14632
890.995	14541
891.118	14598
891.241	14667
891.364	14606
891.488	14716
891.611	14507
891.734	14602
891.857	14724
891.98	14636
892.103	14689
892.226	14568
892.349	14457
892.471	14461
892.594	14610
892.717	14629
892.839	14568
892.962	14617
893.085	14678
893.207	14552
893.33	14465
893.452	14446
893.575	14590
893.697	14632
893.819	14632
893.941	14705
894.064	14701
894.186	14632
894.308	14465
894.43	14754
894.552	14720
894.674	14746
894.796	14568
894.918	14610
895.04	14549
895.161	14670
895.283	14636
895.405	14579
895.526	14720
895.648	14727
895.769	14739
895.891	14746
896.012	14800
896.134	14750
896.255	14765
896.376	14640
896.498	14743
896.619	14792
896.74	14811
896.861	14777
896.982	14998
897.103	15184
897.224	15005
897.345	14990
897.466	14944
897.587	15005
897.708	15051
897.828	15001
897.949	14982
898.07	14861
898.19	14975
898.311	15047
898.431	14998
898.552	15112
898.672	15176
898.792	15093
898.913	15036
899.033	14849
899.153	14864
899.273	14899
899.393	14876
899.513	14967
899.633	14948
899.753	14906
899.873	14880
899.993	14929
900.113	14762
900.232	14918
900.352	14944
900.472	14842
900.591	14796
900.711	14804
900.83	14720
900.95	14876
901.069	14815
901.189	14655
901.308	14526
901.427	14336
901.546	14450
901.665	14450
901.784	14461
901.904	14374
902.023	14237
902.141	14065
902.26	14062
902.379	14081
902.498	13986
902.617	13947
902.735	14031
902.854	13989
902.973	13898
903.091	13674
903.21	13799
903.328	13757
903.446	13537
903.565	13529
903.683	13502
903.801	13571
903.919	13533
904.038	13460
904.156	13396
904.274	13426
904.392	13373
904.51	13422
904.627	13426
904.745	13502
904.863	13464
904.981	13149
905.098	13031
905.216	13015
905.334	13072
905.451	13061
905.569	13042
905.686	13057
905.803	13065
905.921	12867
906.038	12951
906.155	12829
906.272	12806
906.389	12817
906.506	12601
906.623	12616
906.74	12654
906.857	12532
906.974	12509
907.091	12726
907.208	12783
907.324	12612
907.441	12574
907.557	12388
907.674	12342
907.79	12376
907.907	12376
908.023	12494
908.139	12452
908.256	12365
908.372	12407
908.488	12308
908.604	12178
908.72	12136
908.836	12194
908.952	12129
909.068	12190
909.184	12300
909.3	12125
909.415	12232
909.531	12186
909.647	11965
909.762	11904
909.878	11855
909.993	11855
910.108	11916
910.224	11904
910.339	11878
910.454	11832
910.57	11748
910.685	11726
910.8	12083
910.915	11977
911.03	11703
911.145	11619
911.259	11649
911.374	11589
911.489	11551
911.604	11497
911.718	11353
911.833	11356
911.947	11349
912.062	11235
912.176	11417
912.291	11379
912.405	11326
912.519	11562
912.633	11512
912.748	11467
912.862	11368
912.976	11185
913.09	11117
913.204	11212
913.318	11242
913.431	11307
913.545	11436
913.659	11372
913.772	11246
913.886	11197
914	11121
914.113	11223
914.226	11254
914.34	11204
914.453	11102
914.566	11185
914.68	11022
914.793	11109
914.906	10892
915.019	10809
915.132	10809
915.245	10820
915.358	10862
915.47	10843
915.583	10858
915.696	10900
915.809	11048
915.921	11006
916.034	10828
916.146	10778
916.259	10717
916.371	10904
916.483	10805
916.595	10706
916.708	10915
916.82	10885
916.932	10736
917.044	10736
917.156	10748
917.268	10607
917.38	10759
917.491	10622
917.603	10649
917.715	10752
917.826	10721
917.938	10668
918.049	10573
918.161	10634
918.272	10786
918.384	10790
918.495	10679
918.606	10527
918.717	10451
918.828	10630
918.939	10459
919.05	10474
919.161	10535
919.272	10394
919.383	10375
919.494	10622
919.604	10755
919.715	10554
919.826	10481
919.936	10432
920.047	10687
920.157	10542
920.267	10729
920.378	10588
920.488	10546
920.598	10736
920.708	10835
920.818	10702
920.928	10672
921.038	10854
921.148	10927
921.258	10558
921.368	10497
921.477	10428
921.587	10405
921.697	10303
921.806	10379
921.916	10337
922.025	10044
922.134	10147
922.244	10032
922.353	10105
922.462	9991
922.571	9926
922.68	9850
922.789	9652
922.898	9835
923.007	9694
923.116	9774
923.224	9720
923.333	9740
923.442	9682
923.55	9633
923.659	9675
923.767	9675
923.876	9584
923.984	9682
924.092	9614
924.201	9606
924.309	9648
924.417	9633
924.525	9610
924.633	9557
924.741	10344
924.849	9370
924.956	9515
925.064	9370
925.172	9287
925.279	9389
925.387	9473
925.494	9424
925.602	9488
925.709	9507
925.816	9340
925.924	9329
926.031	9507
926.138	9458
926.245	9401
926.352	9408
926.459	9488
926.566	9504
926.673	9420
926.779	9237
926.886	9313
926.993	9142
927.099	9066
927.206	9077
927.312	9108
927.419	9169
927.525	9100
927.631	9173
927.737	9093
927.843	9036
927.95	8857
928.056	9009
928.162	8948
928.267	9127
928.373	9713
928.479	9119
928.585	8864
928.69	8982
928.796	9036
928.901	8956
929.007	8868
929.112	8944
929.218	8838
929.323	8891
929.428	8815
929.533	8963
929.638	8727
929.743	8788
929.848	8891
929.953	8762
930.058	8773
930.163	8610
930.267	8564
930.372	8724
930.477	8549
930.581	8819
930.685	8651
930.79	8575
930.894	8522
930.998	8499
931.103	8724
931.207	8233
931.311	8301
931.415	8214
931.519	8020
931.623	8012
