Data from test_V78500241_2399.txt Node
Date: Fri Mar 25 14:50:25 CST 2022
User: usil
Spectrometer: V785-0024
Trigger mode: 0
Integration Time (sec): 4.000000E-1
Scans to average: 1
Nonlinearity correction enabled: false
Boxcar width: 0
Storing dark spectrum: false
XAxis mode: Wavelengths
Number of Pixels in Spectrum: 1024
>>>>>Begin Spectral Data<<<<<
801.071	22109
801.214	22143
801.356	21857
801.499	21739
801.641	21504
801.783	21580
801.926	21496
802.068	21519
802.211	21367
802.353	21401
802.496	21062
802.638	21028
802.78	21081
802.923	20967
803.065	20845
803.208	20811
803.35	20899
803.492	20887
803.635	20921
803.777	20994
803.919	20948
804.061	21192
804.204	21001
804.346	20758
804.488	20773
804.63	20773
804.773	20659
804.915	20910
805.057	20857
805.199	20796
805.341	20735
805.483	20925
805.626	20826
805.768	20632
805.91	20701
806.052	20743
806.194	20636
806.336	21036
806.478	20743
806.62	20716
806.762	20811
806.904	21051
807.046	21226
807.188	21085
807.33	21169
807.472	21127
807.614	21036
807.756	21024
807.898	20906
808.04	20826
808.182	20910
808.324	20868
808.465	20960
808.607	21100
808.749	21188
808.891	21222
809.033	21340
809.174	21249
809.316	21096
809.458	21127
809.6	21085
809.741	21359
809.883	21283
810.025	21317
810.166	21348
810.308	21306
810.45	21245
810.591	21135
810.733	21009
810.875	20925
811.016	20902
811.158	20921
811.299	21009
811.441	21116
811.582	20967
811.724	20956
811.865	20826
812.007	20986
812.148	20918
812.29	20960
812.431	21070
812.573	21340
812.714	21279
812.855	21382
812.997	21507
813.138	21622
813.279	21485
813.421	21435
813.562	21188
813.703	21264
813.845	21032
813.986	20731
814.127	20625
814.268	20598
814.41	20522
814.551	20370
814.692	20560
814.833	20377
814.974	20522
815.115	20377
815.256	20237
815.397	20336
815.539	20252
815.68	20191
815.821	20210
815.962	20199
816.103	20134
816.244	20088
816.385	20031
816.526	20005
816.666	19761
816.807	19533
816.948	19738
817.089	19769
817.23	19632
817.371	19594
817.512	19590
817.653	19613
817.793	19518
817.934	19578
818.075	19677
818.216	19590
818.356	19578
818.497	19502
818.638	19213
818.778	19236
818.919	19244
819.06	19251
819.2	19445
819.341	19540
819.481	19430
819.622	19639
819.762	19723
819.903	19750
820.043	19772
820.184	19556
820.324	19533
820.465	19575
820.605	19480
820.746	19533
820.886	19354
821.026	19597
821.167	19434
821.307	19719
821.447	19460
821.588	19419
821.728	19335
821.868	19129
822.008	19046
822.149	19072
822.289	19015
822.429	18741
822.569	18627
822.709	18650
822.849	18467
822.99	18448
823.13	18456
823.27	18418
823.41	18372
823.55	18315
823.69	18232
823.83	18186
823.97	18239
824.11	18049
824.25	18068
824.389	18038
824.529	18072
824.669	18053
824.809	18129
824.949	18209
825.089	18083
825.228	18095
825.368	17912
825.508	17798
825.648	17764
825.787	17870
825.927	17805
826.067	17771
826.206	17786
826.346	17927
826.485	17901
826.625	17916
826.765	17821
826.904	17851
827.044	17539
827.183	17493
827.323	17520
827.462	17562
827.601	17551
827.741	17471
827.88	17490
828.02	17505
828.159	17379
828.298	17566
828.437	17509
828.577	17440
828.716	17562
828.855	17509
828.994	17318
829.134	17356
829.273	17299
829.412	17200
829.551	17379
829.69	17200
829.829	17334
829.968	17311
830.107	17250
830.246	17296
830.385	17261
830.524	17185
830.663	17124
830.802	16938
830.941	16984
831.08	16866
831.219	16927
831.357	16942
831.496	17098
831.635	16748
831.774	16801
831.913	16812
832.051	16668
832.19	16694
832.329	16748
832.467	16535
832.606	16626
832.744	16550
832.883	16565
833.022	16462
833.16	16542
833.299	16645
833.437	16622
833.576	16558
833.714	16615
833.852	16656
833.991	16630
834.129	16683
834.267	16744
834.406	16542
834.544	16698
834.682	16588
834.821	16577
834.959	16820
835.097	16630
835.235	16641
835.373	16607
835.511	16710
835.65	16497
835.788	16573
835.926	16371
836.064	16382
836.202	16318
836.34	16523
836.478	16584
836.615	16577
836.753	16550
836.891	16580
837.029	16637
837.167	16565
837.305	16325
837.443	16405
837.58	16367
837.718	16428
837.856	16390
837.993	16276
838.131	16375
838.269	16246
838.406	16360
838.544	16166
838.681	15972
838.819	16078
838.956	15972
839.094	15838
839.231	16002
839.369	16002
839.506	16341
839.643	16143
839.781	15895
839.918	15918
840.055	15888
840.193	15850
840.33	15937
840.467	16021
840.604	15953
840.742	16154
840.879	15816
841.016	15816
841.153	15774
841.29	16082
841.427	15941
841.564	15949
841.701	15892
841.838	15926
841.975	15857
842.112	15751
842.249	15800
842.385	15542
842.522	15854
842.659	15781
842.796	15663
842.933	15595
843.069	15698
843.206	15580
843.343	15774
843.479	15713
843.616	15713
843.752	15481
843.889	15469
844.025	15633
844.162	15405
844.298	15610
844.435	15412
844.571	15405
844.708	15561
844.844	15576
844.98	15701
845.117	15641
845.253	15310
845.389	15424
845.525	15313
845.661	15348
845.798	15237
845.934	15325
846.07	15237
846.206	15310
846.342	15431
846.478	15275
846.614	15188
846.75	15051
846.886	15062
847.022	15184
847.158	15039
847.294	15039
847.429	15039
847.565	15039
847.701	15310
847.837	14762
847.972	14777
848.108	14937
848.244	14853
848.379	14777
848.515	14682
848.65	14530
848.786	14621
848.921	14537
849.057	14750
849.192	14823
849.328	14678
849.463	14636
849.598	14590
849.734	14530
849.869	14476
850.004	14377
850.14	14533
850.275	14454
850.41	14309
850.545	14488
850.68	14385
850.815	14476
850.95	14377
851.085	14575
851.22	14511
851.355	14404
851.49	14381
851.625	14366
851.76	14366
851.895	14263
852.03	14256
852.165	14336
852.299	14488
852.434	14427
852.569	14480
852.703	14476
852.838	14560
852.973	14530
853.107	14590
853.242	14415
853.376	14240
853.511	14176
853.645	14256
853.78	14415
853.914	14324
854.048	14252
854.183	14244
854.317	14339
854.451	14415
854.585	14191
854.72	14206
854.854	14347
854.988	14191
855.122	14275
855.256	14084
855.39	14256
855.524	14339
855.658	14351
855.792	14408
855.926	14290
856.06	14370
856.194	14415
856.327	14210
856.461	14180
856.595	14233
856.729	14191
856.862	14492
856.996	14290
857.13	14336
857.263	14374
857.397	14377
857.53	14339
857.664	14355
857.797	14271
857.931	14419
858.064	14298
858.197	14313
858.331	14301
858.464	14275
858.597	14202
858.731	14275
858.864	14271
858.997	14229
859.13	14374
859.263	14278
859.396	14377
859.529	14298
859.662	14214
859.795	14233
859.928	14256
860.061	14556
860.194	14457
860.327	14355
860.46	14317
860.592	14412
860.725	14488
860.858	14438
860.99	14286
861.123	14225
861.256	14187
861.388	14317
861.521	14857
861.653	14123
861.786	14107
861.918	14138
862.05	14229
862.183	14240
862.315	14256
862.447	14256
862.58	14237
862.712	13997
862.844	14069
862.976	14107
863.108	14100
863.24	14377
863.372	14039
863.504	14062
863.636	13989
863.768	14107
863.9	14073
864.032	13997
864.164	14103
864.296	14103
864.428	14123
864.559	14149
864.691	14157
864.823	14180
864.954	14176
865.086	14088
865.217	14035
865.349	13989
865.48	14012
865.612	14073
865.743	14221
865.875	14020
866.006	14035
866.137	14016
866.269	14111
866.4	13955
866.531	14005
866.662	13986
866.793	13974
866.924	14134
867.055	13970
867.186	14031
867.317	13928
867.448	13955
867.579	14027
867.71	14016
867.841	13932
867.972	14035
868.103	14001
868.233	13967
868.364	14046
868.495	14119
868.625	14282
868.756	14469
868.886	14172
869.017	14313
869.147	14385
869.278	14408
869.408	14336
869.539	14294
869.669	14389
869.799	14317
869.929	14480
870.06	14415
870.19	14598
870.32	14640
870.45	14613
870.58	14621
870.71	14823
870.84	14842
870.97	14674
871.1	14689
871.23	14872
871.36	14887
871.489	14720
871.619	14899
871.749	14952
871.879	14857
872.008	14994
872.138	14823
872.267	14891
872.397	14648
872.526	14788
872.656	14705
872.785	14705
872.915	14944
873.044	15005
873.173	14819
873.303	15009
873.432	14994
873.561	14906
873.69	14857
873.819	14861
873.948	15024
874.077	14918
874.206	14868
874.335	14956
874.464	15089
874.593	15199
874.722	15180
874.851	15294
874.979	15245
875.108	15298
875.237	15203
875.365	15058
875.494	15222
875.623	15310
875.751	15218
875.88	15214
876.008	15412
876.136	15538
876.265	15698
876.393	15869
876.521	15709
876.65	15736
876.778	15675
876.906	15656
877.034	15618
877.162	15587
877.29	15553
877.418	15701
877.546	15530
877.674	15561
877.802	15694
877.93	15557
878.058	15599
878.185	15542
878.313	15759
878.441	15694
878.568	15603
878.696	15618
878.824	15694
878.951	15679
879.079	15774
879.206	16059
879.333	15854
879.461	15637
879.588	15743
879.715	15808
879.842	15930
879.97	15781
880.097	15526
880.224	15443
880.351	15637
880.478	15553
880.605	15526
880.732	15629
880.859	15755
880.986	15481
881.112	15496
881.239	15424
881.366	15207
881.493	15146
881.619	15176
881.746	15184
881.872	15165
881.999	15100
882.125	15157
882.252	15264
882.378	15180
882.505	15321
882.631	15047
882.757	15047
882.883	15028
883.01	15039
883.136	14842
883.262	14880
883.388	14796
883.514	15013
883.64	15100
883.766	14971
883.892	14777
884.018	14864
884.143	15108
884.269	15017
884.395	14716
884.52	14655
884.646	14712
884.772	14598
884.897	14571
885.023	14739
885.148	14807
885.274	14811
885.399	14769
885.524	14682
885.65	14705
885.775	14781
885.9	14762
886.025	14689
886.15	14659
886.275	14648
886.4	14613
886.525	14663
886.65	14667
886.775	14625
886.9	14701
887.025	14933
887.149	14651
887.274	14461
887.399	14537
887.523	14427
887.648	14427
887.773	14396
887.897	14556
888.021	14541
888.146	14423
888.27	14648
888.395	14556
888.519	14594
888.643	14503
888.767	14602
888.891	14415
889.015	14381
889.139	14465
889.263	14374
889.387	14476
889.511	14579
889.635	14503
889.759	14336
889.883	14339
890.006	14461
890.13	14499
890.254	14324
890.377	14328
890.501	14115
890.624	14199
890.748	14252
890.871	14153
890.995	13993
891.118	14005
891.241	14096
891.364	14084
891.488	14229
891.611	14138
891.734	14142
891.857	14111
891.98	14077
892.103	14126
892.226	14123
892.349	14123
892.471	13951
892.594	14027
892.717	14123
892.839	14103
892.962	14092
893.085	14191
893.207	14031
893.33	13974
893.452	14077
893.575	14081
893.697	14054
893.819	14206
893.941	14271
894.064	14244
894.186	14100
894.308	13967
894.43	14202
894.552	14313
894.674	14191
894.796	14016
894.918	14142
895.04	14077
895.161	14328
895.283	14180
895.405	14043
895.526	14138
895.648	14237
895.769	14176
895.891	14290
896.012	14240
896.134	14366
896.255	14282
896.376	14240
896.498	14191
896.619	14332
896.74	14298
896.861	14259
896.982	14625
897.103	14735
897.224	14552
897.345	14545
897.466	14415
897.587	14473
897.708	14659
897.828	14571
897.949	14568
898.07	14438
898.19	14598
898.311	14613
898.431	14564
898.552	14667
898.672	14636
898.792	14716
898.913	14674
899.033	14636
899.153	14473
899.273	14400
899.393	14587
899.513	14533
899.633	14465
899.753	14530
899.873	14412
899.993	14503
900.113	14484
900.232	14465
900.352	14461
900.472	14476
900.591	14343
900.711	14374
900.83	14320
900.95	14415
901.069	14434
901.189	14370
901.308	14008
901.427	14035
901.546	13955
901.665	14069
901.784	14043
901.904	13860
902.023	13864
902.141	13643
902.26	13609
902.379	13719
902.498	13548
902.617	13540
902.735	13590
902.854	13613
902.973	13480
903.091	13434
903.21	13324
903.328	13331
903.446	13141
903.565	13217
903.683	13213
903.801	13050
903.919	13080
904.038	13194
904.156	12947
904.274	13126
904.392	12920
904.51	12932
904.627	12954
904.745	12947
904.863	12962
904.981	12829
905.098	12616
905.216	12669
905.334	12658
905.451	12642
905.569	12669
905.686	12776
905.803	12540
905.921	12498
906.038	12513
906.155	12483
906.272	12361
906.389	12369
906.506	12205
906.623	12167
906.74	12117
906.857	12064
906.974	12190
907.091	12262
907.208	12350
907.324	12155
907.441	12148
907.557	12007
907.674	11977
907.79	11965
907.907	12022
908.023	11942
908.139	12003
908.256	11901
908.372	11874
908.488	11920
908.604	11760
908.72	11718
908.836	11726
908.952	11676
909.068	11760
909.184	11863
909.3	11809
909.415	11809
909.531	11828
909.647	11520
909.762	11532
909.878	11509
909.993	11459
910.108	11585
910.224	11349
910.339	11448
910.454	11410
910.57	11322
910.685	11246
910.8	11653
910.915	11585
911.03	11436
911.145	11280
911.259	11208
911.374	11208
911.489	11189
911.604	11151
911.718	10991
911.833	11022
911.947	10866
912.062	10835
912.176	10987
912.291	10923
912.405	11029
912.519	11140
912.633	11189
912.748	11006
912.862	10923
912.976	10790
913.09	10717
913.204	10767
913.318	10847
913.431	10911
913.545	10965
913.659	10987
913.772	10862
913.886	10736
914	10702
914.113	10820
914.226	10839
914.34	10763
914.453	10694
914.566	10790
914.68	10691
914.793	10664
914.906	10474
915.019	10466
915.132	10367
915.245	10459
915.358	10497
915.47	10462
915.583	10523
915.696	10535
915.809	10603
915.921	10660
916.034	10440
916.146	10455
916.259	10325
916.371	10489
916.483	10516
916.595	10405
916.708	10367
916.82	10402
916.932	10348
917.044	10371
917.156	10398
917.268	10238
917.38	10272
917.491	10211
917.603	10310
917.715	10390
917.826	10447
917.938	10223
918.049	10249
918.161	10341
918.272	10470
918.384	10470
918.495	10299
918.606	10219
918.717	10173
918.828	10150
918.939	10204
919.05	10055
919.161	10268
919.272	9907
919.383	10082
919.494	10234
919.604	10352
919.715	10268
919.826	10093
919.936	10150
920.047	10261
920.157	10272
920.267	10356
920.378	10185
920.488	10211
920.598	10386
920.708	10542
920.818	10478
920.928	10405
921.038	10664
921.148	10554
921.258	10280
921.368	10196
921.477	10097
921.587	10059
921.697	9892
921.806	10055
921.916	9907
922.025	9759
922.134	9778
922.244	9671
922.353	9793
922.462	9717
922.571	9553
922.68	9447
922.789	9405
922.898	9500
923.007	9412
923.116	9485
923.224	9458
923.333	9542
923.442	9408
923.55	9294
923.659	9351
923.767	9313
923.876	9313
923.984	9408
924.092	9214
924.201	9344
924.309	9313
924.417	9321
924.525	9260
924.633	9211
924.741	9987
924.849	9058
924.956	9283
925.064	9074
925.172	8994
925.279	9028
925.387	9241
925.494	9085
925.602	9203
925.709	9131
925.816	8975
925.924	9116
926.031	9165
926.138	9142
926.245	9184
926.352	9100
926.459	9142
926.566	9214
926.673	9116
926.779	8990
926.886	8948
926.993	8766
927.099	8830
927.206	8788
927.312	8815
927.419	8861
927.525	8819
927.631	8834
927.737	8830
927.843	8708
927.95	8644
928.056	8750
928.162	8811
928.267	8823
928.373	9389
928.479	8804
928.585	8602
928.69	8648
928.796	8781
928.901	8613
929.007	8450
929.112	8571
929.218	8621
929.323	8564
929.428	8556
929.533	8697
929.638	8568
929.743	8476
929.848	8465
929.953	8537
930.058	8492
930.163	8221
930.267	8290
930.372	8465
930.477	8263
930.581	8492
930.685	8408
930.79	8244
930.894	8328
930.998	8225
931.103	8404
931.207	8103
931.311	7997
931.415	7898
931.519	7693
931.623	7715
