Data from test_V78500241_2084.txt Node
Date: Fri Mar 25 14:48:13 CST 2022
User: usil
Spectrometer: V785-0024
Trigger mode: 0
Integration Time (sec): 4.000000E-1
Scans to average: 1
Nonlinearity correction enabled: false
Boxcar width: 0
Storing dark spectrum: false
XAxis mode: Wavelengths
Number of Pixels in Spectrum: 1024
>>>>>Begin Spectral Data<<<<<
801.071	22143
801.214	21888
801.356	21846
801.499	21686
801.641	21538
801.783	21481
801.926	21466
802.068	21416
802.211	21355
802.353	21233
802.496	21024
802.638	21070
802.78	21081
802.923	20899
803.065	20845
803.208	20815
803.35	20838
803.492	20845
803.635	20963
803.777	20864
803.919	21009
804.061	21264
804.204	20914
804.346	20754
804.488	20667
804.63	20868
804.773	20617
804.915	20842
805.057	20830
805.199	20708
805.341	20887
805.483	20941
805.626	20857
805.768	20758
805.91	20746
806.052	20762
806.194	20629
806.336	20819
806.478	20720
806.62	20644
806.762	20895
806.904	20902
807.046	21138
807.188	20994
807.33	21039
807.472	20990
807.614	20979
807.756	20933
807.898	20826
808.04	20754
808.182	20804
808.324	20883
808.465	20994
808.607	21047
808.749	21100
808.891	21249
809.033	21336
809.174	21226
809.316	21108
809.458	21169
809.6	21020
809.741	21260
809.883	21176
810.025	21218
810.166	21344
810.308	21317
810.45	21188
810.591	21116
810.733	20994
810.875	20982
811.016	20773
811.158	20769
811.299	20990
811.441	21032
811.582	21024
811.724	20883
811.865	20826
812.007	20891
812.148	20853
812.29	20895
812.431	21017
812.573	21348
812.714	21279
812.855	21329
812.997	21412
813.138	21583
813.279	21443
813.421	21435
813.562	21237
813.703	21188
813.845	21135
813.986	20781
814.127	20587
814.268	20446
814.41	20587
814.551	20286
814.692	20461
814.833	20301
814.974	20404
815.115	20450
815.256	20267
815.397	20294
815.539	20195
815.68	20122
815.821	20168
815.962	20275
816.103	20180
816.244	19997
816.385	19947
816.526	19913
816.666	19807
816.807	19472
816.948	19552
817.089	19769
817.23	19624
817.371	19495
817.512	19635
817.653	19472
817.793	19514
817.934	19537
818.075	19559
818.216	19529
818.356	19586
818.497	19350
818.638	19202
818.778	19240
818.919	19168
819.06	19225
819.2	19392
819.341	19464
819.481	19559
819.622	19666
819.762	19696
819.903	19674
820.043	19525
820.184	19624
820.324	19487
820.465	19563
820.605	19487
820.746	19605
820.886	19396
821.026	19533
821.167	19529
821.307	19609
821.447	19464
821.588	19350
821.728	19232
821.868	19061
822.008	19069
822.149	18878
822.289	19019
822.429	18646
822.569	18525
822.709	18642
822.849	18513
822.99	18422
823.13	18467
823.27	18384
823.41	18327
823.55	18129
823.69	18281
823.83	18262
823.97	18152
824.11	18041
824.25	18030
824.389	17973
824.529	18114
824.669	18098
824.809	18213
824.949	18152
825.089	18068
825.228	17984
825.368	17840
825.508	17912
825.648	17843
825.787	17836
825.927	17790
826.067	17771
826.206	17710
826.346	17843
826.485	17824
826.625	17741
826.765	17912
826.904	17786
827.044	17630
827.183	17634
827.323	17471
827.462	17551
827.601	17566
827.741	17467
827.88	17471
828.02	17288
828.159	17577
828.298	17482
828.437	17547
828.577	17532
828.716	17638
828.855	17429
828.994	17391
829.134	17159
829.273	17288
829.412	17250
829.551	17143
829.69	17231
829.829	17231
829.968	17406
830.107	17315
830.246	17326
830.385	17189
830.524	17136
830.663	17033
830.802	16961
830.941	16850
831.08	16847
831.219	16889
831.357	16946
831.496	17121
831.635	16831
831.774	16763
831.913	16733
832.051	16691
832.19	16679
832.329	16679
832.467	16622
832.606	16569
832.744	16455
832.883	16466
833.022	16527
833.16	16485
833.299	16512
833.437	16592
833.576	16698
833.714	16535
833.852	16622
833.991	16653
834.129	16618
834.267	16831
834.406	16626
834.544	16649
834.682	16603
834.821	16645
834.959	16710
835.097	16508
835.235	16504
835.373	16721
835.511	16569
835.65	16626
835.788	16569
835.926	16394
836.064	16284
836.202	16322
836.34	16504
836.478	16672
836.615	16523
836.753	16512
836.891	16626
837.029	16565
837.167	16519
837.305	16451
837.443	16432
837.58	16253
837.718	16451
837.856	16363
837.993	16200
838.131	16382
838.269	16352
838.406	16348
838.544	16299
838.681	16109
838.819	16101
838.956	15861
839.094	15880
839.231	16071
839.369	16135
839.506	16375
839.643	16154
839.781	15945
839.918	15880
840.055	15949
840.193	15926
840.33	15865
840.467	15964
840.604	15987
840.742	16303
840.879	15766
841.016	15861
841.153	15808
841.29	16029
841.427	15960
841.564	15953
841.701	15949
841.838	15953
841.975	15800
842.112	15892
842.249	15717
842.385	15705
842.522	15979
842.659	15739
842.796	15690
842.933	15781
843.069	15633
843.206	15739
843.343	15892
843.479	15713
843.616	15705
843.752	15526
843.889	15530
844.025	15587
844.162	15500
844.298	15633
844.435	15511
844.571	15340
844.708	15515
844.844	15633
844.98	15618
845.117	15534
845.253	15481
845.389	15348
845.525	15439
845.661	15428
845.798	15306
845.934	15408
846.07	15233
846.206	15321
846.342	15393
846.478	15264
846.614	15108
846.75	15070
846.886	15043
847.022	15233
847.158	15077
847.294	15055
847.429	15074
847.565	15093
847.701	15302
847.837	14853
847.972	14823
848.108	14853
848.244	14857
848.379	14811
848.515	14686
848.65	14621
848.786	14640
848.921	14743
849.057	14716
849.192	14720
849.328	14735
849.463	14674
849.598	14606
849.734	14663
849.869	14465
850.004	14415
850.14	14381
850.275	14408
850.41	14454
850.545	14362
850.68	14347
850.815	14484
850.95	14461
851.085	14613
851.22	14457
851.355	14362
851.49	14480
851.625	14469
851.76	14336
851.895	14355
852.03	14389
852.165	14419
852.299	14492
852.434	14507
852.569	14450
852.703	14522
852.838	14431
852.973	14568
853.107	14594
853.242	14355
853.376	14263
853.511	14195
853.645	14271
853.78	14446
853.914	14377
854.048	14290
854.183	14237
854.317	14377
854.451	14400
854.585	14305
854.72	14180
854.854	14320
854.988	14214
855.122	14343
855.256	14119
855.39	14248
855.524	14366
855.658	14339
855.792	14320
855.926	14362
856.06	14415
856.194	14438
856.327	14370
856.461	14313
856.595	14298
856.729	14301
856.862	14423
856.996	14374
857.13	14324
857.263	14454
857.397	14339
857.53	14313
857.664	14404
857.797	14355
857.931	14370
858.064	14347
858.197	14389
858.331	14214
858.464	14176
858.597	14142
858.731	14301
858.864	14320
858.997	14267
859.13	14358
859.263	14457
859.396	14400
859.529	14339
859.662	14347
859.795	14267
859.928	14396
860.061	14423
860.194	14434
860.327	14343
860.46	14282
860.592	14427
860.725	14408
860.858	14454
860.99	14275
861.123	14252
861.256	14271
861.388	14370
861.521	14868
861.653	14240
861.786	14050
861.918	14229
862.05	14199
862.183	14237
862.315	14301
862.447	14313
862.58	14244
862.712	14138
862.844	14008
862.976	14054
863.108	14153
863.24	14438
863.372	14031
863.504	14054
863.636	14100
863.768	14126
863.9	14054
864.032	14043
864.164	13951
864.296	14130
864.428	14347
864.559	14218
864.691	14107
864.823	14142
864.954	14111
865.086	14145
865.217	14218
865.349	13963
865.48	14062
865.612	14138
865.743	14343
865.875	14172
866.006	14046
866.137	14073
866.269	14111
866.4	14046
866.531	14069
866.662	14031
866.793	13989
866.924	14016
867.055	14043
867.186	14145
867.317	14016
867.448	14031
867.579	14016
867.71	13974
867.841	14005
867.972	14111
868.103	13997
868.233	14111
868.364	13993
868.495	14210
868.625	14267
868.756	14415
868.886	14320
869.017	14362
869.147	14492
869.278	14442
869.408	14275
869.539	14423
869.669	14427
869.799	14355
869.929	14511
870.06	14457
870.19	14724
870.32	14606
870.45	14667
870.58	14724
870.71	14800
870.84	14842
870.97	14811
871.1	14697
871.23	14933
871.36	14872
871.489	14689
871.619	14838
871.749	14868
871.879	15036
872.008	14979
872.138	15043
872.267	14895
872.397	14716
872.526	14792
872.656	14731
872.785	14792
872.915	14948
873.044	14960
873.173	14956
873.303	14864
873.432	15127
873.561	15070
873.69	15024
873.819	14998
873.948	15055
874.077	15036
874.206	14929
874.335	15089
874.464	15214
874.593	15283
874.722	15260
874.851	15302
874.979	15268
875.108	15355
875.237	15222
875.365	15165
875.494	15222
875.623	15344
875.751	15264
875.88	15363
876.008	15485
876.136	15526
876.265	15770
876.393	15861
876.521	15793
876.65	15793
876.778	15713
876.906	15755
877.034	15644
877.162	15690
877.29	15686
877.418	15660
877.546	15660
877.674	15675
877.802	15591
877.93	15728
878.058	15663
878.185	15599
878.313	15724
878.441	15557
878.568	15564
878.696	15717
878.824	15785
878.951	15797
879.079	15907
879.206	16032
879.333	15964
879.461	15842
879.588	15793
879.715	15880
879.842	16006
879.97	15781
880.097	15587
880.224	15568
880.351	15637
880.478	15534
880.605	15572
880.732	15542
880.859	15751
880.986	15534
881.112	15542
881.239	15412
881.366	15344
881.493	15325
881.619	15218
881.746	15245
881.872	15245
881.999	15150
882.125	15199
882.252	15294
882.378	15313
882.505	15302
882.631	15112
882.757	15077
882.883	14967
883.01	15058
883.136	14891
883.262	14937
883.388	14941
883.514	15032
883.64	15119
883.766	14963
883.892	14982
884.018	14895
884.143	15028
884.269	15169
884.395	14682
884.52	14796
884.646	14815
884.772	14682
884.897	14667
885.023	14788
885.148	14910
885.274	14868
885.399	14826
885.524	14754
885.65	14727
885.775	14674
885.9	14716
886.025	14811
886.15	14834
886.275	14689
886.4	14659
886.525	14667
886.65	14606
886.775	14670
886.9	14845
887.025	14975
887.149	14678
887.274	14564
887.399	14545
887.523	14613
887.648	14533
887.773	14484
887.897	14648
888.021	14583
888.146	14518
888.27	14762
888.395	14705
888.519	14617
888.643	14640
888.767	14594
888.891	14484
889.015	14469
889.139	14488
889.263	14431
889.387	14522
889.511	14636
889.635	14568
889.759	14286
889.883	14396
890.006	14465
890.13	14507
890.254	14324
890.377	14381
890.501	14199
890.624	14191
890.748	14336
890.871	14153
890.995	14149
891.118	14081
891.241	14180
891.364	14069
891.488	14225
891.611	14138
891.734	14149
891.857	14305
891.98	14149
892.103	14237
892.226	14130
892.349	14126
892.471	14016
892.594	14119
892.717	14126
892.839	14058
892.962	14092
893.085	14214
893.207	14195
893.33	14050
893.452	14062
893.575	14157
893.697	14157
893.819	14214
893.941	14294
894.064	14347
894.186	14161
894.308	14024
894.43	14343
894.552	14328
894.674	14328
894.796	14039
894.918	14233
895.04	14244
895.161	14301
895.283	14290
895.405	14221
895.526	14180
895.648	14278
895.769	14180
895.891	14298
896.012	14324
896.134	14313
896.255	14240
896.376	14317
896.498	14240
896.619	14339
896.74	14305
896.861	14381
896.982	14686
897.103	14724
897.224	14632
897.345	14568
897.466	14507
897.587	14651
897.708	14693
897.828	14617
897.949	14530
898.07	14522
898.19	14575
898.311	14727
898.431	14590
898.552	14598
898.672	14701
898.792	14636
898.913	14712
899.033	14621
899.153	14507
899.273	14389
899.393	14442
899.513	14469
899.633	14488
899.753	14480
899.873	14324
899.993	14503
900.113	14446
900.232	14457
900.352	14415
900.472	14442
900.591	14278
900.711	14332
900.83	14374
900.95	14522
901.069	14522
901.189	14351
901.308	14035
901.427	13974
901.546	13951
901.665	13993
901.784	14088
901.904	13906
902.023	13799
902.141	13681
902.26	13594
902.379	13666
902.498	13578
902.617	13567
902.735	13632
902.854	13693
902.973	13480
903.091	13324
903.21	13324
903.328	13312
903.446	13225
903.565	13164
903.683	13129
903.801	13091
903.919	13202
904.038	13118
904.156	13000
904.274	13027
904.392	12985
904.51	12981
904.627	12973
904.745	13004
904.863	13015
904.981	12810
905.098	12616
905.216	12616
905.334	12696
905.451	12673
905.569	12715
905.686	12677
905.803	12734
905.921	12502
906.038	12665
906.155	12498
906.272	12395
906.389	12437
906.506	12350
906.623	12342
906.74	12319
906.857	12140
906.974	12224
907.091	12270
907.208	12433
907.324	12292
907.441	12205
907.557	12007
907.674	11984
907.79	11950
907.907	11996
908.023	11980
908.139	12083
908.256	12038
908.372	11992
908.488	11920
908.604	11771
908.72	11775
908.836	11733
908.952	11794
909.068	11737
909.184	11916
909.3	11718
909.415	11809
909.531	11840
909.647	11429
909.762	11562
909.878	11562
909.993	11524
910.108	11566
910.224	11512
910.339	11547
910.454	11554
910.57	11353
910.685	11258
910.8	11634
910.915	11520
911.03	11417
911.145	11197
911.259	11265
911.374	11178
911.489	11132
911.604	11197
911.718	11014
911.833	11037
911.947	10915
912.062	10831
912.176	11018
912.291	10938
912.405	10999
912.519	11151
912.633	11242
912.748	11010
912.862	11037
912.976	10889
913.09	10793
913.204	10824
913.318	10881
913.431	10961
913.545	10934
913.659	10984
913.772	10911
913.886	10809
914	10793
914.113	10801
914.226	10930
914.34	10873
914.453	10725
914.566	10869
914.68	10653
914.793	10706
914.906	10527
915.019	10432
915.132	10500
915.245	10474
915.358	10535
915.47	10474
915.583	10588
915.696	10504
915.809	10698
915.921	10599
916.034	10382
916.146	10512
916.259	10451
916.371	10481
916.483	10512
916.595	10405
916.708	10436
916.82	10436
916.932	10386
917.044	10432
917.156	10405
917.268	10363
917.38	10329
917.491	10310
917.603	10348
917.715	10432
917.826	10497
917.938	10310
918.049	10219
918.161	10375
918.272	10455
918.384	10516
918.495	10333
918.606	10196
918.717	10162
918.828	10211
918.939	10257
919.05	10135
919.161	10192
919.272	10013
919.383	10055
919.494	10257
919.604	10409
919.715	10185
919.826	10158
919.936	10196
920.047	10356
920.157	10204
920.267	10447
920.378	10291
920.488	10268
920.598	10504
920.708	10630
920.818	10413
920.928	10352
921.038	10694
921.148	10569
921.258	10276
921.368	10185
921.477	10135
921.587	10078
921.697	9991
921.806	10112
921.916	10029
922.025	9831
922.134	9800
922.244	9690
922.353	9759
922.462	9637
922.571	9644
922.68	9538
922.789	9450
922.898	9523
923.007	9424
923.116	9534
923.224	9523
923.333	9542
923.442	9336
923.55	9340
923.659	9435
923.767	9397
923.876	9313
923.984	9412
924.092	9325
924.201	9416
924.309	9378
924.417	9351
924.525	9329
924.633	9310
924.741	10272
924.849	9108
924.956	9294
925.064	9100
925.172	9032
925.279	9131
925.387	9116
925.494	9074
925.602	9291
925.709	9165
925.816	9066
925.924	9184
926.031	9268
926.138	9169
926.245	9226
926.352	9077
926.459	9245
926.566	9218
926.673	9081
926.779	8963
926.886	9028
926.993	8845
927.099	8804
927.206	8811
927.312	8735
927.419	8887
927.525	8834
927.631	8834
927.737	8785
927.843	8796
927.95	8640
928.056	8777
928.162	8758
928.267	8842
928.373	9367
928.479	8842
928.585	8625
928.69	8701
928.796	8777
928.901	8686
929.007	8518
929.112	8678
929.218	8648
929.323	8533
929.428	8568
929.533	8705
929.638	8541
929.743	8537
929.848	8594
929.953	8575
930.058	8465
930.163	8362
930.267	8332
930.372	8465
930.477	8240
930.581	8579
930.685	8396
930.79	8267
930.894	8320
930.998	8286
931.103	8415
931.207	8024
931.311	8035
931.415	7986
931.519	7818
931.623	7879
