Data from test_V78500241_3134.txt Node
Date: Fri Mar 25 14:55:32 CST 2022
User: usil
Spectrometer: V785-0024
Trigger mode: 0
Integration Time (sec): 4.000000E-1
Scans to average: 1
Nonlinearity correction enabled: false
Boxcar width: 0
Storing dark spectrum: false
XAxis mode: Wavelengths
Number of Pixels in Spectrum: 1024
>>>>>Begin Spectral Data<<<<<
801.071	21884
801.214	21926
801.356	21637
801.499	21637
801.641	21542
801.783	21344
801.926	21424
802.068	21302
802.211	21344
802.353	21192
802.496	20937
802.638	21001
802.78	20796
802.923	20788
803.065	20716
803.208	20708
803.35	20712
803.492	20845
803.635	20815
803.777	20727
803.919	20849
804.061	21036
804.204	20792
804.346	20644
804.488	20739
804.63	20663
804.773	20545
804.915	20701
805.057	20819
805.199	20518
805.341	20617
805.483	20800
805.626	20815
805.768	20518
805.91	20621
806.052	20788
806.194	20530
806.336	20754
806.478	20689
806.62	20571
806.762	20724
806.904	20823
807.046	21077
807.188	21005
807.33	20967
807.472	21055
807.614	20834
807.756	20883
807.898	20861
808.04	20594
808.182	20712
808.324	20667
808.465	20830
808.607	20853
808.749	21028
808.891	21074
809.033	21252
809.174	21055
809.316	20994
809.458	21051
809.6	21096
809.741	21036
809.883	21085
810.025	21211
810.166	21116
810.308	21157
810.45	21131
810.591	21039
810.733	20819
810.875	20876
811.016	20758
811.158	20792
811.299	20796
811.441	20914
811.582	20990
811.724	20807
811.865	20899
812.007	20693
812.148	20948
812.29	20811
812.431	20891
812.573	21017
812.714	21135
812.855	21306
812.997	21458
813.138	21538
813.279	21332
813.421	21393
813.562	21169
813.703	21081
813.845	20971
813.986	20613
814.127	20530
814.268	20385
814.41	20457
814.551	20237
814.692	20400
814.833	20225
814.974	20240
815.115	20286
815.256	20259
815.397	20229
815.539	20103
815.68	20100
815.821	19917
815.962	20172
816.103	19986
816.244	19963
816.385	19776
816.526	19677
816.666	19616
816.807	19552
816.948	19510
817.089	19590
817.23	19510
817.371	19491
817.512	19445
817.653	19460
817.793	19438
817.934	19434
818.075	19434
818.216	19426
818.356	19441
818.497	19316
818.638	19110
818.778	19221
818.919	19141
819.06	19232
819.2	19400
819.341	19384
819.481	19369
819.622	19495
819.762	19586
819.903	19616
820.043	19426
820.184	19381
820.324	19441
820.465	19415
820.605	19400
820.746	19259
820.886	19259
821.026	19335
821.167	19358
821.307	19502
821.447	19468
821.588	19259
821.728	19133
821.868	19000
822.008	18951
822.149	18878
822.289	18795
822.429	18582
822.569	18506
822.709	18509
822.849	18330
822.99	18277
823.13	18239
823.27	18319
823.41	18178
823.55	17969
823.69	18129
823.83	18163
823.97	18060
824.11	17988
824.25	17882
824.389	18022
824.529	17946
824.669	17897
824.809	18022
824.949	18019
825.089	18057
825.228	17851
825.368	17668
825.508	17619
825.648	17680
825.787	17710
825.927	17703
826.067	17672
826.206	17596
826.346	17695
826.485	17653
826.625	17638
826.765	17775
826.904	17657
827.044	17474
827.183	17459
827.323	17360
827.462	17459
827.601	17330
827.741	17410
827.88	17322
828.02	17303
828.159	17353
828.298	17368
828.437	17280
828.577	17406
828.716	17516
828.855	17345
828.994	17064
829.134	17090
829.273	17029
829.412	17075
829.551	17121
829.69	17166
829.829	17140
829.968	17296
830.107	17109
830.246	17132
830.385	17086
830.524	16972
830.663	16942
830.802	16786
830.941	16729
831.08	16706
831.219	16763
831.357	16816
831.496	16911
831.635	16736
831.774	16622
831.913	16653
832.051	16504
832.19	16584
832.329	16527
832.467	16485
832.606	16394
832.744	16421
832.883	16485
833.022	16386
833.16	16333
833.299	16409
833.437	16447
833.576	16348
833.714	16352
833.852	16546
833.991	16493
834.129	16500
834.267	16519
834.406	16413
834.544	16508
834.682	16428
834.821	16558
834.959	16634
835.097	16375
835.235	16588
835.373	16409
835.511	16466
835.65	16443
835.788	16337
835.926	16295
836.064	16306
836.202	16223
836.34	16466
836.478	16478
836.615	16303
836.753	16360
836.891	16443
837.029	16363
837.167	16352
837.305	16287
837.443	16257
837.58	16196
837.718	16306
837.856	16322
837.993	16204
838.131	16363
838.269	16223
838.406	16265
838.544	16181
838.681	15964
838.819	15915
838.956	15895
839.094	15732
839.231	15892
839.369	15979
839.506	16166
839.643	15949
839.781	15949
839.918	15850
840.055	15793
840.193	15778
840.33	15728
840.467	15819
840.604	15846
840.742	15998
840.879	15606
841.016	15652
841.153	15694
841.29	15911
841.427	15804
841.564	15911
841.701	15720
841.838	15755
841.975	15713
842.112	15720
842.249	15637
842.385	15492
842.522	15648
842.659	15637
842.796	15561
842.933	15595
843.069	15568
843.206	15580
843.343	15587
843.479	15614
843.616	15610
843.752	15325
843.889	15298
844.025	15473
844.162	15317
844.298	15454
844.435	15363
844.571	15306
844.708	15473
844.844	15542
844.98	15507
845.117	15477
845.253	15344
845.389	15226
845.525	15367
845.661	15245
845.798	15116
845.934	15203
846.07	15104
846.206	15176
846.342	15367
846.478	15074
846.614	15047
846.75	14849
846.886	14853
847.022	15047
847.158	14823
847.294	14925
847.429	15032
847.565	14937
847.701	15260
847.837	14667
847.972	14716
848.108	14765
848.244	14712
848.379	14511
848.515	14480
848.65	14537
848.786	14571
848.921	14514
849.057	14648
849.192	14648
849.328	14587
849.463	14488
849.598	14556
849.734	14415
849.869	14389
850.004	14256
850.14	14343
850.275	14332
850.41	14172
850.545	14320
850.68	14263
850.815	14271
850.95	14324
851.085	14480
851.22	14450
851.355	14275
851.49	14286
851.625	14244
851.76	14119
851.895	14176
852.03	14191
852.165	14256
852.299	14339
852.434	14336
852.569	14362
852.703	14324
852.838	14339
852.973	14450
853.107	14454
853.242	14256
853.376	14199
853.511	14081
853.645	14035
853.78	14259
853.914	14157
854.048	14103
854.183	14084
854.317	14134
854.451	14248
854.585	14221
854.72	14119
854.854	14221
854.988	14142
855.122	14138
855.256	13986
855.39	14111
855.524	14240
855.658	14126
855.792	14176
855.926	14240
856.06	14153
856.194	14225
856.327	14123
856.461	14130
856.595	14092
856.729	14115
856.862	14225
856.996	14172
857.13	14202
857.263	14256
857.397	14320
857.53	14084
857.664	14233
857.797	14229
857.931	14256
858.064	14214
858.197	14301
858.331	14077
858.464	14115
858.597	14111
858.731	14153
858.864	14145
858.997	14145
859.13	14214
859.263	14202
859.396	14290
859.529	14103
859.662	14035
859.795	14134
859.928	14202
860.061	14237
860.194	14294
860.327	14221
860.46	14202
860.592	14290
860.725	14358
860.858	14256
860.99	14191
861.123	14062
861.256	14073
861.388	14058
861.521	14811
861.653	14005
861.786	14100
861.918	14005
862.05	14149
862.183	14126
862.315	14043
862.447	14180
862.58	14088
862.712	13970
862.844	13860
862.976	14035
863.108	13940
863.24	14259
863.372	13890
863.504	13849
863.636	14020
863.768	13959
863.9	13936
864.032	13921
864.164	13963
864.296	14005
864.428	14077
864.559	14081
864.691	13997
864.823	13997
864.954	13902
865.086	13917
865.217	13955
865.349	13944
865.48	13860
865.612	14016
865.743	14020
865.875	13917
866.006	13970
866.137	13898
866.269	13871
866.4	13898
866.531	13894
866.662	13936
866.793	13909
866.924	13898
867.055	13868
867.186	13871
867.317	13860
867.448	13731
867.579	13883
867.71	13856
867.841	13776
867.972	13940
868.103	13898
868.233	14020
868.364	13936
868.495	13997
868.625	14134
868.756	14317
868.886	14103
869.017	14244
869.147	14240
869.278	14412
869.408	14237
869.539	14206
869.669	14214
869.799	14225
869.929	14347
870.06	14336
870.19	14587
870.32	14419
870.45	14541
870.58	14682
870.71	14716
870.84	14625
870.97	14621
871.1	14552
871.23	14758
871.36	14727
871.489	14689
871.619	14769
871.749	14853
871.879	14899
872.008	15001
872.138	14792
872.267	14906
872.397	14659
872.526	14571
872.656	14701
872.785	14720
872.915	14887
873.044	14929
873.173	14880
873.303	14868
873.432	14823
873.561	14982
873.69	14804
873.819	14842
873.948	14933
874.077	14891
874.206	14807
874.335	14849
874.464	15047
874.593	15051
874.722	15097
874.851	15142
874.979	15161
875.108	15180
875.237	15188
875.365	14952
875.494	15142
875.623	15275
875.751	15097
875.88	15237
876.008	15325
876.136	15405
876.265	15637
876.393	15743
876.521	15622
876.65	15641
876.778	15606
876.906	15572
877.034	15401
877.162	15458
877.29	15542
877.418	15519
877.546	15572
877.674	15504
877.802	15599
877.93	15614
878.058	15580
878.185	15458
878.313	15610
878.441	15584
878.568	15424
878.696	15450
878.824	15511
878.951	15667
879.079	15675
879.206	15903
879.333	15797
879.461	15618
879.588	15739
879.715	15728
879.842	15899
879.97	15686
880.097	15462
880.224	15435
880.351	15454
880.478	15443
880.605	15378
880.732	15443
880.859	15690
880.986	15507
881.112	15473
881.239	15252
881.366	15211
881.493	15135
881.619	15123
881.746	15108
881.872	15142
881.999	14925
882.125	14994
882.252	15108
882.378	15070
882.505	15157
882.631	14906
882.757	14830
882.883	14887
883.01	14861
883.136	14750
883.262	14754
883.388	14788
883.514	14804
883.64	14834
883.766	14830
883.892	14720
884.018	14724
884.143	14868
884.269	15058
884.395	14663
884.52	14644
884.646	14651
884.772	14518
884.897	14465
885.023	14564
885.148	14701
885.274	14765
885.399	14655
885.524	14659
885.65	14613
885.775	14598
885.9	14526
886.025	14743
886.15	14621
886.275	14518
886.4	14583
886.525	14602
886.65	14610
886.775	14537
886.9	14758
887.025	14788
887.149	14625
887.274	14545
887.399	14393
887.523	14408
887.648	14400
887.773	14358
887.897	14545
888.021	14438
888.146	14355
888.27	14511
888.395	14537
888.519	14377
888.643	14526
888.767	14362
888.891	14366
889.015	14286
889.139	14374
889.263	14278
889.387	14415
889.511	14484
889.635	14415
889.759	14290
889.883	14218
890.006	14347
890.13	14275
890.254	14244
890.377	14214
890.501	14043
890.624	14130
890.748	14123
890.871	14103
890.995	13909
891.118	13898
891.241	14062
891.364	14012
891.488	14100
891.611	13989
891.734	14054
891.857	14020
891.98	14008
892.103	14096
892.226	14092
892.349	13974
892.471	13860
892.594	13940
892.717	14027
892.839	13932
892.962	13951
893.085	14088
893.207	13982
893.33	13822
893.452	13989
893.575	14054
893.697	14008
893.819	14218
893.941	14164
894.064	14168
894.186	13978
894.308	14054
894.43	14107
894.552	14218
894.674	14164
894.796	14016
894.918	14031
895.04	14043
895.161	14077
895.283	14069
895.405	14008
895.526	14069
895.648	14142
895.769	14153
895.891	14077
896.012	14218
896.134	14214
896.255	14123
896.376	14100
896.498	14206
896.619	14282
896.74	14145
896.861	14317
896.982	14461
897.103	14689
897.224	14450
897.345	14412
897.466	14389
897.587	14480
897.708	14579
897.828	14473
897.949	14370
898.07	14381
898.19	14415
898.311	14602
898.431	14396
898.552	14564
898.672	14575
898.792	14571
898.913	14632
899.033	14473
899.153	14412
899.273	14355
899.393	14408
899.513	14370
899.633	14366
899.753	14339
899.873	14355
899.993	14427
900.113	14423
900.232	14370
900.352	14374
900.472	14244
900.591	14206
900.711	14286
900.83	14199
900.95	14328
901.069	14305
901.189	14172
901.308	14008
901.427	13894
901.546	13940
901.665	13947
901.784	13970
901.904	13849
902.023	13750
902.141	13575
902.26	13556
902.379	13662
902.498	13559
902.617	13445
902.735	13510
902.854	13480
902.973	13438
903.091	13259
903.21	13232
903.328	13312
903.446	13175
903.565	13107
903.683	13091
903.801	12985
903.919	13103
904.038	13015
904.156	12844
904.274	12932
904.392	12932
904.51	12875
904.627	12871
904.745	12935
904.863	13000
904.981	12688
905.098	12570
905.216	12566
905.334	12597
905.451	12570
905.569	12525
905.686	12582
905.803	12620
905.921	12361
906.038	12532
906.155	12422
906.272	12346
906.389	12376
906.506	12175
906.623	12171
906.74	12133
906.857	12019
906.974	12015
907.091	12262
907.208	12330
907.324	12178
907.441	12140
907.557	12045
907.674	11904
907.79	11851
907.907	11874
908.023	11999
908.139	11942
908.256	11901
908.372	11836
908.488	11695
908.604	11668
908.72	11676
908.836	11615
908.952	11634
909.068	11729
909.184	11813
909.3	11691
909.415	11726
909.531	11691
909.647	11429
909.762	11448
909.878	11395
909.993	11493
910.108	11311
910.224	11368
910.339	11478
910.454	11368
910.57	11280
910.685	11159
910.8	11516
910.915	11406
911.03	11379
911.145	11155
911.259	11151
911.374	11132
911.489	11083
911.604	10972
911.718	10930
911.833	10915
911.947	10820
912.062	10721
912.176	10919
912.291	10923
912.405	10946
912.519	11075
912.633	11113
912.748	10938
912.862	10869
912.976	10866
913.09	10721
913.204	10752
913.318	10740
913.431	10892
913.545	10862
913.659	10908
913.772	10828
913.886	10721
914	10637
914.113	10755
914.226	10801
914.34	10828
914.453	10584
914.566	10759
914.68	10687
914.793	10630
914.906	10451
915.019	10428
915.132	10322
915.245	10382
915.358	10428
915.47	10367
915.583	10413
915.696	10508
915.809	10554
915.921	10561
916.034	10519
916.146	10348
916.259	10352
916.371	10493
916.483	10474
916.595	10394
916.708	10367
916.82	10276
916.932	10333
917.044	10348
917.156	10295
917.268	10158
917.38	10295
917.491	10143
917.603	10257
917.715	10379
917.826	10386
917.938	10211
918.049	10150
918.161	10303
918.272	10363
918.384	10341
918.495	10291
918.606	10139
918.717	10128
918.828	10097
918.939	10219
919.05	9998
919.161	10078
919.272	9994
919.383	9949
919.494	10207
919.604	10284
919.715	10139
919.826	10105
919.936	10219
920.047	10200
920.157	10257
920.267	10348
920.378	10124
920.488	10177
920.598	10382
920.708	10481
920.818	10409
920.928	10322
921.038	10546
921.148	10432
921.258	10223
921.368	10097
921.477	10048
921.587	10013
921.697	9899
921.806	10006
921.916	9930
922.025	9743
922.134	9732
922.244	9599
922.353	9732
922.462	9519
922.571	9553
922.68	9329
922.789	9336
922.898	9382
923.007	9424
923.116	9397
923.224	9447
923.333	9382
923.442	9264
923.55	9253
923.659	9268
923.767	9370
923.876	9249
923.984	9253
924.092	9173
924.201	9283
924.309	9237
924.417	9287
924.525	9275
924.633	9207
924.741	10166
924.849	9062
924.956	9131
925.064	9085
925.172	9001
925.279	8982
925.387	9116
925.494	9074
925.602	9146
925.709	9112
925.816	8963
925.924	9070
926.031	9146
926.138	9058
926.245	9173
926.352	9005
926.459	9058
926.566	9039
926.673	9047
926.779	8937
926.886	8921
926.993	8746
927.099	8785
927.206	8705
927.312	8701
927.419	8781
927.525	8788
927.631	8785
927.737	8640
927.843	8678
927.95	8583
928.056	8667
928.162	8701
928.267	8663
928.373	9283
928.479	8815
928.585	8552
928.69	8670
928.796	8693
928.901	8602
929.007	8434
929.112	8720
929.218	8583
929.323	8587
929.428	8454
929.533	8640
929.638	8412
929.743	8465
929.848	8495
929.953	8469
930.058	8412
930.163	8267
930.267	8240
930.372	8438
930.477	8229
930.581	8545
930.685	8351
930.79	8214
930.894	8290
930.998	8206
931.103	8328
931.207	7982
931.311	7967
931.415	7883
931.519	7738
931.623	7670
