Data from test_V78500241_965.txt Node
Date: Fri Mar 25 14:40:26 CST 2022
User: usil
Spectrometer: V785-0024
Trigger mode: 0
Integration Time (sec): 4.000000E-1
Scans to average: 1
Nonlinearity correction enabled: false
Boxcar width: 0
Storing dark spectrum: false
XAxis mode: Wavelengths
Number of Pixels in Spectrum: 1024
>>>>>Begin Spectral Data<<<<<
801.071	23551
801.214	23258
801.356	23170
801.499	23094
801.641	22919
801.783	22843
801.926	22892
802.068	22748
802.211	22615
802.353	22462
802.496	22367
802.638	22310
802.78	22428
802.923	22128
803.065	22265
803.208	22154
803.35	22215
803.492	22169
803.635	22322
803.777	22131
803.919	22185
804.061	22394
804.204	22234
804.346	22223
804.488	22101
804.63	22067
804.773	22002
804.915	21968
805.057	22196
805.199	22131
805.341	22128
805.483	22185
805.626	22131
805.768	22048
805.91	21953
806.052	22173
806.194	22078
806.336	22371
806.478	22162
806.62	22166
806.762	22291
806.904	22500
807.046	22729
807.188	22618
807.33	22664
807.472	22873
807.614	22782
807.756	22896
807.898	22873
808.04	22911
808.182	23083
808.324	23307
808.465	23604
808.607	23977
808.749	24136
808.891	24471
809.033	24703
809.174	24304
809.316	23939
809.458	23863
809.6	23474
809.741	23356
809.883	23140
810.025	23147
810.166	23025
810.308	23086
810.45	22900
810.591	22809
810.733	22679
810.875	22516
811.016	22485
811.158	22322
811.299	22466
811.441	22596
811.582	22466
811.724	22405
811.865	22356
812.007	22379
812.148	22459
812.29	22512
812.431	22550
812.573	22786
812.714	22710
812.855	22892
812.997	22885
813.138	23075
813.279	22953
813.421	22877
813.562	22820
813.703	22649
813.845	22538
813.986	22196
814.127	22029
814.268	22109
814.41	21911
814.551	21911
814.692	21865
814.833	21812
814.974	21762
815.115	21816
815.256	21641
815.397	21698
815.539	21724
815.68	21641
815.821	21431
815.962	21622
816.103	21511
816.244	21450
816.385	21233
816.526	21408
816.666	21142
816.807	21009
816.948	21154
817.089	21028
817.23	20975
817.371	20910
817.512	20963
817.653	20941
817.793	20883
817.934	21055
818.075	20998
818.216	21020
818.356	21036
818.497	20834
818.638	20644
818.778	20648
818.919	20754
819.06	20811
819.2	20845
819.341	20906
819.481	20796
819.622	21074
819.762	21241
819.903	21036
820.043	21020
820.184	20941
820.324	20986
820.465	20948
820.605	21051
820.746	20918
820.886	20758
821.026	21001
821.167	21028
821.307	21009
821.447	20796
821.588	20697
821.728	20533
821.868	20385
822.008	20396
822.149	20336
822.289	20305
822.429	20046
822.569	20043
822.709	19986
822.849	19795
822.99	19788
823.13	19849
823.27	19666
823.41	19563
823.55	19533
823.69	19548
823.83	19567
823.97	19518
824.11	19350
824.25	19373
824.389	19354
824.529	19521
824.669	19327
824.809	19388
824.949	19388
825.089	19537
825.228	19335
825.368	19354
825.508	19148
825.648	19202
825.787	19225
825.927	19266
826.067	19175
826.206	19046
826.346	19259
826.485	19168
826.625	19145
826.765	19289
826.904	19194
827.044	18981
827.183	19095
827.323	18745
827.462	18897
827.601	18905
827.741	18894
827.88	18901
828.02	18848
828.159	18779
828.298	18776
828.437	18833
828.577	18741
828.716	18837
828.855	18798
828.994	18585
829.134	18566
829.273	18669
829.412	18661
829.551	18460
829.69	18597
829.829	18677
829.968	18684
830.107	18620
830.246	18521
830.385	18479
830.524	18475
830.663	18460
830.802	18186
830.941	18213
831.08	18216
831.219	18361
831.357	18266
831.496	18395
831.635	18091
831.774	18026
831.913	18148
832.051	17935
832.19	18155
832.329	18076
832.467	17889
832.606	17847
832.744	17855
832.883	17897
833.022	17707
833.16	17935
833.299	17980
833.437	17992
833.576	18057
833.714	18117
833.852	18060
833.991	18038
834.129	18178
834.267	18133
834.406	18007
834.544	17992
834.682	18030
834.821	17904
834.959	18182
835.097	17904
835.235	18038
835.373	17996
835.511	17942
835.65	17859
835.788	17882
835.926	17672
836.064	17653
836.202	17539
836.34	17847
836.478	17939
836.615	17718
836.753	17824
836.891	17878
837.029	17908
837.167	17771
837.305	17748
837.443	17680
837.58	17570
837.718	17771
837.856	17672
837.993	17592
838.131	17653
838.269	17573
838.406	17729
838.544	17482
838.681	17353
838.819	17261
838.956	17204
839.094	17151
839.231	17212
839.369	17258
839.506	17596
839.643	17379
839.781	17277
839.918	17048
840.055	17212
840.193	17075
840.33	17159
840.467	17094
840.604	17140
840.742	17425
840.879	17079
841.016	17128
841.153	17060
841.29	17269
841.427	17258
841.564	17197
841.701	17200
841.838	17060
841.975	17022
842.112	17014
842.249	16976
842.385	16858
842.522	17105
842.659	16927
842.796	16904
842.933	16873
843.069	16786
843.206	16854
843.343	16972
843.479	16942
843.616	16885
843.752	16687
843.889	16774
844.025	16763
844.162	16793
844.298	16805
844.435	16706
844.571	16725
844.708	16824
844.844	17025
844.98	17033
845.117	17014
845.253	16927
845.389	17060
845.525	17318
845.661	17649
845.798	18087
845.934	18722
846.07	18840
846.206	18837
846.342	18540
846.478	17779
846.614	17121
846.75	16858
846.886	16679
847.022	16573
847.158	16481
847.294	16390
847.429	16284
847.565	16268
847.701	16558
847.837	16101
847.972	15934
848.108	16074
848.244	16063
848.379	15918
848.515	15876
848.65	15949
848.786	15838
848.921	15972
849.057	15956
849.192	16025
849.328	15854
849.463	15854
849.598	15846
849.734	15690
849.869	15694
850.004	15637
850.14	15595
850.275	15610
850.41	15405
850.545	15549
850.68	15587
850.815	15610
850.95	15564
851.085	15781
851.22	15648
851.355	15599
851.49	15599
851.625	15542
851.76	15576
851.895	15511
852.03	15576
852.165	15686
852.299	15694
852.434	15584
852.569	15709
852.703	15564
852.838	15663
852.973	15797
853.107	15724
853.242	15572
853.376	15496
853.511	15351
853.645	15469
853.78	15572
853.914	15378
854.048	15386
854.183	15458
854.317	15519
854.451	15690
854.585	15431
854.72	15481
854.854	15530
854.988	15454
855.122	15488
855.256	15226
855.39	15340
855.524	15538
855.658	15504
855.792	15401
855.926	15477
856.06	15473
856.194	15561
856.327	15389
856.461	15348
856.595	15408
856.729	15515
856.862	15492
856.996	15477
857.13	15507
857.263	15595
857.397	15561
857.53	15526
857.664	15462
857.797	15538
857.931	15515
858.064	15431
858.197	15568
858.331	15405
858.464	15450
858.597	15325
858.731	15462
858.864	15428
858.997	15393
859.13	15492
859.263	15553
859.396	15572
859.529	15424
859.662	15363
859.795	15359
859.928	15332
860.061	15538
860.194	15511
860.327	15473
860.46	15397
860.592	15553
860.725	15584
860.858	15633
860.99	15481
861.123	15378
861.256	15351
861.388	15424
861.521	16090
861.653	15256
861.786	15275
861.918	15321
862.05	15382
862.183	15389
862.315	15294
862.447	15420
862.58	15291
862.712	15157
862.844	15135
862.976	15291
863.108	15306
863.24	15705
863.372	15142
863.504	15199
863.636	15192
863.768	15211
863.9	15169
864.032	15138
864.164	15104
864.296	15218
864.428	15222
864.559	15306
864.691	15287
864.823	15313
864.954	15298
865.086	15089
865.217	15123
865.349	15066
865.48	15199
865.612	15226
865.743	15340
865.875	15226
866.006	15123
866.137	15123
866.269	15165
866.4	15161
866.531	15100
866.662	15051
866.793	15062
866.924	15093
867.055	15199
867.186	15123
867.317	15039
867.448	15051
867.579	15131
867.71	15100
867.841	15039
867.972	15138
868.103	15127
868.233	15184
868.364	15108
868.495	15283
868.625	15336
868.756	15454
868.886	15355
869.017	15336
869.147	15477
869.278	15614
869.408	15382
869.539	15439
869.669	15553
869.799	15481
869.929	15629
870.06	15564
870.19	15732
870.32	15724
870.45	15732
870.58	15804
870.71	15892
870.84	15861
870.97	15679
871.1	15835
871.23	15949
871.36	16055
871.489	15892
871.619	15998
871.749	15975
871.879	15945
872.008	16143
872.138	16010
872.267	15968
872.397	15876
872.526	15873
872.656	15766
872.785	15827
872.915	16112
873.044	16040
873.173	16074
873.303	16162
873.432	16074
873.561	16181
873.69	16048
873.819	16040
873.948	16071
874.077	16006
874.206	16029
874.335	16093
874.464	16207
874.593	16287
874.722	16291
874.851	16360
874.979	16344
875.108	16421
875.237	16291
875.365	16238
875.494	16417
875.623	16470
875.751	16402
875.88	16417
876.008	16508
876.136	16698
876.265	16835
876.393	16957
876.521	16862
876.65	16911
876.778	16904
876.906	16755
877.034	16790
877.162	16858
877.29	16717
877.418	16866
877.546	16850
877.674	16820
877.802	16866
877.93	16991
878.058	16965
878.185	16835
878.313	16915
878.441	17025
878.568	16938
878.696	17018
878.824	17060
878.951	17197
879.079	17585
879.206	17794
879.333	17859
879.461	17817
879.588	17931
879.715	18140
879.842	18076
879.97	17783
880.097	17376
880.224	17204
880.351	17136
880.478	17045
880.605	17018
880.732	16877
880.859	17242
880.986	16919
881.112	16934
881.239	16927
881.366	16790
881.493	16573
881.619	16538
881.746	16596
881.872	16569
881.999	16516
882.125	16558
882.252	16607
882.378	16565
882.505	16721
882.631	16462
882.757	16447
882.883	16371
883.01	16303
883.136	16382
883.262	16303
883.388	16124
883.514	16405
883.64	16409
883.766	16226
883.892	16249
884.018	16238
884.143	16394
884.269	16455
884.395	16101
884.52	16090
884.646	16162
884.772	16055
884.897	16044
885.023	16086
885.148	16211
885.274	16196
885.399	16185
885.524	16112
885.65	16090
885.775	16154
885.9	15975
886.025	16124
886.15	16135
886.275	15987
886.4	15915
886.525	15922
886.65	15945
886.775	15930
886.9	16071
887.025	16226
887.149	15937
887.274	15800
887.399	15770
887.523	15656
887.648	15667
887.773	15633
887.897	15724
888.021	15827
888.146	15717
888.27	15873
888.395	15831
888.519	15797
888.643	15694
888.767	15709
888.891	15717
889.015	15557
889.139	15564
889.263	15519
889.387	15766
889.511	15720
889.635	15614
889.759	15496
889.883	15561
890.006	15553
890.13	15610
890.254	15447
890.377	15351
890.501	15275
890.624	15325
890.748	15439
890.871	15218
890.995	15100
891.118	15089
891.241	15131
891.364	15135
891.488	15180
891.611	15013
891.734	15203
891.857	15214
891.98	15150
892.103	15245
892.226	15218
892.349	15154
892.471	15032
892.594	15119
892.717	15161
892.839	15123
892.962	15157
893.085	15264
893.207	15089
893.33	15055
893.452	15066
893.575	15070
893.697	15127
893.819	15302
893.941	15336
894.064	15275
894.186	15135
894.308	14971
894.43	15180
894.552	15256
894.674	15249
894.796	15119
894.918	15169
895.04	15138
895.161	15298
895.283	15222
895.405	15062
895.526	15226
895.648	15157
895.769	15252
895.891	15199
896.012	15283
896.134	15351
896.255	15214
896.376	15203
896.498	15214
896.619	15336
896.74	15272
896.861	15310
896.982	15595
897.103	15701
897.224	15572
897.345	15458
897.466	15450
897.587	15435
897.708	15667
897.828	15523
897.949	15504
898.07	15439
898.19	15519
898.311	15686
898.431	15568
898.552	15606
898.672	15648
898.792	15648
898.913	15625
899.033	15443
899.153	15450
899.273	15393
899.393	15450
899.513	15466
899.633	15523
899.753	15485
899.873	15405
899.993	15545
900.113	15386
900.232	15462
900.352	15469
900.472	15302
900.591	15241
900.711	15374
900.83	15245
900.95	15447
901.069	15424
901.189	15252
901.308	14982
901.427	14895
901.546	14887
901.665	15009
901.784	15047
901.904	14876
902.023	14830
902.141	14545
902.26	14590
902.379	14579
902.498	14465
902.617	14484
902.735	14552
902.854	14457
902.973	14442
903.091	14240
903.21	14191
903.328	14088
903.446	14176
903.565	14119
903.683	14062
903.801	14016
903.919	14119
904.038	14039
904.156	13856
904.274	13967
904.392	13875
904.51	13849
904.627	13875
904.745	13936
904.863	13967
904.981	13689
905.098	13491
905.216	13601
905.334	13518
905.451	13460
905.569	13537
905.686	13609
905.803	13514
905.921	13316
906.038	13407
906.155	13377
906.272	13168
906.389	13247
906.506	13084
906.623	13088
906.74	13008
906.857	13008
906.974	13084
907.091	13118
907.208	13232
907.324	13183
907.441	13004
907.557	12837
907.674	12840
907.79	12806
907.907	12681
908.023	12909
908.139	12810
908.256	12757
908.372	12757
908.488	12673
908.604	12555
908.72	12620
908.836	12532
908.952	12528
909.068	12612
909.184	12692
909.3	12490
909.415	12517
909.531	12578
909.647	12330
909.762	12292
909.878	12228
909.993	12433
910.108	12216
910.224	12254
910.339	12289
910.454	12167
910.57	12197
910.685	12098
910.8	12448
910.915	12258
911.03	12175
911.145	12057
911.259	11916
911.374	12019
911.489	11958
911.604	11908
911.718	11737
911.833	11840
911.947	11558
912.062	11535
912.176	11668
912.291	11623
912.405	11710
912.519	11897
912.633	11950
912.748	11847
912.862	11733
912.976	11688
913.09	11452
913.204	11611
913.318	11608
913.431	11710
913.545	11764
913.659	11786
913.772	11524
913.886	11486
914	11459
914.113	11558
914.226	11577
914.34	11509
914.453	11448
914.566	11585
914.68	11440
914.793	11410
914.906	11204
915.019	11162
915.132	11128
915.245	11178
915.358	11181
915.47	11193
915.583	11208
915.696	11258
915.809	11376
915.921	11406
916.034	11113
916.146	11162
916.259	11147
916.371	11235
916.483	11227
916.595	11052
916.708	11083
916.82	11117
916.932	11143
917.044	11105
917.156	11105
917.268	11037
917.38	10980
917.491	10972
917.603	11010
917.715	11170
917.826	11128
917.938	10957
918.049	10881
918.161	10987
918.272	11151
918.384	11083
918.495	11014
918.606	10889
918.717	10812
918.828	10900
918.939	10923
919.05	10862
919.161	10965
919.272	10603
919.383	10748
919.494	11010
919.604	11136
919.715	10839
919.826	10771
919.936	10839
920.047	11003
920.157	10908
920.267	11079
920.378	10873
920.488	10847
920.598	11037
920.708	11181
920.818	11079
920.928	11029
921.038	11269
921.148	11185
921.258	10911
921.368	10828
921.477	10805
921.587	10767
921.697	10584
921.806	10717
921.916	10637
922.025	10459
922.134	10405
922.244	10367
922.353	10470
922.462	10284
922.571	10246
922.68	10101
922.789	10097
922.898	10154
923.007	9994
923.116	10139
923.224	10074
923.333	10055
923.442	9934
923.55	10032
923.659	9979
923.767	10048
923.876	9983
923.984	10036
924.092	9876
924.201	9941
924.309	9983
924.417	9979
924.525	9892
924.633	9861
924.741	10634
924.849	9701
924.956	9876
925.064	9701
925.172	9690
925.279	9641
925.387	9736
925.494	9774
925.602	9888
925.709	9857
925.816	9652
925.924	9751
926.031	9846
926.138	9682
926.245	9709
926.352	9603
926.459	9682
926.566	9793
926.673	9717
926.779	9561
926.886	9595
926.993	9458
927.099	9386
927.206	9386
927.312	9355
927.419	9462
927.525	9492
927.631	9477
927.737	9313
927.843	9283
927.95	9135
928.056	9249
928.162	9287
928.267	9249
928.373	9797
928.479	9401
928.585	9195
928.69	9253
928.796	9325
928.901	9127
929.007	9097
929.112	9253
929.218	9142
929.323	9131
929.428	9104
929.533	9211
929.638	9039
929.743	9009
929.848	9127
929.953	9020
930.058	9024
930.163	8868
930.267	8842
930.372	9017
930.477	8819
930.581	9028
930.685	8876
930.79	8807
930.894	8781
930.998	8762
931.103	8986
931.207	8549
931.311	8511
931.415	8469
931.519	8290
931.623	8252
