Data from test_V78500241_2544.txt Node
Date: Fri Mar 25 14:51:25 CST 2022
User: usil
Spectrometer: V785-0024
Trigger mode: 0
Integration Time (sec): 4.000000E-1
Scans to average: 1
Nonlinearity correction enabled: false
Boxcar width: 0
Storing dark spectrum: false
XAxis mode: Wavelengths
Number of Pixels in Spectrum: 1024
>>>>>Begin Spectral Data<<<<<
801.071	21960
801.214	21991
801.356	21561
801.499	21595
801.641	21424
801.783	21401
801.926	21382
802.068	21321
802.211	21226
802.353	21096
802.496	20944
802.638	20933
802.78	20769
802.923	20777
803.065	20663
803.208	20701
803.35	20750
803.492	20842
803.635	20994
803.777	20739
803.919	20781
804.061	20982
804.204	20788
804.346	20609
804.488	20587
804.63	20686
804.773	20648
804.915	20659
805.057	20720
805.199	20507
805.341	20667
805.483	20842
805.626	20689
805.768	20594
805.91	20583
806.052	20651
806.194	20537
806.336	20670
806.478	20590
806.62	20659
806.762	20636
806.904	20796
807.046	21112
807.188	20941
807.33	20906
807.472	21043
807.614	20762
807.756	20994
807.898	20800
808.04	20727
808.182	20651
808.324	20731
808.465	20636
808.607	20864
808.749	21020
808.891	21173
809.033	21116
809.174	21081
809.316	21077
809.458	21051
809.6	20899
809.741	21028
809.883	21096
810.025	21192
810.166	21180
810.308	21127
810.45	21093
810.591	21058
810.733	20986
810.875	20720
811.016	20678
811.158	20804
811.299	20773
811.441	20872
811.582	20800
811.724	20788
811.865	20849
812.007	20743
812.148	20648
812.29	20800
812.431	20887
812.573	21116
812.714	21131
812.855	21241
812.997	21294
813.138	21641
813.279	21405
813.421	21344
813.562	21241
813.703	20971
813.845	20891
813.986	20682
814.127	20511
814.268	20480
814.41	20351
814.551	20366
814.692	20461
814.833	20286
814.974	20309
815.115	20366
815.256	20199
815.397	20256
815.539	20161
815.68	20058
815.821	19936
815.962	20077
816.103	20100
816.244	19932
816.385	19818
816.526	19788
816.666	19658
816.807	19430
816.948	19491
817.089	19502
817.23	19487
817.371	19407
817.512	19453
817.653	19449
817.793	19339
817.934	19460
818.075	19537
818.216	19411
818.356	19411
818.497	19369
818.638	19069
818.778	19202
818.919	19202
819.06	19122
819.2	19419
819.341	19335
819.481	19270
819.622	19407
819.762	19674
819.903	19594
820.043	19518
820.184	19422
820.324	19343
820.465	19499
820.605	19400
820.746	19445
820.886	19145
821.026	19403
821.167	19453
821.307	19518
821.447	19377
821.588	19202
821.728	19259
821.868	19023
822.008	18798
822.149	18867
822.289	18757
822.429	18604
822.569	18521
822.709	18604
822.849	18262
822.99	18266
823.13	18308
823.27	18292
823.41	18087
823.55	18121
823.69	18182
823.83	18174
823.97	18068
824.11	17889
824.25	17840
824.389	17980
824.529	17969
824.669	17901
824.809	18019
824.949	18015
825.089	17980
825.228	17866
825.368	17813
825.508	17729
825.648	17779
825.787	17695
825.927	17691
826.067	17535
826.206	17653
826.346	17695
826.485	17665
826.625	17649
826.765	17767
826.904	17786
827.044	17482
827.183	17433
827.323	17334
827.462	17326
827.601	17376
827.741	17372
827.88	17364
828.02	17277
828.159	17395
828.298	17436
828.437	17478
828.577	17391
828.716	17493
828.855	17387
828.994	17178
829.134	17128
829.273	17124
829.412	17086
829.551	17117
829.69	17140
829.829	17151
829.968	17216
830.107	17128
830.246	17223
830.385	17018
830.524	17056
830.663	16938
830.802	16904
830.941	16793
831.08	16812
831.219	16748
831.357	16862
831.496	17014
831.635	16729
831.774	16702
831.913	16694
832.051	16546
832.19	16546
832.329	16512
832.467	16489
832.606	16428
832.744	16360
832.883	16504
833.022	16405
833.16	16432
833.299	16500
833.437	16443
833.576	16531
833.714	16546
833.852	16508
833.991	16554
834.129	16512
834.267	16554
834.406	16599
834.544	16462
834.682	16497
834.821	16573
834.959	16668
835.097	16409
835.235	16580
835.373	16588
835.511	16611
835.65	16382
835.788	16413
835.926	16257
836.064	16284
836.202	16246
836.34	16371
836.478	16382
836.615	16497
836.753	16481
836.891	16542
837.029	16451
837.167	16333
837.305	16352
837.443	16367
837.58	16249
837.718	16379
837.856	16322
837.993	16291
838.131	16295
838.269	16253
838.406	16280
838.544	16128
838.681	15975
838.819	15953
838.956	15964
839.094	15895
839.231	15823
839.369	16010
839.506	16276
839.643	16105
839.781	15823
839.918	15789
840.055	15823
840.193	15842
840.33	15827
840.467	15816
840.604	15816
840.742	16135
840.879	15698
841.016	15728
841.153	15736
841.29	15937
841.427	15861
841.564	15857
841.701	15789
841.838	15709
841.975	15717
842.112	15690
842.249	15660
842.385	15584
842.522	15739
842.659	15728
842.796	15682
842.933	15641
843.069	15526
843.206	15545
843.343	15553
843.479	15667
843.616	15584
843.752	15447
843.889	15408
844.025	15549
844.162	15340
844.298	15496
844.435	15370
844.571	15386
844.708	15545
844.844	15625
844.98	15485
845.117	15610
845.253	15382
845.389	15367
845.525	15325
845.661	15241
845.798	15211
845.934	15272
846.07	15211
846.206	15188
846.342	15245
846.478	15188
846.614	15138
846.75	14963
846.886	14948
847.022	15100
847.158	14925
847.294	15005
847.429	15108
847.565	15001
847.701	15233
847.837	14731
847.972	14727
848.108	14853
848.244	14788
848.379	14743
848.515	14621
848.65	14522
848.786	14552
848.921	14632
849.057	14667
849.192	14648
849.328	14610
849.463	14727
849.598	14571
849.734	14446
849.869	14423
850.004	14355
850.14	14442
850.275	14377
850.41	14309
850.545	14282
850.68	14419
850.815	14336
850.95	14351
851.085	14480
851.22	14438
851.355	14336
851.49	14362
851.625	14347
851.76	14412
851.895	14313
852.03	14218
852.165	14275
852.299	14377
852.434	14419
852.569	14423
852.703	14446
852.838	14412
852.973	14480
853.107	14545
853.242	14336
853.376	14415
853.511	14168
853.645	14187
853.78	14438
853.914	14301
854.048	14256
854.183	14225
854.317	14286
854.451	14461
854.585	14237
854.72	14176
854.854	14332
854.988	14237
855.122	14313
855.256	14111
855.39	14237
855.524	14339
855.658	14328
855.792	14400
855.926	14339
856.06	14389
856.194	14377
856.327	14286
856.461	14256
856.595	14218
856.729	14229
856.862	14419
856.996	14294
857.13	14259
857.263	14362
857.397	14366
857.53	14233
857.664	14282
857.797	14374
857.931	14499
858.064	14347
858.197	14473
858.331	14244
858.464	14298
858.597	14073
858.731	14294
858.864	14233
858.997	14278
859.13	14252
859.263	14237
859.396	14404
859.529	14210
859.662	14244
859.795	14191
859.928	14366
860.061	14427
860.194	14450
860.327	14347
860.46	14275
860.592	14381
860.725	14347
860.858	14415
860.99	14176
861.123	14187
861.256	14183
861.388	14317
861.521	14826
861.653	14073
861.786	14138
861.918	14187
862.05	14138
862.183	14244
862.315	14263
862.447	14240
862.58	14180
862.712	14058
862.844	13993
862.976	14054
863.108	14111
863.24	14465
863.372	14001
863.504	14088
863.636	14069
863.768	14123
863.9	14031
864.032	13982
864.164	14031
864.296	14111
864.428	14218
864.559	14157
864.691	14237
864.823	14081
864.954	14199
865.086	13982
865.217	13978
865.349	14027
865.48	13982
865.612	14153
865.743	14240
865.875	14073
866.006	13928
866.137	13978
866.269	13978
866.4	14016
866.531	14035
866.662	13906
866.793	13928
866.924	13978
867.055	13997
867.186	13928
867.317	14081
867.448	13944
867.579	13970
867.71	13932
867.841	13978
867.972	14027
868.103	14081
868.233	14031
868.364	14020
868.495	14153
868.625	14259
868.756	14404
868.886	14180
869.017	14374
869.147	14457
869.278	14408
869.408	14290
869.539	14267
869.669	14366
869.799	14347
869.929	14328
870.06	14377
870.19	14712
870.32	14598
870.45	14556
870.58	14716
870.71	14845
870.84	14785
870.97	14648
871.1	14655
871.23	14899
871.36	14925
871.489	14811
871.619	14857
871.749	14842
871.879	14902
872.008	14975
872.138	14937
872.267	14880
872.397	14678
872.526	14693
872.656	14659
872.785	14785
872.915	14891
873.044	14990
873.173	14921
873.303	14921
873.432	14910
873.561	15047
873.69	14975
873.819	14914
873.948	14948
874.077	14967
874.206	14921
874.335	14986
874.464	15070
874.593	15233
874.722	15249
874.851	15218
874.979	15310
875.108	15260
875.237	15157
875.365	15135
875.494	15241
875.623	15336
875.751	15245
875.88	15233
876.008	15336
876.136	15523
876.265	15690
876.393	15800
876.521	15857
876.65	15682
876.778	15637
876.906	15587
877.034	15652
877.162	15637
877.29	15534
877.418	15660
877.546	15679
877.674	15614
877.802	15778
877.93	15686
878.058	15606
878.185	15557
878.313	15591
878.441	15804
878.568	15519
878.696	15644
878.824	15694
878.951	15705
879.079	15778
879.206	16040
879.333	15808
879.461	15701
879.588	15751
879.715	15785
879.842	15987
879.97	15625
880.097	15500
880.224	15519
880.351	15580
880.478	15530
880.605	15622
880.732	15431
880.859	15778
880.986	15584
881.112	15591
881.239	15424
881.366	15294
881.493	15146
881.619	15222
881.746	15173
881.872	15169
881.999	15173
882.125	15077
882.252	15252
882.378	15237
882.505	15386
882.631	15066
882.757	14990
882.883	15066
883.01	15051
883.136	14929
883.262	14944
883.388	14807
883.514	15017
883.64	15024
883.766	14971
883.892	14739
884.018	14887
884.143	14979
884.269	15119
884.395	14758
884.52	14670
884.646	14693
884.772	14606
884.897	14636
885.023	14556
885.148	14857
885.274	14971
885.399	14845
885.524	14670
885.65	14712
885.775	14796
885.9	14701
886.025	14811
886.15	14697
886.275	14659
886.4	14625
886.525	14678
886.65	14625
886.775	14606
886.9	14739
887.025	14918
887.149	14693
887.274	14537
887.399	14442
887.523	14514
887.648	14404
887.773	14484
887.897	14648
888.021	14632
888.146	14495
888.27	14651
888.395	14644
888.519	14617
888.643	14571
888.767	14564
888.891	14495
889.015	14484
889.139	14438
889.263	14332
889.387	14423
889.511	14663
889.635	14552
889.759	14313
889.883	14320
890.006	14377
890.13	14469
890.254	14305
890.377	14389
890.501	14096
890.624	14161
890.748	14347
890.871	14134
890.995	14107
891.118	14008
891.241	14027
891.364	14092
891.488	14210
891.611	14096
891.734	14183
891.857	14107
891.98	14202
892.103	14145
892.226	14126
892.349	14077
892.471	13970
892.594	14069
892.717	14073
892.839	13978
892.962	14062
893.085	14195
893.207	14012
893.33	13993
893.452	14008
893.575	14187
893.697	14012
893.819	14263
893.941	14271
894.064	14278
894.186	14096
894.308	14092
894.43	14218
894.552	14343
894.674	14210
894.796	14107
894.918	14073
895.04	14050
895.161	14240
895.283	14237
895.405	14039
895.526	14130
895.648	14180
895.769	14195
895.891	14248
896.012	14309
896.134	14317
896.255	14233
896.376	14263
896.498	14298
896.619	14286
896.74	14256
896.861	14343
896.982	14526
897.103	14785
897.224	14644
897.345	14621
897.466	14434
897.587	14511
897.708	14651
897.828	14575
897.949	14556
898.07	14282
898.19	14434
898.311	14667
898.431	14629
898.552	14640
898.672	14689
898.792	14720
898.913	14610
899.033	14541
899.153	14469
899.273	14336
899.393	14415
899.513	14514
899.633	14400
899.753	14552
899.873	14366
899.993	14518
900.113	14415
900.232	14533
900.352	14450
900.472	14324
900.591	14252
900.711	14271
900.83	14320
900.95	14393
901.069	14495
901.189	14259
901.308	14058
901.427	14039
901.546	14016
901.665	14039
901.784	14081
901.904	13940
902.023	13791
902.141	13613
902.26	13537
902.379	13712
902.498	13575
902.617	13483
902.735	13586
902.854	13464
902.973	13559
903.091	13251
903.21	13270
903.328	13320
903.446	13149
903.565	13107
903.683	13095
903.801	13053
903.919	13145
904.038	13046
904.156	12928
904.274	13023
904.392	12970
904.51	12954
904.627	12932
904.745	12943
904.863	12954
904.981	12760
905.098	12711
905.216	12677
905.334	12646
905.451	12658
905.569	12578
905.686	12719
905.803	12627
905.921	12467
906.038	12574
906.155	12460
906.272	12403
906.389	12395
906.506	12308
906.623	12232
906.74	12327
906.857	12068
906.974	12140
907.091	12323
907.208	12323
907.324	12285
907.441	12129
907.557	12019
907.674	11935
907.79	11958
907.907	11973
908.023	11969
908.139	11942
908.256	11946
908.372	11973
908.488	11931
908.604	11760
908.72	11627
908.836	11691
908.952	11733
909.068	11752
909.184	11958
909.3	11775
909.415	11794
909.531	11707
909.647	11570
909.762	11543
909.878	11558
909.993	11539
910.108	11467
910.224	11543
910.339	11486
910.454	11520
910.57	11414
910.685	11277
910.8	11623
910.915	11554
911.03	11334
911.145	11208
911.259	11174
911.374	11231
911.489	11132
911.604	11010
911.718	10938
911.833	10923
911.947	10892
912.062	10809
912.176	11025
912.291	11003
912.405	10980
912.519	11170
912.633	11140
912.748	11067
912.862	10942
912.976	10824
913.09	10706
913.204	10812
913.318	10873
913.431	10866
913.545	10904
913.659	10881
913.772	10858
913.886	10748
914	10755
914.113	10744
914.226	10835
914.34	10790
914.453	10630
914.566	10782
914.68	10573
914.793	10641
914.906	10455
915.019	10531
915.132	10405
915.245	10398
915.358	10474
915.47	10523
915.583	10508
915.696	10535
915.809	10641
915.921	10630
916.034	10451
916.146	10417
916.259	10436
916.371	10527
916.483	10550
916.595	10421
916.708	10417
916.82	10417
916.932	10413
917.044	10375
917.156	10371
917.268	10284
917.38	10234
917.491	10276
917.603	10314
917.715	10375
917.826	10405
917.938	10348
918.049	10219
918.161	10363
918.272	10493
918.384	10440
918.495	10390
918.606	10230
918.717	10192
918.828	10227
918.939	10207
919.05	10177
919.161	10135
919.272	9994
919.383	10059
919.494	10291
919.604	10462
919.715	10242
919.826	10093
919.936	10112
920.047	10360
920.157	10215
920.267	10405
920.378	10238
920.488	10261
920.598	10417
920.708	10596
920.818	10382
920.928	10398
921.038	10584
921.148	10592
921.258	10246
921.368	10246
921.477	10139
921.587	10116
921.697	9979
921.806	10120
921.916	10010
922.025	9819
922.134	9793
922.244	9705
922.353	9831
922.462	9648
922.571	9580
922.68	9504
922.789	9507
922.898	9504
923.007	9492
923.116	9523
923.224	9500
923.333	9447
923.442	9412
923.55	9336
923.659	9443
923.767	9435
923.876	9397
923.984	9370
924.092	9310
924.201	9386
924.309	9344
924.417	9386
924.525	9264
924.633	9291
924.741	10234
924.849	9047
924.956	9264
925.064	9112
925.172	9036
925.279	9058
925.387	9184
925.494	9108
925.602	9218
925.709	9161
925.816	9051
925.924	9123
926.031	9294
926.138	9192
926.245	9195
926.352	9081
926.459	9188
926.566	9203
926.673	9062
926.779	9036
926.886	8990
926.993	8902
927.099	8819
927.206	8830
927.312	8788
927.419	8902
927.525	8876
927.631	8864
927.737	8800
927.843	8823
927.95	8644
928.056	8712
928.162	8762
928.267	8845
928.373	9500
928.479	8819
928.585	8606
928.69	8792
928.796	8807
928.901	8663
929.007	8556
929.112	8754
929.218	8655
929.323	8564
929.428	8583
929.533	8708
929.638	8511
929.743	8560
929.848	8606
929.953	8552
930.058	8514
930.163	8294
930.267	8374
930.372	8526
930.477	8324
930.581	8590
930.685	8366
930.79	8233
930.894	8351
930.998	8229
931.103	8454
931.207	8084
931.311	8024
931.415	7951
931.519	7795
931.623	7792
