Data from test_V78500241_907.txt Node
Date: Fri Mar 25 14:40:02 CST 2022
User: usil
Spectrometer: V785-0024
Trigger mode: 0
Integration Time (sec): 4.000000E-1
Scans to average: 1
Nonlinearity correction enabled: false
Boxcar width: 0
Storing dark spectrum: false
XAxis mode: Wavelengths
Number of Pixels in Spectrum: 1024
>>>>>Begin Spectral Data<<<<<
801.071	24977
801.214	24882
801.356	24673
801.499	24563
801.641	24323
801.783	24391
801.926	24353
802.068	24216
802.211	24167
802.353	24121
802.496	23832
802.638	23851
802.78	23729
802.923	23767
803.065	23630
803.208	23714
803.35	23722
803.492	23779
803.635	23885
803.777	23741
803.919	23646
804.061	24049
804.204	23798
804.346	23600
804.488	23646
804.63	23642
804.773	23478
804.915	23672
805.057	23805
805.199	23642
805.341	23748
805.483	23874
805.626	23798
805.768	23687
805.91	23668
806.052	23874
806.194	23813
806.336	24007
806.478	23977
806.62	23931
806.762	24121
806.904	24209
807.046	24555
807.188	24502
807.33	24601
807.472	24741
807.614	24901
807.756	25027
807.898	25190
808.04	25362
808.182	25788
808.324	26305
808.465	27077
808.607	27709
808.749	28424
808.891	28706
809.033	28790
809.174	28352
809.316	27656
809.458	27028
809.6	26317
809.741	25883
809.883	25495
810.025	25487
810.166	25129
810.308	25213
810.45	24901
810.591	24722
810.733	24422
810.875	24315
811.016	24224
811.158	24178
811.299	24365
811.441	24357
811.582	24152
811.724	24110
811.865	24068
812.007	24041
812.148	24038
812.29	24011
812.431	24213
812.573	24437
812.714	24342
812.855	24505
812.997	24502
813.138	24719
813.279	24700
813.421	24361
813.562	24254
813.703	24186
813.845	24194
813.986	23847
814.127	23585
814.268	23577
814.41	23497
814.551	23467
814.692	23573
814.833	23277
814.974	23292
815.115	23501
815.256	23307
815.397	23223
815.539	23387
815.68	23261
815.821	23086
815.962	23109
816.103	23166
816.244	22968
816.385	22927
816.526	22942
816.666	22710
816.807	22580
816.948	22649
817.089	22603
817.23	22447
817.371	22626
817.512	22443
817.653	22417
817.793	22333
817.934	22516
818.075	22512
818.216	22588
818.356	22489
818.497	22325
818.638	22143
818.778	22219
818.919	22185
819.06	22242
819.2	22306
819.341	22402
819.481	22379
819.622	22459
819.762	22645
819.903	22565
820.043	22641
820.184	22462
820.324	22523
820.465	22611
820.605	22497
820.746	22409
820.886	22272
821.026	22363
821.167	22394
821.307	22470
821.447	22344
821.588	22207
821.728	22109
821.868	21892
822.008	21770
822.149	21800
822.289	21770
822.429	21534
822.569	21405
822.709	21382
822.849	21123
822.99	21287
823.13	21192
823.27	21195
823.41	21081
823.55	20925
823.69	20941
823.83	21173
823.97	20982
824.11	20834
824.25	20910
824.389	20735
824.529	20838
824.669	20845
824.809	20944
824.949	20857
825.089	20891
825.228	20815
825.368	20644
825.508	20541
825.648	20552
825.787	20636
825.927	20629
826.067	20518
826.206	20526
826.346	20537
826.485	20609
826.625	20522
826.765	20705
826.904	20583
827.044	20309
827.183	20328
827.323	20229
827.462	20294
827.601	20199
827.741	20290
827.88	20278
828.02	20081
828.159	20202
828.298	20233
828.437	20248
828.577	20092
828.716	20374
828.855	20282
828.994	20043
829.134	20065
829.273	19932
829.412	19864
829.551	19849
829.69	19864
829.829	19986
829.968	19989
830.107	19955
830.246	19845
830.385	19921
830.524	19803
830.663	19765
830.802	19689
830.941	19643
831.08	19601
831.219	19597
831.357	19658
831.496	19822
831.635	19434
831.774	19350
831.913	19373
832.051	19293
832.19	19362
832.329	19339
832.467	19213
832.606	19206
832.744	19198
832.883	19282
833.022	19190
833.16	19297
833.299	19285
833.437	19426
833.576	19426
833.714	19339
833.852	19445
833.991	19434
834.129	19571
834.267	19514
834.406	19430
834.544	19514
834.682	19388
834.821	19460
834.959	19457
835.097	19278
835.235	19324
835.373	19422
835.511	19198
835.65	19171
835.788	19225
835.926	18996
836.064	18928
836.202	18882
836.34	19141
836.478	19107
836.615	19141
836.753	19202
836.891	19175
837.029	19050
837.167	19076
837.305	19034
837.443	18932
837.58	18970
837.718	18966
837.856	19091
837.993	18882
838.131	18894
838.269	18760
838.406	18844
838.544	18795
838.681	18604
838.819	18509
838.956	18319
839.094	18384
839.231	18448
839.369	18574
839.506	18658
839.643	18589
839.781	18426
839.918	18361
840.055	18410
840.193	18323
840.33	18315
840.467	18277
840.604	18384
840.742	18620
840.879	18182
841.016	18342
841.153	18262
841.29	18540
841.427	18338
841.564	18494
841.701	18300
841.838	18361
841.975	18220
842.112	18315
842.249	18106
842.385	18098
842.522	18174
842.659	18201
842.796	18022
842.933	18194
843.069	18106
843.206	18228
843.343	18155
843.479	18262
843.616	18197
843.752	17931
843.889	17942
844.025	17969
844.162	17901
844.298	18136
844.435	17988
844.571	17980
844.708	18155
844.844	18266
844.98	18304
845.117	18528
845.253	18589
845.389	18692
845.525	19320
845.661	20282
845.798	21515
845.934	22672
846.07	23143
846.206	22908
846.342	22356
846.478	20887
846.614	19613
846.75	18665
846.886	18220
847.022	18064
847.158	17760
847.294	17653
847.429	17680
847.565	17501
847.701	17638
847.837	17349
847.972	17223
848.108	17265
848.244	17345
848.379	17060
848.515	17037
848.65	17010
848.786	17083
848.921	17033
849.057	17010
849.192	17045
849.328	17025
849.463	17094
849.598	17010
849.734	16873
849.869	16771
850.004	16691
850.14	16710
850.275	16790
850.41	16561
850.545	16752
850.68	16626
850.815	16763
850.95	16706
851.085	16790
851.22	16805
851.355	16634
851.49	16729
851.625	16634
851.76	16763
851.895	16641
852.03	16542
852.165	16790
852.299	16748
852.434	16816
852.569	16850
852.703	16733
852.838	16774
852.973	16904
853.107	16831
853.242	16725
853.376	16653
853.511	16550
853.645	16596
853.78	16710
853.914	16706
854.048	16622
854.183	16569
854.317	16675
854.451	16877
854.585	16626
854.72	16603
854.854	16710
854.988	16577
855.122	16675
855.256	16500
855.39	16542
855.524	16630
855.658	16596
855.792	16565
855.926	16573
856.06	16615
856.194	16668
856.327	16596
856.461	16531
856.595	16478
856.729	16512
856.862	16634
856.996	16531
857.13	16592
857.263	16664
857.397	16706
857.53	16569
857.664	16592
857.797	16634
857.931	16569
858.064	16675
858.197	16531
858.331	16592
858.464	16447
858.597	16489
858.731	16500
858.864	16596
858.997	16436
859.13	16561
859.263	16500
859.396	16561
859.529	16413
859.662	16428
859.795	16481
859.928	16565
860.061	16577
860.194	16599
860.327	16519
860.46	16554
860.592	16622
860.725	16596
860.858	16592
860.99	16554
861.123	16379
861.256	16459
861.388	16497
861.521	17174
861.653	16352
861.786	16318
861.918	16348
862.05	16405
862.183	16424
862.315	16459
862.447	16538
862.58	16481
862.712	16306
862.844	16287
862.976	16314
863.108	16284
863.24	16736
863.372	16147
863.504	16223
863.636	16162
863.768	16299
863.9	16325
864.032	16185
864.164	16204
864.296	16185
864.428	16295
864.559	16341
864.691	16257
864.823	16261
864.954	16261
865.086	16318
865.217	16303
865.349	16105
865.48	16261
865.612	16295
865.743	16299
865.875	16211
866.006	16185
866.137	16097
866.269	16177
866.4	16246
866.531	16158
866.662	16128
866.793	16158
866.924	16112
867.055	16226
867.186	16215
867.317	16230
867.448	16044
867.579	16093
867.71	16036
867.841	16097
867.972	16154
868.103	16166
868.233	16131
868.364	16215
868.495	16234
868.625	16405
868.756	16584
868.886	16287
869.017	16409
869.147	16516
869.278	16432
869.408	16379
869.539	16405
869.669	16417
869.799	16481
869.929	16531
870.06	16531
870.19	16793
870.32	16752
870.45	16706
870.58	16755
870.71	16885
870.84	16957
870.97	16850
871.1	16858
871.23	16923
871.36	17056
871.489	16930
871.619	17006
871.749	17045
871.879	17064
872.008	17189
872.138	17010
872.267	16949
872.397	16923
872.526	16710
872.656	16957
872.785	16858
872.915	16953
873.044	17162
873.173	17045
873.303	17121
873.432	17033
873.561	17162
873.69	17128
873.819	17162
873.948	17166
874.077	17246
874.206	17037
874.335	17109
874.464	17303
874.593	17444
874.722	17433
874.851	17539
874.979	17417
875.108	17486
875.237	17417
875.365	17265
875.494	17364
875.623	17486
875.751	17421
875.88	17562
876.008	17726
876.136	17710
876.265	17931
876.393	18019
876.521	17980
876.65	18129
876.778	17920
876.906	18041
877.034	17946
877.162	17961
877.29	18011
877.418	18038
877.546	17999
877.674	17992
877.802	18022
877.93	18068
878.058	18102
878.185	18095
878.313	18102
878.441	18281
878.568	18270
878.696	18330
878.824	18623
878.951	18924
879.079	19168
879.206	19757
879.333	20024
879.461	20225
879.588	20609
879.715	20693
879.842	20511
879.97	19963
880.097	19343
880.224	18977
880.351	18768
880.478	18593
880.605	18540
880.732	18441
880.859	18654
880.986	18433
881.112	18437
881.239	18220
881.366	18152
881.493	18129
881.619	17999
881.746	18102
881.872	18034
881.999	17980
882.125	17942
882.252	18163
882.378	18068
882.505	18129
882.631	18003
882.757	17847
882.883	17889
883.01	17946
883.136	17821
883.262	17779
883.388	17737
883.514	17908
883.64	17923
883.766	17745
883.892	17687
884.018	17680
884.143	17824
884.269	17851
884.395	17649
884.52	17535
884.646	17532
884.772	17520
884.897	17452
885.023	17551
885.148	17627
885.274	17733
885.399	17638
885.524	17600
885.65	17448
885.775	17395
885.9	17356
886.025	17463
886.15	17436
886.275	17208
886.4	17155
886.525	17307
886.65	17212
886.775	17360
886.9	17280
887.025	17330
887.149	17193
887.274	17006
887.399	16900
887.523	16908
887.648	16831
887.773	16850
887.897	16987
888.021	16911
888.146	16850
888.27	16915
888.395	16976
888.519	16889
888.643	16927
888.767	16892
888.891	16710
889.015	16653
889.139	16675
889.263	16630
889.387	16744
889.511	16824
889.635	16866
889.759	16664
889.883	16683
890.006	16649
890.13	16668
890.254	16584
890.377	16618
890.501	16352
890.624	16337
890.748	16443
890.871	16382
890.995	16173
891.118	16150
891.241	16181
891.364	16185
891.488	16249
891.611	16219
891.734	16128
891.857	16295
891.98	16272
892.103	16150
892.226	16204
892.349	16192
892.471	15975
892.594	16055
892.717	16147
892.839	16166
892.962	16067
893.085	16128
893.207	16120
893.33	15934
893.452	16086
893.575	16207
893.697	16067
893.819	16322
893.941	16295
894.064	16158
894.186	15994
894.308	15998
894.43	16150
894.552	16246
894.674	16223
894.796	16105
894.918	16059
895.04	16093
895.161	16230
895.283	16143
895.405	16158
895.526	16147
895.648	16090
895.769	16169
895.891	16135
896.012	16177
896.134	16276
896.255	16246
896.376	16162
896.498	16162
896.619	16196
896.74	16116
896.861	16242
896.982	16573
897.103	16691
897.224	16421
897.345	16405
897.466	16303
897.587	16329
897.708	16527
897.828	16462
897.949	16371
898.07	16295
898.19	16348
898.311	16577
898.431	16516
898.552	16481
898.672	16554
898.792	16664
898.913	16493
899.033	16424
899.153	16322
899.273	16287
899.393	16356
899.513	16428
899.633	16181
899.753	16287
899.873	16447
899.993	16474
900.113	16234
900.232	16325
900.352	16291
900.472	16200
900.591	16143
900.711	16150
900.83	16188
900.95	16295
901.069	16314
901.189	16032
901.308	15956
901.427	15724
901.546	15880
901.665	15895
901.784	15918
901.904	15762
902.023	15614
902.141	15488
902.26	15370
902.379	15447
902.498	15443
902.617	15393
902.735	15340
902.854	15329
902.973	15272
903.091	15074
903.21	15058
903.328	15013
903.446	14910
903.565	14826
903.683	14925
903.801	14796
903.919	14876
904.038	14792
904.156	14587
904.274	14678
904.392	14587
904.51	14625
904.627	14503
904.745	14689
904.863	14678
904.981	14385
905.098	14298
905.216	14286
905.334	14381
905.451	14195
905.569	14176
905.686	14343
905.803	14301
905.921	14062
906.038	14180
906.155	14153
906.272	13947
906.389	13967
906.506	13826
906.623	13845
906.74	13704
906.857	13731
906.974	13769
907.091	13879
907.208	13940
907.324	13738
907.441	13674
907.557	13590
907.674	13628
907.79	13514
907.907	13445
908.023	13510
908.139	13582
908.256	13537
908.372	13384
908.488	13327
908.604	13282
908.72	13228
908.836	13263
908.952	13259
909.068	13217
909.184	13373
909.3	13289
909.415	13316
909.531	13285
909.647	12954
909.762	13023
909.878	12924
909.993	13000
910.108	13038
910.224	12894
910.339	13015
910.454	12878
910.57	12821
910.685	12817
910.8	13072
910.915	12958
911.03	12871
911.145	12715
911.259	12669
911.374	12642
911.489	12589
911.604	12483
911.718	12437
911.833	12410
911.947	12289
912.062	12194
912.176	12319
912.291	12410
912.405	12353
912.519	12620
912.633	12525
912.748	12521
912.862	12384
912.976	12209
913.09	12136
913.204	12201
913.318	12388
913.431	12384
913.545	12315
913.659	12391
913.772	12300
913.886	12106
914	12152
914.113	12121
914.226	12258
914.34	12167
914.453	12053
914.566	12197
914.68	12167
914.793	12019
914.906	11904
915.019	11798
915.132	11779
915.245	11855
915.358	11828
915.47	11817
915.583	11908
915.696	11859
915.809	11904
915.921	11977
916.034	11805
916.146	11737
916.259	11775
916.371	11836
916.483	11809
916.595	11653
916.708	11752
916.82	11783
916.932	11729
917.044	11779
917.156	11634
917.268	11615
917.38	11509
917.491	11570
917.603	11634
917.715	11699
917.826	11737
917.938	11528
918.049	11501
918.161	11619
918.272	11684
918.384	11722
918.495	11589
918.606	11490
918.717	11433
918.828	11467
918.939	11463
919.05	11372
919.161	11459
919.272	11231
919.383	11299
919.494	11459
919.604	11688
919.715	11474
919.826	11315
919.936	11398
920.047	11532
920.157	11429
920.267	11649
920.378	11433
920.488	11372
920.598	11680
920.708	11695
920.818	11676
920.928	11573
921.038	11737
921.148	11771
921.258	11444
921.368	11330
921.477	11280
921.587	11242
921.697	11109
921.806	11204
921.916	11170
922.025	11022
922.134	10949
922.244	10923
922.353	10938
922.462	10786
922.571	10805
922.68	10664
922.789	10592
922.898	10596
923.007	10519
923.116	10584
923.224	10653
923.333	10519
923.442	10481
923.55	10470
923.659	10607
923.767	10504
923.876	10436
923.984	10569
924.092	10409
924.201	10432
924.309	10474
924.417	10459
924.525	10405
924.633	10390
924.741	11193
924.849	10177
924.956	10348
925.064	10223
925.172	10143
925.279	10242
925.387	10173
925.494	10173
925.602	10299
925.709	10257
925.816	10139
925.924	10188
926.031	10169
926.138	10230
926.245	10230
926.352	10120
926.459	10261
926.566	10257
926.673	10139
926.779	10032
926.886	10059
926.993	9937
927.099	9819
927.206	9865
927.312	9808
927.419	9937
927.525	9876
927.631	9934
927.737	9766
927.843	9759
927.95	9641
928.056	9694
928.162	9747
928.267	9793
928.373	10371
928.479	9835
928.585	9584
928.69	9774
928.796	9812
928.901	9625
929.007	9504
929.112	9698
929.218	9652
929.323	9564
929.428	9542
929.533	9625
929.638	9462
929.743	9447
929.848	9549
929.953	9473
930.058	9450
930.163	9374
930.267	9321
930.372	9439
930.477	9184
930.581	9561
930.685	9424
930.79	9184
930.894	9272
930.998	9230
931.103	9321
931.207	8960
931.311	8899
931.415	8902
931.519	8720
931.623	8697
