Data from test_V78500241_1366.txt Node
Date: Fri Mar 25 14:43:13 CST 2022
User: usil
Spectrometer: V785-0024
Trigger mode: 0
Integration Time (sec): 4.000000E-1
Scans to average: 1
Nonlinearity correction enabled: false
Boxcar width: 0
Storing dark spectrum: false
XAxis mode: Wavelengths
Number of Pixels in Spectrum: 1024
>>>>>Begin Spectral Data<<<<<
801.071	22485
801.214	22253
801.356	22078
801.499	21968
801.641	21781
801.783	21755
801.926	21766
802.068	21614
802.211	21538
802.353	21625
802.496	21359
802.638	21283
802.78	21180
802.923	21256
803.065	21085
803.208	21055
803.35	21161
803.492	21116
803.635	21226
803.777	21104
803.919	21256
804.061	21443
804.204	21142
804.346	21047
804.488	21043
804.63	21077
804.773	20986
804.915	21051
805.057	21252
805.199	21062
805.341	21070
805.483	21260
805.626	21180
805.768	20937
805.91	20990
806.052	21013
806.194	20906
806.336	21173
806.478	21051
806.62	21081
806.762	21039
806.904	21344
807.046	21428
807.188	21458
807.33	21458
807.472	21397
807.614	21310
807.756	21332
807.898	21207
808.04	21180
808.182	21237
808.324	21355
808.465	21454
808.607	21564
808.749	21644
808.891	21686
809.033	21827
809.174	21739
809.316	21557
809.458	21561
809.6	21469
809.741	21523
809.883	21572
810.025	21736
810.166	21717
810.308	21610
810.45	21610
810.591	21538
810.733	21348
810.875	21294
811.016	21291
811.158	21093
811.299	21272
811.441	21272
811.582	21283
811.724	21169
811.865	21203
812.007	21249
812.148	21192
812.29	21165
812.431	21321
812.573	21469
812.714	21606
812.855	21694
812.997	21766
813.138	21953
813.279	21846
813.421	21732
813.562	21644
813.703	21481
813.845	21359
813.986	21119
814.127	20887
814.268	20823
814.41	20781
814.551	20804
814.692	20663
814.833	20644
814.974	20697
815.115	20678
815.256	20583
815.397	20552
815.539	20716
815.68	20507
815.821	20347
815.962	20514
816.103	20454
816.244	20374
816.385	20191
816.526	20233
816.666	20248
816.807	19963
816.948	20039
817.089	20069
817.23	19959
817.371	19902
817.512	19917
817.653	19913
817.793	19887
817.934	19947
818.075	19913
818.216	19818
818.356	19746
818.497	19826
818.638	19559
818.778	19556
818.919	19609
819.06	19662
819.2	19689
819.341	19822
819.481	19765
819.622	19974
819.762	20062
819.903	19967
820.043	19864
820.184	20073
820.324	19830
820.465	19909
820.605	19921
820.746	19822
820.886	19662
821.026	19849
821.167	19860
821.307	19852
821.447	19807
821.588	19643
821.728	19575
821.868	19392
822.008	19240
822.149	19133
822.289	19297
822.429	19091
822.569	18977
822.709	18977
822.849	18753
822.99	18700
823.13	18772
823.27	18875
823.41	18582
823.55	18532
823.69	18631
823.83	18521
823.97	18486
824.11	18418
824.25	18399
824.389	18296
824.529	18365
824.669	18426
824.809	18494
824.949	18426
825.089	18445
825.228	18391
825.368	18163
825.508	18174
825.648	18178
825.787	18106
825.927	18254
826.067	18171
826.206	18148
826.346	18209
826.485	18114
826.625	18167
826.765	18251
826.904	18190
827.044	17984
827.183	17893
827.323	17828
827.462	17920
827.601	17824
827.741	17779
827.88	17916
828.02	17726
828.159	17767
828.298	17927
828.437	17942
828.577	17790
828.716	17901
828.855	17821
828.994	17600
829.134	17608
829.273	17627
829.412	17512
829.551	17573
829.69	17687
829.829	17501
829.968	17695
830.107	17596
830.246	17608
830.385	17433
830.524	17535
830.663	17353
830.802	17311
830.941	17208
831.08	17216
831.219	17265
831.357	17239
831.496	17486
831.635	17155
831.774	17170
831.913	16980
832.051	17037
832.19	16999
832.329	17132
832.467	16881
832.606	16881
832.744	16953
832.883	16797
833.022	16961
833.16	16900
833.299	16930
833.437	16930
833.576	16957
833.714	17075
833.852	17086
833.991	16991
834.129	17090
834.267	16942
834.406	16953
834.544	16953
834.682	17033
834.821	16911
834.959	17143
835.097	16869
835.235	16965
835.373	16930
835.511	16976
835.65	16866
835.788	16850
835.926	16759
836.064	16733
836.202	16679
836.34	16869
836.478	16938
836.615	16892
836.753	16816
836.891	16915
837.029	16957
837.167	16896
837.305	16816
837.443	16816
837.58	16752
837.718	16805
837.856	16710
837.993	16694
838.131	16713
838.269	16706
838.406	16622
838.544	16531
838.681	16295
838.819	16329
838.956	16322
839.094	16322
839.231	16348
839.369	16451
839.506	16675
839.643	16436
839.781	16230
839.918	16249
840.055	16348
840.193	16268
840.33	16291
840.467	16249
840.604	16356
840.742	16466
840.879	16071
841.016	16158
841.153	16226
841.29	16497
841.427	16303
841.564	16272
841.701	16272
841.838	16219
841.975	16196
842.112	16211
842.249	15987
842.385	15960
842.522	16329
842.659	16090
842.796	15979
842.933	16067
843.069	15941
843.206	16105
843.343	16135
843.479	16025
843.616	16093
843.752	15926
843.889	15899
844.025	15975
844.162	15819
844.298	15934
844.435	15850
844.571	15793
844.708	15899
844.844	16071
844.98	16074
845.117	15979
845.253	15778
845.389	15797
845.525	15781
845.661	15812
845.798	15800
845.934	16044
846.07	15873
846.206	15991
846.342	15949
846.478	15724
846.614	15553
846.75	15386
846.886	15424
847.022	15545
847.158	15344
847.294	15355
847.429	15382
847.565	15294
847.701	15644
847.837	15245
847.972	15089
848.108	15283
848.244	15275
848.379	14990
848.515	15070
848.65	14929
848.786	15017
848.921	15024
849.057	15108
849.192	15154
849.328	15100
849.463	15058
849.598	14933
849.734	15058
849.869	14819
850.004	14743
850.14	14796
850.275	14746
850.41	14644
850.545	14701
850.68	14682
850.815	14758
850.95	14807
851.085	14891
851.22	14895
851.355	14800
851.49	14811
851.625	14674
851.76	14731
851.895	14636
852.03	14602
852.165	14762
852.299	14788
852.434	14853
852.569	14845
852.703	14781
852.838	14845
852.973	14952
853.107	14906
853.242	14815
853.376	14625
853.511	14526
853.645	14598
853.78	14686
853.914	14705
854.048	14629
854.183	14636
854.317	14579
854.451	14773
854.585	14568
854.72	14545
854.854	14754
854.988	14484
855.122	14571
855.256	14446
855.39	14594
855.524	14746
855.658	14617
855.792	14651
855.926	14720
856.06	14720
856.194	14765
856.327	14663
856.461	14549
856.595	14583
856.729	14655
856.862	14750
856.996	14743
857.13	14743
857.263	14739
857.397	14701
857.53	14720
857.664	14678
857.797	14777
857.931	14712
858.064	14617
858.197	14678
858.331	14602
858.464	14663
858.597	14518
858.731	14541
858.864	14659
858.997	14533
859.13	14678
859.263	14613
859.396	14705
859.529	14533
859.662	14617
859.795	14568
859.928	14678
860.061	14743
860.194	14762
860.327	14667
860.46	14727
860.592	14724
860.725	14781
860.858	14743
860.99	14636
861.123	14518
861.256	14556
861.388	14705
861.521	15378
861.653	14549
861.786	14469
861.918	14469
862.05	14549
862.183	14568
862.315	14598
862.447	14682
862.58	14575
862.712	14374
862.844	14317
862.976	14450
863.108	14480
863.24	14697
863.372	14263
863.504	14366
863.636	14393
863.768	14465
863.9	14355
864.032	14294
864.164	14332
864.296	14442
864.428	14484
864.559	14473
864.691	14431
864.823	14431
864.954	14457
865.086	14396
865.217	14488
865.349	14240
865.48	14358
865.612	14370
865.743	14499
865.875	14408
866.006	14358
866.137	14473
866.269	14366
866.4	14450
866.531	14389
866.662	14320
866.793	14374
866.924	14415
867.055	14366
867.186	14374
867.317	14301
867.448	14202
867.579	14343
867.71	14199
867.841	14328
867.972	14438
868.103	14309
868.233	14305
868.364	14351
868.495	14465
868.625	14590
868.756	14727
868.886	14495
869.017	14613
869.147	14651
869.278	14823
869.408	14674
869.539	14640
869.669	14720
869.799	14590
869.929	14792
870.06	14644
870.19	14967
870.32	14899
870.45	14941
870.58	15085
870.71	15226
870.84	15169
870.97	14963
871.1	15020
871.23	15146
871.36	15192
871.489	15256
871.619	15119
871.749	15161
871.879	15264
872.008	15355
872.138	15268
872.267	15272
872.397	15188
872.526	15058
872.656	15043
872.785	15066
872.915	15184
873.044	15416
873.173	15252
873.303	15287
873.432	15313
873.561	15378
873.69	15302
873.819	15287
873.948	15321
874.077	15313
874.206	15218
874.335	15336
874.464	15401
874.593	15561
874.722	15393
874.851	15713
874.979	15641
875.108	15568
875.237	15462
875.365	15500
875.494	15545
875.623	15717
875.751	15557
875.88	15553
876.008	15770
876.136	15736
876.265	16013
876.393	16105
876.521	16010
876.65	16135
876.778	16067
876.906	16040
877.034	15865
877.162	15983
877.29	15876
877.418	15975
877.546	16017
877.674	15998
877.802	16010
877.93	16010
878.058	16017
878.185	15945
878.313	15945
878.441	16071
878.568	15930
878.696	15998
878.824	16128
878.951	16162
879.079	16299
879.206	16417
879.333	16291
879.461	16238
879.588	16249
879.715	16322
879.842	16291
879.97	16173
880.097	15850
880.224	15918
880.351	15903
880.478	15903
880.605	15785
880.732	15930
880.859	16211
880.986	15873
881.112	16002
881.239	15888
881.366	15679
881.493	15694
881.619	15507
881.746	15629
881.872	15435
881.999	15606
882.125	15462
882.252	15682
882.378	15633
882.505	15709
882.631	15515
882.757	15439
882.883	15416
883.01	15321
883.136	15325
883.262	15283
883.388	15146
883.514	15359
883.64	15393
883.766	15317
883.892	15230
884.018	15203
884.143	15329
884.269	15431
884.395	15135
884.52	14914
884.646	15051
884.772	15135
884.897	14937
885.023	15028
885.148	15222
885.274	15230
885.399	15226
885.524	15032
885.65	15036
885.775	15032
885.9	15074
886.025	15218
886.15	15036
886.275	14876
886.4	15001
886.525	15005
886.65	14952
886.775	14944
886.9	15116
887.025	15241
887.149	15032
887.274	14967
887.399	14853
887.523	14720
887.648	14880
887.773	14765
887.897	14990
888.021	14944
888.146	14830
888.27	14925
888.395	15013
888.519	14895
888.643	14895
888.767	14902
888.891	14826
889.015	14693
889.139	14659
889.263	14682
889.387	14796
889.511	14902
889.635	14861
889.759	14651
889.883	14712
890.006	14807
890.13	14906
890.254	14644
890.377	14674
890.501	14537
890.624	14503
890.748	14636
890.871	14404
890.995	14374
891.118	14351
891.241	14305
891.364	14450
891.488	14476
891.611	14484
891.734	14336
891.857	14404
891.98	14476
892.103	14552
892.226	14450
892.349	14412
892.471	14278
892.594	14358
892.717	14412
892.839	14336
892.962	14389
893.085	14408
893.207	14400
893.33	14244
893.452	14206
893.575	14469
893.697	14408
893.819	14526
893.941	14625
894.064	14484
894.186	14351
894.308	14362
894.43	14461
894.552	14670
894.674	14457
894.796	14358
894.918	14404
895.04	14332
895.161	14560
895.283	14518
895.405	14343
895.526	14404
895.648	14545
895.769	14533
895.891	14526
896.012	14537
896.134	14518
896.255	14537
896.376	14587
896.498	14469
896.619	14727
896.74	14560
896.861	14602
896.982	14864
897.103	15036
897.224	14906
897.345	14739
897.466	14804
897.587	14842
897.708	14941
897.828	14925
897.949	14792
898.07	14697
898.19	14834
898.311	15017
898.431	14853
898.552	14765
898.672	14982
898.792	14815
898.913	14872
899.033	14861
899.153	14800
899.273	14686
899.393	14792
899.513	14834
899.633	14746
899.753	14861
899.873	14735
899.993	14750
900.113	14872
900.232	14804
900.352	14731
900.472	14594
900.591	14583
900.711	14655
900.83	14507
900.95	14674
901.069	14663
901.189	14575
901.308	14324
901.427	14286
901.546	14294
901.665	14244
901.784	14343
901.904	14111
902.023	14115
902.141	13841
902.26	13860
902.379	13890
902.498	13769
902.617	13868
902.735	13917
902.854	13811
902.973	13784
903.091	13521
903.21	13559
903.328	13605
903.446	13483
903.565	13335
903.683	13403
903.801	13343
903.919	13434
904.038	13297
904.156	13251
904.274	13343
904.392	13118
904.51	13244
904.627	13228
904.745	13263
904.863	13236
904.981	13004
905.098	12913
905.216	12886
905.334	12890
905.451	12821
905.569	12882
905.686	12962
905.803	12821
905.921	12700
906.038	12840
906.155	12768
906.272	12585
906.389	12673
906.506	12525
906.623	12517
906.74	12475
906.857	12365
906.974	12380
907.091	12559
907.208	12627
907.324	12563
907.441	12448
907.557	12251
907.674	12235
907.79	12144
907.907	12243
908.023	12239
908.139	12220
908.256	12201
908.372	12129
908.488	12121
908.604	12072
908.72	11992
908.836	11958
908.952	12022
909.068	12057
909.184	12030
909.3	11954
909.415	11999
909.531	12011
909.647	11737
909.762	11760
909.878	11707
909.993	11790
910.108	11802
910.224	11779
910.339	11726
910.454	11760
910.57	11482
910.685	11558
910.8	11836
910.915	11874
911.03	11604
911.145	11520
911.259	11410
911.374	11436
911.489	11410
911.604	11334
911.718	11174
911.833	11269
911.947	11064
912.062	11045
912.176	11265
912.291	11254
912.405	11170
912.519	11406
912.633	11448
912.748	11227
912.862	11284
912.976	11025
913.09	10984
913.204	11048
913.318	11113
913.431	11136
913.545	11143
913.659	11201
913.772	11079
913.886	10995
914	10961
914.113	11117
914.226	11025
914.34	10987
914.453	10885
914.566	11018
914.68	10892
914.793	10934
914.906	10752
915.019	10668
915.132	10611
915.245	10744
915.358	10721
915.47	10733
915.583	10733
915.696	10774
915.809	10930
915.921	10809
916.034	10664
916.146	10668
916.259	10599
916.371	10740
916.483	10721
916.595	10615
916.708	10683
916.82	10637
916.932	10660
917.044	10599
917.156	10569
917.268	10485
917.38	10558
917.491	10538
917.603	10554
917.715	10634
917.826	10649
917.938	10497
918.049	10428
918.161	10527
918.272	10618
918.384	10668
918.495	10538
918.606	10421
918.717	10314
918.828	10485
918.939	10356
919.05	10356
919.161	10470
919.272	10219
919.383	10314
919.494	10432
919.604	10615
919.715	10443
919.826	10352
919.936	10386
920.047	10516
920.157	10402
920.267	10622
920.378	10443
920.488	10352
920.598	10618
920.708	10755
920.818	10573
920.928	10615
921.038	10801
921.148	10683
921.258	10470
921.368	10325
921.477	10249
921.587	10299
921.697	10223
921.806	10356
921.916	10105
922.025	9949
922.134	9987
922.244	9888
922.353	10067
922.462	9869
922.571	9835
922.68	9633
922.789	9576
922.898	9614
923.007	9545
923.116	9614
923.224	9686
923.333	9656
923.442	9534
923.55	9477
923.659	9564
923.767	9656
923.876	9466
923.984	9549
924.092	9443
924.201	9523
924.309	9515
924.417	9447
924.525	9545
924.633	9416
924.741	10424
924.849	9344
924.956	9386
925.064	9275
925.172	9192
925.279	9188
925.387	9291
925.494	9291
925.602	9439
925.709	9355
925.816	9287
925.924	9279
926.031	9359
926.138	9256
926.245	9397
926.352	9264
926.459	9359
926.566	9405
926.673	9245
926.779	9135
926.886	9146
926.993	9043
927.099	8994
927.206	8956
927.312	8975
927.419	9100
927.525	9005
927.631	9013
927.737	8944
927.843	8887
927.95	8762
928.056	8849
928.162	8975
928.267	8967
928.373	9595
928.479	9005
928.585	8750
928.69	8899
928.796	8929
928.901	8766
929.007	8705
929.112	8899
929.218	8777
929.323	8826
929.428	8785
929.533	8880
929.638	8758
929.743	8727
929.848	8735
929.953	8727
930.058	8636
930.163	8473
930.267	8492
930.372	8720
930.477	8533
930.581	8712
930.685	8636
930.79	8461
930.894	8480
930.998	8438
931.103	8545
931.207	8142
931.311	8237
931.415	8172
931.519	7963
931.623	7989
