Data from test_V78500241_711.txt Node
Date: Fri Mar 25 14:38:40 CST 2022
User: usil
Spectrometer: V785-0024
Trigger mode: 0
Integration Time (sec): 4.000000E-1
Scans to average: 1
Nonlinearity correction enabled: false
Boxcar width: 0
Storing dark spectrum: false
XAxis mode: Wavelengths
Number of Pixels in Spectrum: 1024
>>>>>Begin Spectral Data<<<<<
801.071	27736
801.214	27603
801.356	27317
801.499	27203
801.641	27104
801.783	27017
801.926	27302
802.068	26952
802.211	26819
802.353	26914
802.496	26743
802.638	26530
802.78	26629
802.923	26533
803.065	26427
803.208	26473
803.35	26644
803.492	26716
803.635	26750
803.777	26629
803.919	26712
804.061	27104
804.204	26857
804.346	26701
804.488	26826
804.63	26804
804.773	26804
804.915	26994
805.057	27116
805.199	26891
805.341	27199
805.483	27256
805.626	27230
805.768	27184
805.91	27405
806.052	27743
806.194	27637
806.336	28192
806.478	28143
806.62	28200
806.762	28417
806.904	28927
807.046	29497
807.188	29836
807.33	30136
807.472	30776
807.614	31419
807.756	32400
807.898	33488
808.04	35010
808.182	37232
808.324	39766
808.465	42894
808.607	46242
808.749	49137
808.891	50948
809.033	51017
809.174	49331
809.316	46318
809.458	42966
809.6	39507
809.741	36779
809.883	34485
810.025	33013
810.166	31856
810.308	31038
810.45	30410
810.591	29866
810.733	29296
810.875	28904
811.016	28550
811.158	28215
811.299	28401
811.441	28265
811.582	28120
811.724	27922
811.865	27694
812.007	27591
812.148	27542
812.29	27564
812.431	27576
812.573	27583
812.714	27759
812.855	27519
812.997	27918
813.138	27895
813.279	27698
813.421	27572
813.562	27405
813.703	27264
813.845	27104
813.986	26712
814.127	26579
814.268	26431
814.41	26305
814.551	26305
814.692	26404
814.833	26244
814.974	26240
815.115	26225
815.256	25989
815.397	26046
815.539	26024
815.68	25898
815.821	25731
815.962	25879
816.103	25807
816.244	25620
816.385	25499
816.526	25339
816.666	25251
816.807	25194
816.948	25179
817.089	25198
817.23	25171
817.371	25175
817.512	25148
817.653	25080
817.793	25072
817.934	25072
818.075	25099
818.216	24920
818.356	24962
818.497	24897
818.638	24871
818.778	24722
818.919	24650
819.06	24833
819.2	24837
819.341	24981
819.481	24962
819.622	24970
819.762	25316
819.903	25266
820.043	25213
820.184	25118
820.324	24901
820.465	24913
820.605	24951
820.746	24901
820.886	24661
821.026	24768
821.167	24768
821.307	24897
821.447	24798
821.588	24661
821.728	24521
821.868	24323
822.008	24251
822.149	24155
822.289	24129
822.429	23843
822.569	23821
822.709	23638
822.849	23539
822.99	23630
823.13	23429
823.27	23497
823.41	23433
823.55	23250
823.69	23292
823.83	23360
823.97	23246
824.11	23159
824.25	23140
824.389	23117
824.529	23174
824.669	23025
824.809	23269
824.949	23193
825.089	23124
825.228	23223
825.368	22911
825.508	22946
825.648	22995
825.787	22991
825.927	22987
826.067	22911
826.206	22953
826.346	22934
826.485	22972
826.625	22896
826.765	22881
826.904	22862
827.044	22607
827.183	22668
827.323	22447
827.462	22637
827.601	22554
827.741	22478
827.88	22531
828.02	22413
828.159	22565
828.298	22546
828.437	22653
828.577	22402
828.716	22557
828.855	22424
828.994	22276
829.134	22204
829.273	22284
829.412	22063
829.551	22173
829.69	22109
829.829	22322
829.968	22299
830.107	22268
830.246	22188
830.385	22082
830.524	22067
830.663	22036
830.802	21911
830.941	21915
831.08	21816
831.219	21895
831.357	21831
831.496	22074
831.635	21956
831.774	21690
831.913	21728
832.051	21705
832.19	21747
832.329	21785
832.467	21587
832.606	21637
832.744	21644
832.883	21812
833.022	21808
833.16	21972
833.299	22032
833.437	22169
833.576	22413
833.714	22386
833.852	22531
833.991	22706
834.129	22820
834.267	22725
834.406	22767
834.544	22744
834.682	22599
834.821	22462
834.959	22451
835.097	22188
835.235	22143
835.373	21991
835.511	21895
835.65	21641
835.788	21679
835.926	21534
836.064	21340
836.202	21435
836.34	21492
836.478	21523
836.615	21488
836.753	21447
836.891	21477
837.029	21306
837.167	21397
837.305	21310
837.443	21279
837.58	21081
837.718	21165
837.856	21237
837.993	21089
838.131	21093
838.269	21028
838.406	20982
838.544	20906
838.681	20815
838.819	20781
838.956	20640
839.094	20541
839.231	20655
839.369	20739
839.506	20937
839.643	20769
839.781	20587
839.918	20533
840.055	20541
840.193	20473
840.33	20438
840.467	20549
840.604	20613
840.742	20697
840.879	20400
841.016	20488
841.153	20526
841.29	20682
841.427	20541
841.564	20533
841.701	20488
841.838	20545
841.975	20514
842.112	20518
842.249	20434
842.385	20358
842.522	20484
842.659	20336
842.796	20320
842.933	20408
843.069	20324
843.206	20358
843.343	20415
843.479	20492
843.616	20549
843.752	20427
843.889	20408
844.025	20667
844.162	20507
844.298	20781
844.435	20796
844.571	20937
844.708	21222
844.844	21580
844.98	22238
845.117	22839
845.253	23699
845.389	25655
845.525	29497
845.661	35452
845.798	42369
845.934	47550
846.07	49460
846.206	47843
846.342	43126
846.478	36152
846.614	30098
846.75	26248
846.886	23965
847.022	22683
847.158	21656
847.294	21116
847.429	20834
847.565	20396
847.701	20518
847.837	19947
847.972	19879
848.108	19791
848.244	19784
848.379	19499
848.515	19468
848.65	19453
848.786	19403
848.921	19438
849.057	19449
849.192	19407
849.328	19392
849.463	19251
849.598	19240
849.734	19171
849.869	19053
850.004	18966
850.14	19053
850.275	18966
850.41	18867
850.545	18875
850.68	18943
850.815	19122
850.95	18852
851.085	19145
851.22	18939
851.355	18973
851.49	18913
851.625	18928
851.76	18943
851.895	18760
852.03	18795
852.165	19038
852.299	19057
852.434	19190
852.569	19145
852.703	19076
852.838	19133
852.973	19285
853.107	19240
853.242	18962
853.376	19042
853.511	18795
853.645	19141
853.78	19183
853.914	19221
854.048	19198
854.183	19259
854.317	19129
854.451	19331
854.585	19247
854.72	19175
854.854	19308
854.988	19031
855.122	19080
855.256	18985
855.39	19004
855.524	18935
855.658	18958
855.792	18996
855.926	18920
856.06	18939
856.194	18973
856.327	18833
856.461	18795
856.595	18757
856.729	18734
856.862	18806
856.996	18787
857.13	18863
857.263	18802
857.397	18882
857.53	18730
857.664	18764
857.797	18840
857.931	18738
858.064	18665
858.197	18711
858.331	18677
858.464	18627
858.597	18608
858.731	18673
858.864	18559
858.997	18635
859.13	18650
859.263	18582
859.396	18711
859.529	18566
859.662	18566
859.795	18540
859.928	18650
860.061	18810
860.194	18604
860.327	18700
860.46	18612
860.592	18719
860.725	18688
860.858	18741
860.99	18608
861.123	18494
861.256	18464
861.388	18631
861.521	19236
861.653	18483
861.786	18456
861.918	18502
862.05	18517
862.183	18639
862.315	18608
862.447	18559
862.58	18540
862.712	18357
862.844	18213
862.976	18330
863.108	18281
863.24	18734
863.372	18216
863.504	18163
863.636	18224
863.768	18304
863.9	18277
864.032	18129
864.164	18251
864.296	18289
864.428	18399
864.559	18273
864.691	18361
864.823	18190
864.954	18216
865.086	18254
865.217	18190
865.349	18163
865.48	18049
865.612	18129
865.743	18304
865.875	18159
866.006	18038
866.137	18083
866.269	18133
866.4	18190
866.531	18045
866.662	18117
866.793	18072
866.924	18057
867.055	18167
867.186	18114
867.317	18129
867.448	17954
867.579	18152
867.71	18026
867.841	18011
867.972	18064
868.103	18197
868.233	18155
868.364	18117
868.495	18243
868.625	18437
868.756	18471
868.886	18327
869.017	18357
869.147	18448
869.278	18513
869.408	18448
869.539	18372
869.669	18494
869.799	18350
869.929	18467
870.06	18525
870.19	18711
870.32	18722
870.45	18681
870.58	18829
870.71	18966
870.84	18916
870.97	18840
871.1	18764
871.23	19015
871.36	19107
871.489	19034
871.619	18973
871.749	19053
871.879	19122
872.008	19331
872.138	19019
872.267	19107
872.397	18977
872.526	19046
872.656	19126
872.785	19031
872.915	19232
873.044	19324
873.173	19293
873.303	19285
873.432	19426
873.561	19453
873.69	19358
873.819	19308
873.948	19468
874.077	19468
874.206	19396
874.335	19578
874.464	19681
874.593	19784
874.722	19845
874.851	19830
874.979	20027
875.108	20020
875.237	19921
875.365	19890
875.494	20092
875.623	20199
875.751	20005
875.88	20221
876.008	20351
876.136	20492
876.265	20720
876.393	20887
876.521	20918
876.65	20838
876.778	20785
876.906	20998
877.034	20963
877.162	21085
877.29	20990
877.418	21370
877.546	21355
877.674	21454
877.802	21515
877.93	21774
878.058	21865
878.185	21934
878.313	22341
878.441	22683
878.568	22850
878.696	23547
878.824	24505
878.951	25567
879.079	27188
879.206	29292
879.333	31293
879.461	32982
879.588	34230
879.715	34185
879.842	33332
879.97	31441
880.097	29102
880.224	27466
880.351	26400
880.478	25514
880.605	24825
880.732	24479
880.859	24490
880.986	24235
881.112	23965
881.239	23870
881.366	23714
881.493	23577
881.619	23604
881.746	23554
881.872	23535
881.999	23703
882.125	23611
882.252	23737
882.378	23828
882.505	23904
882.631	23680
882.757	23668
882.883	23748
883.01	23592
883.136	23642
883.262	23531
883.388	23444
883.514	23493
883.64	23600
883.766	23505
883.892	23356
884.018	23391
884.143	23353
884.269	23478
884.395	23273
884.52	23307
884.646	23311
884.772	23296
884.897	23189
885.023	23292
885.148	23391
885.274	23391
885.399	23170
885.524	22946
885.65	22946
885.775	22824
885.9	22546
886.025	22516
886.15	22352
886.275	22158
886.4	21975
886.525	21949
886.65	21770
886.775	21591
886.9	21736
887.025	21587
887.149	21412
887.274	21161
887.399	21028
887.523	20914
887.648	20716
887.773	20705
887.897	20804
888.021	20746
888.146	20632
888.27	20564
888.395	20469
888.519	20431
888.643	20362
888.767	20317
888.891	20225
889.015	20039
889.139	20138
889.263	19928
889.387	20012
889.511	20058
889.635	19803
889.759	19811
889.883	19731
890.006	19807
890.13	19780
890.254	19594
890.377	19590
890.501	19476
890.624	19308
890.748	19320
890.871	19270
890.995	19114
891.118	19012
891.241	19099
891.364	19004
891.488	19126
891.611	18901
891.734	18951
891.857	18901
891.98	18749
892.103	18977
892.226	18787
892.349	18791
892.471	18490
892.594	18681
892.717	18658
892.839	18639
892.962	18684
893.085	18589
893.207	18627
893.33	18452
893.452	18384
893.575	18494
893.697	18456
893.819	18582
893.941	18589
894.064	18566
894.186	18330
894.308	18304
894.43	18502
894.552	18388
894.674	18422
894.796	18235
894.918	18251
895.04	18220
895.161	18353
895.283	18258
895.405	18079
895.526	18220
895.648	18205
895.769	18194
895.891	18197
896.012	18205
896.134	18159
896.255	18152
896.376	18095
896.498	18106
896.619	18209
896.74	18106
896.861	18171
896.982	18414
897.103	18589
897.224	18296
897.345	18361
897.466	18304
897.587	18319
897.708	18304
897.828	18304
897.949	18117
898.07	18186
898.19	18197
898.311	18205
898.431	18133
898.552	18311
898.672	18315
898.792	18357
898.913	18232
899.033	18330
899.153	18041
899.273	17942
899.393	18148
899.513	18110
899.633	18019
899.753	18068
899.873	17923
899.993	18087
900.113	17961
900.232	17996
900.352	18038
900.472	17893
900.591	17874
900.711	17863
900.83	17779
900.95	17992
901.069	17965
901.189	17699
901.308	17421
901.427	17467
901.546	17372
901.665	17433
901.784	17387
901.904	17288
902.023	17166
902.141	16980
902.26	16911
902.379	16927
902.498	16889
902.617	16850
902.735	16923
902.854	16801
902.973	16862
903.091	16573
903.21	16554
903.328	16474
903.446	16360
903.565	16306
903.683	16268
903.801	16143
903.919	16211
904.038	16177
904.156	16051
904.274	16143
904.392	15949
904.51	16025
904.627	15998
904.745	15945
904.863	16006
904.981	15717
905.098	15656
905.216	15667
905.334	15595
905.451	15682
905.569	15755
905.686	15595
905.803	15530
905.921	15504
906.038	15523
906.155	15469
906.272	15401
906.389	15378
906.506	15184
906.623	15252
906.74	15275
906.857	15119
906.974	15173
907.091	15252
907.208	15355
907.324	15097
907.441	14994
907.557	15051
907.674	14982
907.79	14746
907.907	14807
908.023	14929
908.139	14861
908.256	14815
908.372	14777
908.488	14727
908.604	14606
908.72	14533
908.836	14594
908.952	14568
909.068	14575
909.184	14716
909.3	14617
909.415	14606
909.531	14629
909.647	14408
909.762	14278
909.878	14320
909.993	14358
910.108	14317
910.224	14282
910.339	14362
910.454	14214
910.57	14157
910.685	14024
910.8	14355
910.915	14286
911.03	14164
911.145	13932
911.259	14119
911.374	13906
911.489	13906
911.604	13849
911.718	13769
911.833	13826
911.947	13609
912.062	13586
912.176	13761
912.291	13700
912.405	13715
912.519	13917
912.633	13807
912.748	13772
912.862	13700
912.976	13537
913.09	13453
913.204	13445
913.318	13624
913.431	13712
913.545	13586
913.659	13594
913.772	13578
913.886	13384
914	13335
914.113	13396
914.226	13578
914.34	13540
914.453	13266
914.566	13514
914.68	13362
914.793	13247
914.906	13168
915.019	13057
915.132	13027
915.245	13080
915.358	13072
915.47	13198
915.583	13061
915.696	13263
915.809	13228
915.921	13358
916.034	13110
916.146	13080
916.259	13099
916.371	13171
916.483	13141
916.595	13084
916.708	13053
916.82	13023
916.932	12966
917.044	12951
917.156	13023
917.268	12840
917.38	12901
917.491	12787
917.603	12935
917.715	12935
917.826	13008
917.938	12821
918.049	12692
918.161	12802
918.272	12913
918.384	12897
918.495	12726
918.606	12700
918.717	12521
918.828	12635
918.939	12635
919.05	12494
919.161	12528
919.272	12388
919.383	12437
919.494	12639
919.604	12833
919.715	12620
919.826	12452
919.936	12490
920.047	12764
920.157	12593
920.267	12688
920.378	12574
920.488	12521
920.598	12802
920.708	12863
920.818	12715
920.928	12745
921.038	12886
921.148	12806
921.258	12593
921.368	12452
921.477	12334
921.587	12273
921.697	12213
921.806	12403
921.916	12262
922.025	12019
922.134	12079
922.244	11870
922.353	12026
922.462	11908
922.571	11764
922.68	11634
922.789	11661
922.898	11672
923.007	11566
923.116	11764
923.224	11649
923.333	11516
923.442	11493
923.55	11505
923.659	11554
923.767	11608
923.876	11509
923.984	11600
924.092	11395
924.201	11425
924.309	11410
924.417	11387
924.525	11299
924.633	11421
924.741	12308
924.849	11181
924.956	11341
925.064	11067
925.172	11147
925.279	11121
925.387	11208
925.494	11227
925.602	11280
925.709	11227
925.816	11109
925.924	11128
926.031	11299
926.138	11132
926.245	11178
926.352	11083
926.459	11159
926.566	11288
926.673	11102
926.779	10984
926.886	10980
926.993	10881
927.099	10839
927.206	10729
927.312	10816
927.419	10843
927.525	10839
927.631	10816
927.737	10740
927.843	10744
927.95	10573
928.056	10691
928.162	10694
928.267	10736
928.373	11147
928.479	10725
928.585	10607
928.69	10702
928.796	10675
928.901	10493
929.007	10322
929.112	10649
929.218	10527
929.323	10462
929.428	10462
929.533	10512
929.638	10440
929.743	10375
929.848	10413
929.953	10390
930.058	10268
930.163	10185
930.267	10093
930.372	10322
930.477	10227
930.581	10409
930.685	10253
930.79	10059
930.894	10017
930.998	10055
931.103	10143
931.207	9804
931.311	9778
931.415	9698
931.519	9549
931.623	9515
