Data from test_V78500241_1762.txt Node
Date: Fri Mar 25 14:45:58 CST 2022
User: usil
Spectrometer: V785-0024
Trigger mode: 0
Integration Time (sec): 4.000000E-1
Scans to average: 1
Nonlinearity correction enabled: false
Boxcar width: 0
Storing dark spectrum: false
XAxis mode: Wavelengths
Number of Pixels in Spectrum: 1024
>>>>>Begin Spectral Data<<<<<
801.071	22261
801.214	21945
801.356	21857
801.499	21827
801.641	21587
801.783	21492
801.926	21652
802.068	21583
802.211	21526
802.353	21435
802.496	21169
802.638	21013
802.78	21013
802.923	21017
803.065	20967
803.208	20853
803.35	20864
803.492	21074
803.635	21074
803.777	20975
803.919	20948
804.061	21256
804.204	20982
804.346	20979
804.488	20861
804.63	20830
804.773	20800
804.915	20876
805.057	20948
805.199	20697
805.341	20819
805.483	20906
805.626	20838
805.768	20731
805.91	20800
806.052	20842
806.194	20781
806.336	20952
806.478	20880
806.62	20842
806.762	20857
806.904	21074
807.046	21332
807.188	21146
807.33	21127
807.472	21226
807.614	21032
807.756	21058
807.898	20948
808.04	20845
808.182	20876
808.324	20982
808.465	20975
808.607	21062
808.749	21154
808.891	21268
809.033	21291
809.174	21211
809.316	21199
809.458	21268
809.6	21222
809.741	21268
809.883	21268
810.025	21431
810.166	21370
810.308	21348
810.45	21306
810.591	21203
810.733	21036
810.875	21017
811.016	20952
811.158	20842
811.299	21157
811.441	21150
811.582	21165
811.724	21077
811.865	20948
812.007	21020
812.148	21039
812.29	21138
812.431	21165
812.573	21233
812.714	21351
812.855	21557
812.997	21644
813.138	21603
813.279	21610
813.421	21408
813.562	21359
813.703	21283
813.845	21176
813.986	20990
814.127	20667
814.268	20640
814.41	20590
814.551	20507
814.692	20526
814.833	20484
814.974	20385
815.115	20564
815.256	20389
815.397	20358
815.539	20423
815.68	20187
815.821	20126
815.962	20298
816.103	20263
816.244	20149
816.385	19947
816.526	20031
816.666	19917
816.807	19693
816.948	19795
817.089	19700
817.23	19803
817.371	19666
817.512	19693
817.653	19651
817.793	19601
817.934	19708
818.075	19727
818.216	19662
818.356	19643
818.497	19457
818.638	19358
818.778	19369
818.919	19388
819.06	19392
819.2	19620
819.341	19544
819.481	19540
819.622	19639
819.762	19883
819.903	19822
820.043	19738
820.184	19708
820.324	19582
820.465	19594
820.605	19635
820.746	19651
820.886	19453
821.026	19666
821.167	19601
821.307	19605
821.447	19613
821.588	19464
821.728	19426
821.868	19274
822.008	19057
822.149	19012
822.289	19034
822.429	18734
822.569	18722
822.709	18779
822.849	18578
822.99	18677
823.13	18490
823.27	18460
823.41	18376
823.55	18273
823.69	18399
823.83	18357
823.97	18262
824.11	18125
824.25	18190
824.389	18095
824.529	18228
824.669	18159
824.809	18266
824.949	18235
825.089	18087
825.228	18129
825.368	17920
825.508	17916
825.648	17954
825.787	18003
825.927	17901
826.067	17923
826.206	17783
826.346	17996
826.485	17958
826.625	17950
826.765	18015
826.904	17988
827.044	17676
827.183	17767
827.323	17493
827.462	17638
827.601	17592
827.741	17596
827.88	17623
828.02	17482
828.159	17589
828.298	17653
828.437	17543
828.577	17429
828.716	17775
828.855	17497
828.994	17383
829.134	17284
829.273	17326
829.412	17322
829.551	17223
829.69	17341
829.829	17379
829.968	17436
830.107	17471
830.246	17261
830.385	17162
830.524	17307
830.663	17181
830.802	17060
830.941	16919
831.08	17003
831.219	17102
831.357	16995
831.496	17174
831.635	16934
831.774	16850
831.913	16793
832.051	16786
832.19	16763
832.329	16805
832.467	16656
832.606	16531
832.744	16664
832.883	16607
833.022	16626
833.16	16706
833.299	16824
833.437	16660
833.576	16694
833.714	16771
833.852	16801
833.991	16687
834.129	16812
834.267	16687
834.406	16687
834.544	16786
834.682	16713
834.821	16649
834.959	16961
835.097	16660
835.235	16805
835.373	16729
835.511	16702
835.65	16588
835.788	16599
835.926	16470
836.064	16424
836.202	16436
836.34	16634
836.478	16710
836.615	16630
836.753	16694
836.891	16649
837.029	16653
837.167	16622
837.305	16447
837.443	16497
837.58	16413
837.718	16542
837.856	16451
837.993	16432
838.131	16554
838.269	16348
838.406	16485
838.544	16352
838.681	16215
838.819	16074
838.956	16013
839.094	16154
839.231	16071
839.369	16131
839.506	16451
839.643	16196
839.781	16006
839.918	15979
840.055	16044
840.193	15998
840.33	15991
840.467	16131
840.604	16002
840.742	16322
840.879	15915
841.016	15869
841.153	15903
841.29	16173
841.427	16055
841.564	16010
841.701	16097
841.838	16086
841.975	15888
842.112	15880
842.249	15812
842.385	15766
842.522	15934
842.659	15823
842.796	15854
842.933	15793
843.069	15743
843.206	15766
843.343	15793
843.479	15759
843.616	15747
843.752	15671
843.889	15663
844.025	15755
844.162	15595
844.298	15762
844.435	15591
844.571	15477
844.708	15690
844.844	15717
844.98	15663
845.117	15686
845.253	15576
845.389	15416
845.525	15610
845.661	15447
845.798	15367
845.934	15416
846.07	15408
846.206	15397
846.342	15416
846.478	15317
846.614	15207
846.75	15017
846.886	15108
847.022	15230
847.158	15199
847.294	15093
847.429	15279
847.565	15055
847.701	15355
847.837	14861
847.972	14792
848.108	14891
848.244	14960
848.379	14781
848.515	14781
848.65	14716
848.786	14720
848.921	14868
849.057	14876
849.192	14895
849.328	14758
849.463	14883
849.598	14864
849.734	14655
849.869	14602
850.004	14640
850.14	14587
850.275	14537
850.41	14389
850.545	14530
850.68	14541
850.815	14556
850.95	14434
851.085	14651
851.22	14670
851.355	14533
851.49	14575
851.625	14552
851.76	14511
851.895	14370
852.03	14454
852.165	14560
852.299	14530
852.434	14533
852.569	14644
852.703	14602
852.838	14640
852.973	14750
853.107	14686
853.242	14450
853.376	14522
853.511	14408
853.645	14412
853.78	14606
853.914	14541
854.048	14427
854.183	14351
854.317	14393
854.451	14610
854.585	14469
854.72	14408
854.854	14476
854.988	14301
855.122	14408
855.256	14290
855.39	14431
855.524	14396
855.658	14434
855.792	14408
855.926	14423
856.06	14476
856.194	14640
856.327	14438
856.461	14393
856.595	14358
856.729	14423
856.862	14526
856.996	14419
857.13	14579
857.263	14518
857.397	14560
857.53	14374
857.664	14469
857.797	14469
857.931	14442
858.064	14495
858.197	14533
858.331	14389
858.464	14381
858.597	14339
858.731	14461
858.864	14499
858.997	14431
859.13	14514
859.263	14476
859.396	14442
859.529	14362
859.662	14431
859.795	14351
859.928	14442
860.061	14629
860.194	14564
860.327	14434
860.46	14412
860.592	14533
860.725	14556
860.858	14465
860.99	14419
861.123	14332
861.256	14385
861.388	14431
861.521	15211
861.653	14301
861.786	14252
861.918	14298
862.05	14237
862.183	14396
862.315	14419
862.447	14434
862.58	14377
862.712	14130
862.844	14157
862.976	14362
863.108	14172
863.24	14583
863.372	14191
863.504	14088
863.636	14221
863.768	14252
863.9	14187
864.032	14161
864.164	14084
864.296	14339
864.428	14343
864.559	14256
864.691	14248
864.823	14199
864.954	14286
865.086	14221
865.217	14267
865.349	14103
865.48	14271
865.612	14248
865.743	14267
865.875	14119
866.006	14145
866.137	14256
866.269	14199
866.4	14214
866.531	14145
866.662	14054
866.793	14168
866.924	14149
867.055	14202
867.186	14172
867.317	14119
867.448	14088
867.579	14157
867.71	14039
867.841	14111
867.972	14218
868.103	14153
868.233	14195
868.364	14195
868.495	14252
868.625	14366
868.756	14499
868.886	14404
869.017	14366
869.147	14587
869.278	14533
869.408	14404
869.539	14446
869.669	14438
869.799	14461
869.929	14549
870.06	14511
870.19	14804
870.32	14693
870.45	14750
870.58	14861
870.71	14971
870.84	14876
870.97	14845
871.1	14857
871.23	15001
871.36	15070
871.489	14891
871.619	14982
871.749	15017
871.879	15089
872.008	15154
872.138	14994
872.267	15043
872.397	14838
872.526	14971
872.656	14883
872.785	14902
872.915	15024
873.044	15097
873.173	15028
873.303	15188
873.432	15051
873.561	15146
873.69	15112
873.819	15077
873.948	15108
874.077	15116
874.206	15123
874.335	15176
874.464	15180
874.593	15336
874.722	15275
874.851	15351
874.979	15363
875.108	15412
875.237	15302
875.365	15291
875.494	15370
875.623	15447
875.751	15294
875.88	15344
876.008	15641
876.136	15675
876.265	15759
876.393	15964
876.521	15774
876.65	15903
876.778	15800
876.906	15739
877.034	15736
877.162	15793
877.29	15804
877.418	15701
877.546	15789
877.674	15781
877.802	15846
877.93	15800
878.058	15865
878.185	15800
878.313	15785
878.441	15842
878.568	15644
878.696	15682
878.824	15793
878.951	15937
879.079	15968
879.206	16120
879.333	15998
879.461	15846
879.588	15953
879.715	15911
879.842	16112
879.97	15884
880.097	15690
880.224	15587
880.351	15705
880.478	15747
880.605	15679
880.732	15705
880.859	15838
880.986	15736
881.112	15785
881.239	15542
881.366	15367
881.493	15386
881.619	15275
881.746	15329
881.872	15313
881.999	15138
882.125	15306
882.252	15447
882.378	15382
882.505	15428
882.631	15260
882.757	15100
882.883	15222
883.01	15142
883.136	15077
883.262	14979
883.388	14994
883.514	15165
883.64	15195
883.766	15028
883.892	14868
884.018	14963
884.143	15119
884.269	15131
884.395	14952
884.52	14807
884.646	14819
884.772	14815
884.897	14880
885.023	14838
885.148	15009
885.274	15017
885.399	14941
885.524	14864
885.65	14720
885.775	14880
885.9	14845
886.025	14921
886.15	14792
886.275	14758
886.4	14800
886.525	14788
886.65	14796
886.775	14632
886.9	14937
887.025	14948
887.149	14792
887.274	14697
887.399	14560
887.523	14670
887.648	14488
887.773	14598
887.897	14773
888.021	14682
888.146	14575
888.27	14724
888.395	14708
888.519	14659
888.643	14724
888.767	14727
888.891	14640
889.015	14488
889.139	14526
889.263	14549
889.387	14613
889.511	14735
889.635	14670
889.759	14522
889.883	14438
890.006	14495
890.13	14655
890.254	14366
890.377	14484
890.501	14396
890.624	14286
890.748	14362
890.871	14244
890.995	14115
891.118	14096
891.241	14195
891.364	14278
891.488	14339
891.611	14244
891.734	14172
891.857	14339
891.98	14221
892.103	14336
892.226	14263
892.349	14172
892.471	14077
892.594	14149
892.717	14183
892.839	14259
892.962	14248
893.085	14202
893.207	14229
893.33	14123
893.452	14134
893.575	14237
893.697	14168
893.819	14336
893.941	14370
894.064	14393
894.186	14221
894.308	14259
894.43	14396
894.552	14343
894.674	14339
894.796	14103
894.918	14271
895.04	14233
895.161	14415
895.283	14351
895.405	14259
895.526	14259
895.648	14355
895.769	14328
895.891	14400
896.012	14412
896.134	14301
896.255	14370
896.376	14362
896.498	14374
896.619	14434
896.74	14385
896.861	14469
896.982	14739
897.103	14902
897.224	14705
897.345	14667
897.466	14579
897.587	14663
897.708	14849
897.828	14693
897.949	14590
898.07	14552
898.19	14625
898.311	14785
898.431	14750
898.552	14648
898.672	14823
898.792	14842
898.913	14819
899.033	14667
899.153	14602
899.273	14484
899.393	14503
899.513	14602
899.633	14617
899.753	14602
899.873	14610
899.993	14678
900.113	14507
900.232	14667
900.352	14499
900.472	14427
900.591	14385
900.711	14446
900.83	14476
900.95	14571
901.069	14571
901.189	14385
901.308	14183
901.427	14027
901.546	14138
901.665	14168
901.784	14149
901.904	14039
902.023	13902
902.141	13723
902.26	13742
902.379	13731
902.498	13674
902.617	13613
902.735	13803
902.854	13647
902.973	13575
903.091	13430
903.21	13472
903.328	13403
903.446	13274
903.565	13297
903.683	13362
903.801	13255
903.919	13198
904.038	13240
904.156	13099
904.274	13168
904.392	13114
904.51	13004
904.627	13034
904.745	13061
904.863	13152
904.981	12886
905.098	12711
905.216	12730
905.334	12840
905.451	12875
905.569	12711
905.686	12802
905.803	12776
905.921	12616
906.038	12700
906.155	12551
906.272	12452
906.389	12513
906.506	12403
906.623	12361
906.74	12376
906.857	12216
906.974	12308
907.091	12437
907.208	12448
907.324	12346
907.441	12224
907.557	12121
907.674	12095
907.79	12060
907.907	12102
908.023	12095
908.139	12125
908.256	12053
908.372	12007
908.488	11935
908.604	11901
908.72	11824
908.836	11897
908.952	11783
909.068	11878
909.184	11973
909.3	11855
909.415	11893
909.531	11809
909.647	11665
909.762	11718
909.878	11532
909.993	11680
910.108	11638
910.224	11509
910.339	11649
910.454	11520
910.57	11505
910.685	11455
910.8	11589
910.915	11684
911.03	11482
911.145	11299
911.259	11258
911.374	11318
911.489	11269
911.604	11170
911.718	11159
911.833	11060
911.947	10976
912.062	10946
912.176	10984
912.291	11071
912.405	11075
912.519	11269
912.633	11239
912.748	11102
912.862	11121
912.976	10976
913.09	10812
913.204	10976
913.318	10961
913.431	10999
913.545	10980
913.659	11048
913.772	10889
913.886	10839
914	10793
914.113	10885
914.226	10862
914.34	10946
914.453	10641
914.566	10889
914.68	10748
914.793	10744
914.906	10618
915.019	10596
915.132	10512
915.245	10508
915.358	10561
915.47	10630
915.583	10599
915.696	10698
915.809	10755
915.921	10790
916.034	10592
916.146	10432
916.259	10485
916.371	10603
916.483	10569
916.595	10516
916.708	10508
916.82	10489
916.932	10474
917.044	10519
917.156	10481
917.268	10367
917.38	10394
917.491	10382
917.603	10459
917.715	10519
917.826	10432
917.938	10394
918.049	10394
918.161	10371
918.272	10538
918.384	10489
918.495	10546
918.606	10318
918.717	10230
918.828	10272
918.939	10318
919.05	10268
919.161	10303
919.272	10074
919.383	10143
919.494	10325
919.604	10546
919.715	10375
919.826	10215
919.936	10261
920.047	10386
920.157	10375
920.267	10527
920.378	10432
920.488	10363
920.598	10500
920.708	10668
920.818	10584
920.928	10462
921.038	10778
921.148	10615
921.258	10382
921.368	10333
921.477	10131
921.587	10249
921.697	10116
921.806	10238
921.916	10128
922.025	9918
922.134	9915
922.244	9869
922.353	9991
922.462	9785
922.571	9701
922.68	9545
922.789	9622
922.898	9584
923.007	9466
923.116	9564
923.224	9595
923.333	9587
923.442	9466
923.55	9443
923.659	9504
923.767	9466
923.876	9450
923.984	9584
924.092	9405
924.201	9397
924.309	9420
924.417	9443
924.525	9386
924.633	9405
924.741	10337
924.849	9173
924.956	9382
925.064	9161
925.172	9112
925.279	9157
925.387	9188
925.494	9249
925.602	9294
925.709	9359
925.816	9157
925.924	9123
926.031	9348
926.138	9230
926.245	9203
926.352	9180
926.459	9283
926.566	9325
926.673	9138
926.779	9051
926.886	9062
926.993	8944
927.099	8921
927.206	8925
927.312	8861
927.419	8967
927.525	8967
927.631	9066
927.737	8819
927.843	8853
927.95	8754
928.056	8830
928.162	8804
928.267	8823
928.373	9412
928.479	8910
928.585	8727
928.69	8792
928.796	8826
928.901	8739
929.007	8636
929.112	8773
929.218	8701
929.323	8606
929.428	8670
929.533	8773
929.638	8552
929.743	8648
929.848	8644
929.953	8621
930.058	8568
930.163	8351
930.267	8400
930.372	8526
930.477	8317
930.581	8594
930.685	8438
930.79	8385
930.894	8427
930.998	8385
931.103	8450
931.207	8187
931.311	8092
931.415	8088
931.519	7803
931.623	7875
