Data from test_V78500241_1595.txt Node
Date: Fri Mar 25 14:44:49 CST 2022
User: usil
Spectrometer: V785-0024
Trigger mode: 0
Integration Time (sec): 4.000000E-1
Scans to average: 1
Nonlinearity correction enabled: false
Boxcar width: 0
Storing dark spectrum: false
XAxis mode: Wavelengths
Number of Pixels in Spectrum: 1024
>>>>>Begin Spectral Data<<<<<
801.071	22402
801.214	22261
801.356	22063
801.499	21865
801.641	21770
801.783	21747
801.926	21800
802.068	21682
802.211	21534
802.353	21492
802.496	21351
802.638	21199
802.78	21233
802.923	21203
803.065	21062
803.208	21009
803.35	21055
803.492	21173
803.635	21127
803.777	21123
803.919	21154
804.061	21332
804.204	21241
804.346	21039
804.488	20921
804.63	21001
804.773	20979
804.915	21070
805.057	21161
805.199	20994
805.341	21047
805.483	21173
805.626	21089
805.768	20971
805.91	21028
806.052	21089
806.194	20914
806.336	21020
806.478	20975
806.62	20895
806.762	20925
806.904	21214
807.046	21313
807.188	21336
807.33	21355
807.472	21332
807.614	21298
807.756	21199
807.898	21275
808.04	21169
808.182	21192
808.324	21252
808.465	21241
808.607	21351
808.749	21553
808.891	21500
809.033	21679
809.174	21519
809.316	21568
809.458	21496
809.6	21370
809.741	21549
809.883	21553
810.025	21682
810.166	21561
810.308	21572
810.45	21511
810.591	21496
810.733	21348
810.875	21245
811.016	21112
811.158	21017
811.299	21268
811.441	21275
811.582	21408
811.724	21226
811.865	21131
812.007	21207
812.148	21169
812.29	21291
812.431	21511
812.573	21545
812.714	21564
812.855	21732
812.997	21701
813.138	21876
813.279	21690
813.421	21679
813.562	21660
813.703	21496
813.845	21275
813.986	21074
814.127	20849
814.268	20834
814.41	20796
814.551	20674
814.692	20838
814.833	20674
814.974	20575
815.115	20807
815.256	20648
815.397	20545
815.539	20625
815.68	20480
815.821	20328
815.962	20499
816.103	20495
816.244	20301
816.385	20305
816.526	20267
816.666	20031
816.807	19788
816.948	19932
817.089	20012
817.23	19936
817.371	19871
817.512	19925
817.653	19913
817.793	19814
817.934	19856
818.075	19936
818.216	19989
818.356	19830
818.497	19738
818.638	19514
818.778	19521
818.919	19483
819.06	19651
819.2	19643
819.341	19685
819.481	19757
819.622	19894
819.762	19963
819.903	19947
820.043	19921
820.184	19868
820.324	19719
820.465	19868
820.605	19879
820.746	19947
820.886	19742
821.026	19833
821.167	19826
821.307	19871
821.447	19852
821.588	19582
821.728	19567
821.868	19487
822.008	19259
822.149	19183
822.289	19129
822.429	18905
822.569	19004
822.709	18928
822.849	18779
822.99	18745
823.13	18726
823.27	18734
823.41	18509
823.55	18448
823.69	18498
823.83	18479
823.97	18506
824.11	18399
824.25	18338
824.389	18273
824.529	18483
824.669	18273
824.809	18369
824.949	18410
825.089	18334
825.228	18327
825.368	18098
825.508	18163
825.648	18140
825.787	18114
825.927	18163
826.067	18076
826.206	18019
826.346	18159
826.485	18083
826.625	18102
826.765	18148
826.904	18129
827.044	17840
827.183	17863
827.323	17665
827.462	17760
827.601	17863
827.741	17775
827.88	17733
828.02	17604
828.159	17836
828.298	17794
828.437	17859
828.577	17729
828.716	17847
828.855	17684
828.994	17558
829.134	17611
829.273	17558
829.412	17478
829.551	17539
829.69	17524
829.829	17627
829.968	17528
830.107	17429
830.246	17509
830.385	17490
830.524	17482
830.663	17296
830.802	17208
830.941	17109
831.08	17105
831.219	17151
831.357	17231
831.496	17311
831.635	17083
831.774	16976
831.913	17045
832.051	16949
832.19	16889
832.329	16953
832.467	16752
832.606	16812
832.744	16847
832.883	16782
833.022	16748
833.16	16824
833.299	16828
833.437	16820
833.576	16858
833.714	16927
833.852	16896
833.991	16866
834.129	16930
834.267	16953
834.406	16889
834.544	16908
834.682	16965
834.821	16862
834.959	17033
835.097	16904
835.235	16949
835.373	16889
835.511	16942
835.65	16694
835.788	16687
835.926	16729
836.064	16561
836.202	16630
836.34	16755
836.478	16858
836.615	16668
836.753	16675
836.891	16801
837.029	16824
837.167	16793
837.305	16748
837.443	16691
837.58	16538
837.718	16801
837.856	16733
837.993	16554
838.131	16664
838.269	16478
838.406	16599
838.544	16474
838.681	16348
838.819	16310
838.956	16135
839.094	16196
839.231	16116
839.369	16249
839.506	16573
839.643	16440
839.781	16306
839.918	16139
840.055	16166
840.193	16188
840.33	16112
840.467	16166
840.604	16032
840.742	16466
840.879	16086
841.016	16128
841.153	16074
841.29	16344
841.427	16116
841.564	16246
841.701	16139
841.838	16032
841.975	16109
842.112	16006
842.249	15953
842.385	15945
842.522	16082
842.659	16044
842.796	15823
842.933	15888
843.069	15968
843.206	15964
843.343	15968
843.479	15918
843.616	15983
843.752	15652
843.889	15732
844.025	15842
844.162	15751
844.298	15907
844.435	15675
844.571	15652
844.708	15781
844.844	15816
844.98	15827
845.117	15880
845.253	15698
845.389	15656
845.525	15762
845.661	15652
845.798	15568
845.934	15610
846.07	15648
846.206	15656
846.342	15774
846.478	15618
846.614	15412
846.75	15332
846.886	15195
847.022	15397
847.158	15245
847.294	15199
847.429	15260
847.565	15245
847.701	15519
847.837	15058
847.972	15028
848.108	15116
848.244	15062
848.379	15005
848.515	14849
848.65	14815
848.786	14982
848.921	14861
849.057	14994
849.192	14979
849.328	14906
849.463	14883
849.598	14902
849.734	14781
849.869	14769
850.004	14720
850.14	14746
850.275	14598
850.41	14522
850.545	14568
850.68	14594
850.815	14617
850.95	14537
851.085	14762
851.22	14739
851.355	14678
851.49	14640
851.625	14663
851.76	14644
851.895	14545
852.03	14564
852.165	14678
852.299	14697
852.434	14678
852.569	14583
852.703	14724
852.838	14743
852.973	14807
853.107	14739
853.242	14606
853.376	14484
853.511	14355
853.645	14385
853.78	14640
853.914	14507
854.048	14583
854.183	14552
854.317	14480
854.451	14682
854.585	14480
854.72	14431
854.854	14632
854.988	14469
855.122	14442
855.256	14412
855.39	14484
855.524	14610
855.658	14533
855.792	14465
855.926	14587
856.06	14518
856.194	14507
856.327	14480
856.461	14377
856.595	14473
856.729	14484
856.862	14613
856.996	14480
857.13	14610
857.263	14564
857.397	14716
857.53	14473
857.664	14488
857.797	14670
857.931	14648
858.064	14533
858.197	14617
858.331	14526
858.464	14488
858.597	14408
858.731	14537
858.864	14469
858.997	14412
859.13	14602
859.263	14530
859.396	14560
859.529	14514
859.662	14514
859.795	14446
859.928	14492
860.061	14697
860.194	14765
860.327	14560
860.46	14549
860.592	14602
860.725	14636
860.858	14705
860.99	14564
861.123	14404
861.256	14408
861.388	14606
861.521	15325
861.653	14339
861.786	14271
861.918	14396
862.05	14374
862.183	14518
862.315	14537
862.447	14613
862.58	14404
862.712	14256
862.844	14237
862.976	14415
863.108	14389
863.24	14716
863.372	14187
863.504	14347
863.636	14332
863.768	14305
863.9	14320
864.032	14214
864.164	14362
864.296	14355
864.428	14434
864.559	14396
864.691	14389
864.823	14324
864.954	14313
865.086	14301
865.217	14187
865.349	14244
865.48	14336
865.612	14256
865.743	14434
865.875	14385
866.006	14210
866.137	14313
866.269	14256
866.4	14221
866.531	14164
866.662	14145
866.793	14180
866.924	14126
867.055	14271
867.186	14172
867.317	14210
867.448	14062
867.579	14199
867.71	14202
867.841	14202
867.972	14263
868.103	14191
868.233	14298
868.364	14282
868.495	14351
868.625	14412
868.756	14514
868.886	14473
869.017	14492
869.147	14667
869.278	14594
869.408	14438
869.539	14526
869.669	14632
869.799	14526
869.929	14552
870.06	14549
870.19	14838
870.32	14804
870.45	14872
870.58	14929
870.71	15009
870.84	14948
870.97	14902
871.1	14891
871.23	15108
871.36	15066
871.489	15077
871.619	15093
871.749	15036
871.879	15146
872.008	15272
872.138	15100
872.267	14998
872.397	14937
872.526	14895
872.656	14914
872.785	14902
872.915	15055
873.044	15207
873.173	15036
873.303	15237
873.432	15157
873.561	15214
873.69	15043
873.819	15173
873.948	15283
874.077	15173
874.206	15180
874.335	15184
874.464	15283
874.593	15386
874.722	15405
874.851	15564
874.979	15504
875.108	15477
875.237	15439
875.365	15370
875.494	15447
875.623	15431
875.751	15439
875.88	15496
876.008	15603
876.136	15709
876.265	15888
876.393	16059
876.521	15949
876.65	16029
876.778	15903
876.906	15808
877.034	15732
877.162	15850
877.29	15819
877.418	15930
877.546	15960
877.674	15895
877.802	15846
877.93	15865
878.058	15876
878.185	15857
878.313	15873
878.441	15846
878.568	15584
878.696	15865
878.824	15941
878.951	15903
879.079	16029
879.206	16219
879.333	16169
879.461	16051
879.588	16067
879.715	16078
879.842	16185
879.97	15979
880.097	15789
880.224	15739
880.351	15751
880.478	15625
880.605	15682
880.732	15778
880.859	15941
880.986	15831
881.112	15884
881.239	15606
881.366	15485
881.493	15458
881.619	15241
881.746	15496
881.872	15389
881.999	15268
882.125	15397
882.252	15515
882.378	15561
882.505	15534
882.631	15428
882.757	15165
882.883	15245
883.01	15256
883.136	15104
883.262	15135
883.388	15077
883.514	15135
883.64	15321
883.766	15279
883.892	15013
884.018	15039
884.143	15188
884.269	15306
884.395	14956
884.52	14883
884.646	14872
884.772	14842
884.897	14895
885.023	14937
885.148	15009
885.274	15024
885.399	14986
885.524	14918
885.65	14914
885.775	14902
885.9	14887
886.025	14994
886.15	14933
886.275	14899
886.4	14910
886.525	14861
886.65	14819
886.775	14891
886.9	15093
887.025	15093
887.149	14925
887.274	14777
887.399	14678
887.523	14720
887.648	14731
887.773	14686
887.897	14823
888.021	14792
888.146	14571
888.27	14807
888.395	14842
888.519	14754
888.643	14781
888.767	14811
888.891	14537
889.015	14598
889.139	14648
889.263	14552
889.387	14644
889.511	14796
889.635	14659
889.759	14480
889.883	14533
890.006	14590
890.13	14629
890.254	14492
890.377	14484
890.501	14370
890.624	14370
890.748	14408
890.871	14366
890.995	14248
891.118	14187
891.241	14298
891.364	14275
891.488	14385
891.611	14286
891.734	14381
891.857	14324
891.98	14351
892.103	14404
892.226	14431
892.349	14202
892.471	14176
892.594	14298
892.717	14366
892.839	14218
892.962	14377
893.085	14393
893.207	14278
893.33	14084
893.452	14229
893.575	14343
893.697	14221
893.819	14404
893.941	14446
894.064	14374
894.186	14202
894.308	14195
894.43	14419
894.552	14408
894.674	14419
894.796	14233
894.918	14240
895.04	14336
895.161	14442
895.283	14389
895.405	14347
895.526	14419
895.648	14404
895.769	14358
895.891	14450
896.012	14450
896.134	14568
896.255	14393
896.376	14370
896.498	14492
896.619	14575
896.74	14461
896.861	14461
896.982	14777
897.103	14967
897.224	14712
897.345	14785
897.466	14530
897.587	14674
897.708	14899
897.828	14716
897.949	14674
898.07	14537
898.19	14640
898.311	14883
898.431	14739
898.552	14773
898.672	14876
898.792	14792
898.913	14868
899.033	14655
899.153	14590
899.273	14651
899.393	14689
899.513	14663
899.633	14716
899.753	14697
899.873	14644
899.993	14727
900.113	14655
900.232	14602
900.352	14682
900.472	14564
900.591	14492
900.711	14495
900.83	14499
900.95	14686
901.069	14735
901.189	14412
901.308	14332
901.427	14206
901.546	14183
901.665	14237
901.784	14145
901.904	14069
902.023	13963
902.141	13856
902.26	13841
902.379	13803
902.498	13784
902.617	13784
902.735	13742
902.854	13765
902.973	13662
903.091	13495
903.21	13457
903.328	13544
903.446	13407
903.565	13365
903.683	13369
903.801	13225
903.919	13358
904.038	13236
904.156	13209
904.274	13217
904.392	13095
904.51	13110
904.627	13160
904.745	13213
904.863	13339
904.981	12897
905.098	12764
905.216	12814
905.334	12913
905.451	12802
905.569	12738
905.686	12783
905.803	12894
905.921	12642
906.038	12814
906.155	12639
906.272	12513
906.389	12540
906.506	12410
906.623	12395
906.74	12391
906.857	12266
906.974	12247
907.091	12384
907.208	12582
907.324	12464
907.441	12334
907.557	12178
907.674	12216
907.79	12167
907.907	12098
908.023	12232
908.139	12136
908.256	12049
908.372	12079
908.488	12098
908.604	11988
908.72	11889
908.836	11954
908.952	11935
909.068	11923
909.184	11942
909.3	11889
909.415	11965
909.531	11965
909.647	11824
909.762	11653
909.878	11653
909.993	11729
910.108	11634
910.224	11630
910.339	11676
910.454	11638
910.57	11608
910.685	11501
910.8	11775
910.915	11710
911.03	11539
911.145	11490
911.259	11410
911.374	11482
911.489	11299
911.604	11303
911.718	11235
911.833	11147
911.947	11102
912.062	10942
912.176	11098
912.291	11220
912.405	11136
912.519	11280
912.633	11402
912.748	11193
912.862	11109
912.976	11018
913.09	10927
913.204	10908
913.318	11010
913.431	11098
913.545	11056
913.659	11147
913.772	11025
913.886	10889
914	10919
914.113	10991
914.226	11003
914.34	10987
914.453	10816
914.566	10980
914.68	10797
914.793	10831
914.906	10660
915.019	10580
915.132	10531
915.245	10535
915.358	10714
915.47	10645
915.583	10668
915.696	10706
915.809	10740
915.921	10797
916.034	10588
916.146	10546
916.259	10546
916.371	10679
916.483	10622
916.595	10459
916.708	10554
916.82	10542
916.932	10672
917.044	10550
917.156	10478
917.268	10402
917.38	10481
917.491	10367
917.603	10443
917.715	10554
917.826	10603
917.938	10440
918.049	10375
918.161	10440
918.272	10615
918.384	10588
918.495	10500
918.606	10390
918.717	10306
918.828	10386
918.939	10303
919.05	10280
919.161	10329
919.272	10188
919.383	10169
919.494	10363
919.604	10546
919.715	10325
919.826	10230
919.936	10306
920.047	10432
920.157	10344
920.267	10516
920.378	10386
920.488	10367
920.598	10535
920.708	10675
920.818	10497
920.928	10603
921.038	10691
921.148	10664
921.258	10371
921.368	10344
921.477	10147
921.587	10173
921.697	10135
921.806	10253
921.916	10109
922.025	10006
922.134	9911
922.244	9785
922.353	9918
922.462	9766
922.571	9675
922.68	9625
922.789	9603
922.898	9618
923.007	9488
923.116	9637
923.224	9614
923.333	9614
923.442	9511
923.55	9458
923.659	9481
923.767	9553
923.876	9416
923.984	9492
924.092	9439
924.201	9412
924.309	9443
924.417	9454
924.525	9382
924.633	9462
924.741	10276
924.849	9203
924.956	9363
925.064	9283
925.172	9119
925.279	9165
925.387	9317
925.494	9165
925.602	9302
925.709	9355
925.816	9161
925.924	9275
926.031	9283
926.138	9253
926.245	9298
926.352	9112
926.459	9310
926.566	9340
926.673	9241
926.779	9119
926.886	9097
926.993	8952
927.099	8941
927.206	8941
927.312	8830
927.419	9043
927.525	8914
927.631	8979
927.737	8845
927.843	8834
927.95	8754
928.056	8788
928.162	8853
928.267	8891
928.373	9424
928.479	8986
928.585	8716
928.69	8845
928.796	8872
928.901	8773
929.007	8606
929.112	8777
929.218	8743
929.323	8629
929.428	8686
929.533	8796
929.638	8625
929.743	8625
929.848	8667
929.953	8682
930.058	8568
930.163	8408
930.267	8423
930.372	8670
930.477	8438
930.581	8606
930.685	8537
930.79	8366
930.894	8461
930.998	8328
931.103	8530
931.207	8172
931.311	8115
931.415	8081
931.519	7871
931.623	7875
