Data from test_V78500241_516.txt Node
Date: Fri Mar 25 14:37:18 CST 2022
User: usil
Spectrometer: V785-0024
Trigger mode: 0
Integration Time (sec): 4.000000E-1
Scans to average: 1
Nonlinearity correction enabled: false
Boxcar width: 0
Storing dark spectrum: false
XAxis mode: Wavelengths
Number of Pixels in Spectrum: 1024
>>>>>Begin Spectral Data<<<<<
801.071	26864
801.214	26834
801.356	26575
801.499	26511
801.641	26423
801.783	26355
801.926	26461
802.068	26271
802.211	26058
802.353	26157
802.496	25932
802.638	25879
802.78	25852
802.923	25898
803.065	25833
803.208	25898
803.35	25860
803.492	25898
803.635	25871
803.777	25898
803.919	25818
804.061	26199
804.204	25993
804.346	25940
804.488	25826
804.63	25811
804.773	25639
804.915	25845
805.057	25978
805.199	25906
805.341	25986
805.483	26005
805.626	25890
805.768	25959
805.91	25978
806.052	26058
806.194	26084
806.336	26119
806.478	26103
806.62	26103
806.762	26301
806.904	26476
807.046	26697
807.188	26648
807.33	26777
807.472	26834
807.614	26902
807.756	27039
807.898	27020
808.04	27294
808.182	27488
808.324	28070
808.465	28440
808.607	28850
808.749	29436
808.891	29828
809.033	29893
809.174	29459
809.316	28980
809.458	28504
809.6	27823
809.741	27618
809.883	27370
810.025	27378
810.166	27230
810.308	27051
810.45	26906
810.591	26849
810.733	26613
810.875	26408
811.016	26328
811.158	26317
811.299	26427
811.441	26594
811.582	26518
811.724	26248
811.865	26294
812.007	26206
812.148	26263
812.29	26225
812.431	26412
812.573	26461
812.714	26484
812.855	26705
812.997	26800
813.138	26834
813.279	26739
813.421	26746
813.562	26629
813.703	26549
813.845	26275
813.986	25947
814.127	25753
814.268	25609
814.41	25753
814.551	25750
814.692	25765
814.833	25662
814.974	25620
815.115	25670
815.256	25392
815.397	25495
815.539	25438
815.68	25411
815.821	25388
815.962	25464
816.103	25430
816.244	25148
816.385	25232
816.526	25046
816.666	24954
816.807	24661
816.948	24821
817.089	24848
817.23	24844
817.371	24814
817.512	24745
817.653	24829
817.793	24776
817.934	24707
818.075	24738
818.216	24730
818.356	24711
818.497	24498
818.638	24376
818.778	24407
818.919	24426
819.06	24464
819.2	24532
819.341	24582
819.481	24608
819.622	24760
819.762	24840
819.903	24935
820.043	24757
820.184	24597
820.324	24700
820.465	24852
820.605	24730
820.746	24703
820.886	24536
821.026	24646
821.167	24681
821.307	24635
821.447	24528
821.588	24445
821.728	24334
821.868	24410
822.008	23954
822.149	23950
822.289	23977
822.429	23760
822.569	23840
822.709	23741
822.849	23471
822.99	23452
823.13	23452
823.27	23531
823.41	23269
823.55	23216
823.69	23239
823.83	23185
823.97	23174
824.11	23105
824.25	23044
824.389	23071
824.529	23159
824.669	23117
824.809	23025
824.949	23128
825.089	23193
825.228	23029
825.368	22980
825.508	22858
825.648	22847
825.787	22790
825.927	22862
826.067	22755
826.206	22824
826.346	22725
826.485	22790
826.625	22828
826.765	22816
826.904	22869
827.044	22550
827.183	22565
827.323	22493
827.462	22516
827.601	22493
827.741	22557
827.88	22440
828.02	22299
828.159	22322
828.298	22447
828.437	22512
828.577	22352
828.716	22611
828.855	22428
828.994	22291
829.134	22204
829.273	22215
829.412	22154
829.551	22143
829.69	22196
829.829	22181
829.968	22196
830.107	22261
830.246	22188
830.385	22143
830.524	21956
830.663	21876
830.802	21831
830.941	21671
831.08	21838
831.219	21861
831.357	21789
831.496	21930
831.635	21774
831.774	21781
831.913	21549
832.051	21610
832.19	21523
832.329	21637
832.467	21458
832.606	21397
832.744	21481
832.883	21382
833.022	21477
833.16	21348
833.299	21462
833.437	21504
833.576	21641
833.714	21580
833.852	21622
833.991	21663
834.129	21686
834.267	21557
834.406	21633
834.544	21568
834.682	21629
834.821	21515
834.959	21622
835.097	21321
835.235	21370
835.373	21469
835.511	21511
835.65	21313
835.788	21389
835.926	21256
836.064	21150
836.202	21218
836.34	21279
836.478	21233
836.615	21176
836.753	21359
836.891	21313
837.029	21272
837.167	21184
837.305	21116
837.443	21043
837.58	21005
837.718	21222
837.856	21203
837.993	21020
838.131	21093
838.269	21055
838.406	20979
838.544	20883
838.681	20880
838.819	20762
838.956	20613
839.094	20492
839.231	20606
839.369	20587
839.506	20910
839.643	20682
839.781	20598
839.918	20457
840.055	20549
840.193	20374
840.33	20370
840.467	20518
840.604	20469
840.742	20682
840.879	20248
841.016	20400
841.153	20309
841.29	20522
841.427	20381
841.564	20423
841.701	20400
841.838	20450
841.975	20309
842.112	20294
842.249	20191
842.385	20176
842.522	20442
842.659	20195
842.796	20157
842.933	20161
843.069	20164
843.206	20126
843.343	20267
843.479	20100
843.616	20225
843.752	19928
843.889	20039
844.025	20077
844.162	19883
844.298	20153
844.435	19967
844.571	19951
844.708	20134
844.844	20206
844.98	20328
845.117	20400
845.253	20267
845.389	20556
845.525	21001
845.661	21797
845.798	22710
845.934	23604
846.07	23935
846.206	23878
846.342	23334
846.478	22150
846.614	21058
846.75	20427
846.886	20050
847.022	19974
847.158	19765
847.294	19605
847.429	19578
847.565	19495
847.701	19761
847.837	19259
847.972	19217
848.108	19278
848.244	19190
848.379	19046
848.515	18935
848.65	19095
848.786	19008
848.921	18954
849.057	19179
849.192	19107
849.328	18871
849.463	19008
849.598	18890
849.734	18875
849.869	18764
850.004	18795
850.14	18734
850.275	18627
850.41	18635
850.545	18764
850.68	18783
850.815	18734
850.95	18688
851.085	18810
851.22	18825
851.355	18589
851.49	18616
851.625	18654
851.76	18597
851.895	18604
852.03	18517
852.165	18623
852.299	18779
852.434	18749
852.569	18783
852.703	18597
852.838	18673
852.973	18760
853.107	18871
853.242	18684
853.376	18528
853.511	18323
853.645	18460
853.78	18677
853.914	18528
854.048	18627
854.183	18536
854.317	18521
854.451	18696
854.585	18601
854.72	18589
854.854	18639
854.988	18532
855.122	18490
855.256	18357
855.39	18536
855.524	18623
855.658	18540
855.792	18589
855.926	18551
856.06	18574
856.194	18627
856.327	18536
856.461	18445
856.595	18403
856.729	18429
856.862	18532
856.996	18479
857.13	18585
857.263	18604
857.397	18551
857.53	18471
857.664	18464
857.797	18582
857.931	18604
858.064	18494
858.197	18570
858.331	18369
858.464	18403
858.597	18308
858.731	18437
858.864	18479
858.997	18502
859.13	18426
859.263	18502
859.396	18521
859.529	18426
859.662	18346
859.795	18479
859.928	18448
860.061	18536
860.194	18654
860.327	18437
860.46	18395
860.592	18456
860.725	18570
860.858	18486
860.99	18479
861.123	18418
861.256	18353
861.388	18410
861.521	19213
861.653	18327
861.786	18182
861.918	18311
862.05	18452
862.183	18441
862.315	18509
862.447	18570
862.58	18369
862.712	18308
862.844	18152
862.976	18281
863.108	18194
863.24	18703
863.372	18178
863.504	18125
863.636	18076
863.768	18213
863.9	18220
864.032	17973
864.164	18171
864.296	18174
864.428	18201
864.559	18197
864.691	18194
864.823	18197
864.954	18232
865.086	18114
865.217	18167
865.349	18026
865.48	18076
865.612	18136
865.743	18194
865.875	17999
866.006	18106
866.137	18098
866.269	18041
866.4	17977
866.531	18049
866.662	17969
866.793	17942
866.924	17973
867.055	17969
867.186	17992
867.317	17984
867.448	18022
867.579	17942
867.71	17931
867.841	17950
867.972	17965
868.103	17958
868.233	17908
868.364	18095
868.495	18060
868.625	18266
868.756	18338
868.886	18209
869.017	18209
869.147	18380
869.278	18357
869.408	18289
869.539	18262
869.669	18289
869.799	18384
869.929	18365
870.06	18467
870.19	18574
870.32	18646
870.45	18475
870.58	18585
870.71	18681
870.84	18749
870.97	18574
871.1	18665
871.23	18829
871.36	18760
871.489	18764
871.619	18833
871.749	18837
871.879	18947
872.008	18962
872.138	18894
872.267	18905
872.397	18734
872.526	18764
872.656	18787
872.785	18570
872.915	18814
873.044	18970
873.173	18924
873.303	18996
873.432	18863
873.561	18996
873.69	18947
873.819	18897
873.948	19110
874.077	18852
874.206	18890
874.335	18970
874.464	18970
874.593	19304
874.722	19118
874.851	19285
874.979	19148
875.108	19278
875.237	19274
875.365	19217
875.494	19069
875.623	19285
875.751	19270
875.88	19304
876.008	19415
876.136	19548
876.265	19662
876.393	19833
876.521	19864
876.65	19693
876.778	19757
876.906	19693
877.034	19666
877.162	19639
877.29	19662
877.418	19666
877.546	20020
877.674	19795
877.802	19765
877.93	19841
878.058	19788
878.185	19811
878.313	19909
878.441	19978
878.568	19940
878.696	19928
878.824	20233
878.951	20419
879.079	20727
879.206	21074
879.333	21355
879.461	21633
879.588	21827
879.715	21937
879.842	21732
879.97	21367
880.097	20857
880.224	20568
880.351	20560
880.478	20343
880.605	20149
880.732	20103
880.859	20290
880.986	20119
881.112	20035
881.239	19944
881.366	19818
881.493	19772
881.619	19567
881.746	19567
881.872	19559
881.999	19613
882.125	19582
882.252	19757
882.378	19757
882.505	19807
882.631	19552
882.757	19460
882.883	19559
883.01	19571
883.136	19388
883.262	19266
883.388	19194
883.514	19426
883.64	19411
883.766	19278
883.892	19202
884.018	19217
884.143	19411
884.269	19476
884.395	19221
884.52	19088
884.646	19004
884.772	19012
884.897	18996
885.023	19076
885.148	19160
885.274	19236
885.399	19255
885.524	19107
885.65	18943
885.775	19053
885.9	19053
886.025	19099
886.15	18985
886.275	18863
886.4	18844
886.525	18787
886.65	18825
886.775	18875
886.9	18920
887.025	19015
887.149	18760
887.274	18604
887.399	18547
887.523	18525
887.648	18547
887.773	18517
887.897	18597
888.021	18661
888.146	18369
888.27	18658
888.395	18566
888.519	18445
888.643	18620
888.767	18608
888.891	18395
889.015	18292
889.139	18300
889.263	18311
889.387	18414
889.511	18399
889.635	18399
889.759	18258
889.883	18125
890.006	18281
890.13	18205
890.254	18079
890.377	18049
890.501	17988
890.624	17931
890.748	17996
890.871	17855
890.995	17863
891.118	17771
891.241	17851
891.364	17851
891.488	17901
891.611	17836
891.734	17786
891.857	17889
891.98	17863
892.103	17874
892.226	17859
892.349	17794
892.471	17581
892.594	17714
892.717	17767
892.839	17695
892.962	17687
893.085	17745
893.207	17676
893.33	17577
893.452	17653
893.575	17642
893.697	17710
893.819	17813
893.941	17855
894.064	17882
894.186	17566
894.308	17615
894.43	17771
894.552	17874
894.674	17752
894.796	17611
894.918	17619
895.04	17718
895.161	17726
895.283	17714
895.405	17642
895.526	17672
895.648	17699
895.769	17661
895.891	17798
896.012	17783
896.134	17733
896.255	17775
896.376	17741
896.498	17676
896.619	17912
896.74	17661
896.861	17878
896.982	18015
897.103	18213
897.224	18049
897.345	17897
897.466	17965
897.587	17908
897.708	18007
897.828	17893
897.949	17939
898.07	17897
898.19	17996
898.311	18068
898.431	17931
898.552	17988
898.672	17973
898.792	18003
898.913	17988
899.033	17805
899.153	17828
899.273	17630
899.393	17649
899.513	17760
899.633	17794
899.753	17680
899.873	17745
899.993	17855
900.113	17771
900.232	17714
900.352	17809
900.472	17649
900.591	17429
900.711	17592
900.83	17600
900.95	17596
901.069	17634
901.189	17452
901.308	17326
901.427	17147
901.546	17254
901.665	17109
901.784	17246
901.904	17140
902.023	17018
902.141	16740
902.26	16869
902.379	16740
902.498	16626
902.617	16660
902.735	16664
902.854	16691
902.973	16611
903.091	16428
903.21	16424
903.328	16303
903.446	16265
903.565	16261
903.683	16215
903.801	16082
903.919	16162
904.038	16093
904.156	16063
904.274	16002
904.392	15983
904.51	15922
904.627	15884
904.745	15979
904.863	16010
904.981	15747
905.098	15679
905.216	15568
905.334	15641
905.451	15652
905.569	15557
905.686	15610
905.803	15705
905.921	15477
906.038	15439
906.155	15424
906.272	15279
906.389	15374
906.506	15203
906.623	15207
906.74	15176
906.857	15131
906.974	15085
907.091	15154
907.208	15275
907.324	15161
907.441	15112
907.557	14857
907.674	14910
907.79	14777
907.907	14754
908.023	14895
908.139	14876
908.256	14746
908.372	14754
908.488	14842
908.604	14549
908.72	14568
908.836	14613
908.952	14541
909.068	14533
909.184	14670
909.3	14579
909.415	14507
909.531	14514
909.647	14317
909.762	14320
909.878	14309
909.993	14271
910.108	14290
910.224	14256
910.339	14259
910.454	14202
910.57	14123
910.685	13936
910.8	14290
910.915	14199
911.03	14081
911.145	13974
911.259	13917
911.374	13871
911.489	13795
911.604	13727
911.718	13613
911.833	13655
911.947	13597
912.062	13537
912.176	13651
912.291	13670
912.405	13616
912.519	13826
912.633	13868
912.748	13761
912.862	13643
912.976	13590
913.09	13339
913.204	13518
913.318	13537
913.431	13438
913.545	13571
913.659	13506
913.772	13415
913.886	13282
914	13297
914.113	13350
914.226	13445
914.34	13392
914.453	13232
914.566	13381
914.68	13282
914.793	13263
914.906	13038
915.019	13072
915.132	12939
915.245	12996
915.358	12996
915.47	13031
915.583	13019
915.696	13107
915.809	13145
915.921	13160
916.034	12939
916.146	12993
916.259	12951
916.371	13019
916.483	13023
916.595	12909
916.708	12806
916.82	12886
916.932	12821
917.044	12951
917.156	12875
917.268	12700
917.38	12760
917.491	12707
917.603	12745
917.715	12814
917.826	12821
917.938	12673
918.049	12555
918.161	12707
918.272	12814
918.384	12783
918.495	12673
918.606	12601
918.717	12551
918.828	12585
918.939	12544
919.05	12433
919.161	12422
919.272	12220
919.383	12391
919.494	12441
919.604	12734
919.715	12452
919.826	12380
919.936	12448
920.047	12589
920.157	12479
920.267	12654
920.378	12544
920.488	12342
920.598	12662
920.708	12776
920.818	12642
920.928	12578
921.038	12890
921.148	12719
921.258	12361
921.368	12426
921.477	12270
921.587	12315
921.697	12095
921.806	12304
921.916	12182
922.025	11984
922.134	12064
922.244	11851
922.353	11958
922.462	11870
922.571	11775
922.68	11714
922.789	11710
922.898	11608
923.007	11676
923.116	11649
923.224	11577
923.333	11558
923.442	11463
923.55	11360
923.659	11436
923.767	11505
923.876	11395
923.984	11459
924.092	11379
924.201	11364
924.309	11406
924.417	11364
924.525	11269
924.633	11311
924.741	12064
924.849	11223
924.956	11376
925.064	11143
925.172	11136
925.279	11086
925.387	11147
925.494	11159
925.602	11292
925.709	11174
925.816	11117
925.924	11048
926.031	11185
926.138	11147
926.245	11109
926.352	11045
926.459	11132
926.566	11162
926.673	11052
926.779	10927
926.886	10915
926.993	10725
927.099	10767
927.206	10828
927.312	10637
927.419	10816
927.525	10820
927.631	10786
927.737	10580
927.843	10615
927.95	10580
928.056	10603
928.162	10626
928.267	10634
928.373	11189
928.479	10603
928.585	10386
928.69	10569
928.796	10611
928.901	10481
929.007	10394
929.112	10504
929.218	10443
929.323	10424
929.428	10360
929.533	10542
929.638	10314
929.743	10386
929.848	10424
929.953	10310
930.058	10253
930.163	10158
930.267	10105
930.372	10272
930.477	10120
930.581	10249
930.685	10143
930.79	9941
930.894	10025
930.998	10017
931.103	10090
931.207	9781
931.311	9781
931.415	9595
931.519	9405
931.623	9378
