Data from test_V78500241_2082.txt Node
Date: Fri Mar 25 14:48:12 CST 2022
User: usil
Spectrometer: V785-0024
Trigger mode: 0
Integration Time (sec): 4.000000E-1
Scans to average: 1
Nonlinearity correction enabled: false
Boxcar width: 0
Storing dark spectrum: false
XAxis mode: Wavelengths
Number of Pixels in Spectrum: 1024
>>>>>Begin Spectral Data<<<<<
801.071	22238
801.214	22025
801.356	21709
801.499	21709
801.641	21511
801.783	21538
801.926	21561
802.068	21454
802.211	21355
802.353	21325
802.496	21051
802.638	21081
802.78	20971
802.923	21017
803.065	20754
803.208	20720
803.35	20853
803.492	20830
803.635	21001
803.777	20845
803.919	20952
804.061	21180
804.204	20788
804.346	20670
804.488	20811
804.63	20781
804.773	20682
804.915	20743
805.057	20842
805.199	20697
805.341	20792
805.483	20895
805.626	20765
805.768	20693
805.91	20674
806.052	20830
806.194	20746
806.336	20849
806.478	20754
806.62	20758
806.762	20811
806.904	20902
807.046	21077
807.188	20998
807.33	20990
807.472	21127
807.614	21093
807.756	21009
807.898	20944
808.04	20800
808.182	20868
808.324	20834
808.465	20899
808.607	21005
808.749	21047
808.891	21154
809.033	21412
809.174	21154
809.316	21123
809.458	21096
809.6	21051
809.741	21214
809.883	21260
810.025	21230
810.166	21329
810.308	21291
810.45	21245
810.591	21028
810.733	20963
810.875	20933
811.016	20773
811.158	20708
811.299	20933
811.441	21066
811.582	21024
811.724	20819
811.865	20807
812.007	20842
812.148	20906
812.29	20963
812.431	20967
812.573	21207
812.714	21218
812.855	21302
812.997	21458
813.138	21656
813.279	21420
813.421	21310
813.562	21272
813.703	21138
813.845	21039
813.986	20739
814.127	20636
814.268	20461
814.41	20484
814.551	20480
814.692	20476
814.833	20320
814.974	20377
815.115	20419
815.256	20351
815.397	20408
815.539	20210
815.68	20100
815.821	20115
815.962	20122
816.103	20294
816.244	19986
816.385	19944
816.526	20024
816.666	19780
816.807	19601
816.948	19643
817.089	19723
817.23	19605
817.371	19559
817.512	19586
817.653	19556
817.793	19460
817.934	19499
818.075	19582
818.216	19582
818.356	19411
818.497	19476
818.638	19225
818.778	19202
818.919	19343
819.06	19297
819.2	19369
819.341	19472
819.481	19502
819.622	19540
819.762	19674
819.903	19643
820.043	19681
820.184	19464
820.324	19597
820.465	19495
820.605	19502
820.746	19457
820.886	19346
821.026	19487
821.167	19552
821.307	19734
821.447	19464
821.588	19449
821.728	19343
821.868	19114
822.008	19004
822.149	19015
822.289	18985
822.429	18696
822.569	18608
822.709	18658
822.849	18414
822.99	18414
823.13	18308
823.27	18426
823.41	18205
823.55	18213
823.69	18110
823.83	18327
823.97	18216
824.11	18110
824.25	17950
824.389	18026
824.529	18060
824.669	18114
824.809	18019
824.949	18224
825.089	18095
825.228	17996
825.368	17874
825.508	17760
825.648	17817
825.787	17897
825.927	17843
826.067	17840
826.206	17794
826.346	17851
826.485	17843
826.625	17756
826.765	17996
826.904	17950
827.044	17573
827.183	17520
827.323	17524
827.462	17539
827.601	17486
827.741	17410
827.88	17592
828.02	17383
828.159	17474
828.298	17562
828.437	17493
828.577	17356
828.716	17570
828.855	17364
828.994	17246
829.134	17288
829.273	17299
829.412	17254
829.551	17284
829.69	17064
829.829	17273
829.968	17280
830.107	17330
830.246	17345
830.385	17204
830.524	17098
830.663	17143
830.802	16976
830.941	16812
831.08	16774
831.219	16961
831.357	16961
831.496	17189
831.635	16911
831.774	16835
831.913	16748
832.051	16748
832.19	16668
832.329	16710
832.467	16554
832.606	16523
832.744	16577
832.883	16637
833.022	16466
833.16	16577
833.299	16653
833.437	16573
833.576	16653
833.714	16649
833.852	16649
833.991	16710
834.129	16774
834.267	16717
834.406	16626
834.544	16721
834.682	16683
834.821	16603
834.959	16744
835.097	16622
835.235	16706
835.373	16645
835.511	16687
835.65	16584
835.788	16573
835.926	16356
836.064	16379
836.202	16405
836.34	16535
836.478	16668
836.615	16558
836.753	16451
836.891	16653
837.029	16580
837.167	16584
837.305	16607
837.443	16413
837.58	16489
837.718	16447
837.856	16405
837.993	16367
838.131	16363
838.269	16344
838.406	16405
838.544	16333
838.681	16116
838.819	16120
838.956	15941
839.094	15884
839.231	16101
839.369	15994
839.506	16192
839.643	16314
839.781	15895
839.918	15892
840.055	15937
840.193	15930
840.33	15949
840.467	15945
840.604	15937
840.742	16268
840.879	15816
841.016	15926
841.153	15888
841.29	16112
841.427	16006
841.564	15972
841.701	15972
841.838	15857
841.975	15907
842.112	15915
842.249	15774
842.385	15732
842.522	15956
842.659	15755
842.796	15705
842.933	15797
843.069	15675
843.206	15713
843.343	15766
843.479	15797
843.616	15762
843.752	15576
843.889	15618
844.025	15633
844.162	15485
844.298	15679
844.435	15542
844.571	15492
844.708	15591
844.844	15770
844.98	15812
845.117	15629
845.253	15492
845.389	15420
845.525	15545
845.661	15542
845.798	15408
845.934	15424
846.07	15317
846.206	15424
846.342	15481
846.478	15393
846.614	15207
846.75	15024
846.886	15066
847.022	15176
847.158	15138
847.294	15169
847.429	15100
847.565	15070
847.701	15359
847.837	14868
847.972	14815
848.108	14967
848.244	14842
848.379	14708
848.515	14754
848.65	14689
848.786	14686
848.921	14739
849.057	14857
849.192	14788
849.328	14693
849.463	14731
849.598	14602
849.734	14640
849.869	14549
850.004	14610
850.14	14549
850.275	14423
850.41	14427
850.545	14530
850.68	14450
850.815	14568
850.95	14461
851.085	14613
851.22	14549
851.355	14446
851.49	14514
851.625	14400
851.76	14427
851.895	14347
852.03	14408
852.165	14431
852.299	14533
852.434	14514
852.569	14454
852.703	14507
852.838	14541
852.973	14632
853.107	14617
853.242	14351
853.376	14366
853.511	14210
853.645	14214
853.78	14560
853.914	14320
854.048	14412
854.183	14343
854.317	14358
854.451	14431
854.585	14324
854.72	14271
854.854	14431
854.988	14263
855.122	14332
855.256	14027
855.39	14381
855.524	14385
855.658	14393
855.792	14301
855.926	14396
856.06	14396
856.194	14488
856.327	14434
856.461	14339
856.595	14336
856.729	14278
856.862	14454
856.996	14320
857.13	14446
857.263	14473
857.397	14366
857.53	14400
857.664	14404
857.797	14294
857.931	14427
858.064	14328
858.197	14454
858.331	14301
858.464	14351
858.597	14130
858.731	14366
858.864	14415
858.997	14339
859.13	14294
859.263	14427
859.396	14518
859.529	14343
859.662	14301
859.795	14381
859.928	14305
860.061	14377
860.194	14495
860.327	14358
860.46	14370
860.592	14530
860.725	14499
860.858	14537
860.99	14370
861.123	14237
861.256	14366
861.388	14301
861.521	14925
861.653	14294
861.786	14092
861.918	14240
862.05	14206
862.183	14366
862.315	14305
862.447	14351
862.58	14282
862.712	14081
862.844	14084
862.976	14161
863.108	14206
863.24	14473
863.372	14012
863.504	14096
863.636	14134
863.768	14229
863.9	14054
864.032	14111
864.164	14039
864.296	14180
864.428	14256
864.559	14240
864.691	14343
864.823	14229
864.954	14092
865.086	14126
865.217	14103
865.349	14050
865.48	14069
865.612	14138
865.743	14202
865.875	14103
866.006	14134
866.137	14054
866.269	14248
866.4	14031
866.531	14077
866.662	14084
866.793	14119
866.924	14054
867.055	14183
867.186	14187
867.317	14024
867.448	14050
867.579	13970
867.71	13925
867.841	13997
867.972	14069
868.103	14103
868.233	14088
868.364	14123
868.495	14161
868.625	14309
868.756	14347
868.886	14320
869.017	14366
869.147	14434
869.278	14480
869.408	14343
869.539	14374
869.669	14400
869.799	14393
869.929	14476
870.06	14526
870.19	14678
870.32	14537
870.45	14659
870.58	14735
870.71	14868
870.84	14868
870.97	14697
871.1	14777
871.23	14826
871.36	14914
871.489	14853
871.619	14895
871.749	14990
871.879	14979
872.008	15005
872.138	15013
872.267	14918
872.397	14788
872.526	14769
872.656	14773
872.785	14834
872.915	14948
873.044	15074
873.173	14998
873.303	15085
873.432	15062
873.561	14948
873.69	15077
873.819	14956
873.948	15009
874.077	15066
874.206	14990
874.335	14986
874.464	15211
874.593	15249
874.722	15272
874.851	15283
874.979	15310
875.108	15279
875.237	15279
875.365	15310
875.494	15302
875.623	15412
875.751	15298
875.88	15294
876.008	15439
876.136	15568
876.265	15865
876.393	15800
876.521	15816
876.65	15846
876.778	15774
876.906	15705
877.034	15641
877.162	15667
877.29	15720
877.418	15675
877.546	15671
877.674	15816
877.802	15717
877.93	15732
878.058	15778
878.185	15614
878.313	15743
878.441	15778
878.568	15568
878.696	15595
878.824	15743
878.951	15724
879.079	15778
879.206	16036
879.333	15888
879.461	15720
879.588	15732
879.715	15968
879.842	16017
879.97	15804
880.097	15564
880.224	15595
880.351	15568
880.478	15686
880.605	15515
880.732	15591
880.859	15781
880.986	15564
881.112	15648
881.239	15412
881.366	15447
881.493	15226
881.619	15245
881.746	15291
881.872	15176
881.999	15203
882.125	15169
882.252	15313
882.378	15310
882.505	15329
882.631	15176
882.757	15055
882.883	15116
883.01	15017
883.136	14990
883.262	14956
883.388	14937
883.514	15039
883.64	15135
883.766	14925
883.892	14941
884.018	14906
884.143	15017
884.269	15192
884.395	14857
884.52	14735
884.646	14868
884.772	14762
884.897	14640
885.023	14712
885.148	14849
885.274	14914
885.399	14849
885.524	14716
885.65	14746
885.775	14834
885.9	14785
886.025	14853
886.15	14838
886.275	14731
886.4	14579
886.525	14682
886.65	14693
886.775	14743
886.9	14811
887.025	14994
887.149	14750
887.274	14598
887.399	14511
887.523	14511
887.648	14419
887.773	14552
887.897	14655
888.021	14701
888.146	14594
888.27	14648
888.395	14788
888.519	14621
888.643	14670
888.767	14667
888.891	14476
889.015	14465
889.139	14442
889.263	14343
889.387	14480
889.511	14594
889.635	14495
889.759	14404
889.883	14469
890.006	14587
890.13	14594
890.254	14366
890.377	14438
890.501	14172
890.624	14119
890.748	14237
890.871	14240
890.995	14069
891.118	14103
891.241	14096
891.364	14263
891.488	14278
891.611	14134
891.734	14225
891.857	14202
891.98	14164
892.103	14286
892.226	14126
892.349	14142
892.471	13997
892.594	14005
892.717	14149
892.839	14111
892.962	14043
893.085	14164
893.207	14176
893.33	14039
893.452	14008
893.575	14183
893.697	14054
893.819	14309
893.941	14347
894.064	14339
894.186	14100
894.308	14062
894.43	14225
894.552	14286
894.674	14286
894.796	14111
894.918	14164
895.04	14187
895.161	14233
895.283	14275
895.405	14153
895.526	14263
895.648	14225
895.769	14454
895.891	14244
896.012	14324
896.134	14366
896.255	14370
896.376	14275
896.498	14332
896.619	14385
896.74	14366
896.861	14370
896.982	14689
897.103	14781
897.224	14556
897.345	14499
897.466	14488
897.587	14503
897.708	14750
897.828	14594
897.949	14575
898.07	14427
898.19	14514
898.311	14701
898.431	14564
898.552	14632
898.672	14724
898.792	14670
898.913	14705
899.033	14560
899.153	14514
899.273	14381
899.393	14499
899.513	14503
899.633	14541
899.753	14625
899.873	14480
899.993	14442
900.113	14511
900.232	14473
900.352	14415
900.472	14415
900.591	14206
900.711	14393
900.83	14351
900.95	14450
901.069	14385
901.189	14267
901.308	14096
901.427	13970
901.546	14043
901.665	14130
901.784	14050
901.904	13883
902.023	13765
902.141	13662
902.26	13567
902.379	13731
902.498	13666
902.617	13559
902.735	13616
902.854	13578
902.973	13533
903.091	13320
903.21	13278
903.328	13263
903.446	13266
903.565	13202
903.683	13259
903.801	13126
903.919	13202
904.038	13126
904.156	13027
904.274	13008
904.392	12913
904.51	12996
904.627	12958
904.745	12970
904.863	13019
904.981	12783
905.098	12650
905.216	12715
905.334	12696
905.451	12658
905.569	12589
905.686	12791
905.803	12726
905.921	12528
906.038	12582
906.155	12536
906.272	12380
906.389	12410
906.506	12327
906.623	12273
906.74	12338
906.857	12182
906.974	12148
907.091	12357
907.208	12414
907.324	12304
907.441	12182
907.557	12060
907.674	11992
907.79	11992
907.907	11946
908.023	12060
908.139	11999
908.256	12049
908.372	11942
908.488	11958
908.604	11798
908.72	11813
908.836	11695
908.952	11707
909.068	11756
909.184	11866
909.3	11889
909.415	11790
909.531	11802
909.647	11604
909.762	11452
909.878	11589
909.993	11592
910.108	11554
910.224	11543
910.339	11455
910.454	11490
910.57	11497
910.685	11315
910.8	11611
910.915	11581
911.03	11532
911.145	11330
911.259	11273
911.374	11220
911.489	11212
911.604	11041
911.718	11029
911.833	11083
911.947	10946
912.062	10896
912.176	11067
912.291	11006
912.405	10991
912.519	11185
912.633	11208
912.748	11098
912.862	11003
912.976	10839
913.09	10820
913.204	10877
913.318	10858
913.431	10995
913.545	10957
913.659	11025
913.772	10892
913.886	10721
914	10782
914.113	10831
914.226	10843
914.34	10843
914.453	10710
914.566	10797
914.68	10752
914.793	10634
914.906	10527
915.019	10489
915.132	10508
915.245	10512
915.358	10550
915.47	10519
915.583	10558
915.696	10508
915.809	10538
915.921	10649
916.034	10432
916.146	10508
916.259	10478
916.371	10565
916.483	10565
916.595	10417
916.708	10402
916.82	10447
916.932	10459
917.044	10470
917.156	10394
917.268	10344
917.38	10375
917.491	10333
917.603	10314
917.715	10421
917.826	10447
917.938	10413
918.049	10230
918.161	10348
918.272	10466
918.384	10478
918.495	10375
918.606	10287
918.717	10067
918.828	10230
918.939	10276
919.05	10109
919.161	10200
919.272	10048
919.383	10078
919.494	10310
919.604	10447
919.715	10310
919.826	10173
919.936	10128
920.047	10337
920.157	10287
920.267	10466
920.378	10234
920.488	10227
920.598	10432
920.708	10531
920.818	10478
920.928	10432
921.038	10569
921.148	10516
921.258	10261
921.368	10188
921.477	10150
921.587	10086
921.697	9945
921.806	10101
921.916	9964
922.025	9778
922.134	9816
922.244	9743
922.353	9831
922.462	9759
922.571	9618
922.68	9557
922.789	9462
922.898	9564
923.007	9389
923.116	9462
923.224	9504
923.333	9443
923.442	9424
923.55	9374
923.659	9412
923.767	9397
923.876	9287
923.984	9431
924.092	9268
924.201	9370
924.309	9378
924.417	9378
924.525	9260
924.633	9416
924.741	10215
924.849	9211
924.956	9298
925.064	9192
925.172	8998
925.279	9062
925.387	9131
925.494	9138
925.602	9370
925.709	9192
925.816	9074
925.924	9123
926.031	9199
926.138	9116
926.245	9184
926.352	9028
926.459	9310
926.566	9268
926.673	9032
926.779	8986
926.886	9032
926.993	8826
927.099	8796
927.206	8872
927.312	8785
927.419	8891
927.525	8891
927.631	8891
927.737	8762
927.843	8743
927.95	8648
928.056	8667
928.162	8773
928.267	8769
928.373	9454
928.479	8902
928.585	8655
928.69	8754
928.796	8777
928.901	8655
929.007	8530
929.112	8712
929.218	8636
929.323	8606
929.428	8556
929.533	8682
929.638	8484
929.743	8545
929.848	8606
929.953	8503
930.058	8419
930.163	8396
930.267	8343
930.372	8518
930.477	8309
930.581	8545
930.685	8427
930.79	8237
930.894	8301
930.998	8237
931.103	8351
931.207	8024
931.311	8092
931.415	7936
931.519	7769
931.623	7734
