Data from test_V78500241_1332.txt Node
Date: Fri Mar 25 14:42:59 CST 2022
User: usil
Spectrometer: V785-0024
Trigger mode: 0
Integration Time (sec): 4.000000E-1
Scans to average: 1
Nonlinearity correction enabled: false
Boxcar width: 0
Storing dark spectrum: false
XAxis mode: Wavelengths
Number of Pixels in Spectrum: 1024
>>>>>Begin Spectral Data<<<<<
801.071	22360
801.214	22303
801.356	22093
801.499	21949
801.641	21743
801.783	21774
801.926	21846
802.068	21595
802.211	21625
802.353	21450
802.496	21321
802.638	21275
802.78	21169
802.923	21252
803.065	21138
803.208	21020
803.35	21047
803.492	21180
803.635	21294
803.777	21157
803.919	21062
804.061	21473
804.204	21131
804.346	21005
804.488	20906
804.63	20960
804.773	20849
804.915	21017
805.057	21173
805.199	20914
805.341	21135
805.483	21146
805.626	21104
805.768	21020
805.91	21135
806.052	21138
806.194	20861
806.336	21131
806.478	21036
806.62	20956
806.762	21039
806.904	21135
807.046	21622
807.188	21355
807.33	21401
807.472	21355
807.614	21424
807.756	21405
807.898	21165
808.04	21096
808.182	21313
808.324	21260
808.465	21272
808.607	21466
808.749	21682
808.891	21713
809.033	21766
809.174	21587
809.316	21564
809.458	21557
809.6	21538
809.741	21485
809.883	21447
810.025	21667
810.166	21660
810.308	21732
810.45	21606
810.591	21420
810.733	21245
810.875	21329
811.016	21249
811.158	21226
811.299	21165
811.441	21420
811.582	21237
811.724	21222
811.865	21218
812.007	21131
812.148	21226
812.29	21241
812.431	21294
812.573	21389
812.714	21526
812.855	21637
812.997	21751
813.138	21812
813.279	21861
813.421	21713
813.562	21633
813.703	21488
813.845	21336
813.986	21039
814.127	20823
814.268	20830
814.41	20792
814.551	20834
814.692	20868
814.833	20621
814.974	20598
815.115	20758
815.256	20434
815.397	20667
815.539	20393
815.68	20537
815.821	20404
815.962	20549
816.103	20393
816.244	20431
816.385	20240
816.526	20317
816.666	20149
816.807	19944
816.948	20145
817.089	20043
817.23	19940
817.371	19830
817.512	19887
817.653	19917
817.793	19936
817.934	19925
818.075	19951
818.216	19830
818.356	19826
818.497	19674
818.638	19544
818.778	19605
818.919	19529
819.06	19624
819.2	19719
819.341	19666
819.481	19784
819.622	19814
819.762	20073
819.903	20172
820.043	19898
820.184	19856
820.324	19833
820.465	20012
820.605	19849
820.746	19890
820.886	19807
821.026	19932
821.167	19742
821.307	19902
821.447	19906
821.588	19597
821.728	19544
821.868	19445
822.008	19209
822.149	19213
822.289	19263
822.429	19095
822.569	18954
822.709	18939
822.849	18783
822.99	18734
823.13	18696
823.27	18631
823.41	18635
823.55	18475
823.69	18547
823.83	18604
823.97	18521
824.11	18395
824.25	18353
824.389	18388
824.529	18486
824.669	18365
824.809	18467
824.949	18399
825.089	18456
825.228	18418
825.368	18110
825.508	18102
825.648	18159
825.787	18171
825.927	18232
826.067	18026
826.206	18213
826.346	18197
826.485	18095
826.625	18186
826.765	18239
826.904	18114
827.044	17912
827.183	17863
827.323	17859
827.462	17851
827.601	17786
827.741	17817
827.88	17729
828.02	17737
828.159	17863
828.298	17874
828.437	17885
828.577	17729
828.716	17958
828.855	17824
828.994	17646
829.134	17592
829.273	17642
829.412	17577
829.551	17539
829.69	17585
829.829	17474
829.968	17638
830.107	17600
830.246	17581
830.385	17402
830.524	17505
830.663	17425
830.802	17349
830.941	17197
831.08	17197
831.219	17258
831.357	17341
831.496	17509
831.635	17147
831.774	17067
831.913	17022
832.051	17052
832.19	17029
832.329	16965
832.467	16930
832.606	16866
832.744	16972
832.883	16900
833.022	16748
833.16	17003
833.299	17014
833.437	16984
833.576	16942
833.714	16930
833.852	16900
833.991	17010
834.129	17086
834.267	17102
834.406	16991
834.544	16946
834.682	17041
834.821	16976
834.959	17071
835.097	16896
835.235	17064
835.373	16976
835.511	16972
835.65	16877
835.788	16869
835.926	16710
836.064	16626
836.202	16672
836.34	16816
836.478	17003
836.615	16786
836.753	16904
836.891	16866
837.029	16809
837.167	16866
837.305	16744
837.443	16771
837.58	16660
837.718	16778
837.856	16706
837.993	16649
838.131	16683
838.269	16721
838.406	16717
838.544	16626
838.681	16344
838.819	16432
838.956	16253
839.094	16356
839.231	16318
839.369	16333
839.506	16706
839.643	16550
839.781	16238
839.918	16295
840.055	16344
840.193	16257
840.33	16226
840.467	16257
840.604	16287
840.742	16546
840.879	16181
841.016	16154
841.153	16177
841.29	16390
841.427	16291
841.564	16337
841.701	16299
841.838	16287
841.975	16143
842.112	16112
842.249	15953
842.385	15956
842.522	16257
842.659	16082
842.796	15941
842.933	16040
843.069	16067
843.206	16013
843.343	16181
843.479	15975
843.616	16059
843.752	15850
843.889	15907
844.025	15960
844.162	15785
844.298	15953
844.435	15819
844.571	15804
844.708	15819
844.844	16013
844.98	15975
845.117	15941
845.253	15895
845.389	15743
845.525	15816
845.661	15892
845.798	15789
845.934	15922
846.07	15899
846.206	15949
846.342	15926
846.478	15724
846.614	15564
846.75	15405
846.886	15302
847.022	15435
847.158	15378
847.294	15374
847.429	15412
847.565	15401
847.701	15584
847.837	15226
847.972	15051
848.108	15218
848.244	15127
848.379	15104
848.515	15024
848.65	15009
848.786	15077
848.921	14979
849.057	15093
849.192	15093
849.328	15058
849.463	14868
849.598	14937
849.734	14944
849.869	14807
850.004	14762
850.14	14762
850.275	14746
850.41	14610
850.545	14640
850.68	14731
850.815	14811
850.95	14754
851.085	14982
851.22	14697
851.355	14807
851.49	14750
851.625	14746
851.76	14739
851.895	14632
852.03	14602
852.165	14632
852.299	14902
852.434	14925
852.569	14891
852.703	14743
852.838	14807
852.973	14861
853.107	14823
853.242	14823
853.376	14632
853.511	14526
853.645	14590
853.78	14762
853.914	14686
854.048	14663
854.183	14632
854.317	14590
854.451	14765
854.585	14606
854.72	14556
854.854	14765
854.988	14537
855.122	14644
855.256	14461
855.39	14556
855.524	14667
855.658	14773
855.792	14674
855.926	14659
856.06	14640
856.194	14746
856.327	14648
856.461	14564
856.595	14613
856.729	14670
856.862	14693
856.996	14682
857.13	14708
857.263	14796
857.397	14792
857.53	14636
857.664	14731
857.797	14674
857.931	14674
858.064	14610
858.197	14849
858.331	14587
858.464	14617
858.597	14492
858.731	14568
858.864	14667
858.997	14602
859.13	14735
859.263	14659
859.396	14750
859.529	14568
859.662	14602
859.795	14537
859.928	14670
860.061	14823
860.194	14826
860.327	14720
860.46	14663
860.592	14731
860.725	14731
860.858	14800
860.99	14568
861.123	14583
861.256	14568
861.388	14590
861.521	15249
861.653	14469
861.786	14457
861.918	14560
862.05	14568
862.183	14602
862.315	14533
862.447	14705
862.58	14708
862.712	14476
862.844	14454
862.976	14522
863.108	14511
863.24	14937
863.372	14347
863.504	14423
863.636	14374
863.768	14469
863.9	14419
864.032	14377
864.164	14408
864.296	14480
864.428	14488
864.559	14571
864.691	14457
864.823	14518
864.954	14537
865.086	14545
865.217	14408
865.349	14256
865.48	14324
865.612	14537
865.743	14549
865.875	14427
866.006	14347
866.137	14446
866.269	14537
866.4	14404
866.531	14374
866.662	14385
866.793	14454
866.924	14290
867.055	14366
867.186	14427
867.317	14461
867.448	14324
867.579	14412
867.71	14351
867.841	14328
867.972	14374
868.103	14412
868.233	14457
868.364	14438
868.495	14434
868.625	14617
868.756	14731
868.886	14583
869.017	14689
869.147	14682
869.278	14701
869.408	14583
869.539	14712
869.669	14765
869.799	14701
869.929	14773
870.06	14765
870.19	14956
870.32	14880
870.45	14982
870.58	15074
870.71	15142
870.84	15112
870.97	15066
871.1	14998
871.23	15203
871.36	15291
871.489	15138
871.619	15161
871.749	15317
871.879	15275
872.008	15447
872.138	15306
872.267	15222
872.397	15074
872.526	15081
872.656	14994
872.785	15085
872.915	15294
873.044	15443
873.173	15332
873.303	15428
873.432	15329
873.561	15401
873.69	15306
873.819	15367
873.948	15351
874.077	15294
874.206	15256
874.335	15245
874.464	15389
874.593	15595
874.722	15530
874.851	15686
874.979	15614
875.108	15629
875.237	15530
875.365	15526
875.494	15595
875.623	15709
875.751	15622
875.88	15576
876.008	15774
876.136	15816
876.265	15979
876.393	16120
876.521	16071
876.65	16124
876.778	16082
876.906	16002
877.034	16063
877.162	16048
877.29	15930
877.418	16017
877.546	16055
877.674	16063
877.802	15998
877.93	16067
878.058	16044
878.185	15918
878.313	16044
878.441	16090
878.568	15968
878.696	15953
878.824	16154
878.951	16078
879.079	16242
879.206	16413
879.333	16299
879.461	16109
879.588	16219
879.715	16344
879.842	16436
879.97	16219
880.097	15953
880.224	15934
880.351	15956
880.478	16059
880.605	15808
880.732	15869
880.859	16150
880.986	15991
881.112	15926
881.239	15728
881.366	15648
881.493	15717
881.619	15450
881.746	15625
881.872	15538
881.999	15523
882.125	15519
882.252	15629
882.378	15595
882.505	15770
882.631	15557
882.757	15397
882.883	15580
883.01	15458
883.136	15393
883.262	15264
883.388	15222
883.514	15408
883.64	15454
883.766	15382
883.892	15184
884.018	15211
884.143	15336
884.269	15500
884.395	15184
884.52	15024
884.646	15157
884.772	15017
884.897	14960
885.023	15001
885.148	15157
885.274	15176
885.399	15108
885.524	15036
885.65	15070
885.775	15127
885.9	15150
886.025	15218
886.15	15062
886.275	15089
886.4	15028
886.525	15036
886.65	15001
886.775	14948
886.9	15161
887.025	15325
887.149	15001
887.274	14990
887.399	14807
887.523	14929
887.648	14842
887.773	14845
887.897	14910
888.021	14956
888.146	14845
888.27	15009
888.395	15066
888.519	14891
888.643	15001
888.767	15058
888.891	14815
889.015	14682
889.139	14773
889.263	14701
889.387	14891
889.511	14994
889.635	14883
889.759	14731
889.883	14765
890.006	14720
890.13	14842
890.254	14648
890.377	14640
890.501	14571
890.624	14537
890.748	14659
890.871	14552
890.995	14358
891.118	14328
891.241	14511
891.364	14446
891.488	14560
891.611	14465
891.734	14442
891.857	14533
891.98	14480
892.103	14461
892.226	14522
892.349	14476
892.471	14252
892.594	14469
892.717	14438
892.839	14442
892.962	14351
893.085	14541
893.207	14480
893.33	14347
893.452	14370
893.575	14594
893.697	14355
893.819	14667
893.941	14636
894.064	14583
894.186	14404
894.308	14381
894.43	14541
894.552	14590
894.674	14587
894.796	14537
894.918	14454
895.04	14541
895.161	14655
895.283	14594
895.405	14511
895.526	14530
895.648	14552
895.769	14667
895.891	14568
896.012	14689
896.134	14625
896.255	14659
896.376	14514
896.498	14552
896.619	14655
896.74	14602
896.861	14678
896.982	14971
897.103	15184
897.224	14849
897.345	14830
897.466	14743
897.587	14861
897.708	14956
897.828	14868
897.949	14842
898.07	14663
898.19	14712
898.311	14990
898.431	14788
898.552	14857
898.672	14952
898.792	14937
898.913	15047
899.033	14849
899.153	14819
899.273	14678
899.393	14876
899.513	14762
899.633	14838
899.753	14765
899.873	14762
899.993	14796
900.113	14735
900.232	14834
900.352	14720
900.472	14746
900.591	14648
900.711	14686
900.83	14697
900.95	14754
901.069	14735
901.189	14579
901.308	14286
901.427	14313
901.546	14339
901.665	14309
901.784	14240
901.904	14202
902.023	14065
902.141	13921
902.26	13970
902.379	14016
902.498	13898
902.617	13849
902.735	13955
902.854	13830
902.973	13761
903.091	13636
903.21	13559
903.328	13487
903.446	13552
903.565	13415
903.683	13365
903.801	13419
903.919	13441
904.038	13403
904.156	13240
904.274	13365
904.392	13270
904.51	13179
904.627	13228
904.745	13255
904.863	13304
904.981	13023
905.098	12951
905.216	12875
905.334	12928
905.451	12924
905.569	12833
905.686	12966
905.803	12806
905.921	12776
906.038	12779
906.155	12722
906.272	12620
906.389	12738
906.506	12509
906.623	12570
906.74	12445
906.857	12388
906.974	12353
907.091	12658
907.208	12555
907.324	12582
907.441	12467
907.557	12266
907.674	12247
907.79	12159
907.907	12216
908.023	12285
908.139	12334
908.256	12133
908.372	12178
908.488	12209
908.604	11988
908.72	11988
908.836	12019
908.952	12003
909.068	12079
909.184	12057
909.3	12022
909.415	12034
909.531	12079
909.647	11821
909.762	11821
909.878	11756
909.993	11817
910.108	11851
910.224	11714
910.339	11745
910.454	11661
910.57	11623
910.685	11630
910.8	11855
910.915	11813
911.03	11653
911.145	11516
911.259	11444
911.374	11520
911.489	11414
911.604	11345
911.718	11277
911.833	11246
911.947	11181
912.062	11052
912.176	11212
912.291	11178
912.405	11208
912.519	11459
912.633	11452
912.748	11326
912.862	11292
912.976	11140
913.09	10938
913.204	11018
913.318	11117
913.431	11269
913.545	11128
913.659	11212
913.772	11170
913.886	11010
914	10900
914.113	11086
914.226	11155
914.34	11086
914.453	10930
914.566	11090
914.68	10915
914.793	10908
914.906	10744
915.019	10660
915.132	10599
915.245	10710
915.358	10740
915.47	10748
915.583	10725
915.696	10755
915.809	10896
915.921	10927
916.034	10660
916.146	10721
916.259	10664
916.371	10771
916.483	10778
916.595	10717
916.708	10596
916.82	10748
916.932	10626
917.044	10672
917.156	10630
917.268	10508
917.38	10516
917.491	10485
917.603	10516
917.715	10637
917.826	10679
917.938	10577
918.049	10413
918.161	10561
918.272	10729
918.384	10679
918.495	10558
918.606	10447
918.717	10348
918.828	10485
918.939	10417
919.05	10314
919.161	10466
919.272	10223
919.383	10287
919.494	10485
919.604	10596
919.715	10409
919.826	10352
919.936	10382
920.047	10497
920.157	10504
920.267	10694
920.378	10413
920.488	10462
920.598	10660
920.708	10820
920.818	10561
920.928	10542
921.038	10797
921.148	10774
921.258	10451
921.368	10402
921.477	10306
921.587	10257
921.697	10143
921.806	10291
921.916	10181
922.025	10025
922.134	10029
922.244	9937
922.353	10021
922.462	9895
922.571	9816
922.68	9705
922.789	9576
922.898	9679
923.007	9591
923.116	9663
923.224	9686
923.333	9660
923.442	9530
923.55	9511
923.659	9591
923.767	9622
923.876	9519
923.984	9622
924.092	9561
924.201	9557
924.309	9553
924.417	9542
924.525	9515
924.633	9450
924.741	10394
924.849	9355
924.956	9428
925.064	9287
925.172	9211
925.279	9249
925.387	9359
925.494	9329
925.602	9412
925.709	9367
925.816	9226
925.924	9291
926.031	9374
926.138	9287
926.245	9344
926.352	9199
926.459	9294
926.566	9393
926.673	9287
926.779	9222
926.886	9176
926.993	9058
927.099	9013
927.206	8944
927.312	8975
927.419	9066
927.525	9028
927.631	9020
927.737	8948
927.843	8857
927.95	8830
928.056	8876
928.162	8963
928.267	9001
928.373	9538
928.479	9028
928.585	8750
928.69	8982
928.796	8998
928.901	8838
929.007	8670
929.112	8823
929.218	8895
929.323	8769
929.428	8697
929.533	8849
929.638	8644
929.743	8689
929.848	8750
929.953	8773
930.058	8705
930.163	8602
930.267	8507
930.372	8667
930.477	8419
930.581	8693
930.685	8659
930.79	8499
930.894	8537
930.998	8499
931.103	8648
931.207	8313
931.311	8221
931.415	8191
931.519	8001
931.623	7986
