Data from test_V78500241_2223.txt Node
Date: Fri Mar 25 14:49:11 CST 2022
User: usil
Spectrometer: V785-0024
Trigger mode: 0
Integration Time (sec): 4.000000E-1
Scans to average: 1
Nonlinearity correction enabled: false
Boxcar width: 0
Storing dark spectrum: false
XAxis mode: Wavelengths
Number of Pixels in Spectrum: 1024
>>>>>Begin Spectral Data<<<<<
801.071	22150
801.214	22032
801.356	21770
801.499	21614
801.641	21614
801.783	21549
801.926	21667
802.068	21416
802.211	21359
802.353	21340
802.496	20994
802.638	21089
802.78	20971
802.923	20975
803.065	20834
803.208	20838
803.35	20845
803.492	20921
803.635	21028
803.777	20804
803.919	21081
804.061	21127
804.204	20902
804.346	20826
804.488	20788
804.63	20834
804.773	20724
804.915	20754
805.057	20944
805.199	20758
805.341	20785
805.483	21001
805.626	20800
805.768	20720
805.91	20826
806.052	20739
806.194	20735
806.336	20933
806.478	20758
806.62	20792
806.762	20910
806.904	20971
807.046	21294
807.188	20960
807.33	20975
807.472	21081
807.614	21039
807.756	20975
807.898	20830
808.04	20929
808.182	20834
808.324	20857
808.465	20990
808.607	21039
808.749	21237
808.891	21264
809.033	21359
809.174	21412
809.316	21294
809.458	21123
809.6	21214
809.741	21222
809.883	21211
810.025	21321
810.166	21332
810.308	21321
810.45	21222
810.591	21154
810.733	21131
810.875	21047
811.016	20857
811.158	20857
811.299	20941
811.441	21043
811.582	21005
811.724	20868
811.865	20925
812.007	20899
812.148	20906
812.29	20887
812.431	21085
812.573	21317
812.714	21389
812.855	21526
812.997	21504
813.138	21587
813.279	21568
813.421	21367
813.562	21435
813.703	21272
813.845	21184
813.986	20910
814.127	20796
814.268	20511
814.41	20556
814.551	20526
814.692	20583
814.833	20427
814.974	20469
815.115	20514
815.256	20351
815.397	20366
815.539	20347
815.68	20317
815.821	20252
815.962	20221
816.103	20187
816.244	20206
816.385	19993
816.526	19909
816.666	19776
816.807	19601
816.948	19708
817.089	19860
817.23	19753
817.371	19540
817.512	19609
817.653	19635
817.793	19662
817.934	19605
818.075	19651
818.216	19628
818.356	19605
818.497	19468
818.638	19339
818.778	19407
818.919	19316
819.06	19354
819.2	19487
819.341	19472
819.481	19575
819.622	19605
819.762	19788
819.903	19769
820.043	19715
820.184	19613
820.324	19594
820.465	19689
820.605	19582
820.746	19502
820.886	19373
821.026	19586
821.167	19563
821.307	19624
821.447	19441
821.588	19483
821.728	19381
821.868	19099
822.008	19133
822.149	19004
822.289	18943
822.429	18791
822.569	18578
822.709	18639
822.849	18578
822.99	18422
823.13	18384
823.27	18369
823.41	18281
823.55	18228
823.69	18327
823.83	18304
823.97	18342
824.11	18110
824.25	17984
824.389	18076
824.529	18098
824.669	18125
824.809	18277
824.949	18171
825.089	18296
825.228	17996
825.368	17916
825.508	17859
825.648	17885
825.787	17904
825.927	17920
826.067	17794
826.206	17832
826.346	17851
826.485	17870
826.625	17824
826.765	17965
826.904	17901
827.044	17642
827.183	17703
827.323	17570
827.462	17570
827.601	17554
827.741	17528
827.88	17528
828.02	17478
828.159	17471
828.298	17589
828.437	17695
828.577	17547
828.716	17691
828.855	17516
828.994	17330
829.134	17280
829.273	17368
829.412	17307
829.551	17193
829.69	17322
829.829	17360
829.968	17395
830.107	17402
830.246	17311
830.385	17311
830.524	17181
830.663	17083
830.802	17056
830.941	16911
831.08	16934
831.219	17090
831.357	16904
831.496	17143
831.635	16915
831.774	16767
831.913	16938
832.051	16713
832.19	16706
832.329	16675
832.467	16660
832.606	16554
832.744	16622
832.883	16580
833.022	16634
833.16	16607
833.299	16626
833.437	16771
833.576	16622
833.714	16763
833.852	16679
833.991	16679
834.129	16736
834.267	16729
834.406	16687
834.544	16687
834.682	16664
834.821	16637
834.959	16778
835.097	16641
835.235	16668
835.373	16706
835.511	16782
835.65	16573
835.788	16542
835.926	16459
836.064	16363
836.202	16432
836.34	16603
836.478	16786
836.615	16596
836.753	16607
836.891	16592
837.029	16634
837.167	16599
837.305	16550
837.443	16538
837.58	16440
837.718	16554
837.856	16527
837.993	16363
838.131	16440
838.269	16325
838.406	16356
838.544	16303
838.681	16215
838.819	16177
838.956	16032
839.094	15903
839.231	15987
839.369	16128
839.506	16382
839.643	16242
839.781	16048
839.918	15907
840.055	16013
840.193	15983
840.33	15934
840.467	16025
840.604	16048
840.742	16238
840.879	15720
841.016	15930
841.153	15903
841.29	16101
841.427	15926
841.564	16090
841.701	16101
841.838	15846
841.975	15781
842.112	15793
842.249	15781
842.385	15778
842.522	15941
842.659	15774
842.796	15739
842.933	15766
843.069	15759
843.206	15705
843.343	15880
843.479	15774
843.616	15694
843.752	15504
843.889	15519
844.025	15709
844.162	15485
844.298	15679
844.435	15534
844.571	15485
844.708	15526
844.844	15682
844.98	15713
845.117	15656
845.253	15523
845.389	15450
845.525	15416
845.661	15462
845.798	15367
845.934	15302
846.07	15252
846.206	15443
846.342	15424
846.478	15382
846.614	15055
846.75	15074
846.886	15066
847.022	15211
847.158	15089
847.294	15089
847.429	15081
847.565	15051
847.701	15340
847.837	14891
847.972	14815
848.108	14925
848.244	14910
848.379	14815
848.515	14667
848.65	14678
848.786	14735
848.921	14739
849.057	14823
849.192	14800
849.328	14636
849.463	14716
849.598	14678
849.734	14625
849.869	14560
850.004	14465
850.14	14465
850.275	14552
850.41	14423
850.545	14438
850.68	14419
850.815	14454
850.95	14495
851.085	14579
851.22	14541
851.355	14457
851.49	14473
851.625	14434
851.76	14396
851.895	14415
852.03	14381
852.165	14473
852.299	14381
852.434	14537
852.569	14564
852.703	14545
852.838	14545
852.973	14598
853.107	14625
853.242	14408
853.376	14396
853.511	14187
853.645	14362
853.78	14499
853.914	14339
854.048	14233
854.183	14271
854.317	14332
854.451	14537
854.585	14320
854.72	14278
854.854	14355
854.988	14256
855.122	14362
855.256	14164
855.39	14328
855.524	14465
855.658	14396
855.792	14446
855.926	14313
856.06	14374
856.194	14438
856.327	14362
856.461	14202
856.595	14282
856.729	14324
856.862	14400
856.996	14396
857.13	14431
857.263	14377
857.397	14446
857.53	14389
857.664	14446
857.797	14434
857.931	14442
858.064	14374
858.197	14476
858.331	14362
858.464	14286
858.597	14187
858.731	14313
858.864	14271
858.997	14324
859.13	14374
859.263	14366
859.396	14476
859.529	14309
859.662	14259
859.795	14298
859.928	14366
860.061	14526
860.194	14556
860.327	14358
860.46	14320
860.592	14385
860.725	14488
860.858	14465
860.99	14301
861.123	14252
861.256	14305
861.388	14347
861.521	14918
861.653	14115
861.786	14183
861.918	14183
862.05	14202
862.183	14233
862.315	14252
862.447	14465
862.58	14370
862.712	14103
862.844	14115
862.976	14180
863.108	14119
863.24	14495
863.372	13970
863.504	14073
863.636	14107
863.768	14145
863.9	14069
864.032	14096
864.164	14107
864.296	14069
864.428	14244
864.559	14256
864.691	14210
864.823	14123
864.954	14229
865.086	14157
865.217	14123
865.349	14096
865.48	14107
865.612	14058
865.743	14244
865.875	14092
866.006	14054
866.137	14138
866.269	14126
866.4	14062
866.531	14081
866.662	14035
866.793	14073
866.924	14043
867.055	14107
867.186	14225
867.317	14054
867.448	14016
867.579	13993
867.71	13959
867.841	14077
867.972	14058
868.103	14035
868.233	14130
868.364	14138
868.495	14164
868.625	14351
868.756	14309
868.886	14229
869.017	14286
869.147	14427
869.278	14461
869.408	14385
869.539	14305
869.669	14427
869.799	14370
869.929	14434
870.06	14438
870.19	14682
870.32	14560
870.45	14674
870.58	14686
870.71	14716
870.84	14838
870.97	14746
871.1	14701
871.23	14902
871.36	14864
871.489	14826
871.619	14883
871.749	14891
871.879	14956
872.008	15028
872.138	14876
872.267	14861
872.397	14872
872.526	14781
872.656	14857
872.785	14678
872.915	14986
873.044	15135
873.173	15043
873.303	15039
873.432	15009
873.561	15017
873.69	14963
873.819	14956
873.948	15066
874.077	15009
874.206	14933
874.335	14994
874.464	15085
874.593	15275
874.722	15203
874.851	15321
874.979	15226
875.108	15313
875.237	15199
875.365	15119
875.494	15192
875.623	15291
875.751	15287
875.88	15313
876.008	15405
876.136	15519
876.265	15694
876.393	15797
876.521	15823
876.65	15869
876.778	15720
876.906	15694
877.034	15660
877.162	15701
877.29	15599
877.418	15679
877.546	15652
877.674	15603
877.802	15663
877.93	15739
878.058	15580
878.185	15542
878.313	15709
878.441	15713
878.568	15530
878.696	15576
878.824	15724
878.951	15838
879.079	15789
879.206	16032
879.333	15895
879.461	15720
879.588	15812
879.715	15899
879.842	15975
879.97	15854
880.097	15591
880.224	15549
880.351	15538
880.478	15519
880.605	15576
880.732	15580
880.859	15747
880.986	15690
881.112	15633
881.239	15443
881.366	15291
881.493	15211
881.619	15188
881.746	15252
881.872	15249
881.999	15180
882.125	15150
882.252	15180
882.378	15237
882.505	15378
882.631	15180
882.757	15051
882.883	15024
883.01	15036
883.136	14948
883.262	14868
883.388	14868
883.514	14994
883.64	15077
883.766	14990
883.892	14830
884.018	14902
884.143	15036
884.269	15157
884.395	14857
884.52	14743
884.646	14712
884.772	14727
884.897	14590
885.023	14743
885.148	14750
885.274	14887
885.399	14731
885.524	14663
885.65	14849
885.775	14807
885.9	14670
886.025	14773
886.15	14727
886.275	14629
886.4	14617
886.525	14708
886.65	14670
886.775	14670
886.9	14834
887.025	15062
887.149	14773
887.274	14575
887.399	14514
887.523	14530
887.648	14446
887.773	14484
887.897	14651
888.021	14640
888.146	14503
888.27	14625
888.395	14674
888.519	14590
888.643	14617
888.767	14727
888.891	14438
889.015	14484
889.139	14442
889.263	14385
889.387	14415
889.511	14590
889.635	14419
889.759	14237
889.883	14377
890.006	14457
890.13	14579
890.254	14221
890.377	14480
890.501	14103
890.624	14157
890.748	14164
890.871	14180
890.995	14054
891.118	14043
891.241	14191
891.364	14161
891.488	14199
891.611	14183
891.734	14138
891.857	14191
891.98	14119
892.103	14126
892.226	14115
892.349	14115
892.471	13997
892.594	14126
892.717	14119
892.839	14092
892.962	14073
893.085	14202
893.207	14153
893.33	13978
893.452	14046
893.575	14153
893.697	14050
893.819	14256
893.941	14400
894.064	14252
894.186	14077
894.308	14134
894.43	14248
894.552	14404
894.674	14328
894.796	14183
894.918	14168
895.04	14103
895.161	14275
895.283	14199
895.405	14111
895.526	14343
895.648	14229
895.769	14267
895.891	14278
896.012	14275
896.134	14328
896.255	14282
896.376	14237
896.498	14286
896.619	14328
896.74	14275
896.861	14309
896.982	14629
897.103	14864
897.224	14537
897.345	14549
897.466	14564
897.587	14575
897.708	14636
897.828	14602
897.949	14454
898.07	14415
898.19	14537
898.311	14674
898.431	14617
898.552	14602
898.672	14804
898.792	14716
898.913	14659
899.033	14541
899.153	14495
899.273	14484
899.393	14556
899.513	14530
899.633	14552
899.753	14518
899.873	14400
899.993	14602
900.113	14488
900.232	14465
900.352	14454
900.472	14454
900.591	14294
900.711	14412
900.83	14343
900.95	14503
901.069	14446
901.189	14343
901.308	14123
901.427	14027
901.546	14096
901.665	13986
901.784	14050
901.904	13951
902.023	13894
902.141	13742
902.26	13685
902.379	13712
902.498	13575
902.617	13464
902.735	13681
902.854	13643
902.973	13552
903.091	13343
903.21	13225
903.328	13369
903.446	13301
903.565	13225
903.683	13179
903.801	13171
903.919	13110
904.038	13164
904.156	13000
904.274	13099
904.392	13031
904.51	12996
904.627	13023
904.745	13076
904.863	13000
904.981	12791
905.098	12646
905.216	12662
905.334	12700
905.451	12707
905.569	12673
905.686	12749
905.803	12650
905.921	12536
906.038	12620
906.155	12490
906.272	12365
906.389	12483
906.506	12243
906.623	12289
906.74	12213
906.857	12136
906.974	12175
907.091	12285
907.208	12391
907.324	12353
907.441	12178
907.557	11996
907.674	12117
907.79	11954
907.907	12068
908.023	12087
908.139	11996
908.256	11996
908.372	11935
908.488	11866
908.604	11767
908.72	11790
908.836	11767
908.952	11790
909.068	11790
909.184	11901
909.3	11817
909.415	11809
909.531	11843
909.647	11581
909.762	11436
909.878	11490
909.993	11611
910.108	11471
910.224	11512
910.339	11532
910.454	11440
910.57	11337
910.685	11391
910.8	11649
910.915	11547
911.03	11391
911.145	11292
911.259	11189
911.374	11204
911.489	11208
911.604	11117
911.718	10999
911.833	11060
911.947	10911
912.062	10782
912.176	11033
912.291	10965
912.405	11003
912.519	11143
912.633	11250
912.748	11105
912.862	11079
912.976	10919
913.09	10755
913.204	10748
913.318	10927
913.431	10957
913.545	10934
913.659	10987
913.772	10847
913.886	10752
914	10782
914.113	10850
914.226	10873
914.34	10793
914.453	10622
914.566	10797
914.68	10790
914.793	10706
914.906	10512
915.019	10500
915.132	10478
915.245	10489
915.358	10512
915.47	10443
915.583	10546
915.696	10497
915.809	10645
915.921	10714
916.034	10474
916.146	10485
916.259	10451
916.371	10596
916.483	10508
916.595	10443
916.708	10379
916.82	10447
916.932	10428
917.044	10402
917.156	10371
917.268	10246
917.38	10329
917.491	10375
917.603	10325
917.715	10451
917.826	10455
917.938	10402
918.049	10242
918.161	10329
918.272	10462
918.384	10451
918.495	10390
918.606	10242
918.717	10147
918.828	10219
918.939	10185
919.05	10181
919.161	10147
919.272	10021
919.383	9987
919.494	10261
919.604	10394
919.715	10166
919.826	10097
919.936	10181
920.047	10348
920.157	10234
920.267	10462
920.378	10280
920.488	10318
920.598	10413
920.708	10603
920.818	10470
920.928	10474
921.038	10691
921.148	10531
921.258	10265
921.368	10177
921.477	10158
921.587	10109
921.697	9972
921.806	10093
921.916	9915
922.025	9823
922.134	9743
922.244	9759
922.353	9884
922.462	9774
922.571	9656
922.68	9507
922.789	9485
922.898	9507
923.007	9458
923.116	9545
923.224	9397
923.333	9485
923.442	9439
923.55	9367
923.659	9344
923.767	9420
923.876	9329
923.984	9367
924.092	9310
924.201	9420
924.309	9393
924.417	9340
924.525	9294
924.633	9291
924.741	10234
924.849	9100
924.956	9317
925.064	9047
925.172	9104
925.279	9062
925.387	9199
925.494	9157
925.602	9214
925.709	9245
925.816	9085
925.924	9180
926.031	9241
926.138	9195
926.245	9180
926.352	9039
926.459	9233
926.566	9256
926.673	9039
926.779	9017
926.886	8956
926.993	8834
927.099	8796
927.206	8815
927.312	8781
927.419	8895
927.525	8845
927.631	8899
927.737	8781
927.843	8644
927.95	8640
928.056	8773
928.162	8750
928.267	8739
928.373	9428
928.479	8902
928.585	8659
928.69	8773
928.796	8804
928.901	8659
929.007	8545
929.112	8648
929.218	8571
929.323	8610
929.428	8530
929.533	8648
929.638	8522
929.743	8568
929.848	8568
929.953	8507
930.058	8476
930.163	8301
930.267	8339
930.372	8457
930.477	8317
930.581	8492
930.685	8465
930.79	8320
930.894	8336
930.998	8305
931.103	8480
931.207	8069
931.311	7967
931.415	8046
931.519	7753
931.623	7811
