Data from test_V78500241_1731.txt Node
Date: Fri Mar 25 14:45:46 CST 2022
User: usil
Spectrometer: V785-0024
Trigger mode: 0
Integration Time (sec): 4.000000E-1
Scans to average: 1
Nonlinearity correction enabled: false
Boxcar width: 0
Storing dark spectrum: false
XAxis mode: Wavelengths
Number of Pixels in Spectrum: 1024
>>>>>Begin Spectral Data<<<<<
801.071	22276
801.214	22063
801.356	21937
801.499	21808
801.641	21701
801.783	21618
801.926	21663
802.068	21633
802.211	21530
802.353	21351
802.496	21150
802.638	21237
802.78	21192
802.923	20963
803.065	20963
803.208	20918
803.35	20910
803.492	21074
803.635	21100
803.777	20986
803.919	21047
804.061	21351
804.204	21055
804.346	20906
804.488	20861
804.63	20960
804.773	20804
804.915	20944
805.057	21009
805.199	20842
805.341	20994
805.483	20990
805.626	20998
805.768	20815
805.91	20925
806.052	20967
806.194	20773
806.336	21028
806.478	20929
806.62	20788
806.762	20899
806.904	20925
807.046	21203
807.188	21176
807.33	21154
807.472	21252
807.614	21135
807.756	21112
807.898	21032
808.04	20895
808.182	20994
808.324	20948
808.465	21017
808.607	21176
808.749	21291
808.891	21367
809.033	21408
809.174	21416
809.316	21279
809.458	21249
809.6	21146
809.741	21428
809.883	21370
810.025	21424
810.166	21412
810.308	21405
810.45	21389
810.591	21192
810.733	21100
810.875	20986
811.016	20921
811.158	20845
811.299	21039
811.441	21188
811.582	21089
811.724	21047
811.865	20960
812.007	21112
812.148	20971
812.29	20990
812.431	21351
812.573	21291
812.714	21348
812.855	21679
812.997	21751
813.138	21816
813.279	21705
813.421	21519
813.562	21412
813.703	21260
813.845	21214
813.986	20960
814.127	20933
814.268	20701
814.41	20720
814.551	20476
814.692	20769
814.833	20571
814.974	20640
815.115	20511
815.256	20339
815.397	20454
815.539	20446
815.68	20244
815.821	20301
815.962	20339
816.103	20298
816.244	20119
816.385	20088
816.526	20062
816.666	19913
816.807	19811
816.948	19894
817.089	19837
817.23	19738
817.371	19685
817.512	19685
817.653	19681
817.793	19693
817.934	19746
818.075	19811
818.216	19715
818.356	19628
818.497	19548
818.638	19552
818.778	19381
818.919	19320
819.06	19468
819.2	19483
819.341	19537
819.481	19628
819.622	19727
819.762	19978
819.903	19906
820.043	19780
820.184	19738
820.324	19765
820.465	19681
820.605	19704
820.746	19818
820.886	19480
821.026	19632
821.167	19719
821.307	19556
821.447	19480
821.588	19495
821.728	19320
821.868	19247
822.008	19164
822.149	19118
822.289	19061
822.429	18932
822.569	18829
822.709	18722
822.849	18604
822.99	18582
823.13	18658
823.27	18642
823.41	18395
823.55	18483
823.69	18338
823.83	18327
823.97	18350
824.11	18197
824.25	18144
824.389	18144
824.529	18213
824.669	18174
824.809	18258
824.949	18296
825.089	18266
825.228	18182
825.368	18011
825.508	17984
825.648	18117
825.787	17950
825.927	18163
826.067	17897
826.206	17920
826.346	18022
826.485	18019
826.625	17984
826.765	17996
826.904	18114
827.044	17779
827.183	17710
827.323	17729
827.462	17726
827.601	17623
827.741	17535
827.88	17714
828.02	17482
828.159	17577
828.298	17638
828.437	17623
828.577	17623
828.716	17794
828.855	17585
828.994	17467
829.134	17334
829.273	17554
829.412	17345
829.551	17376
829.69	17379
829.829	17315
829.968	17463
830.107	17364
830.246	17452
830.385	17360
830.524	17258
830.663	17193
830.802	17113
830.941	16995
831.08	16999
831.219	17113
831.357	17010
831.496	17231
831.635	17048
831.774	16881
831.913	16911
832.051	16847
832.19	16847
832.329	16854
832.467	16793
832.606	16618
832.744	16596
832.883	16717
833.022	16679
833.16	16740
833.299	16733
833.437	16698
833.576	16721
833.714	16683
833.852	16782
833.991	16816
834.129	16755
834.267	16824
834.406	16713
834.544	16786
834.682	16812
834.821	16740
834.959	16869
835.097	16778
835.235	16812
835.373	16706
835.511	16790
835.65	16733
835.788	16717
835.926	16512
836.064	16440
836.202	16421
836.34	16824
836.478	16698
836.615	16649
836.753	16660
836.891	16725
837.029	16694
837.167	16592
837.305	16599
837.443	16489
837.58	16538
837.718	16497
837.856	16421
837.993	16573
838.131	16592
838.269	16402
838.406	16516
838.544	16417
838.681	16299
838.819	16158
838.956	16185
839.094	16067
839.231	16017
839.369	16147
839.506	16558
839.643	16344
839.781	16097
839.918	16021
840.055	16048
840.193	16032
840.33	16116
840.467	16150
840.604	16135
840.742	16398
840.879	15945
841.016	16120
841.153	16021
841.29	16314
841.427	16124
841.564	16044
841.701	16109
841.838	16051
841.975	15888
842.112	15987
842.249	15842
842.385	15812
842.522	16021
842.659	15800
842.796	15789
842.933	15922
843.069	15842
843.206	15899
843.343	15975
843.479	15808
843.616	15888
843.752	15629
843.889	15663
844.025	15759
844.162	15584
844.298	15797
844.435	15595
844.571	15553
844.708	15584
844.844	15785
844.98	15785
845.117	15705
845.253	15545
845.389	15485
845.525	15519
845.661	15572
845.798	15424
845.934	15492
846.07	15435
846.206	15462
846.342	15606
846.478	15374
846.614	15401
846.75	15074
846.886	15093
847.022	15291
847.158	15348
847.294	15104
847.429	15264
847.565	15192
847.701	15447
847.837	14921
847.972	14899
848.108	15085
848.244	15058
848.379	14872
848.515	14785
848.65	14758
848.786	14781
848.921	14819
849.057	14937
849.192	15017
849.328	14853
849.463	14811
849.598	14800
849.734	14792
849.869	14781
850.004	14533
850.14	14583
850.275	14552
850.41	14438
850.545	14552
850.68	14514
850.815	14636
850.95	14465
851.085	14724
851.22	14670
851.355	14522
851.49	14568
851.625	14511
851.76	14511
851.895	14518
852.03	14473
852.165	14499
852.299	14583
852.434	14606
852.569	14663
852.703	14621
852.838	14610
852.973	14689
853.107	14670
853.242	14530
853.376	14454
853.511	14313
853.645	14324
853.78	14533
853.914	14412
854.048	14438
854.183	14499
854.317	14511
854.451	14655
854.585	14370
854.72	14374
854.854	14488
854.988	14423
855.122	14389
855.256	14286
855.39	14431
855.524	14568
855.658	14511
855.792	14465
855.926	14549
856.06	14484
856.194	14549
856.327	14454
856.461	14294
856.595	14313
856.729	14431
856.862	14610
856.996	14442
857.13	14499
857.263	14503
857.397	14533
857.53	14370
857.664	14457
857.797	14522
857.931	14522
858.064	14518
858.197	14526
858.331	14473
858.464	14377
858.597	14351
858.731	14465
858.864	14347
858.997	14476
859.13	14446
859.263	14488
859.396	14526
859.529	14408
859.662	14355
859.795	14351
859.928	14465
860.061	14648
860.194	14667
860.327	14488
860.46	14461
860.592	14469
860.725	14549
860.858	14507
860.99	14415
861.123	14412
861.256	14336
861.388	14495
861.521	15070
861.653	14275
861.786	14271
861.918	14301
862.05	14374
862.183	14446
862.315	14442
862.447	14476
862.58	14328
862.712	14210
862.844	14134
862.976	14237
863.108	14275
863.24	14530
863.372	14111
863.504	14149
863.636	14172
863.768	14210
863.9	14263
864.032	14126
864.164	14126
864.296	14225
864.428	14347
864.559	14309
864.691	14267
864.823	14351
864.954	14290
865.086	14275
865.217	14202
865.349	14149
865.48	14088
865.612	14282
865.743	14389
865.875	14252
866.006	14069
866.137	14199
866.269	14161
866.4	14058
866.531	14191
866.662	14100
866.793	14077
866.924	14142
867.055	14298
867.186	14191
867.317	14168
867.448	14103
867.579	14103
867.71	14161
867.841	14088
867.972	14195
868.103	14092
868.233	14233
868.364	14123
868.495	14172
868.625	14377
868.756	14564
868.886	14298
869.017	14400
869.147	14552
869.278	14507
869.408	14427
869.539	14503
869.669	14549
869.799	14461
869.929	14522
870.06	14526
870.19	14868
870.32	14716
870.45	14826
870.58	14857
870.71	14994
870.84	14902
870.97	14876
871.1	14811
871.23	14960
871.36	15017
871.489	14979
871.619	14994
871.749	15009
871.879	15009
872.008	15108
872.138	15112
872.267	15009
872.397	14906
872.526	14902
872.656	14781
872.785	14796
872.915	14971
873.044	15104
873.173	14960
873.303	15062
873.432	15165
873.561	15138
873.69	15127
873.819	15135
873.948	15135
874.077	15135
874.206	15039
874.335	15089
874.464	15252
874.593	15370
874.722	15389
874.851	15386
874.979	15466
875.108	15454
875.237	15325
875.365	15298
875.494	15313
875.623	15454
875.751	15374
875.88	15469
876.008	15591
876.136	15572
876.265	15739
876.393	15964
876.521	15922
876.65	15842
876.778	15869
876.906	15838
877.034	15755
877.162	15762
877.29	15637
877.418	15759
877.546	15838
877.674	15857
877.802	15934
877.93	15823
878.058	15804
878.185	15736
878.313	15743
878.441	15869
878.568	15671
878.696	15755
878.824	15884
878.951	15899
879.079	16025
879.206	16063
879.333	16051
879.461	15831
879.588	15945
879.715	15979
879.842	16112
879.97	15956
880.097	15561
880.224	15606
880.351	15660
880.478	15762
880.605	15656
880.732	15759
880.859	15865
880.986	15660
881.112	15644
881.239	15477
881.366	15542
881.493	15298
881.619	15329
881.746	15302
881.872	15336
881.999	15283
882.125	15241
882.252	15405
882.378	15249
882.505	15504
882.631	15207
882.757	15150
882.883	15306
883.01	15138
883.136	15028
883.262	14994
883.388	14921
883.514	15146
883.64	15150
883.766	14994
883.892	14921
884.018	14921
884.143	15039
884.269	15199
884.395	14918
884.52	14796
884.646	14845
884.772	14826
884.897	14708
885.023	14792
885.148	14849
885.274	14975
885.399	14918
885.524	14792
885.65	14849
885.775	14830
885.9	14788
886.025	14857
886.15	14960
886.275	14815
886.4	14697
886.525	14872
886.65	14777
886.775	14819
886.9	14830
887.025	15028
887.149	14819
887.274	14689
887.399	14655
887.523	14682
887.648	14590
887.773	14651
887.897	14785
888.021	14693
888.146	14564
888.27	14724
888.395	14731
888.519	14678
888.643	14788
888.767	14762
888.891	14545
889.015	14564
889.139	14507
889.263	14552
889.387	14594
889.511	14724
889.635	14701
889.759	14530
889.883	14579
890.006	14454
890.13	14659
890.254	14473
890.377	14457
890.501	14408
890.624	14339
890.748	14484
890.871	14355
890.995	14168
891.118	14062
891.241	14286
891.364	14225
891.488	14351
891.611	14252
891.734	14237
891.857	14259
891.98	14237
892.103	14396
892.226	14221
892.349	14221
892.471	14092
892.594	14229
892.717	14206
892.839	14221
892.962	14202
893.085	14233
893.207	14195
893.33	14119
893.452	14149
893.575	14199
893.697	14248
893.819	14454
893.941	14374
894.064	14374
894.186	14191
894.308	14210
894.43	14324
894.552	14423
894.674	14370
894.796	14187
894.918	14256
895.04	14271
895.161	14374
895.283	14385
895.405	14233
895.526	14339
895.648	14271
895.769	14328
895.891	14404
896.012	14355
896.134	14351
896.255	14347
896.376	14263
896.498	14419
896.619	14412
896.74	14301
896.861	14450
896.982	14648
897.103	14826
897.224	14625
897.345	14720
897.466	14514
897.587	14754
897.708	14796
897.828	14739
897.949	14636
898.07	14514
898.19	14667
898.311	14868
898.431	14594
898.552	14769
898.672	14785
898.792	14838
898.913	14804
899.033	14750
899.153	14522
899.273	14518
899.393	14541
899.513	14644
899.633	14610
899.753	14682
899.873	14495
899.993	14686
900.113	14575
900.232	14598
900.352	14549
900.472	14499
900.591	14511
900.711	14419
900.83	14511
900.95	14579
901.069	14518
901.189	14419
901.308	14187
901.427	14134
901.546	14096
901.665	14130
901.784	14180
901.904	14020
902.023	13833
902.141	13738
902.26	13636
902.379	13791
902.498	13655
902.617	13651
902.735	13742
902.854	13666
902.973	13639
903.091	13426
903.21	13468
903.328	13426
903.446	13293
903.565	13312
903.683	13270
903.801	13217
903.919	13209
904.038	13244
904.156	13103
904.274	13175
904.392	13069
904.51	13095
904.627	13050
904.745	13114
904.863	13091
904.981	12878
905.098	12776
905.216	12696
905.334	12768
905.451	12829
905.569	12726
905.686	12848
905.803	12776
905.921	12551
906.038	12627
906.155	12585
906.272	12475
906.389	12525
906.506	12460
906.623	12323
906.74	12372
906.857	12243
906.974	12258
907.091	12407
907.208	12536
907.324	12376
907.441	12205
907.557	12106
907.674	12095
907.79	11958
907.907	12091
908.023	12057
908.139	12072
908.256	11969
908.372	12041
908.488	11939
908.604	11840
908.72	11863
908.836	11809
908.952	11821
909.068	11851
909.184	12015
909.3	11882
909.415	11980
909.531	11923
909.647	11623
909.762	11600
909.878	11570
909.993	11638
910.108	11604
910.224	11551
910.339	11688
910.454	11459
910.57	11516
910.685	11391
910.8	11733
910.915	11642
911.03	11486
911.145	11322
911.259	11265
911.374	11360
911.489	11258
911.604	11242
911.718	11056
911.833	11075
911.947	10984
912.062	10900
912.176	11071
912.291	11094
912.405	11086
912.519	11258
912.633	11288
912.748	11147
912.862	11117
912.976	11022
913.09	10858
913.204	10949
913.318	10976
913.431	11029
913.545	10953
913.659	11117
913.772	10999
913.886	10790
914	10748
914.113	10942
914.226	10946
914.34	10995
914.453	10824
914.566	10919
914.68	10801
914.793	10778
914.906	10637
915.019	10599
915.132	10516
915.245	10599
915.358	10565
915.47	10641
915.583	10615
915.696	10668
915.809	10702
915.921	10767
916.034	10538
916.146	10592
916.259	10504
916.371	10649
916.483	10630
916.595	10455
916.708	10527
916.82	10569
916.932	10474
917.044	10527
917.156	10584
917.268	10348
917.38	10459
917.491	10440
917.603	10440
917.715	10504
917.826	10519
917.938	10440
918.049	10276
918.161	10409
918.272	10615
918.384	10569
918.495	10497
918.606	10352
918.717	10257
918.828	10352
918.939	10280
919.05	10261
919.161	10253
919.272	10059
919.383	10173
919.494	10325
919.604	10485
919.715	10325
919.826	10169
919.936	10246
920.047	10360
920.157	10299
920.267	10531
920.378	10333
920.488	10325
920.598	10462
920.708	10679
920.818	10466
920.928	10546
921.038	10740
921.148	10675
921.258	10306
921.368	10242
921.477	10135
921.587	10097
921.697	10051
921.806	10154
921.916	9983
922.025	9884
922.134	9865
922.244	9850
922.353	9956
922.462	9778
922.571	9667
922.68	9538
922.789	9523
922.898	9629
923.007	9469
923.116	9584
923.224	9576
923.333	9557
923.442	9454
923.55	9439
923.659	9462
923.767	9485
923.876	9355
923.984	9469
924.092	9348
924.201	9370
924.309	9401
924.417	9355
924.525	9382
924.633	9447
924.741	10280
924.849	9173
924.956	9393
925.064	9154
925.172	9119
925.279	9150
925.387	9222
925.494	9180
925.602	9317
925.709	9294
925.816	9161
925.924	9203
926.031	9272
926.138	9199
926.245	9169
926.352	9138
926.459	9230
926.566	9260
926.673	9131
926.779	9077
926.886	9085
926.993	8914
927.099	8899
927.206	8868
927.312	8811
927.419	8914
927.525	8849
927.631	8918
927.737	8819
927.843	8788
927.95	8636
928.056	8804
928.162	8796
928.267	8853
928.373	9466
928.479	8883
928.585	8686
928.69	8754
928.796	8845
928.901	8689
929.007	8644
929.112	8754
929.218	8754
929.323	8632
929.428	8674
929.533	8739
929.638	8598
929.743	8594
929.848	8651
929.953	8610
930.058	8511
930.163	8351
930.267	8408
930.372	8564
930.477	8301
930.581	8564
930.685	8469
930.79	8351
930.894	8396
930.998	8290
931.103	8476
931.207	8134
931.311	8088
931.415	8012
931.519	7856
931.623	7856
