Data from test_V78500241_2702.txt Node
Date: Fri Mar 25 14:52:31 CST 2022
User: usil
Spectrometer: V785-0024
Trigger mode: 0
Integration Time (sec): 4.000000E-1
Scans to average: 1
Nonlinearity correction enabled: false
Boxcar width: 0
Storing dark spectrum: false
XAxis mode: Wavelengths
Number of Pixels in Spectrum: 1024
>>>>>Begin Spectral Data<<<<<
801.071	21865
801.214	21857
801.356	21633
801.499	21618
801.641	21329
801.783	21348
801.926	21401
802.068	21317
802.211	21268
802.353	21192
802.496	20994
802.638	20918
802.78	20918
802.923	20781
803.065	20651
803.208	20727
803.35	20796
803.492	20750
803.635	20765
803.777	20674
803.919	20804
804.061	21085
804.204	20765
804.346	20693
804.488	20648
804.63	20705
804.773	20590
804.915	20697
805.057	20804
805.199	20537
805.341	20781
805.483	20769
805.626	20724
805.768	20697
805.91	20564
806.052	20659
806.194	20552
806.336	20708
806.478	20560
806.62	20644
806.762	20629
806.904	20857
807.046	21104
807.188	20971
807.33	20929
807.472	21077
807.614	20796
807.756	20914
807.898	20670
808.04	20701
808.182	20735
808.324	20674
808.465	20823
808.607	20861
808.749	20986
808.891	21051
809.033	21230
809.174	21123
809.316	20921
809.458	20899
809.6	20952
809.741	20979
809.883	20994
810.025	21047
810.166	21180
810.308	21157
810.45	21268
810.591	21043
810.733	20792
810.875	20693
811.016	20678
811.158	20682
811.299	20823
811.441	20899
811.582	20956
811.724	20670
811.865	20743
812.007	20667
812.148	20701
812.29	20807
812.431	20967
812.573	21047
812.714	21081
812.855	21245
812.997	21272
813.138	21348
813.279	21161
813.421	21249
813.562	21241
813.703	21112
813.845	20849
813.986	20636
814.127	20526
814.268	20431
814.41	20355
814.551	20294
814.692	20457
814.833	20134
814.974	20244
815.115	20275
815.256	20084
815.397	20183
815.539	20142
815.68	20024
815.821	20103
815.962	20100
816.103	19959
816.244	19833
816.385	19799
816.526	19727
816.666	19655
816.807	19350
816.948	19563
817.089	19480
817.23	19502
817.371	19510
817.512	19502
817.653	19491
817.793	19327
817.934	19373
818.075	19518
818.216	19350
818.356	19343
818.497	19285
818.638	19213
818.778	19183
818.919	19145
819.06	19145
819.2	19168
819.341	19240
819.481	19365
819.622	19483
819.762	19571
819.903	19548
820.043	19502
820.184	19350
820.324	19457
820.465	19521
820.605	19438
820.746	19381
820.886	19194
821.026	19251
821.167	19354
821.307	19472
821.447	19289
821.588	19240
821.728	19099
821.868	18989
822.008	18897
822.149	18825
822.289	18882
822.429	18494
822.569	18582
822.709	18448
822.849	18342
822.99	18426
823.13	18304
823.27	18235
823.41	18220
823.55	18091
823.69	18174
823.83	18121
823.97	18015
824.11	17866
824.25	17988
824.389	17802
824.529	17885
824.669	17878
824.809	17996
824.949	18011
825.089	18030
825.228	17866
825.368	17680
825.508	17680
825.648	17741
825.787	17729
825.927	17676
826.067	17653
826.206	17592
826.346	17661
826.485	17676
826.625	17714
826.765	17783
826.904	17672
827.044	17573
827.183	17376
827.323	17284
827.462	17505
827.601	17353
827.741	17421
827.88	17349
828.02	17330
828.159	17334
828.298	17448
828.437	17414
828.577	17391
828.716	17501
828.855	17254
828.994	17155
829.134	17102
829.273	17162
829.412	17102
829.551	17098
829.69	17174
829.829	17208
829.968	17193
830.107	17189
830.246	17204
830.385	17033
830.524	16965
830.663	16934
830.802	16847
830.941	16755
831.08	16755
831.219	16854
831.357	16713
831.496	16987
831.635	16740
831.774	16717
831.913	16668
832.051	16588
832.19	16599
832.329	16558
832.467	16348
832.606	16371
832.744	16462
832.883	16386
833.022	16390
833.16	16474
833.299	16542
833.437	16440
833.576	16607
833.714	16466
833.852	16519
833.991	16584
834.129	16607
834.267	16573
834.406	16478
834.544	16474
834.682	16550
834.821	16440
834.959	16740
835.097	16455
835.235	16561
835.373	16428
835.511	16584
835.65	16417
835.788	16413
835.926	16363
836.064	16181
836.202	16253
836.34	16440
836.478	16558
836.615	16367
836.753	16485
836.891	16504
837.029	16554
837.167	16314
837.305	16268
837.443	16394
837.58	16242
837.718	16367
837.856	16303
837.993	16226
838.131	16295
838.269	16261
838.406	16211
838.544	16173
838.681	15983
838.819	16025
838.956	15895
839.094	15846
839.231	15838
839.369	16002
839.506	16223
839.643	15987
839.781	15869
839.918	15785
840.055	15850
840.193	15926
840.33	15660
840.467	15880
840.604	15964
840.742	15998
840.879	15793
841.016	15797
841.153	15854
841.29	16029
841.427	15827
841.564	15838
841.701	15778
841.838	15743
841.975	15793
842.112	15762
842.249	15736
842.385	15656
842.522	15781
842.659	15667
842.796	15618
842.933	15610
843.069	15564
843.206	15584
843.343	15671
843.479	15625
843.616	15717
843.752	15469
843.889	15420
844.025	15606
844.162	15405
844.298	15504
844.435	15359
844.571	15397
844.708	15386
844.844	15488
844.98	15610
845.117	15477
845.253	15344
845.389	15336
845.525	15363
845.661	15260
845.798	15195
845.934	15241
846.07	15260
846.206	15264
846.342	15363
846.478	15138
846.614	15017
846.75	14979
846.886	14963
847.022	15127
847.158	14982
847.294	14963
847.429	15032
847.565	14944
847.701	15230
847.837	14849
847.972	14674
848.108	14830
848.244	14777
848.379	14655
848.515	14583
848.65	14518
848.786	14533
848.921	14571
849.057	14659
849.192	14674
849.328	14594
849.463	14549
849.598	14549
849.734	14533
849.869	14404
850.004	14393
850.14	14366
850.275	14362
850.41	14290
850.545	14366
850.68	14423
850.815	14377
850.95	14275
851.085	14533
851.22	14454
851.355	14351
851.49	14317
851.625	14393
851.76	14298
851.895	14221
852.03	14191
852.165	14286
852.299	14381
852.434	14423
852.569	14324
852.703	14404
852.838	14381
852.973	14522
853.107	14518
853.242	14259
853.376	14248
853.511	14073
853.645	14214
853.78	14408
853.914	14248
854.048	14233
854.183	14210
854.317	14240
854.451	14370
854.585	14240
854.72	14248
854.854	14278
854.988	14237
855.122	14199
855.256	14096
855.39	14180
855.524	14328
855.658	14237
855.792	14305
855.926	14278
856.06	14259
856.194	14237
856.327	14172
856.461	14180
856.595	14183
856.729	14195
856.862	14286
856.996	14317
857.13	14259
857.263	14366
857.397	14339
857.53	14180
857.664	14248
857.797	14377
857.931	14351
858.064	14240
858.197	14396
858.331	14206
858.464	14202
858.597	14119
858.731	14225
858.864	14172
858.997	14225
859.13	14221
859.263	14267
859.396	14324
859.529	14256
859.662	14134
859.795	14172
859.928	14263
860.061	14400
860.194	14389
860.327	14244
860.46	14343
860.592	14263
860.725	14347
860.858	14355
860.99	14263
861.123	14271
861.256	14107
861.388	14218
861.521	14887
861.653	14100
861.786	14035
861.918	14012
862.05	14073
862.183	14210
862.315	14248
862.447	14294
862.58	14107
862.712	13997
862.844	13909
862.976	14081
863.108	14092
863.24	14514
863.372	13902
863.504	13951
863.636	14046
863.768	14092
863.9	13951
864.032	14008
864.164	14001
864.296	14024
864.428	14012
864.559	14065
864.691	14126
864.823	13993
864.954	14062
865.086	14005
865.217	14001
865.349	13913
865.48	14008
865.612	14046
865.743	14138
865.875	13959
866.006	14020
866.137	14050
866.269	14012
866.4	13989
866.531	13936
866.662	13898
866.793	13959
866.924	13871
867.055	14046
867.186	14005
867.317	13883
867.448	13849
867.579	14005
867.71	13887
867.841	13784
867.972	13967
868.103	13967
868.233	14054
868.364	14088
868.495	14111
868.625	14149
868.756	14305
868.886	14092
869.017	14164
869.147	14290
869.278	14328
869.408	14290
869.539	14252
869.669	14275
869.799	14271
869.929	14351
870.06	14393
870.19	14507
870.32	14514
870.45	14495
870.58	14693
870.71	14773
870.84	14739
870.97	14644
871.1	14625
871.23	14746
871.36	14857
871.489	14678
871.619	14872
871.749	14800
871.879	14849
872.008	14921
872.138	14849
872.267	14826
872.397	14705
872.526	14659
872.656	14632
872.785	14701
872.915	14864
873.044	14971
873.173	14872
873.303	14914
873.432	14842
873.561	14982
873.69	14929
873.819	14861
873.948	14975
874.077	14864
874.206	14815
874.335	14921
874.464	15005
874.593	15203
874.722	15074
874.851	15195
874.979	15192
875.108	15222
875.237	15173
875.365	15093
875.494	15188
875.623	15222
875.751	15192
875.88	15233
876.008	15443
876.136	15500
876.265	15644
876.393	15850
876.521	15701
876.65	15675
876.778	15759
876.906	15614
877.034	15587
877.162	15622
877.29	15568
877.418	15542
877.546	15629
877.674	15576
877.802	15599
877.93	15515
878.058	15561
878.185	15492
878.313	15545
878.441	15709
878.568	15435
878.696	15561
878.824	15720
878.951	15663
879.079	15880
879.206	15869
879.333	15755
879.461	15633
879.588	15717
879.715	15804
879.842	15934
879.97	15747
880.097	15488
880.224	15416
880.351	15462
880.478	15534
880.605	15408
880.732	15469
880.859	15762
880.986	15530
881.112	15397
881.239	15325
881.366	15214
881.493	15150
881.619	15135
881.746	15192
881.872	15055
881.999	14918
882.125	15108
882.252	15195
882.378	15184
882.505	15279
882.631	15173
882.757	14948
882.883	15009
883.01	14845
883.136	14971
883.262	14834
883.388	14788
883.514	15009
883.64	15017
883.766	14918
883.892	14777
884.018	14788
884.143	14933
884.269	15058
884.395	14807
884.52	14636
884.646	14701
884.772	14590
884.897	14564
885.023	14686
885.148	14731
885.274	14754
885.399	14689
885.524	14610
885.65	14640
885.775	14697
885.9	14678
886.025	14735
886.15	14689
886.275	14625
886.4	14568
886.525	14533
886.65	14621
886.775	14564
886.9	14773
887.025	14845
887.149	14712
887.274	14488
887.399	14362
887.523	14465
887.648	14400
887.773	14454
887.897	14556
888.021	14552
888.146	14393
888.27	14640
888.395	14670
888.519	14575
888.643	14541
888.767	14583
888.891	14457
889.015	14290
889.139	14347
889.263	14385
889.387	14503
889.511	14450
889.635	14389
889.759	14408
889.883	14309
890.006	14381
890.13	14450
890.254	14271
890.377	14351
890.501	14092
890.624	14115
890.748	14187
890.871	14191
890.995	14077
891.118	13932
891.241	14020
891.364	14081
891.488	14187
891.611	14027
891.734	13970
891.857	14107
891.98	14035
892.103	14119
892.226	14145
892.349	13913
892.471	13936
892.594	13963
892.717	14054
892.839	14054
892.962	14130
893.085	14058
893.207	14046
893.33	13967
893.452	13947
893.575	14069
893.697	14031
893.819	14111
893.941	14286
894.064	14214
894.186	14031
894.308	14031
894.43	14126
894.552	14187
894.674	14240
894.796	14012
894.918	14199
895.04	14058
895.161	14126
895.283	14195
895.405	14126
895.526	14221
895.648	14088
895.769	14267
895.891	14271
896.012	14210
896.134	14202
896.255	14195
896.376	14176
896.498	14290
896.619	14240
896.74	14259
896.861	14195
896.982	14564
897.103	14655
897.224	14632
897.345	14473
897.466	14370
897.587	14514
897.708	14598
897.828	14556
897.949	14366
898.07	14351
898.19	14484
898.311	14644
898.431	14537
898.552	14556
898.672	14556
898.792	14724
898.913	14571
899.033	14514
899.153	14351
899.273	14362
899.393	14415
899.513	14461
899.633	14431
899.753	14434
899.873	14415
899.993	14522
900.113	14404
900.232	14389
900.352	14454
900.472	14374
900.591	14294
900.711	14355
900.83	14263
900.95	14393
901.069	14415
901.189	14199
901.308	14054
901.427	13940
901.546	14081
901.665	14043
901.784	13925
901.904	13887
902.023	13811
902.141	13506
902.26	13487
902.379	13605
902.498	13472
902.617	13434
902.735	13571
902.854	13525
902.973	13445
903.091	13259
903.21	13244
903.328	13289
903.446	13171
903.565	13187
903.683	13069
903.801	13088
903.919	12985
904.038	12989
904.156	12996
904.274	13050
904.392	12840
904.51	12928
904.627	12970
904.745	12947
904.863	12905
904.981	12692
905.098	12570
905.216	12589
905.334	12623
905.451	12677
905.569	12623
905.686	12719
905.803	12582
905.921	12471
906.038	12540
906.155	12456
906.272	12235
906.389	12323
906.506	12159
906.623	12178
906.74	12220
906.857	12030
906.974	12064
907.091	12277
907.208	12296
907.324	12300
907.441	12129
907.557	11977
907.674	11942
907.79	11859
907.907	11920
908.023	11885
908.139	11984
908.256	11973
908.372	11935
908.488	11885
908.604	11779
908.72	11672
908.836	11718
908.952	11600
909.068	11691
909.184	11783
909.3	11741
909.415	11756
909.531	11646
909.647	11600
909.762	11486
909.878	11482
909.993	11501
910.108	11436
910.224	11402
910.339	11467
910.454	11425
910.57	11250
910.685	11227
910.8	11619
910.915	11474
911.03	11376
911.145	11231
911.259	11189
911.374	11178
911.489	11128
911.604	11094
911.718	10949
911.833	10934
911.947	10805
912.062	10790
912.176	10934
912.291	10919
912.405	11006
912.519	11140
912.633	11033
912.748	11083
912.862	11025
912.976	10824
913.09	10714
913.204	10778
913.318	10790
913.431	10938
913.545	10839
913.659	10892
913.772	10714
913.886	10710
914	10710
914.113	10733
914.226	10809
914.34	10767
914.453	10577
914.566	10824
914.68	10656
914.793	10653
914.906	10440
915.019	10436
915.132	10363
915.245	10436
915.358	10519
915.47	10413
915.583	10569
915.696	10462
915.809	10596
915.921	10512
916.034	10405
916.146	10398
916.259	10398
916.371	10413
916.483	10485
916.595	10474
916.708	10440
916.82	10394
916.932	10367
917.044	10413
917.156	10375
917.268	10295
917.38	10360
917.491	10325
917.603	10341
917.715	10474
917.826	10443
917.938	10257
918.049	10200
918.161	10371
918.272	10470
918.384	10413
918.495	10424
918.606	10147
918.717	10154
918.828	10196
918.939	10295
919.05	10131
919.161	10063
919.272	10048
919.383	10093
919.494	10257
919.604	10462
919.715	10257
919.826	10063
919.936	10192
920.047	10295
920.157	10265
920.267	10424
920.378	10261
920.488	10249
920.598	10451
920.708	10535
920.818	10466
920.928	10413
921.038	10588
921.148	10561
921.258	10234
921.368	10200
921.477	10086
921.587	10158
921.697	10044
921.806	10063
921.916	10025
922.025	9903
922.134	9762
922.244	9728
922.353	9804
922.462	9637
922.571	9584
922.68	9485
922.789	9405
922.898	9424
923.007	9412
923.116	9515
923.224	9477
923.333	9405
923.442	9401
923.55	9272
923.659	9370
923.767	9500
923.876	9332
923.984	9382
924.092	9298
924.201	9291
924.309	9317
924.417	9424
924.525	9260
924.633	9310
924.741	10002
924.849	9100
924.956	9363
925.064	9081
925.172	8994
925.279	9108
925.387	9180
925.494	9180
925.602	9253
925.709	9199
925.816	9043
925.924	9131
926.031	9275
926.138	9138
926.245	9165
926.352	9043
926.459	9161
926.566	9310
926.673	9100
926.779	8979
926.886	8952
926.993	8868
927.099	8910
927.206	8800
927.312	8773
927.419	8785
927.525	8864
927.631	8914
927.737	8807
927.843	8720
927.95	8674
928.056	8705
928.162	8750
928.267	8853
928.373	9439
928.479	8788
928.585	8613
928.69	8739
928.796	8826
928.901	8716
929.007	8526
929.112	8648
929.218	8670
929.323	8560
929.428	8552
929.533	8663
929.638	8492
929.743	8560
929.848	8602
929.953	8606
930.058	8461
930.163	8294
930.267	8374
930.372	8465
930.477	8305
930.581	8473
930.685	8412
930.79	8301
930.894	8267
930.998	8256
931.103	8431
931.207	8111
931.311	8058
931.415	8001
931.519	7776
931.623	7738
