Data from test_V78500241_3717.txt Node
Date: Fri Mar 25 14:59:36 CST 2022
User: usil
Spectrometer: V785-0024
Trigger mode: 0
Integration Time (sec): 4.000000E-1
Scans to average: 1
Nonlinearity correction enabled: false
Boxcar width: 0
Storing dark spectrum: false
XAxis mode: Wavelengths
Number of Pixels in Spectrum: 1024
>>>>>Begin Spectral Data<<<<<
801.071	21884
801.214	21800
801.356	21564
801.499	21458
801.641	21287
801.783	21218
801.926	21249
802.068	21249
802.211	21188
802.353	21028
802.496	20743
802.638	20746
802.78	20670
802.923	20762
803.065	20590
803.208	20385
803.35	20568
803.492	20724
803.635	20796
803.777	20537
803.919	20678
804.061	21017
804.204	20781
804.346	20549
804.488	20457
804.63	20526
804.773	20484
804.915	20415
805.057	20590
805.199	20507
805.341	20583
805.483	20663
805.626	20522
805.768	20366
805.91	20579
806.052	20552
806.194	20492
806.336	20598
806.478	20457
806.62	20488
806.762	20549
806.904	20720
807.046	20834
807.188	20849
807.33	20815
807.472	20845
807.614	20762
807.756	20891
807.898	20678
808.04	20484
808.182	20499
808.324	20442
808.465	20579
808.607	20800
808.749	20750
808.891	21074
809.033	21169
809.174	21005
809.316	20746
809.458	20849
809.6	20735
809.741	20819
809.883	20811
810.025	20944
810.166	20994
810.308	21074
810.45	20948
810.591	20838
810.733	20765
810.875	20598
811.016	20511
811.158	20549
811.299	20575
811.441	20735
811.582	20648
811.724	20636
811.865	20434
812.007	20480
812.148	20533
812.29	20682
812.431	20788
812.573	20868
812.714	21009
812.855	21104
812.997	21226
813.138	21294
813.279	21135
813.421	21089
813.562	21028
813.703	20724
813.845	20746
813.986	20427
814.127	20282
814.268	20252
814.41	20240
814.551	20126
814.692	20142
814.833	20073
814.974	20092
815.115	20138
815.256	20001
815.397	20008
815.539	20065
815.68	19909
815.821	19826
815.962	19868
816.103	19856
816.244	19712
816.385	19559
816.526	19681
816.666	19457
816.807	19244
816.948	19331
817.089	19320
817.23	19297
817.371	19270
817.512	19274
817.653	19232
817.793	19152
817.934	19225
818.075	19255
818.216	19308
818.356	19232
818.497	19107
818.638	18779
818.778	18909
818.919	18859
819.06	18962
819.2	19046
819.341	19046
819.481	19209
819.622	19236
819.762	19426
819.903	19419
820.043	19335
820.184	19331
820.324	19198
820.465	19255
820.605	19168
820.746	19240
820.886	18947
821.026	19240
821.167	19217
821.307	19282
821.447	19152
821.588	19057
821.728	18863
821.868	18867
822.008	18578
822.149	18741
822.289	18559
822.429	18479
822.569	18506
822.709	18399
822.849	18129
822.99	18178
823.13	18133
823.27	18057
823.41	18003
823.55	17942
823.69	17931
823.83	17916
823.97	17855
824.11	17805
824.25	17733
824.389	17809
824.529	17733
824.669	17718
824.809	17840
824.949	17821
825.089	17790
825.228	17710
825.368	17551
825.508	17512
825.648	17570
825.787	17509
825.927	17596
826.067	17478
826.206	17486
826.346	17421
826.485	17516
826.625	17524
826.765	17619
826.904	17543
827.044	17277
827.183	17246
827.323	17181
827.462	17208
827.601	17117
827.741	17121
827.88	17147
828.02	17037
828.159	17151
828.298	17261
828.437	17242
828.577	17147
828.716	17273
828.855	17102
828.994	17003
829.134	16911
829.273	16953
829.412	16984
829.551	16862
829.69	17033
829.829	16938
829.968	17147
830.107	16968
830.246	16949
830.385	16869
830.524	16862
830.663	16778
830.802	16679
830.941	16542
831.08	16634
831.219	16698
831.357	16660
831.496	16740
831.635	16634
831.774	16447
831.913	16561
832.051	16337
832.19	16325
832.329	16478
832.467	16360
832.606	16162
832.744	16166
832.883	16284
833.022	16314
833.16	16303
833.299	16318
833.437	16284
833.576	16367
833.714	16303
833.852	16291
833.991	16432
834.129	16428
834.267	16382
834.406	16352
834.544	16341
834.682	16432
834.821	16322
834.959	16546
835.097	16268
835.235	16417
835.373	16405
835.511	16413
835.65	16276
835.788	16352
835.926	16101
836.064	16097
836.202	16002
836.34	16226
836.478	16341
836.615	16226
836.753	16394
836.891	16322
837.029	16398
837.167	16223
837.305	16124
837.443	16166
837.58	16154
837.718	16204
837.856	16188
837.993	16116
838.131	16162
838.269	16051
838.406	16025
838.544	15956
838.681	15945
838.819	15778
838.956	15698
839.094	15709
839.231	15793
839.369	15816
839.506	16131
839.643	15991
839.781	15736
839.918	15682
840.055	15770
840.193	15660
840.33	15599
840.467	15705
840.604	15644
840.742	15972
840.879	15526
841.016	15671
841.153	15599
841.29	15724
841.427	15747
841.564	15808
841.701	15701
841.838	15644
841.975	15542
842.112	15557
842.249	15492
842.385	15515
842.522	15644
842.659	15584
842.796	15500
842.933	15534
843.069	15462
843.206	15408
843.343	15526
843.479	15439
843.616	15462
843.752	15336
843.889	15226
844.025	15397
844.162	15214
844.298	15420
844.435	15214
844.571	15249
844.708	15279
844.844	15386
844.98	15351
845.117	15355
845.253	15249
845.389	15192
845.525	15241
845.661	15233
845.798	15009
845.934	15154
846.07	15020
846.206	15028
846.342	15169
846.478	15062
846.614	14925
846.75	14746
846.886	14853
847.022	14990
847.158	14724
847.294	14902
847.429	14864
847.565	14716
847.701	15135
847.837	14655
847.972	14507
848.108	14648
848.244	14594
848.379	14549
848.515	14423
848.65	14511
848.786	14469
848.921	14423
849.057	14602
849.192	14651
849.328	14522
849.463	14507
849.598	14415
849.734	14415
849.869	14286
850.004	14248
850.14	14183
850.275	14259
850.41	14111
850.545	14229
850.68	14191
850.815	14187
850.95	14290
851.085	14381
851.22	14271
851.355	14176
851.49	14157
851.625	14191
851.76	14145
851.895	14043
852.03	14183
852.165	14206
852.299	14206
852.434	14263
852.569	14259
852.703	14202
852.838	14237
852.973	14362
853.107	14275
853.242	14259
853.376	14176
853.511	13993
853.645	13978
853.78	14267
853.914	14107
854.048	14077
854.183	14046
854.317	14084
854.451	14206
854.585	14054
854.72	14084
854.854	14164
854.988	13963
855.122	14027
855.256	13902
855.39	14123
855.524	14195
855.658	14233
855.792	14062
855.926	14206
856.06	14256
856.194	14195
856.327	14100
856.461	13970
856.595	13982
856.729	14027
856.862	14134
856.996	14153
857.13	14259
857.263	14172
857.397	14221
857.53	14088
857.664	14157
857.797	14153
857.931	14088
858.064	14149
858.197	14164
858.331	14008
858.464	14027
858.597	14005
858.731	14103
858.864	14088
858.997	14073
859.13	14126
859.263	14039
859.396	14180
859.529	14035
859.662	14062
859.795	14008
859.928	14123
860.061	14134
860.194	14294
860.327	14046
860.46	14111
860.592	14111
860.725	14240
860.858	14278
860.99	14092
861.123	14005
861.256	14069
861.388	14126
861.521	14705
861.653	13936
861.786	13871
861.918	13921
862.05	14058
862.183	14024
862.315	14005
862.447	14164
862.58	14031
862.712	13906
862.844	13814
862.976	14020
863.108	13932
863.24	14396
863.372	13837
863.504	13913
863.636	13951
863.768	13887
863.9	13902
864.032	13818
864.164	13772
864.296	13883
864.428	14062
864.559	13978
864.691	13890
864.823	13883
864.954	13860
865.086	13951
865.217	13795
865.349	13852
865.48	13845
865.612	13970
865.743	14039
865.875	13959
866.006	13799
866.137	13830
866.269	13944
866.4	13799
866.531	13772
866.662	13811
866.793	13799
866.924	13738
867.055	13883
867.186	13902
867.317	13807
867.448	13780
867.579	13746
867.71	13677
867.841	13689
867.972	13833
868.103	13909
868.233	13841
868.364	13833
868.495	13902
868.625	14081
868.756	14221
868.886	14077
869.017	14062
869.147	14168
869.278	14180
869.408	14123
869.539	14103
869.669	14294
869.799	14202
869.929	14191
870.06	14134
870.19	14415
870.32	14423
870.45	14465
870.58	14514
870.71	14636
870.84	14632
870.97	14469
871.1	14503
871.23	14720
871.36	14674
871.489	14621
871.619	14667
871.749	14804
871.879	14697
872.008	14697
872.138	14720
872.267	14727
872.397	14636
872.526	14492
872.656	14511
872.785	14575
872.915	14651
873.044	14853
873.173	14693
873.303	14823
873.432	14769
873.561	14845
873.69	14804
873.819	14872
873.948	14796
874.077	14735
874.206	14781
874.335	14765
874.464	14891
874.593	15032
874.722	15020
874.851	15180
874.979	15070
875.108	15100
875.237	14941
875.365	14929
875.494	15135
875.623	15127
875.751	15005
875.88	15093
876.008	15252
876.136	15317
876.265	15515
876.393	15698
876.521	15523
876.65	15564
876.778	15538
876.906	15454
877.034	15393
877.162	15454
877.29	15439
877.418	15534
877.546	15488
877.674	15496
877.802	15473
877.93	15538
878.058	15420
878.185	15428
878.313	15466
878.441	15538
878.568	15310
878.696	15359
878.824	15542
878.951	15504
879.079	15751
879.206	15827
879.333	15629
879.461	15553
879.588	15679
879.715	15656
879.842	15838
879.97	15625
880.097	15386
880.224	15382
880.351	15473
880.478	15420
880.605	15435
880.732	15283
880.859	15625
880.986	15386
881.112	15405
881.239	15211
881.366	15074
881.493	15051
881.619	15013
881.746	14948
881.872	14982
881.999	14979
882.125	14918
882.252	14986
882.378	15097
882.505	15146
882.631	14979
882.757	14762
882.883	14845
883.01	14887
883.136	14785
883.262	14701
883.388	14686
883.514	14849
883.64	14910
883.766	14788
883.892	14701
884.018	14689
884.143	14910
884.269	14842
884.395	14507
884.52	14533
884.646	14469
884.772	14492
884.897	14473
885.023	14632
885.148	14644
885.274	14583
885.399	14594
885.524	14545
885.65	14564
885.775	14602
885.9	14514
886.025	14526
886.15	14678
886.275	14473
886.4	14362
886.525	14495
886.65	14389
886.775	14488
886.9	14602
887.025	14743
887.149	14549
887.274	14438
887.399	14381
887.523	14187
887.648	14336
887.773	14328
887.897	14431
888.021	14358
888.146	14442
888.27	14434
888.395	14442
888.519	14374
888.643	14423
888.767	14465
888.891	14351
889.015	14267
889.139	14294
889.263	14237
889.387	14377
889.511	14404
889.635	14351
889.759	14256
889.883	14271
890.006	14275
890.13	14343
890.254	14134
890.377	14149
890.501	14088
890.624	14062
890.748	14081
890.871	13959
890.995	13944
891.118	13879
891.241	13925
891.364	13917
891.488	14046
891.611	13928
891.734	13841
891.857	13970
891.98	13917
892.103	13989
892.226	14062
892.349	14016
892.471	13772
892.594	13883
892.717	13970
892.839	13936
892.962	14005
893.085	14084
893.207	13963
893.33	13830
893.452	13955
893.575	13955
893.697	13944
893.819	14115
893.941	14130
894.064	14092
894.186	13989
894.308	13909
894.43	14062
894.552	14130
894.674	14065
894.796	13917
894.918	14012
895.04	13963
895.161	14134
895.283	14058
895.405	13993
895.526	14046
895.648	14103
895.769	14058
895.891	14153
896.012	14111
896.134	14088
896.255	14088
896.376	14107
896.498	14062
896.619	14214
896.74	14119
896.861	14225
896.982	14408
897.103	14533
897.224	14400
897.345	14347
897.466	14275
897.587	14427
897.708	14454
897.828	14427
897.949	14404
898.07	14214
898.19	14381
898.311	14423
898.431	14370
898.552	14492
898.672	14503
898.792	14503
898.913	14648
899.033	14408
899.153	14294
899.273	14210
899.393	14294
899.513	14328
899.633	14400
899.753	14362
899.873	14290
899.993	14404
900.113	14358
900.232	14332
900.352	14309
900.472	14172
900.591	14142
900.711	14202
900.83	14142
900.95	14317
901.069	14282
901.189	14145
901.308	13875
901.427	13776
901.546	13788
901.665	13921
901.784	13925
901.904	13700
902.023	13723
902.141	13453
902.26	13457
902.379	13476
902.498	13419
902.617	13415
902.735	13419
902.854	13384
902.973	13285
903.091	13107
903.21	13217
903.328	13228
903.446	13126
903.565	12993
903.683	12996
903.801	12924
903.919	13023
904.038	13019
904.156	12791
904.274	12791
904.392	12806
904.51	12757
904.627	12859
904.745	12856
904.863	12840
904.981	12616
905.098	12517
905.216	12460
905.334	12559
905.451	12566
905.569	12502
905.686	12525
905.803	12570
905.921	12266
906.038	12475
906.155	12407
906.272	12213
906.389	12247
906.506	12140
906.623	12102
906.74	12098
906.857	12030
906.974	11939
907.091	12213
907.208	12159
907.324	12136
907.441	12072
907.557	11935
907.674	11824
907.79	11893
907.907	11843
908.023	11931
908.139	11923
908.256	11878
908.372	11809
908.488	11722
908.604	11672
908.72	11592
908.836	11630
908.952	11604
909.068	11547
909.184	11771
909.3	11646
909.415	11726
909.531	11619
909.647	11433
909.762	11303
909.878	11383
909.993	11512
910.108	11364
910.224	11353
910.339	11436
910.454	11315
910.57	11311
910.685	11162
910.8	11463
910.915	11406
911.03	11299
911.145	11128
911.259	11151
911.374	11079
911.489	10999
911.604	10930
911.718	10900
911.833	10782
911.947	10755
912.062	10717
912.176	10816
912.291	10858
912.405	10774
912.519	11086
912.633	11086
912.748	10984
912.862	10881
912.976	10812
913.09	10672
913.204	10679
913.318	10736
913.431	10759
913.545	10812
913.659	10946
913.772	10717
913.886	10656
914	10615
914.113	10698
914.226	10733
914.34	10778
914.453	10512
914.566	10672
914.68	10535
914.793	10546
914.906	10470
915.019	10325
915.132	10329
915.245	10379
915.358	10394
915.47	10341
915.583	10379
915.696	10436
915.809	10478
915.921	10493
916.034	10310
916.146	10280
916.259	10341
916.371	10398
916.483	10352
916.595	10303
916.708	10337
916.82	10360
916.932	10306
917.044	10314
917.156	10299
917.268	10204
917.38	10253
917.491	10120
917.603	10257
917.715	10386
917.826	10242
917.938	10185
918.049	10063
918.161	10188
918.272	10329
918.384	10280
918.495	10227
918.606	10040
918.717	9991
918.828	10097
918.939	10109
919.05	9968
919.161	10097
919.272	9911
919.383	9987
919.494	10192
919.604	10299
919.715	10051
919.826	9983
919.936	10147
920.047	10162
920.157	10112
920.267	10367
920.378	10192
920.488	10105
920.598	10348
920.708	10440
920.818	10352
920.928	10249
921.038	10432
921.148	10409
921.258	10204
921.368	10082
921.477	9975
921.587	9899
921.697	9819
921.806	10036
921.916	9789
922.025	9713
922.134	9705
922.244	9686
922.353	9740
922.462	9584
922.571	9504
922.68	9283
922.789	9336
922.898	9412
923.007	9291
923.116	9389
923.224	9363
923.333	9348
923.442	9260
923.55	9176
923.659	9272
923.767	9332
923.876	9173
923.984	9275
924.092	9176
924.201	9287
924.309	9245
924.417	9283
924.525	9199
924.633	9195
924.741	10147
924.849	9017
924.956	9146
925.064	9081
925.172	8971
925.279	8933
925.387	8998
925.494	9100
925.602	9157
925.709	9169
925.816	8982
925.924	9058
926.031	9127
926.138	9043
926.245	9123
926.352	9013
926.459	9135
926.566	9055
926.673	8998
926.779	8887
926.886	8853
926.993	8750
927.099	8712
927.206	8693
927.312	8720
927.419	8792
927.525	8731
927.631	8773
927.737	8663
927.843	8621
927.95	8549
928.056	8602
928.162	8701
928.267	8689
928.373	9192
928.479	8750
928.585	8556
928.69	8575
928.796	8663
928.901	8590
929.007	8404
929.112	8492
929.218	8530
929.323	8336
929.428	8461
929.533	8537
929.638	8400
929.743	8423
929.848	8514
929.953	8446
930.058	8366
930.163	8202
930.267	8267
930.372	8328
930.477	8214
930.581	8442
930.685	8267
930.79	8176
930.894	8157
930.998	8149
931.103	8298
931.207	7986
931.311	7864
931.415	7833
931.519	7639
931.623	7772
