Data from test_V78500241_2514.txt Node
Date: Fri Mar 25 14:51:13 CST 2022
User: usil
Spectrometer: V785-0024
Trigger mode: 0
Integration Time (sec): 4.000000E-1
Scans to average: 1
Nonlinearity correction enabled: false
Boxcar width: 0
Storing dark spectrum: false
XAxis mode: Wavelengths
Number of Pixels in Spectrum: 1024
>>>>>Begin Spectral Data<<<<<
801.071	22017
801.214	21884
801.356	21736
801.499	21641
801.641	21447
801.783	21424
801.926	21367
802.068	21329
802.211	21233
802.353	21062
802.496	20998
802.638	20979
802.78	20838
802.923	20777
803.065	20655
803.208	20781
803.35	20800
803.492	20861
803.635	20849
803.777	20686
803.919	20883
804.061	21165
804.204	20735
804.346	20617
804.488	20659
804.63	20689
804.773	20590
804.915	20693
805.057	20735
805.199	20693
805.341	20663
805.483	20796
805.626	20906
805.768	20564
805.91	20659
806.052	20686
806.194	20503
806.336	20853
806.478	20632
806.62	20651
806.762	20636
806.904	20819
807.046	21036
807.188	20998
807.33	20876
807.472	21055
807.614	20902
807.756	20925
807.898	20693
808.04	20773
808.182	20678
808.324	20678
808.465	20777
808.607	20971
808.749	20986
808.891	21127
809.033	21089
809.174	21055
809.316	21005
809.458	21055
809.6	20975
809.741	21066
809.883	21154
810.025	21211
810.166	21116
810.308	21135
810.45	21096
810.591	21104
810.733	20963
810.875	20781
811.016	20743
811.158	20758
811.299	20857
811.441	20895
811.582	20948
811.724	20785
811.865	20792
812.007	20758
812.148	20716
812.29	20758
812.431	20902
812.573	21161
812.714	21165
812.855	21237
812.997	21294
813.138	21462
813.279	21302
813.421	21317
813.562	21256
813.703	21043
813.845	20952
813.986	20750
814.127	20461
814.268	20370
814.41	20400
814.551	20317
814.692	20423
814.833	20294
814.974	20263
815.115	20328
815.256	20271
815.397	20161
815.539	20206
815.68	20065
815.821	19917
815.962	20069
816.103	20016
816.244	19928
816.385	19795
816.526	19780
816.666	19632
816.807	19525
816.948	19586
817.089	19559
817.23	19518
817.371	19476
817.512	19476
817.653	19464
817.793	19407
817.934	19346
818.075	19559
818.216	19495
818.356	19430
818.497	19297
818.638	19027
818.778	19217
818.919	19152
819.06	19236
819.2	19304
819.341	19331
819.481	19460
819.622	19502
819.762	19613
819.903	19677
820.043	19594
820.184	19556
820.324	19525
820.465	19624
820.605	19453
820.746	19491
820.886	19259
821.026	19392
821.167	19358
821.307	19441
821.447	19415
821.588	19312
821.728	19156
821.868	19031
822.008	18901
822.149	18833
822.289	18821
822.429	18601
822.569	18528
822.709	18559
822.849	18418
822.99	18441
823.13	18361
823.27	18353
823.41	18216
823.55	17980
823.69	18068
823.83	18209
823.97	18076
824.11	18003
824.25	17920
824.389	17961
824.529	17958
824.669	17931
824.809	18095
824.949	17927
825.089	17958
825.228	17950
825.368	17783
825.508	17813
825.648	17775
825.787	17760
825.927	17684
826.067	17665
826.206	17699
826.346	17676
826.485	17695
826.625	17729
826.765	17794
826.904	17714
827.044	17440
827.183	17414
827.323	17459
827.462	17429
827.601	17383
827.741	17356
827.88	17455
828.02	17353
828.159	17208
828.298	17379
828.437	17387
828.577	17349
828.716	17448
828.855	17379
828.994	17132
829.134	17105
829.273	17280
829.412	17208
829.551	17166
829.69	17121
829.829	17280
829.968	17296
830.107	17193
830.246	17220
830.385	17060
830.524	17071
830.663	16984
830.802	16858
830.941	16816
831.08	16736
831.219	16771
831.357	16862
831.496	16991
831.635	16755
831.774	16706
831.913	16656
832.051	16508
832.19	16497
832.329	16588
832.467	16485
832.606	16443
832.744	16550
832.883	16493
833.022	16508
833.16	16466
833.299	16481
833.437	16561
833.576	16512
833.714	16462
833.852	16542
833.991	16561
834.129	16603
834.267	16656
834.406	16554
834.544	16485
834.682	16565
834.821	16459
834.959	16763
835.097	16341
835.235	16622
835.373	16459
835.511	16485
835.65	16436
835.788	16386
835.926	16253
836.064	16128
836.202	16211
836.34	16432
836.478	16481
836.615	16481
836.753	16337
836.891	16466
837.029	16432
837.167	16409
837.305	16394
837.443	16394
837.58	16226
837.718	16386
837.856	16284
837.993	16181
838.131	16234
838.269	16200
838.406	16181
838.544	16139
838.681	16002
838.819	16032
838.956	15865
839.094	15934
839.231	15873
839.369	16002
839.506	16371
839.643	16067
839.781	15945
839.918	15911
840.055	15816
840.193	15819
840.33	15857
840.467	15759
840.604	15899
840.742	15991
840.879	15625
841.016	15819
841.153	15800
841.29	16017
841.427	15846
841.564	15907
841.701	15876
841.838	15930
841.975	15774
842.112	15728
842.249	15652
842.385	15701
842.522	15827
842.659	15652
842.796	15660
842.933	15644
843.069	15622
843.206	15595
843.343	15648
843.479	15690
843.616	15644
843.752	15492
843.889	15348
844.025	15500
844.162	15374
844.298	15542
844.435	15382
844.571	15336
844.708	15538
844.844	15606
844.98	15618
845.117	15549
845.253	15420
845.389	15275
845.525	15264
845.661	15188
845.798	15233
845.934	15199
846.07	15237
846.206	15310
846.342	15363
846.478	15294
846.614	15176
846.75	14986
846.886	14982
847.022	15028
847.158	15024
847.294	15020
847.429	15005
847.565	14998
847.701	15203
847.837	14849
847.972	14739
848.108	14864
848.244	14731
848.379	14621
848.515	14602
848.65	14511
848.786	14590
848.921	14587
849.057	14651
849.192	14697
849.328	14644
849.463	14625
849.598	14389
849.734	14549
849.869	14476
850.004	14457
850.14	14393
850.275	14358
850.41	14282
850.545	14282
850.68	14393
850.815	14393
850.95	14324
851.085	14552
851.22	14393
851.355	14488
851.49	14499
851.625	14427
851.76	14290
851.895	14256
852.03	14393
852.165	14461
852.299	14450
852.434	14442
852.569	14385
852.703	14362
852.838	14484
852.973	14469
853.107	14560
853.242	14286
853.376	14233
853.511	14183
853.645	14210
853.78	14381
853.914	14180
854.048	14191
854.183	14145
854.317	14221
854.451	14415
854.585	14180
854.72	14164
854.854	14305
854.988	14088
855.122	14130
855.256	14088
855.39	14077
855.524	14259
855.658	14275
855.792	14252
855.926	14233
856.06	14275
856.194	14362
856.327	14202
856.461	14126
856.595	14221
856.729	14176
856.862	14328
856.996	14286
857.13	14313
857.263	14309
857.397	14305
857.53	14244
857.664	14309
857.797	14305
857.931	14336
858.064	14267
858.197	14286
858.331	14161
858.464	14153
858.597	14096
858.731	14214
858.864	14278
858.997	14134
859.13	14168
859.263	14313
859.396	14309
859.529	14377
859.662	14233
859.795	14161
859.928	14351
860.061	14313
860.194	14457
860.327	14271
860.46	14240
860.592	14522
860.725	14309
860.858	14351
860.99	14252
861.123	14183
861.256	14267
861.388	14305
861.521	14754
861.653	14065
861.786	14065
861.918	14062
862.05	14248
862.183	14221
862.315	14248
862.447	14206
862.58	14191
862.712	14001
862.844	13955
862.976	14024
863.108	14058
863.24	14381
863.372	14008
863.504	13959
863.636	14065
863.768	14008
863.9	13993
864.032	14035
864.164	13928
864.296	14077
864.428	14103
864.559	14164
864.691	14145
864.823	14153
864.954	14084
865.086	14145
865.217	13986
865.349	14001
865.48	13826
865.612	14073
865.743	14046
865.875	13963
866.006	14046
866.137	14039
866.269	14005
866.4	14031
866.531	13902
866.662	13909
866.793	13925
866.924	13986
867.055	14008
867.186	14016
867.317	14062
867.448	13856
867.579	13890
867.71	13909
867.841	13970
867.972	14027
868.103	13982
868.233	14039
868.364	14073
868.495	14111
868.625	14210
868.756	14332
868.886	14065
869.017	14248
869.147	14271
869.278	14419
869.408	14202
869.539	14240
869.669	14259
869.799	14347
869.929	14324
870.06	14351
870.19	14602
870.32	14587
870.45	14651
870.58	14598
870.71	14777
870.84	14731
870.97	14670
871.1	14644
871.23	14910
871.36	14845
871.489	14857
871.619	14769
871.749	14914
871.879	14823
872.008	15058
872.138	14921
872.267	14769
872.397	14727
872.526	14667
872.656	14636
872.785	14735
872.915	14891
873.044	14979
873.173	14990
873.303	14921
873.432	14967
873.561	15013
873.69	14979
873.819	14895
873.948	14899
874.077	14853
874.206	14899
874.335	14921
874.464	15081
874.593	15150
874.722	15184
874.851	15146
874.979	15256
875.108	15233
875.237	15188
875.365	15169
875.494	15169
875.623	15332
875.751	15233
875.88	15218
876.008	15443
876.136	15355
876.265	15675
876.393	15759
876.521	15652
876.65	15656
876.778	15720
876.906	15648
877.034	15538
877.162	15690
877.29	15561
877.418	15633
877.546	15610
877.674	15603
877.802	15572
877.93	15732
878.058	15591
878.185	15523
878.313	15671
878.441	15660
878.568	15447
878.696	15587
878.824	15637
878.951	15656
879.079	15778
879.206	15926
879.333	15854
879.461	15603
879.588	15743
879.715	15812
879.842	15926
879.97	15675
880.097	15443
880.224	15538
880.351	15564
880.478	15572
880.605	15443
880.732	15401
880.859	15797
880.986	15447
881.112	15580
881.239	15382
881.366	15226
881.493	15233
881.619	15074
881.746	15192
881.872	15192
881.999	15085
882.125	15097
882.252	15230
882.378	15123
882.505	15279
882.631	15138
882.757	14902
882.883	15036
883.01	15001
883.136	14857
883.262	14872
883.388	14826
883.514	15017
883.64	14872
883.766	14971
883.892	14800
884.018	14887
884.143	14921
884.269	14967
884.395	14731
884.52	14613
884.646	14743
884.772	14579
884.897	14632
885.023	14655
885.148	14686
885.274	14792
885.399	14735
885.524	14701
885.65	14587
885.775	14754
885.9	14651
886.025	14788
886.15	14750
886.275	14625
886.4	14606
886.525	14648
886.65	14556
886.775	14632
886.9	14777
887.025	14842
887.149	14720
887.274	14590
887.399	14389
887.523	14415
887.648	14442
887.773	14480
887.897	14568
888.021	14575
888.146	14526
888.27	14648
888.395	14655
888.519	14533
888.643	14613
888.767	14526
888.891	14484
889.015	14358
889.139	14358
889.263	14362
889.387	14431
889.511	14552
889.635	14400
889.759	14328
889.883	14263
890.006	14408
890.13	14427
890.254	14374
890.377	14351
890.501	13997
890.624	14149
890.748	14123
890.871	14065
890.995	14081
891.118	14016
891.241	14016
891.364	14092
891.488	14233
891.611	14016
891.734	14149
891.857	14183
891.98	14016
892.103	14138
892.226	14161
892.349	13967
892.471	13932
892.594	14027
892.717	14069
892.839	14016
892.962	13986
893.085	14115
893.207	14123
893.33	13936
893.452	14043
893.575	14149
893.697	14008
893.819	14248
893.941	14290
894.064	14237
894.186	14031
894.308	14058
894.43	14202
894.552	14244
894.674	14153
894.796	14024
894.918	14142
895.04	14126
895.161	14221
895.283	14195
895.405	14130
895.526	14149
895.648	14119
895.769	14252
895.891	14210
896.012	14286
896.134	14233
896.255	14248
896.376	14210
896.498	14187
896.619	14263
896.74	14298
896.861	14286
896.982	14590
897.103	14712
897.224	14503
897.345	14427
897.466	14358
897.587	14545
897.708	14537
897.828	14663
897.949	14408
898.07	14332
898.19	14438
898.311	14606
898.431	14568
898.552	14545
898.672	14670
898.792	14606
898.913	14651
899.033	14530
899.153	14434
899.273	14381
899.393	14301
899.513	14469
899.633	14404
899.753	14545
899.873	14419
899.993	14590
900.113	14427
900.232	14514
900.352	14492
900.472	14313
900.591	14244
900.711	14286
900.83	14229
900.95	14454
901.069	14461
901.189	14252
901.308	14069
901.427	13967
901.546	13947
901.665	13993
901.784	14005
901.904	13826
902.023	13742
902.141	13483
902.26	13525
902.379	13712
902.498	13506
902.617	13529
902.735	13616
902.854	13613
902.973	13506
903.091	13232
903.21	13350
903.328	13263
903.446	13129
903.565	13118
903.683	13141
903.801	13065
903.919	13103
904.038	13099
904.156	12871
904.274	13000
904.392	12951
904.51	12935
904.627	12859
904.745	13057
904.863	13004
904.981	12711
905.098	12654
905.216	12646
905.334	12635
905.451	12688
905.569	12589
905.686	12662
905.803	12646
905.921	12467
906.038	12509
906.155	12471
906.272	12365
906.389	12346
906.506	12239
906.623	12201
906.74	12228
906.857	12129
906.974	12175
907.091	12281
907.208	12289
907.324	12311
907.441	12159
907.557	12049
907.674	11999
907.79	11954
907.907	11920
908.023	11920
908.139	11950
908.256	11821
908.372	11893
908.488	11859
908.604	11745
908.72	11649
908.836	11710
908.952	11680
909.068	11707
909.184	11843
909.3	11672
909.415	11771
909.531	11786
909.647	11516
909.762	11524
909.878	11448
909.993	11524
910.108	11455
910.224	11505
910.339	11433
910.454	11414
910.57	11376
910.685	11284
910.8	11589
910.915	11490
911.03	11398
911.145	11242
911.259	11193
911.374	11254
911.489	11094
911.604	11090
911.718	11018
911.833	11025
911.947	10900
912.062	10828
912.176	10949
912.291	10892
912.405	11037
912.519	11136
912.633	11132
912.748	10980
912.862	10999
912.976	10847
913.09	10706
913.204	10744
913.318	10805
913.431	10873
913.545	10896
913.659	10828
913.772	10835
913.886	10733
914	10725
914.113	10759
914.226	10839
914.34	10717
914.453	10668
914.566	10790
914.68	10641
914.793	10679
914.906	10443
915.019	10379
915.132	10394
915.245	10470
915.358	10421
915.47	10500
915.583	10443
915.696	10618
915.809	10637
915.921	10519
916.034	10466
916.146	10417
916.259	10443
916.371	10504
916.483	10394
916.595	10352
916.708	10341
916.82	10432
916.932	10367
917.044	10436
917.156	10325
917.268	10234
917.38	10310
917.491	10333
917.603	10367
917.715	10413
917.826	10382
917.938	10227
918.049	10219
918.161	10291
918.272	10417
918.384	10405
918.495	10398
918.606	10139
918.717	10128
918.828	10265
918.939	10238
919.05	10032
919.161	10219
919.272	9987
919.383	10090
919.494	10314
919.604	10379
919.715	10207
919.826	10150
919.936	10192
920.047	10341
920.157	10253
920.267	10428
920.378	10192
920.488	10158
920.598	10424
920.708	10584
920.818	10382
920.928	10337
921.038	10550
921.148	10497
921.258	10276
921.368	10147
921.477	10013
921.587	10074
921.697	9991
921.806	10002
921.916	10017
922.025	9804
922.134	9793
922.244	9751
922.353	9785
922.462	9633
922.571	9652
922.68	9511
922.789	9477
922.898	9526
923.007	9450
923.116	9526
923.224	9515
923.333	9538
923.442	9408
923.55	9344
923.659	9329
923.767	9401
923.876	9348
923.984	9420
924.092	9268
924.201	9355
924.309	9382
924.417	9340
924.525	9279
924.633	9214
924.741	10204
924.849	9097
924.956	9310
925.064	9127
925.172	9062
925.279	9100
925.387	9146
925.494	9161
925.602	9180
925.709	9207
925.816	9116
925.924	9180
926.031	9207
926.138	9020
926.245	9184
926.352	9077
926.459	9253
926.566	9192
926.673	9135
926.779	9017
926.886	9036
926.993	8941
927.099	8861
927.206	8724
927.312	8845
927.419	8906
927.525	8804
927.631	8914
927.737	8788
927.843	8769
927.95	8674
928.056	8819
928.162	8754
928.267	8872
928.373	9397
928.479	8895
928.585	8602
928.69	8716
928.796	8804
928.901	8667
929.007	8499
929.112	8693
929.218	8617
929.323	8583
929.428	8541
929.533	8701
929.638	8530
929.743	8533
929.848	8644
929.953	8518
930.058	8408
930.163	8336
930.267	8374
930.372	8503
930.477	8286
930.581	8511
930.685	8431
930.79	8275
930.894	8332
930.998	8324
931.103	8389
931.207	8016
931.311	8039
931.415	7940
931.519	7792
931.623	7792
