Data from test_V78500241_1664.txt Node
Date: Fri Mar 25 14:45:18 CST 2022
User: usil
Spectrometer: V785-0024
Trigger mode: 0
Integration Time (sec): 4.000000E-1
Scans to average: 1
Nonlinearity correction enabled: false
Boxcar width: 0
Storing dark spectrum: false
XAxis mode: Wavelengths
Number of Pixels in Spectrum: 1024
>>>>>Begin Spectral Data<<<<<
801.071	22265
801.214	22051
801.356	21759
801.499	21876
801.641	21580
801.783	21781
801.926	21660
802.068	21709
802.211	21526
802.353	21447
802.496	21203
802.638	21138
802.78	21138
802.923	20952
803.065	21047
803.208	20910
803.35	20864
803.492	21074
803.635	21108
803.777	20990
803.919	21028
804.061	21348
804.204	21058
804.346	20899
804.488	20864
804.63	21017
804.773	20861
804.915	20864
805.057	21028
805.199	20944
805.341	20941
805.483	21051
805.626	21020
805.768	20754
805.91	20956
806.052	20963
806.194	20785
806.336	21085
806.478	20785
806.62	20868
806.762	21058
806.904	21074
807.046	21241
807.188	21165
807.33	21226
807.472	21294
807.614	20986
807.756	21157
807.898	21131
808.04	21043
808.182	21039
808.324	21024
808.465	21089
808.607	21157
808.749	21374
808.891	21473
809.033	21408
809.174	21420
809.316	21287
809.458	21256
809.6	21237
809.741	21412
809.883	21332
810.025	21496
810.166	21412
810.308	21450
810.45	21355
810.591	21329
810.733	21188
810.875	21074
811.016	20937
811.158	20982
811.299	21104
811.441	21173
811.582	21230
811.724	21142
811.865	20982
812.007	21047
812.148	21039
812.29	21256
812.431	21279
812.573	21370
812.714	21374
812.855	21690
812.997	21698
813.138	21774
813.279	21797
813.421	21587
813.562	21519
813.703	21294
813.845	21283
813.986	20937
814.127	20693
814.268	20556
814.41	20674
814.551	20651
814.692	20636
814.833	20461
814.974	20518
815.115	20594
815.256	20476
815.397	20374
815.539	20324
815.68	20301
815.821	20309
815.962	20286
816.103	20221
816.244	20164
816.385	20069
816.526	20039
816.666	19967
816.807	19894
816.948	19811
817.089	19906
817.23	19746
817.371	19662
817.512	19742
817.653	19719
817.793	19776
817.934	19818
818.075	19765
818.216	19807
818.356	19670
818.497	19544
818.638	19491
818.778	19491
818.919	19468
819.06	19468
819.2	19460
819.341	19632
819.481	19666
819.622	19860
819.762	20016
819.903	19890
820.043	19807
820.184	19738
820.324	19776
820.465	19784
820.605	19765
820.746	19712
820.886	19571
821.026	19666
821.167	19693
821.307	19731
821.447	19753
821.588	19480
821.728	19529
821.868	19194
822.008	19103
822.149	19103
822.289	19084
822.429	18901
822.569	18840
822.709	18901
822.849	18738
822.99	18608
823.13	18475
823.27	18612
823.41	18456
823.55	18350
823.69	18380
823.83	18525
823.97	18357
824.11	18155
824.25	18182
824.389	18296
824.529	18201
824.669	18220
824.809	18300
824.949	18365
825.089	18224
825.228	18178
825.368	18003
825.508	18098
825.648	18110
825.787	17977
825.927	18015
826.067	17821
826.206	17813
826.346	17942
826.485	18003
826.625	18034
826.765	18136
826.904	18091
827.044	17824
827.183	17714
827.323	17589
827.462	17737
827.601	17524
827.741	17661
827.88	17680
828.02	17608
828.159	17680
828.298	17722
828.437	17657
828.577	17600
828.716	17813
828.855	17646
828.994	17433
829.134	17311
829.273	17414
829.412	17440
829.551	17360
829.69	17448
829.829	17376
829.968	17524
830.107	17459
830.246	17421
830.385	17436
830.524	17265
830.663	17220
830.802	17121
830.941	17052
831.08	17178
831.219	17098
831.357	17052
831.496	17227
831.635	17071
831.774	16900
831.913	16930
832.051	16850
832.19	16706
832.329	16740
832.467	16664
832.606	16584
832.744	16736
832.883	16649
833.022	16637
833.16	16687
833.299	16710
833.437	16706
833.576	16721
833.714	16744
833.852	16771
833.991	16801
834.129	16790
834.267	16809
834.406	16733
834.544	16744
834.682	16805
834.821	16649
834.959	16999
835.097	16748
835.235	16831
835.373	16702
835.511	16774
835.65	16725
835.788	16675
835.926	16569
836.064	16538
836.202	16497
836.34	16626
836.478	16706
836.615	16683
836.753	16740
836.891	16694
837.029	16786
837.167	16565
837.305	16603
837.443	16615
837.58	16550
837.718	16546
837.856	16565
837.993	16542
838.131	16546
838.269	16523
838.406	16462
838.544	16337
838.681	16234
838.819	16219
838.956	16124
839.094	16036
839.231	16143
839.369	16207
839.506	16360
839.643	16333
839.781	15972
839.918	16055
840.055	16090
840.193	16044
840.33	15983
840.467	16040
840.604	16025
840.742	16386
840.879	15960
841.016	15998
841.153	15983
841.29	16131
841.427	16074
841.564	16139
841.701	16082
841.838	16105
841.975	15983
842.112	15953
842.249	15819
842.385	15797
842.522	15998
842.659	15922
842.796	15873
842.933	15884
843.069	15827
843.206	15724
843.343	15949
843.479	15892
843.616	15827
843.752	15690
843.889	15656
844.025	15739
844.162	15595
844.298	15751
844.435	15656
844.571	15690
844.708	15732
844.844	15781
844.98	15827
845.117	15713
845.253	15610
845.389	15561
845.525	15599
845.661	15511
845.798	15378
845.934	15526
846.07	15549
846.206	15587
846.342	15610
846.478	15447
846.614	15233
846.75	15199
846.886	15062
847.022	15260
847.158	15146
847.294	15195
847.429	15252
847.565	15142
847.701	15359
847.837	14868
847.972	14891
848.108	14990
848.244	15131
848.379	14845
848.515	14804
848.65	14769
848.786	14845
848.921	14750
849.057	14899
849.192	14883
849.328	14868
849.463	14807
849.598	14777
849.734	14788
849.869	14701
850.004	14613
850.14	14598
850.275	14579
850.41	14564
850.545	14549
850.68	14495
850.815	14564
850.95	14564
851.085	14739
851.22	14568
851.355	14575
851.49	14670
851.625	14564
851.76	14541
851.895	14454
852.03	14442
852.165	14606
852.299	14629
852.434	14629
852.569	14640
852.703	14674
852.838	14754
852.973	14651
853.107	14811
853.242	14499
853.376	14495
853.511	14412
853.645	14492
853.78	14602
853.914	14457
854.048	14408
854.183	14431
854.317	14404
854.451	14682
854.585	14454
854.72	14362
854.854	14495
854.988	14347
855.122	14362
855.256	14282
855.39	14324
855.524	14568
855.658	14408
855.792	14492
855.926	14499
856.06	14522
856.194	14511
856.327	14381
856.461	14415
856.595	14343
856.729	14370
856.862	14533
856.996	14461
857.13	14587
857.263	14556
857.397	14610
857.53	14431
857.664	14488
857.797	14564
857.931	14594
858.064	14533
858.197	14499
858.331	14438
858.464	14370
858.597	14366
858.731	14385
858.864	14404
858.997	14393
859.13	14438
859.263	14480
859.396	14590
859.529	14351
859.662	14324
859.795	14434
859.928	14427
860.061	14621
860.194	14556
860.327	14469
860.46	14503
860.592	14537
860.725	14682
860.858	14431
860.99	14488
861.123	14355
861.256	14400
861.388	14476
861.521	14941
861.653	14320
861.786	14271
861.918	14434
862.05	14446
862.183	14336
862.315	14427
862.447	14492
862.58	14442
862.712	14202
862.844	14187
862.976	14225
863.108	14218
863.24	14587
863.372	14210
863.504	14263
863.636	14275
863.768	14298
863.9	14214
864.032	14244
864.164	14176
864.296	14317
864.428	14309
864.559	14305
864.691	14358
864.823	14332
864.954	14233
865.086	14180
865.217	14183
865.349	14123
865.48	14263
865.612	14176
865.743	14301
865.875	14275
866.006	14218
866.137	14180
866.269	14176
866.4	14180
866.531	14157
866.662	14043
866.793	14134
866.924	14050
867.055	14183
867.186	14214
867.317	14126
867.448	14103
867.579	14046
867.71	14130
867.841	14115
867.972	14221
868.103	14199
868.233	14161
868.364	14244
868.495	14206
868.625	14358
868.756	14476
868.886	14343
869.017	14374
869.147	14552
869.278	14556
869.408	14522
869.539	14457
869.669	14552
869.799	14454
869.929	14530
870.06	14514
870.19	14788
870.32	14632
870.45	14777
870.58	14765
870.71	14986
870.84	14925
870.97	14815
871.1	14785
871.23	15005
871.36	15161
871.489	14918
871.619	15024
871.749	15131
871.879	15089
872.008	15222
872.138	15024
872.267	15051
872.397	14986
872.526	14880
872.656	14838
872.785	14819
872.915	15074
873.044	15055
873.173	15112
873.303	15127
873.432	15100
873.561	15195
873.69	15192
873.819	15123
873.948	15180
874.077	15112
874.206	15097
874.335	15100
874.464	15275
874.593	15344
874.722	15386
874.851	15504
874.979	15386
875.108	15386
875.237	15344
875.365	15249
875.494	15393
875.623	15572
875.751	15386
875.88	15450
876.008	15519
876.136	15701
876.265	15766
876.393	15991
876.521	15876
876.65	15899
876.778	15835
876.906	15675
877.034	15724
877.162	15819
877.29	15759
877.418	15770
877.546	15804
877.674	15747
877.802	15865
877.93	15861
878.058	15720
878.185	15644
878.313	15838
878.441	15831
878.568	15629
878.696	15717
878.824	15854
878.951	15888
879.079	16002
879.206	16162
879.333	16040
879.461	15895
879.588	15956
879.715	16074
879.842	16105
879.97	15926
880.097	15694
880.224	15694
880.351	15618
880.478	15519
880.605	15549
880.732	15667
880.859	15865
880.986	15732
881.112	15701
881.239	15568
881.366	15401
881.493	15428
881.619	15203
881.746	15268
881.872	15340
881.999	15348
882.125	15222
882.252	15420
882.378	15367
882.505	15485
882.631	15336
882.757	15169
882.883	15241
883.01	15146
883.136	15009
883.262	15047
883.388	15005
883.514	15123
883.64	15252
883.766	15043
883.892	14914
884.018	15017
884.143	15222
884.269	15214
884.395	14925
884.52	14811
884.646	14864
884.772	14796
884.897	14765
885.023	14823
885.148	14895
885.274	15100
885.399	15051
885.524	14891
885.65	14880
885.775	14902
885.9	14777
886.025	14933
886.15	14857
886.275	14792
886.4	14750
886.525	14754
886.65	14765
886.775	14762
886.9	14982
887.025	15127
887.149	14826
887.274	14682
887.399	14651
887.523	14648
887.648	14545
887.773	14564
887.897	14693
888.021	14697
888.146	14621
888.27	14686
888.395	14750
888.519	14743
888.643	14735
888.767	14667
888.891	14686
889.015	14484
889.139	14446
889.263	14564
889.387	14670
889.511	14743
889.635	14724
889.759	14473
889.883	14488
890.006	14583
890.13	14651
890.254	14469
890.377	14461
890.501	14473
890.624	14298
890.748	14454
890.871	14381
890.995	14221
891.118	14115
891.241	14199
891.364	14221
891.488	14355
891.611	14248
891.734	14271
891.857	14267
891.98	14343
892.103	14324
892.226	14206
892.349	14199
892.471	14100
892.594	14229
892.717	14142
892.839	14233
892.962	14183
893.085	14225
893.207	14221
893.33	14077
893.452	14183
893.575	14252
893.697	14130
893.819	14381
893.941	14366
894.064	14355
894.186	14180
894.308	14229
894.43	14377
894.552	14507
894.674	14374
894.796	14115
894.918	14317
895.04	14286
895.161	14336
895.283	14301
895.405	14317
895.526	14275
895.648	14362
895.769	14450
895.891	14469
896.012	14427
896.134	14415
896.255	14358
896.376	14450
896.498	14347
896.619	14480
896.74	14454
896.861	14476
896.982	14762
897.103	14918
897.224	14606
897.345	14651
897.466	14552
897.587	14769
897.708	14845
897.828	14689
897.949	14610
898.07	14473
898.19	14632
898.311	14811
898.431	14724
898.552	14743
898.672	14815
898.792	14857
898.913	14743
899.033	14663
899.153	14602
899.273	14465
899.393	14476
899.513	14636
899.633	14568
899.753	14556
899.873	14602
899.993	14579
900.113	14427
900.232	14682
900.352	14533
900.472	14522
900.591	14393
900.711	14503
900.83	14389
900.95	14610
901.069	14537
901.189	14442
901.308	14176
901.427	14134
901.546	14107
901.665	14214
901.784	14191
901.904	14008
902.023	13890
902.141	13738
902.26	13719
902.379	13746
902.498	13666
902.617	13609
902.735	13651
902.854	13597
902.973	13708
903.091	13422
903.21	13483
903.328	13521
903.446	13293
903.565	13282
903.683	13225
903.801	13160
903.919	13377
904.038	13126
904.156	13141
904.274	13198
904.392	12989
904.51	13088
904.627	13053
904.745	13141
904.863	13129
904.981	12837
905.098	12791
905.216	12810
905.334	12745
905.451	12810
905.569	12753
905.686	12703
905.803	12760
905.921	12578
906.038	12757
906.155	12673
906.272	12486
906.389	12559
906.506	12338
906.623	12308
906.74	12353
906.857	12315
906.974	12228
907.091	12418
907.208	12414
907.324	12407
907.441	12289
907.557	12102
907.674	12083
907.79	11977
907.907	12110
908.023	12205
908.139	12129
908.256	12064
908.372	12015
908.488	12045
908.604	11863
908.72	11809
908.836	11828
908.952	11866
909.068	11939
909.184	11923
909.3	11809
909.415	11950
909.531	11798
909.647	11680
909.762	11608
909.878	11608
909.993	11695
910.108	11623
910.224	11551
910.339	11615
910.454	11543
910.57	11474
910.685	11383
910.8	11726
910.915	11676
911.03	11436
911.145	11353
911.259	11246
911.374	11368
911.489	11227
911.604	11246
911.718	11102
911.833	11113
911.947	10949
912.062	10980
912.176	11029
912.291	11102
912.405	11094
912.519	11242
912.633	11322
912.748	11143
912.862	11037
912.976	10961
913.09	10805
913.204	10938
913.318	10930
913.431	11025
913.545	11098
913.659	11124
913.772	10923
913.886	10869
914	10763
914.113	10930
914.226	10919
914.34	10949
914.453	10748
914.566	10961
914.68	10869
914.793	10801
914.906	10626
915.019	10538
915.132	10592
915.245	10512
915.358	10607
915.47	10626
915.583	10599
915.696	10664
915.809	10740
915.921	10786
916.034	10516
916.146	10565
916.259	10550
916.371	10558
916.483	10569
916.595	10485
916.708	10527
916.82	10474
916.932	10470
917.044	10516
917.156	10497
917.268	10462
917.38	10436
917.491	10409
917.603	10402
917.715	10421
917.826	10546
917.938	10344
918.049	10249
918.161	10440
918.272	10558
918.384	10596
918.495	10413
918.606	10314
918.717	10154
918.828	10306
918.939	10291
919.05	10299
919.161	10291
919.272	10147
919.383	10124
919.494	10272
919.604	10584
919.715	10318
919.826	10192
919.936	10238
920.047	10291
920.157	10325
920.267	10451
920.378	10367
920.488	10303
920.598	10519
920.708	10706
920.818	10481
920.928	10474
921.038	10664
921.148	10649
921.258	10306
921.368	10219
921.477	10116
921.587	10101
921.697	10067
921.806	10192
921.916	10025
922.025	9926
922.134	9869
922.244	9770
922.353	9907
922.462	9759
922.571	9652
922.68	9542
922.789	9572
922.898	9633
923.007	9523
923.116	9595
923.224	9515
923.333	9466
923.442	9447
923.55	9492
923.659	9454
923.767	9458
923.876	9367
923.984	9485
924.092	9367
924.201	9454
924.309	9462
924.417	9450
924.525	9359
924.633	9405
924.741	10139
924.849	9169
924.956	9287
925.064	9142
925.172	9020
925.279	9161
925.387	9256
925.494	9161
925.602	9298
925.709	9336
925.816	9135
925.924	9157
926.031	9287
926.138	9211
926.245	9268
926.352	9131
926.459	9245
926.566	9260
926.673	9150
926.779	9058
926.886	9108
926.993	9005
927.099	8948
927.206	8880
927.312	8967
927.419	8937
927.525	8960
927.631	8956
927.737	8796
927.843	8758
927.95	8754
928.056	8758
928.162	8895
928.267	8845
928.373	9382
928.479	8914
928.585	8686
928.69	8804
928.796	8826
928.901	8785
929.007	8564
929.112	8743
929.218	8724
929.323	8564
929.428	8670
929.533	8743
929.638	8537
929.743	8640
929.848	8697
929.953	8632
930.058	8530
930.163	8434
930.267	8423
930.372	8480
930.477	8358
930.581	8590
930.685	8431
930.79	8286
930.894	8362
930.998	8309
931.103	8465
931.207	8199
931.311	8073
931.415	8012
931.519	7849
931.623	7795
