Data from test_V78500241_3099.txt Node
Date: Fri Mar 25 14:55:17 CST 2022
User: usil
Spectrometer: V785-0024
Trigger mode: 0
Integration Time (sec): 4.000000E-1
Scans to average: 1
Nonlinearity correction enabled: false
Boxcar width: 0
Storing dark spectrum: false
XAxis mode: Wavelengths
Number of Pixels in Spectrum: 1024
>>>>>Begin Spectral Data<<<<<
801.071	22029
801.214	22017
801.356	21686
801.499	21599
801.641	21481
801.783	21492
801.926	21492
802.068	21306
802.211	21336
802.353	21188
802.496	20929
802.638	20982
802.78	20880
802.923	20883
803.065	20777
803.208	20739
803.35	20811
803.492	20819
803.635	20906
803.777	20796
803.919	20830
804.061	21051
804.204	20785
804.346	20545
804.488	20583
804.63	20739
804.773	20689
804.915	20762
805.057	20705
805.199	20667
805.341	20670
805.483	20659
805.626	20674
805.768	20670
805.91	20708
806.052	20697
806.194	20667
806.336	20804
806.478	20678
806.62	20648
806.762	20731
806.904	20739
807.046	20979
807.188	20967
807.33	21024
807.472	20998
807.614	21020
807.756	21017
807.898	20842
808.04	20629
808.182	20705
808.324	20750
808.465	20823
808.607	20891
808.749	21024
808.891	21142
809.033	21085
809.174	21127
809.316	21024
809.458	21058
809.6	21055
809.741	21043
809.883	21127
810.025	21173
810.166	21222
810.308	21279
810.45	21154
810.591	21119
810.733	20891
810.875	20788
811.016	20716
811.158	20788
811.299	20796
811.441	20952
811.582	20925
811.724	20792
811.865	20838
812.007	20868
812.148	20800
812.29	20895
812.431	20937
812.573	21146
812.714	21176
812.855	21275
812.997	21408
813.138	21542
813.279	21374
813.421	21291
813.562	21218
813.703	20948
813.845	21032
813.986	20632
814.127	20457
814.268	20454
814.41	20514
814.551	20290
814.692	20450
814.833	20301
814.974	20370
815.115	20267
815.256	20214
815.397	20377
815.539	20225
815.68	20122
815.821	19993
815.962	20107
816.103	20153
816.244	19841
816.385	19845
816.526	19784
816.666	19537
816.807	19449
816.948	19590
817.089	19620
817.23	19662
817.371	19430
817.512	19480
817.653	19434
817.793	19209
817.934	19502
818.075	19445
818.216	19495
818.356	19453
818.497	19285
818.638	19129
818.778	19183
818.919	19263
819.06	19110
819.2	19327
819.341	19270
819.481	19392
819.622	19491
819.762	19670
819.903	19571
820.043	19514
820.184	19422
820.324	19480
820.465	19483
820.605	19578
820.746	19324
820.886	19324
821.026	19392
821.167	19354
821.307	19499
821.447	19339
821.588	19221
821.728	19133
821.868	19065
822.008	18848
822.149	18935
822.289	18958
822.429	18528
822.569	18540
822.709	18589
822.849	18429
822.99	18350
823.13	18323
823.27	18441
823.41	18209
823.55	18076
823.69	18209
823.83	18209
823.97	18076
824.11	17980
824.25	17912
824.389	17965
824.529	18041
824.669	17980
824.809	17946
824.949	17942
825.089	17901
825.228	17901
825.368	17733
825.508	17779
825.648	17657
825.787	17691
825.927	17737
826.067	17729
826.206	17726
826.346	17680
826.485	17638
826.625	17729
826.765	17775
826.904	17756
827.044	17562
827.183	17395
827.323	17277
827.462	17360
827.601	17349
827.741	17463
827.88	17345
828.02	17402
828.159	17330
828.298	17307
828.437	17364
828.577	17334
828.716	17505
828.855	17288
828.994	17090
829.134	17200
829.273	17200
829.412	17170
829.551	17136
829.69	17060
829.829	17117
829.968	17204
830.107	17178
830.246	17170
830.385	17151
830.524	17056
830.663	16984
830.802	16797
830.941	16767
831.08	16828
831.219	16839
831.357	16869
831.496	16968
831.635	16740
831.774	16637
831.913	16603
832.051	16538
832.19	16512
832.329	16474
832.467	16398
832.606	16322
832.744	16367
832.883	16424
833.022	16356
833.16	16523
833.299	16417
833.437	16493
833.576	16504
833.714	16394
833.852	16527
833.991	16512
834.129	16569
834.267	16565
834.406	16455
834.544	16459
834.682	16462
834.821	16436
834.959	16565
835.097	16459
835.235	16622
835.373	16516
835.511	16432
835.65	16367
835.788	16337
835.926	16318
836.064	16204
836.202	16291
836.34	16398
836.478	16508
836.615	16367
836.753	16348
836.891	16577
837.029	16440
837.167	16436
837.305	16348
837.443	16348
837.58	16162
837.718	16405
837.856	16226
837.993	16158
838.131	16291
838.269	16219
838.406	16234
838.544	16032
838.681	16044
838.819	15926
838.956	15781
839.094	15701
839.231	15789
839.369	15770
839.506	16185
839.643	15918
839.781	15785
839.918	15732
840.055	15846
840.193	15789
840.33	15778
840.467	15823
840.604	15831
840.742	16048
840.879	15728
841.016	15785
841.153	15682
841.29	15930
841.427	15732
841.564	15842
841.701	15960
841.838	15800
841.975	15755
842.112	15701
842.249	15595
842.385	15545
842.522	15800
842.659	15625
842.796	15401
842.933	15576
843.069	15500
843.206	15481
843.343	15629
843.479	15515
843.616	15523
843.752	15298
843.889	15374
844.025	15561
844.162	15279
844.298	15439
844.435	15272
844.571	15256
844.708	15416
844.844	15580
844.98	15530
845.117	15496
845.253	15272
845.389	15313
845.525	15332
845.661	15222
845.798	15119
845.934	15214
846.07	15131
846.206	15268
846.342	15329
846.478	15165
846.614	14986
846.75	14902
846.886	14971
847.022	15017
847.158	14906
847.294	14918
847.429	14842
847.565	14834
847.701	15131
847.837	14606
847.972	14667
848.108	14739
848.244	14765
848.379	14648
848.515	14431
848.65	14461
848.786	14537
848.921	14511
849.057	14602
849.192	14674
849.328	14488
849.463	14556
849.598	14434
849.734	14469
849.869	14393
850.004	14301
850.14	14415
850.275	14393
850.41	14218
850.545	14168
850.68	14275
850.815	14320
850.95	14240
851.085	14507
851.22	14343
851.355	14252
851.49	14229
851.625	14225
851.76	14248
851.895	14229
852.03	14237
852.165	14271
852.299	14339
852.434	14423
852.569	14286
852.703	14256
852.838	14320
852.973	14507
853.107	14431
853.242	14248
853.376	14225
853.511	13963
853.645	14084
853.78	14278
853.914	14126
854.048	14180
854.183	14031
854.317	14130
854.451	14377
854.585	14202
854.72	14161
854.854	14305
854.988	14035
855.122	14187
855.256	14050
855.39	14187
855.524	14320
855.658	14214
855.792	14187
855.926	14259
856.06	14271
856.194	14259
856.327	14058
856.461	14138
856.595	14123
856.729	14084
856.862	14195
856.996	14142
857.13	14145
857.263	14252
857.397	14248
857.53	14134
857.664	14172
857.797	14130
857.931	14298
858.064	14244
858.197	14221
858.331	14077
858.464	14187
858.597	14043
858.731	14153
858.864	14142
858.997	14134
859.13	14183
859.263	14164
859.396	14191
859.529	14183
859.662	14206
859.795	14100
859.928	14149
860.061	14332
860.194	14320
860.327	14199
860.46	14092
860.592	14294
860.725	14252
860.858	14275
860.99	14126
861.123	14073
861.256	14134
861.388	14195
861.521	14826
861.653	14069
861.786	13970
861.918	14126
862.05	14107
862.183	14149
862.315	14092
862.447	14267
862.58	14054
862.712	13970
862.844	13822
862.976	13921
863.108	13982
863.24	14290
863.372	13849
863.504	14005
863.636	13978
863.768	14005
863.9	13940
864.032	13883
864.164	13974
864.296	13959
864.428	14065
864.559	13986
864.691	14012
864.823	14054
864.954	14058
865.086	13993
865.217	13925
865.349	13849
865.48	14008
865.612	13913
865.743	14012
865.875	13955
866.006	13871
866.137	13909
866.269	13856
866.4	13917
866.531	13974
866.662	13967
866.793	13860
866.924	13879
867.055	13940
867.186	13849
867.317	13887
867.448	13765
867.579	13947
867.71	13902
867.841	13826
867.972	13944
868.103	13856
868.233	13936
868.364	13951
868.495	14024
868.625	14164
868.756	14214
868.886	14065
869.017	14202
869.147	14320
869.278	14237
869.408	14229
869.539	14199
869.669	14210
869.799	14153
869.929	14271
870.06	14263
870.19	14530
870.32	14511
870.45	14568
870.58	14594
870.71	14651
870.84	14625
870.97	14583
871.1	14514
871.23	14872
871.36	14811
871.489	14705
871.619	14682
871.749	14739
871.879	14735
872.008	14849
872.138	14792
872.267	14777
872.397	14727
872.526	14663
872.656	14571
872.785	14629
872.915	14834
873.044	14872
873.173	14868
873.303	14914
873.432	14872
873.561	14895
873.69	14785
873.819	14781
873.948	14933
874.077	14876
874.206	14777
874.335	14902
874.464	14918
874.593	15211
874.722	15051
874.851	15192
874.979	15138
875.108	15169
875.237	14990
875.365	15032
875.494	15165
875.623	15085
875.751	15150
875.88	15207
876.008	15252
876.136	15416
876.265	15656
876.393	15679
876.521	15686
876.65	15622
876.778	15523
876.906	15473
877.034	15545
877.162	15473
877.29	15473
877.418	15595
877.546	15599
877.674	15504
877.802	15557
877.93	15561
878.058	15473
878.185	15405
878.313	15492
878.441	15526
878.568	15405
878.696	15515
878.824	15507
878.951	15614
879.079	15865
879.206	15854
879.333	15713
879.461	15610
879.588	15671
879.715	15701
879.842	15755
879.97	15587
880.097	15393
880.224	15344
880.351	15439
880.478	15378
880.605	15420
880.732	15462
880.859	15739
880.986	15382
881.112	15420
881.239	15439
881.366	15195
881.493	15070
881.619	15066
881.746	15028
881.872	15093
881.999	15062
882.125	14990
882.252	15085
882.378	14971
882.505	15222
882.631	15039
882.757	14807
882.883	14960
883.01	14887
883.136	14925
883.262	14746
883.388	14845
883.514	14826
883.64	14994
883.766	14864
883.892	14701
884.018	14819
884.143	14891
884.269	14918
884.395	14648
884.52	14648
884.646	14663
884.772	14518
884.897	14518
885.023	14625
885.148	14693
885.274	14720
885.399	14731
885.524	14545
885.65	14594
885.775	14598
885.9	14602
886.025	14769
886.15	14724
886.275	14537
886.4	14442
886.525	14522
886.65	14492
886.775	14571
886.9	14758
887.025	14823
887.149	14625
887.274	14461
887.399	14461
887.523	14434
887.648	14324
887.773	14328
887.897	14560
888.021	14511
888.146	14290
888.27	14488
888.395	14514
888.519	14530
888.643	14473
888.767	14438
888.891	14336
889.015	14278
889.139	14298
889.263	14294
889.387	14351
889.511	14457
889.635	14423
889.759	14275
889.883	14214
890.006	14351
890.13	14484
890.254	14218
890.377	14214
890.501	14081
890.624	14043
890.748	14138
890.871	14050
890.995	13909
891.118	13902
891.241	14008
891.364	14031
891.488	14062
891.611	13989
891.734	14062
891.857	14035
891.98	13898
892.103	14142
892.226	14005
892.349	13913
892.471	13830
892.594	14058
892.717	13959
892.839	14039
892.962	14001
893.085	14058
893.207	13928
893.33	13818
893.452	13818
893.575	14134
893.697	13997
893.819	14168
893.941	14187
894.064	14149
894.186	13963
894.308	13932
894.43	14123
894.552	14271
894.674	14149
894.796	13982
894.918	13993
895.04	13989
895.161	14149
895.283	14073
895.405	14119
895.526	14111
895.648	14115
895.769	14046
895.891	14103
896.012	14221
896.134	14206
896.255	14134
896.376	14123
896.498	14126
896.619	14183
896.74	14130
896.861	14191
896.982	14659
897.103	14629
897.224	14473
897.345	14442
897.466	14370
897.587	14469
897.708	14537
897.828	14522
897.949	14465
898.07	14419
898.19	14412
898.311	14571
898.431	14450
898.552	14526
898.672	14587
898.792	14674
898.913	14537
899.033	14465
899.153	14355
899.273	14294
899.393	14256
899.513	14263
899.633	14328
899.753	14446
899.873	14385
899.993	14476
900.113	14347
900.232	14339
900.352	14469
900.472	14370
900.591	14172
900.711	14252
900.83	14191
900.95	14358
901.069	14286
901.189	14153
901.308	14043
901.427	13932
901.546	13944
901.665	13864
901.784	13932
901.904	13826
902.023	13750
902.141	13590
902.26	13430
902.379	13571
902.498	13441
902.617	13491
902.735	13571
902.854	13540
902.973	13506
903.091	13255
903.21	13152
903.328	13266
903.446	13164
903.565	13034
903.683	13187
903.801	12935
903.919	13084
904.038	13038
904.156	12791
904.274	12890
904.392	12875
904.51	12905
904.627	12852
904.745	12905
904.863	12966
904.981	12654
905.098	12517
905.216	12574
905.334	12582
905.451	12578
905.569	12464
905.686	12566
905.803	12582
905.921	12410
906.038	12498
906.155	12429
906.272	12270
906.389	12285
906.506	12106
906.623	12136
906.74	12136
906.857	11996
906.974	12026
907.091	12254
907.208	12315
907.324	12171
907.441	12011
907.557	11965
907.674	11939
907.79	11912
907.907	11802
908.023	11984
908.139	11893
908.256	11813
908.372	11847
908.488	11805
908.604	11672
908.72	11703
908.836	11703
908.952	11649
909.068	11714
909.184	11794
909.3	11707
909.415	11729
909.531	11695
909.647	11455
909.762	11448
909.878	11463
909.993	11512
910.108	11436
910.224	11402
910.339	11448
910.454	11322
910.57	11337
910.685	11246
910.8	11509
910.915	11486
911.03	11440
911.145	11090
911.259	11071
911.374	11109
911.489	11090
911.604	11006
911.718	10858
911.833	10889
911.947	10854
912.062	10763
912.176	10919
912.291	10885
912.405	10889
912.519	11014
912.633	11083
912.748	10965
912.862	10942
912.976	10763
913.09	10744
913.204	10744
913.318	10778
913.431	10850
913.545	10824
913.659	10900
913.772	10767
913.886	10801
914	10656
914.113	10736
914.226	10843
914.34	10790
914.453	10546
914.566	10778
914.68	10630
914.793	10535
914.906	10417
915.019	10390
915.132	10371
915.245	10371
915.358	10504
915.47	10432
915.583	10417
915.696	10497
915.809	10561
915.921	10558
916.034	10440
916.146	10386
916.259	10329
916.371	10474
916.483	10356
916.595	10306
916.708	10276
916.82	10405
916.932	10284
917.044	10360
917.156	10306
917.268	10204
917.38	10291
917.491	10261
917.603	10295
917.715	10322
917.826	10314
917.938	10238
918.049	10105
918.161	10268
918.272	10386
918.384	10306
918.495	10242
918.606	10071
918.717	10124
918.828	10093
918.939	10131
919.05	10078
919.161	10131
919.272	9975
919.383	9956
919.494	10219
919.604	10280
919.715	10207
919.826	10128
919.936	10139
920.047	10196
920.157	10139
920.267	10272
920.378	10166
920.488	10204
920.598	10348
920.708	10409
920.818	10310
920.928	10341
921.038	10481
921.148	10531
921.258	10188
921.368	10169
921.477	10032
921.587	10010
921.697	9937
921.806	9991
921.916	9937
922.025	9755
922.134	9694
922.244	9667
922.353	9690
922.462	9663
922.571	9561
922.68	9504
922.789	9374
922.898	9450
923.007	9393
923.116	9424
923.224	9363
923.333	9386
923.442	9283
923.55	9260
923.659	9306
923.767	9374
923.876	9241
923.984	9386
924.092	9226
924.201	9233
924.309	9336
924.417	9291
924.525	9245
924.633	9275
924.741	10177
924.849	9047
924.956	9211
925.064	9119
925.172	8918
925.279	9039
925.387	9039
925.494	9039
925.602	9207
925.709	9173
925.816	9062
925.924	9001
926.031	9157
926.138	9097
926.245	9089
926.352	9017
926.459	9184
926.566	9165
926.673	9055
926.779	8933
926.886	8956
926.993	8815
927.099	8823
927.206	8781
927.312	8712
927.419	8826
927.525	8842
927.631	8826
927.737	8693
927.843	8648
927.95	8606
928.056	8674
928.162	8777
928.267	8708
928.373	9321
928.479	8743
928.585	8564
928.69	8682
928.796	8693
928.901	8598
929.007	8503
929.112	8610
929.218	8568
929.323	8457
929.428	8434
929.533	8636
929.638	8396
929.743	8514
929.848	8549
929.953	8469
930.058	8423
930.163	8225
930.267	8286
930.372	8381
930.477	8244
930.581	8442
930.685	8339
930.79	8202
930.894	8267
930.998	8218
931.103	8415
931.207	8012
931.311	7986
931.415	7871
931.519	7780
931.623	7693
