Data from test_V78500241_914.txt Node
Date: Fri Mar 25 14:40:04 CST 2022
User: usil
Spectrometer: V785-0024
Trigger mode: 0
Integration Time (sec): 4.000000E-1
Scans to average: 1
Nonlinearity correction enabled: false
Boxcar width: 0
Storing dark spectrum: false
XAxis mode: Wavelengths
Number of Pixels in Spectrum: 1024
>>>>>Begin Spectral Data<<<<<
801.071	24840
801.214	24604
801.356	24559
801.499	24361
801.641	24216
801.783	24053
801.926	24114
802.068	24163
802.211	24007
802.353	23973
802.496	23691
802.638	23649
802.78	23604
802.923	23474
803.065	23592
803.208	23551
803.35	23570
803.492	23493
803.635	23592
803.777	23467
803.919	23558
804.061	23813
804.204	23627
804.346	23497
804.488	23425
804.63	23547
804.773	23250
804.915	23524
805.057	23745
805.199	23482
805.341	23577
805.483	23600
805.626	23657
805.768	23463
805.91	23745
806.052	23775
806.194	23554
806.336	23859
806.478	23855
806.62	23832
806.762	23847
806.904	24026
807.046	24380
807.188	24319
807.33	24391
807.472	24547
807.614	24540
807.756	24715
807.898	24856
808.04	24852
808.182	25392
808.324	25784
808.465	26442
808.607	27009
808.749	27610
808.891	27880
809.033	27907
809.174	27724
809.316	26963
809.458	26450
809.6	26016
809.741	25628
809.883	25217
810.025	25133
810.166	25080
810.308	24795
810.45	24513
810.591	24521
810.733	24311
810.875	24045
811.016	23954
811.158	23977
811.299	24106
811.441	24174
811.582	24163
811.724	23863
811.865	23866
812.007	23843
812.148	23813
812.29	23988
812.431	24060
812.573	24171
812.714	24190
812.855	24129
812.997	24494
813.138	24509
813.279	24475
813.421	24311
813.562	24254
813.703	23923
813.845	23992
813.986	23718
814.127	23528
814.268	23436
814.41	23372
814.551	23337
814.692	23452
814.833	23223
814.974	23261
815.115	23345
815.256	23124
815.397	23025
815.539	23113
815.68	23029
815.821	23010
815.962	23025
816.103	23037
816.244	22850
816.385	22725
816.526	22721
816.666	22641
816.807	22432
816.948	22481
817.089	22542
817.23	22451
817.371	22440
817.512	22451
817.653	22295
817.793	22352
817.934	22413
818.075	22538
818.216	22268
818.356	22363
818.497	22238
818.638	21998
818.778	22211
818.919	22051
819.06	22196
819.2	22044
819.341	22253
819.481	22306
819.622	22409
819.762	22561
819.903	22466
820.043	22413
820.184	22428
820.324	22352
820.465	22371
820.605	22242
820.746	22356
820.886	22116
821.026	22295
821.167	22291
821.307	22386
821.447	22105
821.588	22135
821.728	21918
821.868	21915
822.008	21739
822.149	21568
822.289	21686
822.429	21302
822.569	21344
822.709	21268
822.849	21123
822.99	21150
823.13	21070
823.27	21047
823.41	20971
823.55	20986
823.69	20933
823.83	20880
823.97	20906
824.11	20636
824.25	20575
824.389	20590
824.529	20697
824.669	20655
824.809	20758
824.949	20792
825.089	20834
825.228	20659
825.368	20473
825.508	20465
825.648	20473
825.787	20495
825.927	20651
826.067	20518
826.206	20450
826.346	20480
826.485	20450
826.625	20480
826.765	20480
826.904	20423
827.044	20256
827.183	20328
827.323	20092
827.462	20126
827.601	20191
827.741	20069
827.88	20271
828.02	20054
828.159	20058
828.298	20092
828.437	20248
828.577	20012
828.716	20092
828.855	20005
828.994	19936
829.134	19814
829.273	19944
829.412	19928
829.551	19811
829.69	19830
829.829	19830
829.968	19928
830.107	19875
830.246	19814
830.385	19795
830.524	19708
830.663	19670
830.802	19521
830.941	19388
831.08	19487
831.219	19544
831.357	19377
831.496	19658
831.635	19460
831.774	19377
831.913	19225
832.051	19251
832.19	19141
832.329	19365
832.467	19099
832.606	19107
832.744	19076
832.883	19038
833.022	19190
833.16	19209
833.299	19114
833.437	19206
833.576	19297
833.714	19339
833.852	19175
833.991	19362
834.129	19415
834.267	19312
834.406	19293
834.544	19335
834.682	19270
834.821	19308
834.959	19324
835.097	19221
835.235	19304
835.373	19266
835.511	19164
835.65	19103
835.788	19034
835.926	18935
836.064	18875
836.202	18867
836.34	19023
836.478	19057
836.615	18947
836.753	19019
836.891	19091
837.029	18962
837.167	18878
837.305	18890
837.443	18886
837.58	18764
837.718	18840
837.856	18905
837.993	18684
838.131	18703
838.269	18563
838.406	18738
838.544	18627
838.681	18437
838.819	18429
838.956	18186
839.094	18270
839.231	18456
839.369	18525
839.506	18734
839.643	18578
839.781	18254
839.918	18346
840.055	18330
840.193	18304
840.33	18292
840.467	18323
840.604	18380
840.742	18509
840.879	18068
841.016	18167
841.153	18239
841.29	18418
841.427	18262
841.564	18273
841.701	18426
841.838	18220
841.975	18171
842.112	18251
842.249	18091
842.385	17999
842.522	18174
842.659	18095
842.796	18095
842.933	18019
843.069	17965
843.206	17996
843.343	18114
843.479	18053
843.616	18072
843.752	17851
843.889	17859
844.025	18049
844.162	17752
844.298	17988
844.435	17904
844.571	17874
844.708	18053
844.844	18201
844.98	18262
845.117	18338
845.253	18372
845.389	18566
845.525	19088
845.661	20005
845.798	20941
845.934	21975
846.07	22489
846.206	22413
846.342	21736
846.478	20347
846.614	19198
846.75	18544
846.886	18106
847.022	17935
847.158	17767
847.294	17581
847.429	17611
847.565	17505
847.701	17756
847.837	17200
847.972	17003
848.108	17315
848.244	17117
848.379	17056
848.515	17014
848.65	16911
848.786	16987
848.921	16953
849.057	16999
849.192	17041
849.328	16965
849.463	16900
849.598	16858
849.734	16759
849.869	16881
850.004	16736
850.14	16771
850.275	16561
850.41	16603
850.545	16660
850.68	16672
850.815	16558
850.95	16542
851.085	16816
851.22	16816
851.355	16679
851.49	16588
851.625	16596
851.76	16493
851.895	16390
852.03	16531
852.165	16637
852.299	16641
852.434	16744
852.569	16733
852.703	16618
852.838	16691
852.973	16824
853.107	16809
853.242	16698
853.376	16523
853.511	16474
853.645	16474
853.78	16733
853.914	16550
854.048	16497
854.183	16508
854.317	16618
854.451	16679
854.585	16455
854.72	16508
854.854	16565
854.988	16413
855.122	16470
855.256	16314
855.39	16531
855.524	16516
855.658	16481
855.792	16565
855.926	16508
856.06	16561
856.194	16641
856.327	16558
856.461	16538
856.595	16443
856.729	16550
856.862	16554
856.996	16504
857.13	16550
857.263	16615
857.397	16733
857.53	16436
857.664	16569
857.797	16615
857.931	16622
858.064	16588
858.197	16607
858.331	16542
858.464	16379
858.597	16314
858.731	16538
858.864	16360
858.997	16371
859.13	16508
859.263	16428
859.396	16542
859.529	16474
859.662	16398
859.795	16344
859.928	16451
860.061	16668
860.194	16660
860.327	16573
860.46	16421
860.592	16538
860.725	16599
860.858	16493
860.99	16443
861.123	16367
861.256	16322
861.388	16424
861.521	17048
861.653	16409
861.786	16200
861.918	16291
862.05	16272
862.183	16402
862.315	16360
862.447	16455
862.58	16409
862.712	16257
862.844	16143
862.976	16177
863.108	16257
863.24	16736
863.372	16200
863.504	16185
863.636	16143
863.768	16204
863.9	16246
864.032	16120
864.164	16078
864.296	16188
864.428	16223
864.559	16242
864.691	16303
864.823	16177
864.954	16211
865.086	16090
865.217	16139
865.349	16090
865.48	16230
865.612	16188
865.743	16299
865.875	16185
866.006	16211
866.137	16169
866.269	16078
866.4	16158
866.531	16059
866.662	16112
866.793	16093
866.924	16177
867.055	16040
867.186	16166
867.317	16036
867.448	16048
867.579	16150
867.71	16036
867.841	16093
867.972	16200
868.103	16051
868.233	16188
868.364	16196
868.495	16116
868.625	16367
868.756	16363
868.886	16287
869.017	16348
869.147	16462
869.278	16512
869.408	16440
869.539	16382
869.669	16508
869.799	16356
869.929	16519
870.06	16516
870.19	16645
870.32	16607
870.45	16790
870.58	16824
870.71	16889
870.84	16889
870.97	16698
871.1	16683
871.23	16919
871.36	16927
871.489	16771
871.619	16889
871.749	16896
871.879	17018
872.008	17006
872.138	16972
872.267	16908
872.397	16828
872.526	16744
872.656	16733
872.785	16843
872.915	17037
873.044	17117
873.173	17064
873.303	16980
873.432	17056
873.561	17200
873.69	17159
873.819	17033
873.948	17113
874.077	17022
874.206	17033
874.335	17117
874.464	17200
874.593	17356
874.722	17239
874.851	17303
874.979	17345
875.108	17520
875.237	17353
875.365	17326
875.494	17356
875.623	17467
875.751	17372
875.88	17372
876.008	17547
876.136	17634
876.265	17935
876.393	17904
876.521	18060
876.65	18038
876.778	17775
876.906	17779
877.034	17863
877.162	17893
877.29	17878
877.418	17920
877.546	17969
877.674	17901
877.802	17920
877.93	17992
878.058	17984
878.185	17992
878.313	18007
878.441	18125
878.568	18076
878.696	18311
878.824	18391
878.951	18795
879.079	19042
879.206	19537
879.333	19795
879.461	19963
879.588	20111
879.715	20275
879.842	20237
879.97	19681
880.097	19187
880.224	18916
880.351	18650
880.478	18494
880.605	18486
880.732	18270
880.859	18513
880.986	18270
881.112	18201
881.239	18079
881.366	18026
881.493	18007
881.619	17999
881.746	17851
881.872	17866
881.999	17863
882.125	17866
882.252	17973
882.378	17946
882.505	18125
882.631	17851
882.757	17699
882.883	17847
883.01	17668
883.136	17634
883.262	17668
883.388	17554
883.514	17722
883.64	17764
883.766	17676
883.892	17573
884.018	17474
884.143	17699
884.269	17760
884.395	17448
884.52	17417
884.646	17284
884.772	17261
884.897	17258
885.023	17391
885.148	17459
885.274	17581
885.399	17387
885.524	17303
885.65	17326
885.775	17216
885.9	17197
886.025	17402
886.15	17216
886.275	17155
886.4	17056
886.525	17136
886.65	17113
886.775	17117
886.9	17147
887.025	17353
887.149	17048
887.274	16923
887.399	16873
887.523	16919
887.648	16691
887.773	16778
887.897	16877
888.021	16961
888.146	16748
888.27	16877
888.395	16908
888.519	16782
888.643	16820
888.767	16854
888.891	16752
889.015	16504
889.139	16538
889.263	16615
889.387	16618
889.511	16736
889.635	16771
889.759	16455
889.883	16428
890.006	16580
890.13	16554
890.254	16360
890.377	16428
890.501	16268
890.624	16238
890.748	16325
890.871	16162
890.995	16147
891.118	16086
891.241	16192
891.364	16177
891.488	16303
891.611	16055
891.734	16185
891.857	16188
891.98	16185
892.103	16105
892.226	16116
892.349	16013
892.471	16013
892.594	16074
892.717	16105
892.839	16150
892.962	16021
893.085	16071
893.207	16013
893.33	15884
893.452	15949
893.575	15975
893.697	16120
893.819	16185
893.941	16147
894.064	16112
894.186	15930
894.308	15949
894.43	16120
894.552	16158
894.674	16090
894.796	15945
894.918	16071
895.04	16135
895.161	16067
895.283	16139
895.405	16048
895.526	16101
895.648	16097
895.769	16078
895.891	16082
896.012	16120
896.134	16109
896.255	16158
896.376	16032
896.498	16158
896.619	16090
896.74	16135
896.861	16120
896.982	16466
897.103	16603
897.224	16481
897.345	16405
897.466	16280
897.587	16329
897.708	16405
897.828	16344
897.949	16443
898.07	16253
898.19	16272
898.311	16535
898.431	16344
898.552	16443
898.672	16508
898.792	16580
898.913	16405
899.033	16371
899.153	16341
899.273	16299
899.393	16306
899.513	16390
899.633	16405
899.753	16322
899.873	16215
899.993	16344
900.113	16154
900.232	16284
900.352	16215
900.472	16246
900.591	16143
900.711	16071
900.83	16101
900.95	16272
901.069	16284
901.189	15987
901.308	15831
901.427	15736
901.546	15781
901.665	15903
901.784	15823
901.904	15717
902.023	15564
902.141	15416
902.26	15370
902.379	15473
902.498	15222
902.617	15184
902.735	15344
902.854	15329
902.973	15279
903.091	14963
903.21	14975
903.328	14918
903.446	14971
903.565	14800
903.683	14891
903.801	14644
903.919	14769
904.038	14735
904.156	14613
904.274	14727
904.392	14621
904.51	14655
904.627	14617
904.745	14613
904.863	14644
904.981	14339
905.098	14229
905.216	14176
905.334	14294
905.451	14233
905.569	14191
905.686	14263
905.803	14221
905.921	14027
906.038	14046
906.155	14031
906.272	13864
906.389	13932
906.506	13845
906.623	13807
906.74	13795
906.857	13689
906.974	13712
907.091	13765
907.208	13845
907.324	13811
907.441	13700
907.557	13426
907.674	13472
907.79	13403
907.907	13388
908.023	13559
908.139	13559
908.256	13464
908.372	13403
908.488	13354
908.604	13289
908.72	13228
908.836	13168
908.952	13263
909.068	13263
909.184	13324
909.3	13232
909.415	13244
909.531	13206
909.647	13031
909.762	13080
909.878	12856
909.993	12985
910.108	12943
910.224	12825
910.339	12829
910.454	12871
910.57	12730
910.685	12684
910.8	12943
910.915	13015
911.03	12817
911.145	12703
911.259	12563
911.374	12616
911.489	12498
911.604	12422
911.718	12388
911.833	12418
911.947	12216
912.062	12159
912.176	12304
912.291	12350
912.405	12410
912.519	12540
912.633	12631
912.748	12369
912.862	12334
912.976	12155
913.09	12026
913.204	12186
913.318	12171
913.431	12266
913.545	12254
913.659	12384
913.772	12228
913.886	12121
914	12136
914.113	12167
914.226	12300
914.34	12201
914.453	11977
914.566	12144
914.68	12022
914.793	11961
914.906	11863
915.019	11760
915.132	11676
915.245	11817
915.358	11882
915.47	11748
915.583	11843
915.696	11851
915.809	11961
915.921	11954
916.034	11745
916.146	11710
916.259	11722
916.371	11870
916.483	11783
916.595	11672
916.708	11661
916.82	11714
916.932	11707
917.044	11703
917.156	11745
917.268	11566
917.38	11638
917.491	11509
917.603	11680
917.715	11611
917.826	11767
917.938	11493
918.049	11433
918.161	11630
918.272	11699
918.384	11611
918.495	11532
918.606	11467
918.717	11417
918.828	11402
918.939	11486
919.05	11345
919.161	11444
919.272	11292
919.383	11322
919.494	11509
919.604	11691
919.715	11539
919.826	11364
919.936	11395
920.047	11520
920.157	11474
920.267	11627
920.378	11490
920.488	11455
920.598	11646
920.708	11748
920.818	11634
920.928	11570
921.038	11809
921.148	11703
921.258	11379
921.368	11376
921.477	11265
921.587	11258
921.697	11197
921.806	11315
921.916	11162
922.025	11018
922.134	10953
922.244	10930
922.353	11010
922.462	10828
922.571	10729
922.68	10679
922.789	10508
922.898	10599
923.007	10542
923.116	10744
923.224	10641
923.333	10592
923.442	10489
923.55	10538
923.659	10535
923.767	10592
923.876	10519
923.984	10478
924.092	10436
924.201	10500
924.309	10504
924.417	10421
924.525	10314
924.633	10428
924.741	11170
924.849	10162
924.956	10379
925.064	10196
925.172	10086
925.279	10196
925.387	10173
925.494	10128
925.602	10314
925.709	10341
925.816	10086
925.924	10227
926.031	10242
926.138	10242
926.245	10276
926.352	10093
926.459	10280
926.566	10356
926.673	10101
926.779	10036
926.886	10059
926.993	9907
927.099	9857
927.206	9808
927.312	9831
927.419	9956
927.525	9850
927.631	9945
927.737	9876
927.843	9679
927.95	9622
928.056	9709
928.162	9774
928.267	9819
928.373	10348
928.479	9800
928.585	9656
928.69	9713
928.796	9774
928.901	9641
929.007	9507
929.112	9694
929.218	9561
929.323	9568
929.428	9519
929.533	9686
929.638	9488
929.743	9481
929.848	9542
929.953	9557
930.058	9389
930.163	9245
930.267	9287
930.372	9488
930.477	9211
930.581	9450
930.685	9382
930.79	9222
930.894	9283
930.998	9211
931.103	9401
931.207	9058
931.311	8956
931.415	8864
931.519	8727
931.623	8648
