Data from test_V78500241_3437.txt Node
Date: Fri Mar 25 14:57:38 CST 2022
User: usil
Spectrometer: V785-0024
Trigger mode: 0
Integration Time (sec): 4.000000E-1
Scans to average: 1
Nonlinearity correction enabled: false
Boxcar width: 0
Storing dark spectrum: false
XAxis mode: Wavelengths
Number of Pixels in Spectrum: 1024
>>>>>Begin Spectral Data<<<<<
801.071	21994
801.214	21785
801.356	21477
801.499	21397
801.641	21363
801.783	21363
801.926	21298
802.068	21108
802.211	21207
802.353	21176
802.496	20883
802.638	20864
802.78	20682
802.923	20800
803.065	20644
803.208	20530
803.35	20632
803.492	20682
803.635	20720
803.777	20651
803.919	20606
804.061	20952
804.204	20785
804.346	20495
804.488	20549
804.63	20564
804.773	20495
804.915	20522
805.057	20598
805.199	20526
805.341	20492
805.483	20560
805.626	20587
805.768	20526
805.91	20552
806.052	20552
806.194	20488
806.336	20686
806.478	20514
806.62	20408
806.762	20629
806.904	20720
807.046	20971
807.188	20842
807.33	20910
807.472	20861
807.614	20678
807.756	20769
807.898	20568
808.04	20518
808.182	20739
808.324	20503
808.465	20617
808.607	20739
808.749	20838
808.891	20990
809.033	20895
809.174	20849
809.316	20902
809.458	20857
809.6	20720
809.741	20971
809.883	20838
810.025	21032
810.166	20982
810.308	20975
810.45	20967
810.591	20929
810.733	20849
810.875	20655
811.016	20571
811.158	20533
811.299	20609
811.441	20724
811.582	20807
811.724	20632
811.865	20518
812.007	20590
812.148	20632
812.29	20773
812.431	20773
812.573	20956
812.714	21093
812.855	21165
812.997	21176
813.138	21275
813.279	21241
813.421	21039
813.562	20990
813.703	20887
813.845	20796
813.986	20507
814.127	20370
814.268	20202
814.41	20199
814.551	20149
814.692	20259
814.833	20122
814.974	19997
815.115	20130
815.256	19967
815.397	19928
815.539	20046
815.68	19814
815.821	19883
815.962	19841
816.103	19879
816.244	19643
816.385	19681
816.526	19681
816.666	19457
816.807	19335
816.948	19430
817.089	19434
817.23	19434
817.371	19244
817.512	19320
817.653	19244
817.793	19244
817.934	19324
818.075	19320
818.216	19266
818.356	19209
818.497	19202
818.638	19008
818.778	19122
818.919	19000
819.06	19057
819.2	19145
819.341	19118
819.481	19141
819.622	19411
819.762	19616
819.903	19441
820.043	19343
820.184	19365
820.324	19297
820.465	19331
820.605	19183
820.746	19289
820.886	19209
821.026	19304
821.167	19289
821.307	19259
821.447	19293
821.588	19061
821.728	18996
821.868	19000
822.008	18696
822.149	18730
822.289	18738
822.429	18589
822.569	18418
822.709	18403
822.849	18323
822.99	18292
823.13	18247
823.27	18197
823.41	18038
823.55	17901
823.69	18060
823.83	17999
823.97	17958
824.11	17707
824.25	17893
824.389	17756
824.529	17897
824.669	17840
824.809	17942
824.949	17794
825.089	17836
825.228	17855
825.368	17646
825.508	17615
825.648	17570
825.787	17592
825.927	17634
826.067	17642
826.206	17524
826.346	17486
826.485	17615
826.625	17547
826.765	17615
826.904	17680
827.044	17288
827.183	17284
827.323	17258
827.462	17425
827.601	17246
827.741	17235
827.88	17223
828.02	17200
828.159	17277
828.298	17212
828.437	17318
828.577	17261
828.716	17539
828.855	17242
828.994	17056
829.134	17041
829.273	16961
829.412	16961
829.551	17067
829.69	17022
829.829	17060
829.968	17132
830.107	17109
830.246	17159
830.385	16923
830.524	16900
830.663	16828
830.802	16786
830.941	16615
831.08	16664
831.219	16752
831.357	16687
831.496	16847
831.635	16725
831.774	16588
831.913	16451
832.051	16561
832.19	16447
832.329	16462
832.467	16390
832.606	16405
832.744	16299
832.883	16409
833.022	16295
833.16	16379
833.299	16436
833.437	16428
833.576	16481
833.714	16394
833.852	16375
833.991	16409
834.129	16478
834.267	16455
834.406	16493
834.544	16527
834.682	16409
834.821	16428
834.959	16618
835.097	16451
835.235	16443
835.373	16523
835.511	16462
835.65	16314
835.788	16348
835.926	16158
836.064	16162
836.202	16188
836.34	16348
836.478	16497
836.615	16352
836.753	16318
836.891	16512
837.029	16341
837.167	16291
837.305	16230
837.443	16280
837.58	16116
837.718	16204
837.856	16257
837.993	16181
838.131	16219
838.269	16109
838.406	16021
838.544	16090
838.681	15983
838.819	15899
838.956	15755
839.094	15660
839.231	15835
839.369	15972
839.506	16223
839.643	16051
839.781	15873
839.918	15720
840.055	15789
840.193	15762
840.33	15831
840.467	15656
840.604	15892
840.742	15888
840.879	15679
841.016	15762
841.153	15705
841.29	15937
841.427	15774
841.564	15770
841.701	15701
841.838	15682
841.975	15625
842.112	15675
842.249	15682
842.385	15523
842.522	15778
842.659	15523
842.796	15515
842.933	15542
843.069	15511
843.206	15412
843.343	15690
843.479	15553
843.616	15622
843.752	15348
843.889	15420
844.025	15523
844.162	15249
844.298	15450
844.435	15386
844.571	15344
844.708	15272
844.844	15454
844.98	15477
845.117	15557
845.253	15233
845.389	15176
845.525	15218
845.661	15256
845.798	15051
845.934	15230
846.07	15112
846.206	15199
846.342	15256
846.478	15146
846.614	14853
846.75	14925
846.886	14830
847.022	14994
847.158	14910
847.294	14929
847.429	14883
847.565	14857
847.701	15207
847.837	14659
847.972	14488
848.108	14720
848.244	14750
848.379	14545
848.515	14465
848.65	14499
848.786	14492
848.921	14560
849.057	14610
849.192	14530
849.328	14499
849.463	14621
849.598	14503
849.734	14412
849.869	14332
850.004	14320
850.14	14358
850.275	14259
850.41	14210
850.545	14221
850.68	14317
850.815	14336
850.95	14324
851.085	14492
851.22	14415
851.355	14275
851.49	14225
851.625	14180
851.76	14252
851.895	14092
852.03	14172
852.165	14267
852.299	14298
852.434	14355
852.569	14240
852.703	14294
852.838	14328
852.973	14377
853.107	14415
853.242	14168
853.376	14134
853.511	14001
853.645	14206
853.78	14290
853.914	14218
854.048	14123
854.183	14058
854.317	14145
854.451	14336
854.585	14088
854.72	14149
854.854	14248
854.988	14058
855.122	14096
855.256	13993
855.39	14081
855.524	14218
855.658	14149
855.792	14259
855.926	14225
856.06	14267
856.194	14263
856.327	14092
856.461	14077
856.595	14027
856.729	14145
856.862	14183
856.996	14206
857.13	14267
857.263	14240
857.397	14161
857.53	14225
857.664	14183
857.797	14229
857.931	14324
858.064	14149
858.197	14324
858.331	14130
858.464	14027
858.597	14081
858.731	14123
858.864	14195
858.997	14069
859.13	14195
859.263	14024
859.396	14206
859.529	14149
859.662	14130
859.795	14100
859.928	14123
860.061	14362
860.194	14332
860.327	14244
860.46	14103
860.592	14313
860.725	14282
860.858	14358
860.99	14111
861.123	14100
861.256	14073
861.388	14157
861.521	14777
861.653	14111
861.786	14027
861.918	14008
862.05	14077
862.183	14142
862.315	14168
862.447	14092
862.58	14081
862.712	13909
862.844	13928
862.976	14031
863.108	13997
863.24	14408
863.372	13967
863.504	13936
863.636	13963
863.768	13986
863.9	13925
864.032	13849
864.164	13887
864.296	13986
864.428	14012
864.559	14088
864.691	13913
864.823	14035
864.954	13970
865.086	13906
865.217	13917
865.349	13761
865.48	13750
865.612	13913
865.743	14046
865.875	13986
866.006	13894
866.137	13845
866.269	13993
866.4	13909
866.531	13879
866.662	13849
866.793	13841
866.924	13970
867.055	13913
867.186	13906
867.317	13925
867.448	13742
867.579	13795
867.71	13769
867.841	13849
867.972	13959
868.103	13986
868.233	13959
868.364	13986
868.495	13906
868.625	14084
868.756	14248
868.886	14142
869.017	14084
869.147	14313
869.278	14259
869.408	14237
869.539	14244
869.669	14214
869.799	14229
869.929	14237
870.06	14275
870.19	14488
870.32	14507
870.45	14362
870.58	14541
870.71	14625
870.84	14739
870.97	14564
871.1	14431
871.23	14739
871.36	14842
871.489	14667
871.619	14758
871.749	14826
871.879	14823
872.008	14895
872.138	14785
872.267	14781
872.397	14762
872.526	14613
872.656	14598
872.785	14598
872.915	14758
873.044	14921
873.173	14743
873.303	14845
873.432	14811
873.561	14925
873.69	14834
873.819	14853
873.948	14994
874.077	14743
874.206	14792
874.335	14876
874.464	14979
874.593	15161
874.722	15081
874.851	15176
874.979	15146
875.108	15252
875.237	15104
875.365	14967
875.494	15135
875.623	15116
875.751	15173
875.88	15135
876.008	15279
876.136	15370
876.265	15458
876.393	15709
876.521	15564
876.65	15667
876.778	15622
876.906	15618
877.034	15511
877.162	15549
877.29	15488
877.418	15584
877.546	15572
877.674	15519
877.802	15542
877.93	15564
878.058	15568
878.185	15443
878.313	15523
878.441	15553
878.568	15313
878.696	15462
878.824	15610
878.951	15610
879.079	15705
879.206	15835
879.333	15671
879.461	15671
879.588	15660
879.715	15732
879.842	15823
879.97	15515
880.097	15564
880.224	15389
880.351	15443
880.478	15420
880.605	15355
880.732	15393
880.859	15561
880.986	15431
881.112	15416
881.239	15367
881.366	15169
881.493	15131
881.619	15089
881.746	14971
881.872	15108
881.999	15089
882.125	14956
882.252	15104
882.378	15066
882.505	15256
882.631	14986
882.757	14887
882.883	14948
883.01	14933
883.136	14773
883.262	14773
883.388	14762
883.514	14845
883.64	14918
883.766	14861
883.892	14762
884.018	14815
884.143	14925
884.269	14990
884.395	14716
884.52	14610
884.646	14583
884.772	14545
884.897	14476
885.023	14560
885.148	14659
885.274	14708
885.399	14693
885.524	14663
885.65	14583
885.775	14682
885.9	14503
886.025	14632
886.15	14731
886.275	14533
886.4	14499
886.525	14537
886.65	14583
886.775	14522
886.9	14670
887.025	14849
887.149	14587
887.274	14461
887.399	14415
887.523	14480
887.648	14263
887.773	14233
887.897	14514
888.021	14434
888.146	14298
888.27	14495
888.395	14579
888.519	14461
888.643	14473
888.767	14465
888.891	14339
889.015	14256
889.139	14290
889.263	14210
889.387	14389
889.511	14533
889.635	14446
889.759	14290
889.883	14210
890.006	14347
890.13	14396
890.254	14153
890.377	14252
890.501	14126
890.624	14050
890.748	14172
890.871	13963
890.995	14012
891.118	13925
891.241	13993
891.364	13936
891.488	14107
891.611	13887
891.734	13993
891.857	13993
891.98	13986
892.103	14054
892.226	14005
892.349	13986
892.471	13860
892.594	14054
892.717	13993
892.839	13940
892.962	13936
893.085	14084
893.207	13944
893.33	13928
893.452	13963
893.575	13951
893.697	13932
893.819	14130
893.941	14229
894.064	14153
894.186	13974
894.308	13936
894.43	14138
894.552	14221
894.674	14187
894.796	13841
894.918	14161
895.04	14027
895.161	14172
895.283	14084
895.405	13936
895.526	14103
895.648	14065
895.769	14100
895.891	14244
896.012	14214
896.134	14130
896.255	14252
896.376	14123
896.498	14126
896.619	14218
896.74	14058
896.861	14393
896.982	14476
897.103	14670
897.224	14495
897.345	14317
897.466	14339
897.587	14434
897.708	14518
897.828	14503
897.949	14404
898.07	14412
898.19	14381
898.311	14514
898.431	14374
898.552	14549
898.672	14579
898.792	14606
898.913	14518
899.033	14503
899.153	14305
899.273	14313
899.393	14339
899.513	14347
899.633	14320
899.753	14377
899.873	14351
899.993	14412
900.113	14355
900.232	14355
900.352	14286
900.472	14317
900.591	14065
900.711	14191
900.83	14172
900.95	14202
901.069	14370
901.189	14214
901.308	13913
901.427	13917
901.546	13871
901.665	13917
901.784	13887
901.904	13845
902.023	13723
902.141	13571
902.26	13430
902.379	13540
902.498	13415
902.617	13430
902.735	13575
902.854	13445
902.973	13392
903.091	13099
903.21	13133
903.328	13244
903.446	13107
903.565	13099
903.683	13015
903.801	12920
903.919	13015
904.038	13031
904.156	12947
904.274	12905
904.392	12833
904.51	12814
904.627	12897
904.745	12905
904.863	12954
904.981	12574
905.098	12528
905.216	12570
905.334	12612
905.451	12536
905.569	12559
905.686	12635
905.803	12654
905.921	12334
906.038	12475
906.155	12391
906.272	12258
906.389	12300
906.506	12159
906.623	12277
906.74	12083
906.857	11980
906.974	12026
907.091	12205
907.208	12266
907.324	12232
907.441	12102
907.557	11942
907.674	11855
907.79	11859
907.907	11851
908.023	11870
908.139	11973
908.256	11866
908.372	11790
908.488	11756
908.604	11699
908.72	11672
908.836	11688
908.952	11695
909.068	11672
909.184	11783
909.3	11707
909.415	11729
909.531	11684
909.647	11463
909.762	11501
909.878	11368
909.993	11383
910.108	11402
910.224	11402
910.339	11410
910.454	11345
910.57	11277
910.685	11102
910.8	11433
910.915	11417
911.03	11349
911.145	11170
911.259	11143
911.374	11174
911.489	11033
911.604	10999
911.718	10839
911.833	10869
911.947	10725
912.062	10702
912.176	10869
912.291	10972
912.405	10877
912.519	11045
912.633	11132
912.748	11010
912.862	10881
912.976	10850
913.09	10645
913.204	10797
913.318	10809
913.431	10835
913.545	10900
913.659	10831
913.772	10771
913.886	10733
914	10702
914.113	10752
914.226	10824
914.34	10710
914.453	10569
914.566	10774
914.68	10672
914.793	10584
914.906	10417
915.019	10287
915.132	10337
915.245	10379
915.358	10455
915.47	10440
915.583	10485
915.696	10497
915.809	10504
915.921	10599
916.034	10341
916.146	10367
916.259	10386
916.371	10447
916.483	10337
916.595	10344
916.708	10337
916.82	10344
916.932	10287
917.044	10230
917.156	10341
917.268	10188
917.38	10329
917.491	10219
917.603	10276
917.715	10402
917.826	10360
917.938	10185
918.049	10154
918.161	10246
918.272	10440
918.384	10405
918.495	10291
918.606	10067
918.717	10002
918.828	10207
918.939	10196
919.05	9956
919.161	10109
919.272	9850
919.383	10025
919.494	10135
919.604	10310
919.715	10120
919.826	10044
919.936	10078
920.047	10204
920.157	10150
920.267	10344
920.378	10242
920.488	10162
920.598	10344
920.708	10443
920.818	10280
920.928	10303
921.038	10531
921.148	10428
921.258	10128
921.368	10051
921.477	9994
921.587	10010
921.697	9838
921.806	9949
921.916	9888
922.025	9743
922.134	9663
922.244	9698
922.353	9724
922.462	9557
922.571	9538
922.68	9374
922.789	9306
922.898	9435
923.007	9367
923.116	9481
923.224	9408
923.333	9462
923.442	9287
923.55	9222
923.659	9283
923.767	9363
923.876	9268
923.984	9268
924.092	9142
924.201	9241
924.309	9272
924.417	9283
924.525	9188
924.633	9264
924.741	10086
924.849	8975
924.956	9173
925.064	9047
925.172	8960
925.279	9047
925.387	9123
925.494	9036
925.602	9226
925.709	9123
925.816	9024
925.924	9081
926.031	9100
926.138	9039
926.245	9108
926.352	9005
926.459	9116
926.566	9138
926.673	8990
926.779	8933
926.886	8975
926.993	8720
927.099	8777
927.206	8697
927.312	8716
927.419	8785
927.525	8849
927.631	8830
927.737	8644
927.843	8674
927.95	8507
928.056	8644
928.162	8686
928.267	8701
928.373	9294
928.479	8739
928.585	8610
928.69	8659
928.796	8716
928.901	8530
929.007	8438
929.112	8530
929.218	8533
929.323	8488
929.428	8514
929.533	8598
929.638	8480
929.743	8488
929.848	8511
929.953	8469
930.058	8423
930.163	8248
930.267	8237
930.372	8393
930.477	8202
930.581	8507
930.685	8328
930.79	8183
930.894	8199
930.998	8153
931.103	8366
931.207	8058
931.311	7989
931.415	7917
931.519	7719
931.623	7731
