Data from test_V78500241_3127.txt Node
Date: Fri Mar 25 14:55:29 CST 2022
User: usil
Spectrometer: V785-0024
Trigger mode: 0
Integration Time (sec): 4.000000E-1
Scans to average: 1
Nonlinearity correction enabled: false
Boxcar width: 0
Storing dark spectrum: false
XAxis mode: Wavelengths
Number of Pixels in Spectrum: 1024
>>>>>Begin Spectral Data<<<<<
801.071	22086
801.214	22021
801.356	21667
801.499	21488
801.641	21469
801.783	21344
801.926	21428
802.068	21450
802.211	21188
802.353	21135
802.496	21043
802.638	20891
802.78	20777
802.923	20739
803.065	20701
803.208	20590
803.35	20765
803.492	20929
803.635	20899
803.777	20838
803.919	20655
804.061	21058
804.204	20815
804.346	20606
804.488	20636
804.63	20648
804.773	20724
804.915	20670
805.057	20716
805.199	20552
805.341	20632
805.483	20823
805.626	20716
805.768	20613
805.91	20556
806.052	20644
806.194	20640
806.336	20716
806.478	20746
806.62	20533
806.762	20689
806.904	20781
807.046	21070
807.188	21074
807.33	21077
807.472	20960
807.614	20948
807.756	20960
807.898	20785
808.04	20644
808.182	20743
808.324	20644
808.465	20785
808.607	20792
808.749	20948
808.891	21013
809.033	21211
809.174	21199
809.316	20937
809.458	20933
809.6	20925
809.741	20998
809.883	21062
810.025	21237
810.166	21222
810.308	21203
810.45	21157
810.591	21119
810.733	20914
810.875	20807
811.016	20845
811.158	20697
811.299	20929
811.441	20921
811.582	20910
811.724	20765
811.865	20811
812.007	20788
812.148	20819
812.29	20765
812.431	20990
812.573	20990
812.714	21302
812.855	21291
812.997	21359
813.138	21500
813.279	21359
813.421	21325
813.562	21298
813.703	20975
813.845	20921
813.986	20773
814.127	20389
814.268	20347
814.41	20309
814.551	20454
814.692	20320
814.833	20233
814.974	20301
815.115	20339
815.256	20263
815.397	20202
815.539	20096
815.68	20043
815.821	20062
815.962	20119
816.103	19883
816.244	19898
816.385	19757
816.526	19860
816.666	19685
816.807	19381
816.948	19552
817.089	19426
817.23	19544
817.371	19438
817.512	19510
817.653	19445
817.793	19392
817.934	19453
818.075	19643
818.216	19476
818.356	19381
818.497	19316
818.638	19137
818.778	19061
818.919	19194
819.06	19110
819.2	19324
819.341	19388
819.481	19320
819.622	19563
819.762	19681
819.903	19685
820.043	19460
820.184	19403
820.324	19464
820.465	19518
820.605	19392
820.746	19460
820.886	19373
821.026	19445
821.167	19407
821.307	19400
821.447	19251
821.588	19171
821.728	19122
821.868	19000
822.008	18905
822.149	18856
822.289	18871
822.429	18506
822.569	18623
822.709	18433
822.849	18384
822.99	18372
823.13	18319
823.27	18251
823.41	18053
823.55	18019
823.69	18159
823.83	18125
823.97	18049
824.11	17946
824.25	17847
824.389	17840
824.529	17939
824.669	17996
824.809	17988
824.949	17882
825.089	17897
825.228	18003
825.368	17707
825.508	17756
825.648	17843
825.787	17684
825.927	17672
826.067	17691
826.206	17687
826.346	17783
826.485	17798
826.625	17707
826.765	17741
826.904	17668
827.044	17398
827.183	17448
827.323	17360
827.462	17364
827.601	17387
827.741	17406
827.88	17402
828.02	17246
828.159	17395
828.298	17478
828.437	17421
828.577	17391
828.716	17509
828.855	17425
828.994	17166
829.134	17197
829.273	17166
829.412	17067
829.551	17086
829.69	17140
829.829	17151
829.968	17231
830.107	17261
830.246	17174
830.385	17121
830.524	17083
830.663	17045
830.802	16923
830.941	16820
831.08	16725
831.219	16812
831.357	16889
831.496	16984
831.635	16717
831.774	16592
831.913	16630
832.051	16584
832.19	16516
832.329	16558
832.467	16489
832.606	16421
832.744	16352
832.883	16451
833.022	16443
833.16	16417
833.299	16436
833.437	16542
833.576	16478
833.714	16527
833.852	16497
833.991	16447
834.129	16588
834.267	16599
834.406	16546
834.544	16500
834.682	16516
834.821	16535
834.959	16649
835.097	16379
835.235	16550
835.373	16512
835.511	16405
835.65	16485
835.788	16299
835.926	16257
836.064	16207
836.202	16272
836.34	16436
836.478	16508
836.615	16432
836.753	16417
836.891	16459
837.029	16405
837.167	16447
837.305	16322
837.443	16200
837.58	16261
837.718	16280
837.856	16299
837.993	16188
838.131	16413
838.269	16124
838.406	16230
838.544	16158
838.681	15994
838.819	15953
838.956	15785
839.094	15899
839.231	15911
839.369	16067
839.506	16188
839.643	16101
839.781	15762
839.918	15766
840.055	15808
840.193	15819
840.33	15766
840.467	15949
840.604	15816
840.742	16086
840.879	15747
841.016	15656
841.153	15759
841.29	15930
841.427	15808
841.564	15850
841.701	15888
841.838	15713
841.975	15747
842.112	15701
842.249	15587
842.385	15564
842.522	15701
842.659	15584
842.796	15580
842.933	15652
843.069	15644
843.206	15584
843.343	15599
843.479	15576
843.616	15618
843.752	15405
843.889	15272
844.025	15435
844.162	15412
844.298	15359
844.435	15401
844.571	15313
844.708	15500
844.844	15507
844.98	15648
845.117	15504
845.253	15405
845.389	15268
845.525	15321
845.661	15344
845.798	15123
845.934	15329
846.07	15154
846.206	15138
846.342	15370
846.478	15165
846.614	15017
846.75	14952
846.886	14956
847.022	15013
847.158	15020
847.294	14941
847.429	15009
847.565	15005
847.701	15165
847.837	14705
847.972	14590
848.108	14746
848.244	14788
848.379	14583
848.515	14636
848.65	14484
848.786	14541
848.921	14682
849.057	14663
849.192	14678
849.328	14575
849.463	14556
849.598	14552
849.734	14465
849.869	14476
850.004	14370
850.14	14396
850.275	14301
850.41	14229
850.545	14370
850.68	14278
850.815	14237
850.95	14233
851.085	14396
851.22	14412
851.355	14400
851.49	14377
851.625	14320
851.76	14248
851.895	14263
852.03	14221
852.165	14309
852.299	14347
852.434	14431
852.569	14339
852.703	14362
852.838	14431
852.973	14473
853.107	14476
853.242	14336
853.376	14191
853.511	14058
853.645	14054
853.78	14305
853.914	14256
854.048	14142
854.183	14153
854.317	14275
854.451	14404
854.585	14149
854.72	14157
854.854	14229
854.988	14050
855.122	14123
855.256	14039
855.39	14256
855.524	14157
855.658	14176
855.792	14164
855.926	14301
856.06	14278
856.194	14362
856.327	14221
856.461	14153
856.595	14100
856.729	14248
856.862	14191
856.996	14298
857.13	14107
857.263	14317
857.397	14298
857.53	14237
857.664	14218
857.797	14282
857.931	14324
858.064	14259
858.197	14256
858.331	14199
858.464	14164
858.597	14126
858.731	14221
858.864	14126
858.997	14214
859.13	14271
859.263	14183
859.396	14221
859.529	14195
859.662	14111
859.795	14180
859.928	14214
860.061	14339
860.194	14320
860.327	14199
860.46	14157
860.592	14351
860.725	14324
860.858	14320
860.99	14153
861.123	14126
861.256	14164
861.388	14218
861.521	14834
861.653	14088
861.786	13997
861.918	14103
862.05	14130
862.183	14069
862.315	14183
862.447	14218
862.58	14176
862.712	13936
862.844	13860
862.976	14016
863.108	14016
863.24	14328
863.372	13967
863.504	14001
863.636	13944
863.768	13993
863.9	13902
864.032	13921
864.164	13959
864.296	13967
864.428	14092
864.559	14031
864.691	14092
864.823	14130
864.954	14020
865.086	14050
865.217	13967
865.349	13879
865.48	13917
865.612	13947
865.743	14077
865.875	14008
866.006	13894
866.137	13944
866.269	14024
866.4	13909
866.531	13883
866.662	13906
866.793	13921
866.924	13951
867.055	13947
867.186	13928
867.317	13837
867.448	13837
867.579	13913
867.71	13788
867.841	13913
867.972	13947
868.103	13951
868.233	14008
868.364	13852
868.495	14027
868.625	14248
868.756	14355
868.886	14130
869.017	14176
869.147	14229
869.278	14267
869.408	14290
869.539	14191
869.669	14267
869.799	14305
869.929	14400
870.06	14286
870.19	14571
870.32	14545
870.45	14495
870.58	14598
870.71	14762
870.84	14686
870.97	14670
871.1	14613
871.23	14750
871.36	14815
871.489	14678
871.619	14701
871.749	14853
871.879	14773
872.008	14853
872.138	14842
872.267	14720
872.397	14670
872.526	14583
872.656	14746
872.785	14693
872.915	14914
873.044	14979
873.173	14781
873.303	14849
873.432	14952
873.561	15028
873.69	14781
873.819	14826
873.948	14933
874.077	14804
874.206	14781
874.335	14918
874.464	15028
874.593	15249
874.722	15188
874.851	15184
874.979	15199
875.108	15199
875.237	15169
875.365	15028
875.494	15256
875.623	15275
875.751	15131
875.88	15127
876.008	15355
876.136	15428
876.265	15507
876.393	15747
876.521	15580
876.65	15759
876.778	15614
876.906	15511
877.034	15538
877.162	15519
877.29	15561
877.418	15564
877.546	15576
877.674	15629
877.802	15587
877.93	15606
878.058	15469
878.185	15412
878.313	15561
878.441	15584
878.568	15386
878.696	15443
878.824	15656
878.951	15625
879.079	15644
879.206	15831
879.333	15743
879.461	15572
879.588	15762
879.715	15819
879.842	15880
879.97	15660
880.097	15466
880.224	15454
880.351	15504
880.478	15367
880.605	15329
880.732	15523
880.859	15686
880.986	15477
881.112	15504
881.239	15310
881.366	15241
881.493	15199
881.619	15009
881.746	15013
881.872	15074
881.999	15097
882.125	15055
882.252	15230
882.378	15135
882.505	15226
882.631	15017
882.757	14914
882.883	15020
883.01	14906
883.136	14876
883.262	14811
883.388	14815
883.514	14925
883.64	14975
883.766	14899
883.892	14648
884.018	14769
884.143	14834
884.269	14990
884.395	14587
884.52	14571
884.646	14686
884.772	14644
884.897	14556
885.023	14598
885.148	14705
885.274	14712
885.399	14750
885.524	14629
885.65	14644
885.775	14689
885.9	14606
886.025	14762
886.15	14765
886.275	14533
886.4	14560
886.525	14602
886.65	14549
886.775	14530
886.9	14701
887.025	14845
887.149	14602
887.274	14454
887.399	14343
887.523	14336
887.648	14377
887.773	14358
887.897	14434
888.021	14495
888.146	14419
888.27	14568
888.395	14541
888.519	14587
888.643	14454
888.767	14514
888.891	14317
889.015	14233
889.139	14358
889.263	14305
889.387	14461
889.511	14556
889.635	14446
889.759	14263
889.883	14309
890.006	14298
890.13	14438
890.254	14263
890.377	14290
890.501	14046
890.624	14069
890.748	14180
890.871	14062
890.995	13982
891.118	13955
891.241	14039
891.364	14031
891.488	14100
891.611	14084
891.734	13932
891.857	14077
891.98	14005
892.103	14092
892.226	13890
892.349	14046
892.471	13830
892.594	14020
892.717	13947
892.839	14001
892.962	14046
893.085	13951
893.207	13947
893.33	14024
893.452	13925
893.575	14130
893.697	14035
893.819	14123
893.941	14195
894.064	14088
894.186	13928
894.308	14008
894.43	14134
894.552	14187
894.674	14088
894.796	14073
894.918	14046
895.04	14035
895.161	14130
895.283	14123
895.405	13993
895.526	14081
895.648	14100
895.769	14164
895.891	14202
896.012	14286
896.134	14191
896.255	14180
896.376	14145
896.498	14237
896.619	14240
896.74	14248
896.861	14256
896.982	14446
897.103	14674
897.224	14492
897.345	14434
897.466	14423
897.587	14465
897.708	14606
897.828	14454
897.949	14454
898.07	14362
898.19	14499
898.311	14636
898.431	14434
898.552	14537
898.672	14602
898.792	14579
898.913	14579
899.033	14438
899.153	14393
899.273	14229
899.393	14408
899.513	14438
899.633	14423
899.753	14400
899.873	14461
899.993	14480
900.113	14431
900.232	14473
900.352	14355
900.472	14248
900.591	14210
900.711	14366
900.83	14278
900.95	14328
901.069	14374
901.189	14210
901.308	14001
901.427	13871
901.546	13833
901.665	13978
901.784	14062
901.904	13852
902.023	13620
902.141	13586
902.26	13518
902.379	13521
902.498	13552
902.617	13506
902.735	13582
902.854	13544
902.973	13362
903.091	13251
903.21	13240
903.328	13209
903.446	13072
903.565	13080
903.683	13038
903.801	13015
903.919	13091
904.038	13099
904.156	12863
904.274	13046
904.392	12901
904.51	12844
904.627	12886
904.745	12878
904.863	12825
904.981	12707
905.098	12540
905.216	12574
905.334	12681
905.451	12547
905.569	12475
905.686	12646
905.803	12490
905.921	12456
906.038	12521
906.155	12407
906.272	12342
906.389	12266
906.506	12224
906.623	12205
906.74	12144
906.857	12045
906.974	12102
907.091	12216
907.208	12319
907.324	12213
907.441	12079
907.557	11828
907.674	11946
907.79	11904
907.907	11885
908.023	11889
908.139	11912
908.256	11893
908.372	11847
908.488	11851
908.604	11745
908.72	11608
908.836	11649
908.952	11710
909.068	11726
909.184	11760
909.3	11688
909.415	11756
909.531	11630
909.647	11505
909.762	11444
909.878	11452
909.993	11558
910.108	11436
910.224	11448
910.339	11524
910.454	11311
910.57	11341
910.685	11356
910.8	11535
910.915	11516
911.03	11326
911.145	11208
911.259	11086
911.374	11170
911.489	11113
911.604	10934
911.718	10862
911.833	10923
911.947	10755
912.062	10687
912.176	10873
912.291	10850
912.405	10908
912.519	11094
912.633	11105
912.748	10980
912.862	10923
912.976	10862
913.09	10637
913.204	10755
913.318	10786
913.431	10934
913.545	10831
913.659	10889
913.772	10733
913.886	10679
914	10611
914.113	10812
914.226	10752
914.34	10793
914.453	10580
914.566	10710
914.68	10622
914.793	10573
914.906	10451
915.019	10417
915.132	10356
915.245	10409
915.358	10379
915.47	10504
915.583	10405
915.696	10504
915.809	10645
915.921	10577
916.034	10421
916.146	10485
916.259	10356
916.371	10497
916.483	10409
916.595	10348
916.708	10299
916.82	10352
916.932	10398
917.044	10306
917.156	10352
917.268	10200
917.38	10299
917.491	10257
917.603	10291
917.715	10268
917.826	10325
917.938	10196
918.049	10147
918.161	10306
918.272	10352
918.384	10409
918.495	10261
918.606	10135
918.717	10093
918.828	10154
918.939	10173
919.05	10021
919.161	10238
919.272	9934
919.383	9945
919.494	10162
919.604	10375
919.715	10166
919.826	10025
919.936	10128
920.047	10223
920.157	10200
920.267	10356
920.378	10238
920.488	10150
920.598	10341
920.708	10523
920.818	10299
920.928	10382
921.038	10550
921.148	10447
921.258	10223
921.368	10128
921.477	9998
921.587	9956
921.697	9899
921.806	10036
921.916	9884
922.025	9679
922.134	9732
922.244	9698
922.353	9724
922.462	9603
922.571	9477
922.68	9386
922.789	9382
922.898	9443
923.007	9325
923.116	9462
923.224	9393
923.333	9424
923.442	9230
923.55	9317
923.659	9389
923.767	9351
923.876	9256
923.984	9359
924.092	9298
924.201	9260
924.309	9233
924.417	9321
924.525	9184
924.633	9272
924.741	10135
924.849	9020
924.956	9203
925.064	9024
925.172	8914
925.279	9020
925.387	9028
925.494	9017
925.602	9165
925.709	9146
925.816	9005
925.924	9089
926.031	9184
926.138	9085
926.245	9097
926.352	8960
926.459	9123
926.566	9146
926.673	9085
926.779	9013
926.886	8941
926.993	8796
927.099	8716
927.206	8739
927.312	8659
927.419	8796
927.525	8769
927.631	8819
927.737	8731
927.843	8655
927.95	8579
928.056	8655
928.162	8610
928.267	8777
928.373	9260
928.479	8830
928.585	8560
928.69	8667
928.796	8667
928.901	8613
929.007	8473
929.112	8636
929.218	8556
929.323	8514
929.428	8499
929.533	8606
929.638	8465
929.743	8484
929.848	8465
929.953	8549
930.058	8419
930.163	8237
930.267	8202
930.372	8400
930.477	8210
930.581	8530
930.685	8328
930.79	8202
930.894	8301
930.998	8210
931.103	8305
931.207	7963
931.311	7989
931.415	7811
931.519	7738
931.623	7727
