Data from test_V78500241_856.txt Node
Date: Fri Mar 25 14:39:40 CST 2022
User: usil
Spectrometer: V785-0024
Trigger mode: 0
Integration Time (sec): 4.000000E-1
Scans to average: 1
Nonlinearity correction enabled: false
Boxcar width: 0
Storing dark spectrum: false
XAxis mode: Wavelengths
Number of Pixels in Spectrum: 1024
>>>>>Begin Spectral Data<<<<<
801.071	25833
801.214	25742
801.356	25320
801.499	25400
801.641	25244
801.783	25190
801.926	25183
802.068	25012
802.211	24920
802.353	24776
802.496	24745
802.638	24669
802.78	24642
802.923	24608
803.065	24582
803.208	24612
803.35	24486
803.492	24707
803.635	24692
803.777	24555
803.919	24787
804.061	24985
804.204	24741
804.346	24661
804.488	24441
804.63	24593
804.773	24570
804.915	24757
805.057	24840
805.199	24787
805.341	24837
805.483	24749
805.626	24878
805.768	24856
805.91	24973
806.052	24878
806.194	25072
806.336	25350
806.478	25255
806.62	25343
806.762	25594
806.904	25845
807.046	26199
807.188	26206
807.33	26450
807.472	26640
807.614	26998
807.756	27610
807.898	28002
808.04	28607
808.182	29539
808.324	30966
808.465	32415
808.607	33975
808.749	35474
808.891	36327
809.033	36304
809.174	35505
809.316	34051
809.458	32320
809.6	30787
809.741	29501
809.883	28401
810.025	27766
810.166	27412
810.308	26994
810.45	26644
810.591	26442
810.733	25947
810.875	25761
811.016	25590
811.158	25552
811.299	25537
811.441	25552
811.582	25495
811.724	25335
811.865	25194
812.007	25160
812.148	25076
812.29	25228
812.431	25217
812.573	25373
812.714	25266
812.855	25434
812.997	25639
813.138	25765
813.279	25567
813.421	25354
813.562	25270
813.703	25126
813.845	24996
813.986	24627
814.127	24525
814.268	24388
814.41	24429
814.551	24414
814.692	24456
814.833	24209
814.974	24152
815.115	24330
815.256	24087
815.397	24167
815.539	24125
815.68	24064
815.821	23927
815.962	24030
816.103	24049
816.244	23752
816.385	23707
816.526	23623
816.666	23429
816.807	23436
816.948	23360
817.089	23547
817.23	23398
817.371	23326
817.512	23322
817.653	23284
817.793	23326
817.934	23220
818.075	23296
818.216	23311
818.356	23216
818.497	23022
818.638	23064
818.778	23010
818.919	23083
819.06	23014
819.2	23143
819.341	23090
819.481	23223
819.622	23292
819.762	23459
819.903	23391
820.043	23330
820.184	23200
820.324	23208
820.465	23197
820.605	23208
820.746	23223
820.886	23029
821.026	23189
821.167	23124
821.307	23246
821.447	23014
821.588	22949
821.728	22824
821.868	22656
822.008	22561
822.149	22478
822.289	22531
822.429	22249
822.569	22086
822.709	22211
822.849	22036
822.99	22051
823.13	21998
823.27	21804
823.41	21667
823.55	21648
823.69	21800
823.83	21660
823.97	21713
824.11	21667
824.25	21488
824.389	21545
824.529	21488
824.669	21450
824.809	21633
824.949	21641
825.089	21523
825.228	21595
825.368	21321
825.508	21355
825.648	21252
825.787	21431
825.927	21359
826.067	21199
826.206	21291
826.346	21344
826.485	21298
826.625	21332
826.765	21344
826.904	21264
827.044	21154
827.183	20971
827.323	21047
827.462	21028
827.601	20902
827.741	20979
827.88	21138
828.02	20883
828.159	20902
828.298	20960
828.437	20986
828.577	20845
828.716	21047
828.855	20804
828.994	20667
829.134	20716
829.273	20773
829.412	20651
829.551	20621
829.69	20640
829.829	20720
829.968	20773
830.107	20636
830.246	20693
830.385	20613
830.524	20507
830.663	20454
830.802	20400
830.941	20385
831.08	20180
831.219	20415
831.357	20199
831.496	20271
831.635	20282
831.774	20229
831.913	20225
832.051	20202
832.19	20084
832.329	20081
832.467	20115
832.606	20043
832.744	19978
832.883	20103
833.022	20122
833.16	20130
833.299	20103
833.437	20305
833.576	20317
833.714	20385
833.852	20484
833.991	20530
834.129	20659
834.267	20514
834.406	20549
834.544	20457
834.682	20461
834.821	20343
834.959	20484
835.097	20187
835.235	20324
835.373	20134
835.511	20119
835.65	20062
835.788	20111
835.926	19738
836.064	19658
836.202	19719
836.34	19974
836.478	19925
836.615	19799
836.753	19852
836.891	19856
837.029	19757
837.167	19750
837.305	19761
837.443	19677
837.58	19575
837.718	19761
837.856	19571
837.993	19575
838.131	19693
838.269	19464
838.406	19586
838.544	19430
838.681	19301
838.819	19278
838.956	19095
839.094	19057
839.231	19168
839.369	19285
839.506	19411
839.643	19324
839.781	19053
839.918	19027
840.055	19061
840.193	19084
840.33	18962
840.467	19023
840.604	19080
840.742	19354
840.879	18863
841.016	18966
841.153	19080
841.29	19126
841.427	18951
841.564	19065
841.701	19156
841.838	19091
841.975	18928
842.112	18913
842.249	18852
842.385	18760
842.522	18943
842.659	18810
842.796	18806
842.933	18890
843.069	18768
843.206	18791
843.343	18981
843.479	18814
843.616	18932
843.752	18726
843.889	18840
844.025	18954
844.162	18696
844.298	18901
844.435	18817
844.571	19099
844.708	19190
844.844	19384
844.98	19616
845.117	19791
845.253	20142
845.389	20975
845.525	22470
845.661	25164
845.798	28314
845.934	30875
846.07	32008
846.206	31700
846.342	29463
846.478	26419
846.614	23311
846.75	21401
846.886	20240
847.022	19609
847.158	19137
847.294	18787
847.429	18642
847.565	18365
847.701	18700
847.837	18114
847.972	18057
848.108	18079
848.244	17954
848.379	17908
848.515	17676
848.65	17745
848.786	17722
848.921	17661
849.057	17809
849.192	17847
849.328	17726
849.463	17672
849.598	17573
849.734	17604
849.869	17577
850.004	17455
850.14	17444
850.275	17410
850.41	17417
850.545	17440
850.68	17452
850.815	17482
850.95	17471
851.085	17532
851.22	17474
851.355	17436
851.49	17368
851.625	17372
851.76	17433
851.895	17341
852.03	17299
852.165	17364
852.299	17509
852.434	17634
852.569	17455
852.703	17421
852.838	17554
852.973	17684
853.107	17566
853.242	17543
853.376	17368
853.511	17330
853.645	17490
853.78	17596
853.914	17436
854.048	17444
854.183	17452
854.317	17364
854.451	17642
854.585	17436
854.72	17429
854.854	17566
854.988	17315
855.122	17383
855.256	17265
855.39	17277
855.524	17414
855.658	17296
855.792	17311
855.926	17258
856.06	17258
856.194	17341
856.327	17292
856.461	17254
856.595	17220
856.729	17208
856.862	17360
856.996	17280
857.13	17349
857.263	17311
857.397	17410
857.53	17273
857.664	17261
857.797	17269
857.931	17417
858.064	17193
858.197	17250
858.331	17143
858.464	17067
858.597	17067
858.731	17174
858.864	17113
858.997	17185
859.13	17102
859.263	17273
859.396	17277
859.529	17227
859.662	17265
859.795	17159
859.928	17155
860.061	17265
860.194	17315
860.327	17265
860.46	17048
860.592	17235
860.725	17353
860.858	17296
860.99	17174
861.123	17113
861.256	17052
861.388	17197
861.521	17809
861.653	17060
861.786	17086
861.918	17018
862.05	17064
862.183	17159
862.315	17174
862.447	17151
862.58	17060
862.712	16873
862.844	16976
862.976	16915
863.108	16858
863.24	17277
863.372	16850
863.504	16824
863.636	16843
863.768	16885
863.9	16801
864.032	16942
864.164	16782
864.296	16858
864.428	16946
864.559	16835
864.691	17010
864.823	16763
864.954	16881
865.086	16866
865.217	16824
865.349	16793
865.48	16774
865.612	16938
865.743	16938
865.875	16744
866.006	16771
866.137	16828
866.269	16805
866.4	16797
866.531	16763
866.662	16767
866.793	16691
866.924	16729
867.055	16862
867.186	16847
867.317	16778
867.448	16698
867.579	16744
867.71	16744
867.841	16668
867.972	16831
868.103	16847
868.233	16862
868.364	16740
868.495	16873
868.625	16987
868.756	17147
868.886	16946
869.017	17060
869.147	17159
869.278	17216
869.408	16976
869.539	17090
869.669	17090
869.799	17113
869.929	17128
870.06	17098
870.19	17429
870.32	17334
870.45	17379
870.58	17414
870.71	17482
870.84	17516
870.97	17402
871.1	17474
871.23	17703
871.36	17642
871.489	17539
871.619	17570
871.749	17729
871.879	17767
872.008	17798
872.138	17653
872.267	17657
872.397	17551
872.526	17493
872.656	17630
872.785	17524
872.915	17775
873.044	17748
873.173	17771
873.303	17786
873.432	17638
873.561	17946
873.69	17908
873.819	17866
873.948	17935
874.077	17935
874.206	18011
874.335	17927
874.464	18114
874.593	18254
874.722	18159
874.851	18285
874.979	18152
875.108	18224
875.237	18216
875.365	18239
875.494	18300
875.623	18376
875.751	18239
875.88	18418
876.008	18486
876.136	18574
876.265	18928
876.393	18939
876.521	19084
876.65	18939
876.778	18977
876.906	18905
877.034	19042
877.162	19004
877.29	18916
877.418	19046
877.546	19164
877.674	19206
877.802	19217
877.93	19228
878.058	19194
878.185	19365
878.313	19575
878.441	19647
878.568	19765
878.696	20149
878.824	20617
878.951	21241
879.079	22025
879.206	22965
879.333	24022
879.461	24837
879.588	25350
879.715	25510
879.842	25057
879.97	24045
880.097	22771
880.224	21941
880.351	21218
880.478	21001
880.605	20636
880.732	20476
880.859	20514
880.986	20275
881.112	20366
881.239	20126
881.366	20005
881.493	19799
881.619	19807
881.746	19898
881.872	19845
881.999	19883
882.125	19807
882.252	19879
882.378	20111
882.505	20176
882.631	19875
882.757	19704
882.883	19784
883.01	19769
883.136	19833
883.262	19689
883.388	19624
883.514	19704
883.64	19875
883.766	19696
883.892	19491
884.018	19613
884.143	19738
884.269	19868
884.395	19552
884.52	19460
884.646	19472
884.772	19358
884.897	19392
885.023	19514
885.148	19460
885.274	19506
885.399	19499
885.524	19247
885.65	19301
885.775	19217
885.9	19084
886.025	19247
886.15	19141
886.275	18951
886.4	18738
886.525	18825
886.65	18597
886.775	18566
886.9	18696
887.025	18878
887.149	18509
887.274	18258
887.399	18308
887.523	18171
887.648	18209
887.773	18186
887.897	18232
888.021	18232
888.146	18041
888.27	18239
888.395	18076
888.519	18186
888.643	18053
888.767	18022
888.891	18034
889.015	17741
889.139	17874
889.263	17741
889.387	17935
889.511	17821
889.635	17760
889.759	17695
889.883	17532
890.006	17558
890.13	17707
890.254	17505
890.377	17509
890.501	17356
890.624	17341
890.748	17311
890.871	17231
890.995	17140
891.118	16953
891.241	17204
891.364	17216
891.488	17231
891.611	17151
891.734	17018
891.857	17155
891.98	17140
892.103	17018
892.226	17098
892.349	17006
892.471	16965
892.594	16942
892.717	17083
892.839	16831
892.962	16911
893.085	17022
893.207	16923
893.33	16812
893.452	16809
893.575	16953
893.697	16919
893.819	17025
893.941	17124
894.064	16984
894.186	16744
894.308	16683
894.43	16786
894.552	17048
894.674	16900
894.796	16778
894.918	16767
895.04	16786
895.161	16816
895.283	16820
895.405	16740
895.526	16797
895.648	16839
895.769	16976
895.891	16908
896.012	16881
896.134	16843
896.255	16835
896.376	16820
896.498	16816
896.619	16946
896.74	16759
896.861	16927
896.982	17060
897.103	17288
897.224	17071
897.345	16923
897.466	16991
897.587	16915
897.708	17094
897.828	17052
897.949	16953
898.07	16873
898.19	16930
898.311	17136
898.431	16972
898.552	17109
898.672	17170
898.792	17128
898.913	17094
899.033	17003
899.153	16805
899.273	16858
899.393	16824
899.513	16881
899.633	16889
899.753	16915
899.873	16786
899.993	16942
900.113	16828
900.232	16816
900.352	16862
900.472	16812
900.591	16588
900.711	16748
900.83	16672
900.95	16774
901.069	16816
901.189	16649
901.308	16409
901.427	16322
901.546	16276
901.665	16398
901.784	16363
901.904	16086
902.023	16097
902.141	15953
902.26	15823
902.379	15873
902.498	15759
902.617	15747
902.735	15903
902.854	15812
902.973	15762
903.091	15557
903.21	15382
903.328	15515
903.446	15401
903.565	15287
903.683	15226
903.801	15260
903.919	15264
904.038	15112
904.156	15142
904.274	15131
904.392	15131
904.51	14994
904.627	15043
904.745	15085
904.863	15066
904.981	14811
905.098	14701
905.216	14720
905.334	14769
905.451	14689
905.569	14701
905.686	14708
905.803	14743
905.921	14442
906.038	14583
906.155	14526
906.272	14366
906.389	14343
906.506	14324
906.623	14271
906.74	14187
906.857	14027
906.974	14081
907.091	14256
907.208	14355
907.324	14229
907.441	14199
907.557	13932
907.674	13997
907.79	13856
907.907	14031
908.023	13936
908.139	13982
908.256	13871
908.372	13734
908.488	13772
908.604	13746
908.72	13609
908.836	13738
908.952	13594
909.068	13613
909.184	13788
909.3	13708
909.415	13662
909.531	13746
909.647	13407
909.762	13453
909.878	13495
909.993	13468
910.108	13457
910.224	13388
910.339	13411
910.454	13285
910.57	13244
910.685	13202
910.8	13419
910.915	13411
911.03	13190
911.145	13137
911.259	13175
911.374	12977
911.489	13050
911.604	12882
911.718	12829
911.833	12779
911.947	12734
912.062	12662
912.176	12795
912.291	12806
912.405	12795
912.519	12993
912.633	12958
912.748	12867
912.862	12779
912.976	12654
913.09	12547
913.204	12696
913.318	12707
913.431	12810
913.545	12753
913.659	12772
913.772	12662
913.886	12563
914	12513
914.113	12616
914.226	12692
914.34	12662
914.453	12388
914.566	12620
914.68	12445
914.793	12525
914.906	12281
915.019	12281
915.132	12228
915.245	12247
915.358	12228
915.47	12220
915.583	12251
915.696	12254
915.809	12327
915.921	12350
916.034	12175
916.146	12159
916.259	12163
916.371	12281
916.483	12239
916.595	12129
916.708	12201
916.82	12190
916.932	12178
917.044	12125
917.156	12079
917.268	11954
917.38	12045
917.491	11969
917.603	11954
917.715	12030
917.826	12060
917.938	12007
918.049	11889
918.161	11961
918.272	12163
918.384	12034
918.495	12003
918.606	11836
918.717	11703
918.828	11843
918.939	11859
919.05	11714
919.161	11767
919.272	11630
919.383	11668
919.494	11767
919.604	11988
919.715	11840
919.826	11752
919.936	11737
920.047	11836
920.157	11809
920.267	12049
920.378	11805
920.488	11760
920.598	11920
920.708	12167
920.818	11927
920.928	11969
921.038	12098
921.148	12095
921.258	11802
921.368	11718
921.477	11592
921.587	11532
921.697	11596
921.806	11547
921.916	11497
922.025	11330
922.134	11235
922.244	11239
922.353	11284
922.462	11189
922.571	11083
922.68	10961
922.789	10968
922.898	10980
923.007	10858
923.116	11018
923.224	10938
923.333	10896
923.442	10778
923.55	10797
923.659	10820
923.767	10805
923.876	10759
923.984	10877
924.092	10672
924.201	10740
924.309	10740
924.417	10752
924.525	10584
924.633	10729
924.741	11661
924.849	10447
924.956	10721
925.064	10497
925.172	10523
925.279	10470
925.387	10565
925.494	10436
925.602	10725
925.709	10603
925.816	10405
925.924	10485
926.031	10523
926.138	10497
926.245	10481
926.352	10474
926.459	10569
926.566	10527
926.673	10424
926.779	10360
926.886	10337
926.993	10242
927.099	10131
927.206	10063
927.312	10196
927.419	10192
927.525	10211
927.631	10143
927.737	10109
927.843	10097
927.95	9937
928.056	10109
928.162	9968
928.267	10097
928.373	10687
928.479	10093
928.585	9945
928.69	9953
928.796	10067
928.901	9987
929.007	9846
929.112	9964
929.218	9880
929.323	9819
929.428	9823
929.533	9987
929.638	9838
929.743	9808
929.848	9895
929.953	9774
930.058	9724
930.163	9568
930.267	9526
930.372	9584
930.477	9496
930.581	9724
930.685	9660
930.79	9431
930.894	9488
930.998	9443
931.103	9663
931.207	9195
931.311	9291
931.415	9173
931.519	8952
931.623	8906
