Data from test_V78500241_2339.txt Node
Date: Fri Mar 25 14:49:59 CST 2022
User: usil
Spectrometer: V785-0024
Trigger mode: 0
Integration Time (sec): 4.000000E-1
Scans to average: 1
Nonlinearity correction enabled: false
Boxcar width: 0
Storing dark spectrum: false
XAxis mode: Wavelengths
Number of Pixels in Spectrum: 1024
>>>>>Begin Spectral Data<<<<<
801.071	21956
801.214	22086
801.356	21861
801.499	21595
801.641	21485
801.783	21595
801.926	21492
802.068	21538
802.211	21519
802.353	21260
802.496	21093
802.638	20910
802.78	20914
802.923	20941
803.065	20785
803.208	20807
803.35	20910
803.492	20906
803.635	20918
803.777	20807
803.919	20906
804.061	21154
804.204	20872
804.346	20705
804.488	20705
804.63	20956
804.773	20621
804.915	20731
805.057	20899
805.199	20765
805.341	20811
805.483	20868
805.626	20834
805.768	20644
805.91	20807
806.052	20819
806.194	20659
806.336	20941
806.478	20842
806.62	20739
806.762	20845
806.904	21074
807.046	21138
807.188	21180
807.33	21112
807.472	21195
807.614	21043
807.756	20952
807.898	20948
808.04	20834
808.182	20701
808.324	20826
808.465	20838
808.607	21112
808.749	21207
808.891	21294
809.033	21504
809.174	21211
809.316	21146
809.458	21275
809.6	21154
809.741	21272
809.883	21154
810.025	21283
810.166	21329
810.308	21359
810.45	21226
810.591	21077
810.733	21077
810.875	20944
811.016	20887
811.158	20861
811.299	20929
811.441	21112
811.582	21036
811.724	20952
811.865	20891
812.007	20883
812.148	20960
812.29	20952
812.431	21085
812.573	21351
812.714	21367
812.855	21458
812.997	21561
813.138	21732
813.279	21492
813.421	21450
813.562	21340
813.703	21249
813.845	21043
813.986	20678
814.127	20632
814.268	20568
814.41	20606
814.551	20442
814.692	20499
814.833	20377
814.974	20480
815.115	20450
815.256	20187
815.397	20347
815.539	20351
815.68	20332
815.821	20134
815.962	20218
816.103	20149
816.244	20016
816.385	19925
816.526	19993
816.666	19761
816.807	19639
816.948	19719
817.089	19776
817.23	19719
817.371	19571
817.512	19590
817.653	19582
817.793	19559
817.934	19693
818.075	19715
818.216	19540
818.356	19575
818.497	19464
818.638	19255
818.778	19259
818.919	19293
819.06	19392
819.2	19293
819.341	19506
819.481	19415
819.622	19620
819.762	19807
819.903	19655
820.043	19746
820.184	19620
820.324	19567
820.465	19757
820.605	19605
820.746	19552
820.886	19499
821.026	19575
821.167	19533
821.307	19620
821.447	19525
821.588	19422
821.728	19247
821.868	19190
822.008	19042
822.149	19015
822.289	18905
822.429	18635
822.569	18650
822.709	18707
822.849	18566
822.99	18395
823.13	18467
823.27	18479
823.41	18395
823.55	18292
823.69	18254
823.83	18251
823.97	18224
824.11	18098
824.25	18091
824.389	18079
824.529	18232
824.669	17965
824.809	18178
824.949	18140
825.089	18011
825.228	18136
825.368	17847
825.508	17847
825.648	17794
825.787	17882
825.927	17832
826.067	17764
826.206	17733
826.346	17889
826.485	17790
826.625	17767
826.765	17916
826.904	17904
827.044	17535
827.183	17512
827.323	17486
827.462	17585
827.601	17512
827.741	17501
827.88	17611
828.02	17448
828.159	17474
828.298	17535
828.437	17657
828.577	17512
828.716	17573
828.855	17455
828.994	17265
829.134	17197
829.273	17307
829.412	17258
829.551	17181
829.69	17322
829.829	17254
829.968	17318
830.107	17242
830.246	17311
830.385	17239
830.524	17105
830.663	17045
830.802	16923
830.941	16828
831.08	16782
831.219	17067
831.357	16858
831.496	16984
831.635	16866
831.774	16725
831.913	16805
832.051	16630
832.19	16637
832.329	16542
832.467	16653
832.606	16459
832.744	16382
832.883	16512
833.022	16451
833.16	16459
833.299	16558
833.437	16584
833.576	16618
833.714	16554
833.852	16634
833.991	16565
834.129	16721
834.267	16577
834.406	16668
834.544	16641
834.682	16592
834.821	16519
834.959	16755
835.097	16538
835.235	16668
835.373	16599
835.511	16634
835.65	16508
835.788	16519
835.926	16432
836.064	16287
836.202	16352
836.34	16531
836.478	16622
836.615	16504
836.753	16558
836.891	16630
837.029	16455
837.167	16474
837.305	16379
837.443	16310
837.58	16303
837.718	16424
837.856	16424
837.993	16310
838.131	16287
838.269	16341
838.406	16299
838.544	16211
838.681	16204
838.819	16017
838.956	15888
839.094	15934
839.231	15960
839.369	16010
839.506	16284
839.643	16154
839.781	15911
839.918	15869
840.055	15972
840.193	15838
840.33	15895
840.467	15915
840.604	15983
840.742	16173
840.879	15778
841.016	15789
841.153	15797
841.29	15922
841.427	15812
841.564	15861
841.701	15892
841.838	15857
841.975	15804
842.112	15819
842.249	15747
842.385	15625
842.522	15755
842.659	15747
842.796	15656
842.933	15614
843.069	15564
843.206	15656
843.343	15679
843.479	15671
843.616	15713
843.752	15458
843.889	15447
844.025	15648
844.162	15393
844.298	15679
844.435	15564
844.571	15428
844.708	15610
844.844	15732
844.98	15633
845.117	15507
845.253	15511
845.389	15272
845.525	15435
845.661	15351
845.798	15230
845.934	15241
846.07	15142
846.206	15336
846.342	15443
846.478	15287
846.614	15077
846.75	14979
846.886	15058
847.022	15161
847.158	15001
847.294	15001
847.429	15097
847.565	15089
847.701	15245
847.837	14708
847.972	14720
848.108	14743
848.244	14883
848.379	14678
848.515	14575
848.65	14686
848.786	14507
848.921	14640
849.057	14743
849.192	14769
849.328	14625
849.463	14705
849.598	14682
849.734	14564
849.869	14419
850.004	14423
850.14	14469
850.275	14457
850.41	14393
850.545	14290
850.68	14381
850.815	14336
850.95	14343
851.085	14541
851.22	14484
851.355	14434
851.49	14298
851.625	14381
851.76	14362
851.895	14237
852.03	14267
852.165	14415
852.299	14427
852.434	14488
852.569	14332
852.703	14457
852.838	14393
852.973	14564
853.107	14590
853.242	14313
853.376	14351
853.511	14210
853.645	14145
853.78	14431
853.914	14313
854.048	14202
854.183	14248
854.317	14278
854.451	14408
854.585	14263
854.72	14237
854.854	14355
854.988	14134
855.122	14225
855.256	14126
855.39	14343
855.524	14313
855.658	14221
855.792	14370
855.926	14450
856.06	14328
856.194	14336
856.327	14275
856.461	14233
856.595	14199
856.729	14275
856.862	14415
856.996	14377
857.13	14294
857.263	14396
857.397	14309
857.53	14305
857.664	14377
857.797	14396
857.931	14457
858.064	14332
858.197	14393
858.331	14244
858.464	14218
858.597	14199
858.731	14313
858.864	14256
858.997	14259
859.13	14305
859.263	14400
859.396	14366
859.529	14221
859.662	14351
859.795	14271
859.928	14256
860.061	14518
860.194	14450
860.327	14324
860.46	14275
860.592	14454
860.725	14427
860.858	14332
860.99	14377
861.123	14237
861.256	14187
861.388	14336
861.521	14838
861.653	14161
861.786	14187
861.918	14153
862.05	14180
862.183	14263
862.315	14199
862.447	14374
862.58	14324
862.712	14187
862.844	14081
862.976	14221
863.108	14088
863.24	14362
863.372	14050
863.504	14065
863.636	14084
863.768	14062
863.9	14111
864.032	14100
864.164	14027
864.296	14130
864.428	14153
864.559	14081
864.691	14225
864.823	14199
864.954	14103
865.086	14123
865.217	14084
865.349	13955
865.48	14149
865.612	14043
865.743	14210
865.875	14195
866.006	14031
866.137	14111
866.269	14092
866.4	13982
866.531	14001
866.662	13967
866.793	13970
866.924	14001
867.055	14100
867.186	14084
867.317	14046
867.448	13967
867.579	13978
867.71	13989
867.841	13951
867.972	14039
868.103	13959
868.233	14039
868.364	14168
868.495	14100
868.625	14324
868.756	14492
868.886	14244
869.017	14320
869.147	14370
869.278	14404
869.408	14400
869.539	14233
869.669	14442
869.799	14400
869.929	14385
870.06	14454
870.19	14648
870.32	14522
870.45	14648
870.58	14644
870.71	14765
870.84	14796
870.97	14629
871.1	14689
871.23	14861
871.36	14902
871.489	14739
871.619	14910
871.749	14845
871.879	15001
872.008	15051
872.138	14872
872.267	14807
872.397	14705
872.526	14689
872.656	14762
872.785	14796
872.915	14895
873.044	15028
873.173	14944
873.303	14956
873.432	15024
873.561	15013
873.69	14868
873.819	14948
873.948	15047
874.077	14876
874.206	14864
874.335	15013
874.464	15043
874.593	15146
874.722	15150
874.851	15386
874.979	15321
875.108	15222
875.237	15245
875.365	15135
875.494	15249
875.623	15306
875.751	15237
875.88	15317
876.008	15382
876.136	15473
876.265	15667
876.393	15774
876.521	15789
876.65	15827
876.778	15663
876.906	15648
877.034	15580
877.162	15652
877.29	15618
877.418	15717
877.546	15644
877.674	15717
877.802	15633
877.93	15747
878.058	15637
878.185	15534
878.313	15694
878.441	15709
878.568	15637
878.696	15618
878.824	15736
878.951	15770
879.079	15846
879.206	16006
879.333	15903
879.461	15701
879.588	15743
879.715	15808
879.842	15926
879.97	15804
880.097	15534
880.224	15519
880.351	15549
880.478	15610
880.605	15515
880.732	15557
880.859	15705
880.986	15511
881.112	15606
881.239	15450
881.366	15237
881.493	15275
881.619	15214
881.746	15142
881.872	15283
881.999	15237
882.125	15192
882.252	15214
882.378	15241
882.505	15313
882.631	15100
882.757	15043
882.883	14941
883.01	14994
883.136	14956
883.262	14899
883.388	14883
883.514	15070
883.64	15077
883.766	14982
883.892	14705
884.018	14792
884.143	15017
884.269	15161
884.395	14830
884.52	14613
884.646	14720
884.772	14640
884.897	14625
885.023	14750
885.148	14804
885.274	14872
885.399	14785
885.524	14712
885.65	14651
885.775	14686
885.9	14636
886.025	14800
886.15	14800
886.275	14788
886.4	14606
886.525	14758
886.65	14659
886.775	14568
886.9	14872
887.025	14925
887.149	14758
887.274	14488
887.399	14541
887.523	14503
887.648	14480
887.773	14366
887.897	14590
888.021	14571
888.146	14575
888.27	14579
888.395	14697
888.519	14568
888.643	14514
888.767	14518
888.891	14461
889.015	14374
889.139	14434
889.263	14446
889.387	14503
889.511	14552
889.635	14549
889.759	14332
889.883	14434
890.006	14393
890.13	14610
890.254	14301
890.377	14415
890.501	14218
890.624	14191
890.748	14229
890.871	14214
890.995	14024
891.118	14035
891.241	14043
891.364	14107
891.488	14214
891.611	14088
891.734	14111
891.857	14252
891.98	14123
892.103	14084
892.226	14157
892.349	14111
892.471	13993
892.594	14092
892.717	14149
892.839	14111
892.962	14130
893.085	14115
893.207	14107
893.33	14050
893.452	13989
893.575	14111
893.697	14100
893.819	14252
893.941	14347
894.064	14294
894.186	14050
894.308	14031
894.43	14161
894.552	14336
894.674	14294
894.796	14062
894.918	14115
895.04	14168
895.161	14237
895.283	14259
895.405	14221
895.526	14218
895.648	14332
895.769	14202
895.891	14377
896.012	14370
896.134	14275
896.255	14336
896.376	14267
896.498	14393
896.619	14385
896.74	14309
896.861	14320
896.982	14590
897.103	14834
897.224	14583
897.345	14518
897.466	14514
897.587	14518
897.708	14769
897.828	14613
897.949	14556
898.07	14385
898.19	14560
898.311	14659
898.431	14461
898.552	14682
898.672	14750
898.792	14773
898.913	14697
899.033	14541
899.153	14446
899.273	14377
899.393	14522
899.513	14545
899.633	14537
899.753	14461
899.873	14465
899.993	14381
900.113	14480
900.232	14507
900.352	14530
900.472	14362
900.591	14351
900.711	14351
900.83	14275
900.95	14484
901.069	14454
901.189	14286
901.308	14134
901.427	14115
901.546	14069
901.665	14020
901.784	14077
901.904	13928
902.023	13833
902.141	13594
902.26	13609
902.379	13712
902.498	13655
902.617	13590
902.735	13601
902.854	13632
902.973	13495
903.091	13354
903.21	13266
903.328	13270
903.446	13187
903.565	13194
903.683	13141
903.801	13057
903.919	13175
904.038	13126
904.156	13031
904.274	13095
904.392	12970
904.51	12985
904.627	12939
904.745	13053
904.863	13042
904.981	12837
905.098	12593
905.216	12620
905.334	12707
905.451	12662
905.569	12711
905.686	12719
905.803	12692
905.921	12540
906.038	12589
906.155	12422
906.272	12437
906.389	12452
906.506	12239
906.623	12304
906.74	12216
906.857	12140
906.974	12117
907.091	12330
907.208	12346
907.324	12327
907.441	12098
907.557	12095
907.674	12007
907.79	11897
907.907	11942
908.023	12038
908.139	12034
908.256	11942
908.372	11980
908.488	11859
908.604	11733
908.72	11714
908.836	11756
908.952	11623
909.068	11722
909.184	11843
909.3	11703
909.415	11828
909.531	11779
909.647	11532
909.762	11524
909.878	11573
909.993	11570
910.108	11474
910.224	11566
910.339	11562
910.454	11478
910.57	11417
910.685	11341
910.8	11570
910.915	11482
911.03	11452
911.145	11189
911.259	11261
911.374	11303
911.489	11140
911.604	11197
911.718	10984
911.833	10995
911.947	10927
912.062	10839
912.176	10980
912.291	10987
912.405	11025
912.519	11162
912.633	11227
912.748	11071
912.862	10938
912.976	10908
913.09	10771
913.204	10869
913.318	10881
913.431	10934
913.545	11022
913.659	10980
913.772	10854
913.886	10759
914	10706
914.113	10812
914.226	11025
914.34	10889
914.453	10660
914.566	10850
914.68	10706
914.793	10797
914.906	10535
915.019	10504
915.132	10493
915.245	10424
915.358	10561
915.47	10550
915.583	10516
915.696	10478
915.809	10630
915.921	10679
916.034	10462
916.146	10409
916.259	10462
916.371	10630
916.483	10523
916.595	10459
916.708	10466
916.82	10493
916.932	10394
917.044	10417
917.156	10398
917.268	10360
917.38	10322
917.491	10325
917.603	10367
917.715	10394
917.826	10402
917.938	10303
918.049	10188
918.161	10329
918.272	10455
918.384	10409
918.495	10356
918.606	10188
918.717	10124
918.828	10246
918.939	10238
919.05	10116
919.161	10143
919.272	10029
919.383	10002
919.494	10234
919.604	10462
919.715	10284
919.826	10200
919.936	10105
920.047	10295
920.157	10303
920.267	10337
920.378	10303
920.488	10257
920.598	10417
920.708	10554
920.818	10344
920.928	10451
921.038	10569
921.148	10558
921.258	10242
921.368	10177
921.477	10116
921.587	10051
921.697	9972
921.806	10063
921.916	9934
922.025	9823
922.134	9709
922.244	9762
922.353	9785
922.462	9770
922.571	9603
922.68	9462
922.789	9431
922.898	9500
923.007	9428
923.116	9458
923.224	9458
923.333	9431
923.442	9359
923.55	9378
923.659	9374
923.767	9386
923.876	9321
923.984	9443
924.092	9302
924.201	9348
924.309	9332
924.417	9374
924.525	9256
924.633	9321
924.741	10036
924.849	9062
924.956	9260
925.064	9112
925.172	9100
925.279	9062
925.387	9116
925.494	9157
925.602	9211
925.709	9264
925.816	9131
925.924	9157
926.031	9207
926.138	9112
926.245	9142
926.352	9108
926.459	9256
926.566	9214
926.673	9146
926.779	9024
926.886	8990
926.993	8830
927.099	8910
927.206	8823
927.312	8796
927.419	8887
927.525	8902
927.631	8906
927.737	8823
927.843	8823
927.95	8693
928.056	8689
928.162	8750
928.267	8826
928.373	9447
928.479	8910
928.585	8670
928.69	8720
928.796	8868
928.901	8727
929.007	8549
929.112	8686
929.218	8716
929.323	8636
929.428	8549
929.533	8804
929.638	8556
929.743	8499
929.848	8655
929.953	8537
930.058	8473
930.163	8389
930.267	8370
930.372	8492
930.477	8290
930.581	8537
930.685	8473
930.79	8324
930.894	8328
930.998	8343
931.103	8488
931.207	8096
931.311	8043
931.415	8020
931.519	7818
931.623	7792
