Data from test_V78500241_3147.txt Node
Date: Fri Mar 25 14:55:37 CST 2022
User: usil
Spectrometer: V785-0024
Trigger mode: 0
Integration Time (sec): 4.000000E-1
Scans to average: 1
Nonlinearity correction enabled: false
Boxcar width: 0
Storing dark spectrum: false
XAxis mode: Wavelengths
Number of Pixels in Spectrum: 1024
>>>>>Begin Spectral Data<<<<<
801.071	22078
801.214	22013
801.356	21755
801.499	21641
801.641	21408
801.783	21431
801.926	21530
802.068	21378
802.211	21313
802.353	21222
802.496	21017
802.638	20883
802.78	20876
802.923	20921
803.065	20746
803.208	20792
803.35	20682
803.492	20971
803.635	20994
803.777	20682
803.919	20956
804.061	21104
804.204	20781
804.346	20617
804.488	20796
804.63	20735
804.773	20617
804.915	20708
805.057	20762
805.199	20629
805.341	20750
805.483	20826
805.626	20754
805.768	20636
805.91	20758
806.052	20609
806.194	20663
806.336	20891
806.478	20682
806.62	20659
806.762	20735
806.904	20910
807.046	21108
807.188	20956
807.33	21135
807.472	21013
807.614	20899
807.756	20952
807.898	20758
808.04	20659
808.182	20750
808.324	20678
808.465	20785
808.607	21070
808.749	21119
808.891	21150
809.033	21150
809.174	21058
809.316	20956
809.458	21096
809.6	20933
809.741	20986
809.883	21127
810.025	21222
810.166	21199
810.308	21146
810.45	21180
810.591	21005
810.733	20762
810.875	20838
811.016	20785
811.158	20674
811.299	20796
811.441	21116
811.582	21001
811.724	20785
811.865	20769
812.007	20731
812.148	20743
812.29	20861
812.431	20929
812.573	21077
812.714	21184
812.855	21306
812.997	21378
813.138	21481
813.279	21386
813.421	21359
813.562	21199
813.703	21096
813.845	21028
813.986	20659
814.127	20609
814.268	20526
814.41	20457
814.551	20431
814.692	20419
814.833	20301
814.974	20206
815.115	20298
815.256	20191
815.397	20176
815.539	20187
815.68	20103
815.821	20107
815.962	20149
816.103	19947
816.244	19967
816.385	19875
816.526	19776
816.666	19681
816.807	19483
816.948	19624
817.089	19658
817.23	19575
817.371	19468
817.512	19476
817.653	19449
817.793	19407
817.934	19540
818.075	19476
818.216	19590
818.356	19575
818.497	19407
818.638	19156
818.778	19213
818.919	19107
819.06	19266
819.2	19331
819.341	19236
819.481	19346
819.622	19556
819.762	19605
819.903	19582
820.043	19468
820.184	19468
820.324	19392
820.465	19552
820.605	19430
820.746	19483
820.886	19354
821.026	19502
821.167	19419
821.307	19556
821.447	19422
821.588	19331
821.728	19194
821.868	18958
822.008	18916
822.149	18932
822.289	18844
822.429	18696
822.569	18601
822.709	18528
822.849	18391
822.99	18323
823.13	18330
823.27	18296
823.41	18213
823.55	18155
823.69	18136
823.83	18239
823.97	18152
824.11	17916
824.25	18007
824.389	17954
824.529	17988
824.669	17904
824.809	18019
824.949	17988
825.089	18007
825.228	18003
825.368	17764
825.508	17752
825.648	17771
825.787	17699
825.927	17836
826.067	17672
826.206	17752
826.346	17680
826.485	17737
826.625	17760
826.765	17866
826.904	17726
827.044	17562
827.183	17490
827.323	17467
827.462	17509
827.601	17383
827.741	17395
827.88	17395
828.02	17273
828.159	17334
828.298	17398
828.437	17421
828.577	17421
828.716	17497
828.855	17402
828.994	17250
829.134	17231
829.273	17174
829.412	17140
829.551	17071
829.69	17090
829.829	17132
829.968	17235
830.107	17280
830.246	17155
830.385	17094
830.524	17025
830.663	16919
830.802	16862
830.941	16858
831.08	16675
831.219	16850
831.357	16812
831.496	16930
831.635	16805
831.774	16668
831.913	16641
832.051	16542
832.19	16618
832.329	16558
832.467	16550
832.606	16440
832.744	16462
832.883	16497
833.022	16379
833.16	16493
833.299	16481
833.437	16538
833.576	16432
833.714	16470
833.852	16550
833.991	16504
834.129	16542
834.267	16713
834.406	16421
834.544	16535
834.682	16550
834.821	16493
834.959	16672
835.097	16409
835.235	16546
835.373	16584
835.511	16440
835.65	16325
835.788	16440
835.926	16181
836.064	16162
836.202	16173
836.34	16360
836.478	16527
836.615	16413
836.753	16443
836.891	16379
837.029	16535
837.167	16360
837.305	16303
837.443	16306
837.58	16249
837.718	16295
837.856	16428
837.993	16207
838.131	16276
838.269	16150
838.406	16143
838.544	16082
838.681	15953
838.819	16029
838.956	15861
839.094	15804
839.231	15857
839.369	15994
839.506	16242
839.643	15953
839.781	15842
839.918	15644
840.055	15793
840.193	15781
840.33	15743
840.467	15739
840.604	15831
840.742	16101
840.879	15625
841.016	15724
841.153	15682
841.29	15793
841.427	15709
841.564	15724
841.701	15800
841.838	15850
841.975	15713
842.112	15709
842.249	15656
842.385	15591
842.522	15736
842.659	15595
842.796	15591
842.933	15564
843.069	15625
843.206	15568
843.343	15720
843.479	15648
843.616	15606
843.752	15408
843.889	15431
844.025	15401
844.162	15386
844.298	15496
844.435	15348
844.571	15367
844.708	15511
844.844	15519
844.98	15599
845.117	15485
845.253	15249
845.389	15355
845.525	15291
845.661	15340
845.798	15169
845.934	15195
846.07	15192
846.206	15203
846.342	15237
846.478	15195
846.614	14902
846.75	14849
846.886	14948
847.022	15039
847.158	14944
847.294	15013
847.429	15047
847.565	14876
847.701	15218
847.837	14674
847.972	14655
848.108	14712
848.244	14796
848.379	14583
848.515	14473
848.65	14549
848.786	14564
848.921	14606
849.057	14697
849.192	14610
849.328	14499
849.463	14598
849.598	14480
849.734	14465
849.869	14412
850.004	14336
850.14	14305
850.275	14412
850.41	14305
850.545	14332
850.68	14252
850.815	14393
850.95	14237
851.085	14400
851.22	14415
851.355	14290
851.49	14313
851.625	14301
851.76	14233
851.895	14248
852.03	14172
852.165	14290
852.299	14324
852.434	14419
852.569	14328
852.703	14358
852.838	14427
852.973	14541
853.107	14469
853.242	14263
853.376	14172
853.511	14035
853.645	14195
853.78	14221
853.914	14199
854.048	14161
854.183	14218
854.317	14123
854.451	14377
854.585	14206
854.72	14084
854.854	14145
854.988	14123
855.122	14176
855.256	13955
855.39	14183
855.524	14275
855.658	14225
855.792	14103
855.926	14096
856.06	14278
856.194	14298
856.327	14206
856.461	14107
856.595	14119
856.729	14142
856.862	14271
856.996	14237
857.13	14275
857.263	14301
857.397	14294
857.53	14237
857.664	14244
857.797	14355
857.931	14275
858.064	14225
858.197	14347
858.331	14237
858.464	14191
858.597	14153
858.731	14199
858.864	14187
858.997	14218
859.13	14218
859.263	14218
859.396	14328
859.529	14153
859.662	14210
859.795	14183
859.928	14130
860.061	14320
860.194	14408
860.327	14320
860.46	14111
860.592	14267
860.725	14271
860.858	14313
860.99	14195
861.123	14191
861.256	14084
861.388	14168
861.521	14819
861.653	14046
861.786	14073
861.918	14096
862.05	14077
862.183	14062
862.315	14119
862.447	14336
862.58	14119
862.712	13982
862.844	13890
862.976	14016
863.108	14020
863.24	14267
863.372	13913
863.504	13909
863.636	13917
863.768	14035
863.9	13917
864.032	13982
864.164	13967
864.296	13982
864.428	13986
864.559	14039
864.691	14020
864.823	14054
864.954	14027
865.086	14050
865.217	13974
865.349	13864
865.48	13986
865.612	13940
865.743	14050
865.875	13970
866.006	13928
866.137	13959
866.269	13932
866.4	13890
866.531	13913
866.662	13963
866.793	13909
866.924	13909
867.055	13906
867.186	13936
867.317	13944
867.448	13830
867.579	13986
867.71	13784
867.841	13909
867.972	14012
868.103	13906
868.233	14020
868.364	13936
868.495	13967
868.625	14107
868.756	14298
868.886	14096
869.017	14191
869.147	14252
869.278	14377
869.408	14225
869.539	14313
869.669	14332
869.799	14218
869.929	14294
870.06	14317
870.19	14610
870.32	14526
870.45	14514
870.58	14598
870.71	14712
870.84	14674
870.97	14621
871.1	14541
871.23	14750
871.36	14830
871.489	14712
871.619	14769
871.749	14811
871.879	14830
872.008	14861
872.138	14758
872.267	14891
872.397	14636
872.526	14621
872.656	14541
872.785	14674
872.915	14857
873.044	14918
873.173	14823
873.303	14834
873.432	14845
873.561	14868
873.69	14933
873.819	14872
873.948	14982
874.077	14823
874.206	14819
874.335	14872
874.464	14982
874.593	15108
874.722	15127
874.851	15211
874.979	15321
875.108	15142
875.237	15154
875.365	15051
875.494	15157
875.623	15222
875.751	15135
875.88	15055
876.008	15180
876.136	15359
876.265	15587
876.393	15728
876.521	15709
876.65	15629
876.778	15648
876.906	15530
877.034	15599
877.162	15641
877.29	15469
877.418	15641
877.546	15610
877.674	15568
877.802	15572
877.93	15568
878.058	15477
878.185	15447
878.313	15564
878.441	15580
878.568	15370
878.696	15507
878.824	15629
878.951	15713
879.079	15770
879.206	15880
879.333	15785
879.461	15785
879.588	15766
879.715	15793
879.842	15876
879.97	15713
880.097	15447
880.224	15367
880.351	15519
880.478	15458
880.605	15359
880.732	15477
880.859	15625
880.986	15424
881.112	15500
881.239	15393
881.366	15203
881.493	15184
881.619	15058
881.746	15165
881.872	15062
881.999	15165
882.125	15195
882.252	15020
882.378	15077
882.505	15176
882.631	14998
882.757	14918
882.883	14857
883.01	14967
883.136	14800
883.262	14807
883.388	14731
883.514	14906
883.64	15036
883.766	14876
883.892	14724
884.018	14712
884.143	14838
884.269	14967
884.395	14659
884.52	14594
884.646	14606
884.772	14450
884.897	14587
885.023	14526
885.148	14830
885.274	14762
885.399	14720
885.524	14640
885.65	14590
885.775	14629
885.9	14621
886.025	14712
886.15	14602
886.275	14514
886.4	14457
886.525	14575
886.65	14522
886.775	14579
886.9	14762
887.025	14845
887.149	14629
887.274	14518
887.399	14454
887.523	14412
887.648	14366
887.773	14358
887.897	14511
888.021	14381
888.146	14499
888.27	14511
888.395	14560
888.519	14412
888.643	14427
888.767	14499
888.891	14480
889.015	14214
889.139	14347
889.263	14320
889.387	14431
889.511	14457
889.635	14427
889.759	14324
889.883	14237
890.006	14328
890.13	14412
890.254	14229
890.377	14206
890.501	14100
890.624	14058
890.748	14206
890.871	14020
890.995	13959
891.118	13909
891.241	14100
891.364	13989
891.488	14100
891.611	14031
891.734	14069
891.857	14058
891.98	13997
892.103	14088
892.226	14031
892.349	13959
892.471	13875
892.594	14092
892.717	13963
892.839	13944
892.962	14050
893.085	14058
893.207	13963
893.33	13871
893.452	13932
893.575	14157
893.697	14005
893.819	14248
893.941	14221
894.064	14130
894.186	14012
894.308	14008
894.43	14115
894.552	14176
894.674	14164
894.796	13982
894.918	14027
895.04	13989
895.161	14180
895.283	14088
895.405	14058
895.526	14016
895.648	14240
895.769	14126
895.891	14153
896.012	14286
896.134	14172
896.255	14153
896.376	14111
896.498	14187
896.619	14259
896.74	14237
896.861	14256
896.982	14571
897.103	14678
897.224	14450
897.345	14476
897.466	14396
897.587	14370
897.708	14530
897.828	14503
897.949	14393
898.07	14248
898.19	14343
898.311	14514
898.431	14415
898.552	14431
898.672	14632
898.792	14560
898.913	14568
899.033	14533
899.153	14427
899.273	14191
899.393	14404
899.513	14454
899.633	14362
899.753	14396
899.873	14415
899.993	14370
900.113	14393
900.232	14450
900.352	14351
900.472	14313
900.591	14320
900.711	14271
900.83	14267
900.95	14355
901.069	14366
901.189	14237
901.308	13940
901.427	13887
901.546	14035
901.665	13978
901.784	14008
901.904	13868
902.023	13837
902.141	13601
902.26	13571
902.379	13624
902.498	13544
902.617	13327
902.735	13556
902.854	13453
902.973	13552
903.091	13213
903.21	13232
903.328	13270
903.446	13187
903.565	13149
903.683	13114
903.801	13031
903.919	13084
904.038	13069
904.156	12897
904.274	12996
904.392	12829
904.51	12935
904.627	12897
904.745	12970
904.863	12928
904.981	12711
905.098	12551
905.216	12589
905.334	12574
905.451	12734
905.569	12521
905.686	12612
905.803	12570
905.921	12391
906.038	12509
906.155	12418
906.272	12296
906.389	12270
906.506	12235
906.623	12148
906.74	12144
906.857	12095
906.974	12072
907.091	12239
907.208	12384
907.324	12201
907.441	12117
907.557	11977
907.674	11954
907.79	11923
907.907	11939
908.023	11916
908.139	12019
908.256	11927
908.372	11882
908.488	11809
908.604	11668
908.72	11634
908.836	11619
908.952	11646
909.068	11737
909.184	11779
909.3	11741
909.415	11752
909.531	11672
909.647	11440
909.762	11512
909.878	11455
909.993	11398
910.108	11497
910.224	11414
910.339	11448
910.454	11387
910.57	11349
910.685	11212
910.8	11436
910.915	11433
911.03	11345
911.145	11098
911.259	11128
911.374	11109
911.489	11067
911.604	11025
911.718	10881
911.833	10919
911.947	10748
912.062	10828
912.176	10904
912.291	10927
912.405	10984
912.519	11086
912.633	11105
912.748	10980
912.862	10957
912.976	10843
913.09	10714
913.204	10755
913.318	10816
913.431	10858
913.545	10843
913.659	10881
913.772	10790
913.886	10637
914	10683
914.113	10786
914.226	10805
914.34	10774
914.453	10622
914.566	10660
914.68	10721
914.793	10580
914.906	10436
915.019	10405
915.132	10352
915.245	10382
915.358	10497
915.47	10459
915.583	10398
915.696	10577
915.809	10599
915.921	10565
916.034	10356
916.146	10329
916.259	10299
916.371	10512
916.483	10367
916.595	10337
916.708	10329
916.82	10322
916.932	10344
917.044	10314
917.156	10379
917.268	10295
917.38	10230
917.491	10154
917.603	10227
917.715	10417
917.826	10417
917.938	10143
918.049	10147
918.161	10249
918.272	10459
918.384	10386
918.495	10379
918.606	10124
918.717	10067
918.828	10147
918.939	10200
919.05	10120
919.161	10128
919.272	10013
919.383	9998
919.494	10063
919.604	10379
919.715	10169
919.826	10029
919.936	10086
920.047	10227
920.157	10150
920.267	10386
920.378	10169
920.488	10131
920.598	10287
920.708	10489
920.818	10344
920.928	10314
921.038	10466
921.148	10470
921.258	10162
921.368	10109
921.477	10063
921.587	9968
921.697	9880
921.806	10032
921.916	9846
922.025	9747
922.134	9743
922.244	9641
922.353	9736
922.462	9557
922.571	9530
922.68	9386
922.789	9374
922.898	9408
923.007	9291
923.116	9469
923.224	9428
923.333	9370
923.442	9230
923.55	9306
923.659	9287
923.767	9408
923.876	9245
923.984	9321
924.092	9142
924.201	9313
924.309	9264
924.417	9214
924.525	9226
924.633	9230
924.741	10169
924.849	9066
924.956	9291
925.064	9017
925.172	8982
925.279	9085
925.387	9066
925.494	9077
925.602	9237
925.709	9142
925.816	9017
925.924	9039
926.031	9230
926.138	9070
926.245	9146
926.352	8982
926.459	9180
926.566	9184
926.673	9020
926.779	8937
926.886	8960
926.993	8727
927.099	8807
927.206	8750
927.312	8735
927.419	8853
927.525	8823
927.631	8834
927.737	8769
927.843	8663
927.95	8549
928.056	8648
928.162	8697
928.267	8758
928.373	9291
928.479	8762
928.585	8507
928.69	8724
928.796	8727
928.901	8530
929.007	8518
929.112	8621
929.218	8579
929.323	8511
929.428	8537
929.533	8632
929.638	8393
929.743	8541
929.848	8549
929.953	8518
930.058	8412
930.163	8279
930.267	8320
930.372	8480
930.477	8233
930.581	8488
930.685	8343
930.79	8180
930.894	8233
930.998	8221
931.103	8370
931.207	8031
931.311	7982
931.415	7898
931.519	7757
931.623	7765
