Data from test_V78500241_2443.txt Node
Date: Fri Mar 25 14:50:43 CST 2022
User: usil
Spectrometer: V785-0024
Trigger mode: 0
Integration Time (sec): 4.000000E-1
Scans to average: 1
Nonlinearity correction enabled: false
Boxcar width: 0
Storing dark spectrum: false
XAxis mode: Wavelengths
Number of Pixels in Spectrum: 1024
>>>>>Begin Spectral Data<<<<<
801.071	22048
801.214	22025
801.356	21857
801.499	21648
801.641	21469
801.783	21466
801.926	21466
802.068	21439
802.211	21325
802.353	21252
802.496	21108
802.638	20864
802.78	21066
802.923	20838
803.065	20739
803.208	20804
803.35	20834
803.492	20963
803.635	20986
803.777	20895
803.919	20823
804.061	21222
804.204	20880
804.346	20807
804.488	20678
804.63	20845
804.773	20556
804.915	20727
805.057	20739
805.199	20640
805.341	20697
805.483	20811
805.626	20758
805.768	20674
805.91	20701
806.052	20762
806.194	20632
806.336	20807
806.478	20552
806.62	20640
806.762	20857
806.904	21043
807.046	21119
807.188	21123
807.33	21043
807.472	21173
807.614	20960
807.756	20918
807.898	20735
808.04	20842
808.182	20735
808.324	20804
808.465	20765
808.607	20982
808.749	21093
808.891	21230
809.033	21218
809.174	21077
809.316	21028
809.458	21104
809.6	20998
809.741	21195
809.883	21085
810.025	21218
810.166	21275
810.308	21325
810.45	21062
810.591	21123
810.733	20918
810.875	20963
811.016	20804
811.158	20777
811.299	20887
811.441	20933
811.582	20925
811.724	20895
811.865	20743
812.007	20697
812.148	20895
812.29	20872
812.431	20925
812.573	21294
812.714	21218
812.855	21325
812.997	21450
813.138	21656
813.279	21447
813.421	21374
813.562	21279
813.703	21154
813.845	20986
813.986	20590
814.127	20473
814.268	20423
814.41	20400
814.551	20480
814.692	20469
814.833	20290
814.974	20423
815.115	20320
815.256	20122
815.397	20305
815.539	20332
815.68	20168
815.821	20130
815.962	20218
816.103	20122
816.244	19879
816.385	19906
816.526	19833
816.666	19708
816.807	19499
816.948	19601
817.089	19670
817.23	19655
817.371	19525
817.512	19483
817.653	19521
817.793	19476
817.934	19460
818.075	19441
818.216	19514
818.356	19434
818.497	19346
818.638	19156
818.778	19168
818.919	19209
819.06	19213
819.2	19251
819.341	19369
819.481	19407
819.622	19533
819.762	19647
819.903	19693
820.043	19495
820.184	19537
820.324	19457
820.465	19563
820.605	19518
820.746	19460
820.886	19381
821.026	19426
821.167	19613
821.307	19472
821.447	19430
821.588	19365
821.728	19175
821.868	19080
822.008	19015
822.149	18985
822.289	18939
822.429	18578
822.569	18700
822.709	18616
822.849	18334
822.99	18456
823.13	18369
823.27	18266
823.41	18254
823.55	18117
823.69	18213
823.83	18205
823.97	18068
824.11	18030
824.25	17996
824.389	17973
824.529	18098
824.669	17969
824.809	18171
824.949	18076
825.089	18034
825.228	18072
825.368	17836
825.508	17790
825.648	17840
825.787	17737
825.927	17722
826.067	17695
826.206	17760
826.346	17847
826.485	17824
826.625	17760
826.765	17847
826.904	17805
827.044	17611
827.183	17493
827.323	17448
827.462	17497
827.601	17452
827.741	17463
827.88	17440
828.02	17326
828.159	17562
828.298	17551
828.437	17512
828.577	17395
828.716	17611
828.855	17425
828.994	17258
829.134	17273
829.273	17292
829.412	17185
829.551	17170
829.69	17220
829.829	17296
829.968	17448
830.107	17391
830.246	17128
830.385	17155
830.524	17029
830.663	17075
830.802	16908
830.941	16854
831.08	16786
831.219	16896
831.357	16858
831.496	17113
831.635	16828
831.774	16740
831.913	16675
832.051	16641
832.19	16645
832.329	16717
832.467	16558
832.606	16523
832.744	16489
832.883	16508
833.022	16386
833.16	16481
833.299	16615
833.437	16550
833.576	16546
833.714	16402
833.852	16603
833.991	16615
834.129	16592
834.267	16615
834.406	16542
834.544	16672
834.682	16519
834.821	16653
834.959	16767
835.097	16478
835.235	16687
835.373	16649
835.511	16535
835.65	16489
835.788	16573
835.926	16348
836.064	16325
836.202	16360
836.34	16599
836.478	16443
836.615	16405
836.753	16558
836.891	16527
837.029	16451
837.167	16481
837.305	16386
837.443	16390
837.58	16360
837.718	16432
837.856	16390
837.993	16306
838.131	16325
838.269	16303
838.406	16261
838.544	16284
838.681	16032
838.819	16044
838.956	15895
839.094	15953
839.231	15994
839.369	15998
839.506	16268
839.643	16173
839.781	15968
839.918	15972
840.055	15994
840.193	15759
840.33	15838
840.467	15960
840.604	15964
840.742	16181
840.879	15724
841.016	15755
841.153	15762
841.29	15972
841.427	15922
841.564	15922
841.701	15953
841.838	15869
841.975	15724
842.112	15732
842.249	15663
842.385	15698
842.522	15861
842.659	15759
842.796	15720
842.933	15701
843.069	15713
843.206	15675
843.343	15705
843.479	15603
843.616	15610
843.752	15481
843.889	15412
844.025	15637
844.162	15477
844.298	15576
844.435	15511
844.571	15321
844.708	15408
844.844	15591
844.98	15629
845.117	15618
845.253	15428
845.389	15344
845.525	15374
845.661	15344
845.798	15237
845.934	15287
846.07	15275
846.206	15370
846.342	15313
846.478	15355
846.614	15062
846.75	15089
846.886	15055
847.022	15131
847.158	14979
847.294	14956
847.429	15085
847.565	15032
847.701	15321
847.837	14746
847.972	14834
848.108	14838
848.244	14868
848.379	14705
848.515	14617
848.65	14526
848.786	14655
848.921	14629
849.057	14705
849.192	14781
849.328	14678
849.463	14651
849.598	14644
849.734	14575
849.869	14488
850.004	14457
850.14	14480
850.275	14362
850.41	14290
850.545	14301
850.68	14412
850.815	14431
850.95	14362
851.085	14632
851.22	14480
851.355	14412
851.49	14347
851.625	14374
851.76	14233
851.895	14278
852.03	14286
852.165	14412
852.299	14385
852.434	14465
852.569	14370
852.703	14476
852.838	14377
852.973	14503
853.107	14484
853.242	14377
853.376	14301
853.511	14168
853.645	14199
853.78	14404
853.914	14221
854.048	14271
854.183	14244
854.317	14218
854.451	14419
854.585	14252
854.72	14134
854.854	14286
854.988	14176
855.122	14275
855.256	14202
855.39	14244
855.524	14317
855.658	14339
855.792	14362
855.926	14408
856.06	14271
856.194	14366
856.327	14244
856.461	14187
856.595	14180
856.729	14172
856.862	14415
856.996	14218
857.13	14332
857.263	14339
857.397	14366
857.53	14286
857.664	14362
857.797	14317
857.931	14507
858.064	14290
858.197	14381
858.331	14324
858.464	14275
858.597	14134
858.731	14229
858.864	14278
858.997	14214
859.13	14256
859.263	14301
859.396	14358
859.529	14305
859.662	14176
859.795	14256
859.928	14343
860.061	14423
860.194	14446
860.327	14256
860.46	14259
860.592	14324
860.725	14396
860.858	14282
860.99	14313
861.123	14263
861.256	14195
861.388	14248
861.521	14910
861.653	14183
861.786	14077
861.918	14069
862.05	14176
862.183	14176
862.315	14210
862.447	14218
862.58	14233
862.712	14073
862.844	13955
862.976	14123
863.108	14073
863.24	14454
863.372	13947
863.504	13925
863.636	13989
863.768	14065
863.9	14134
864.032	14008
864.164	14046
864.296	14100
864.428	14119
864.559	14092
864.691	14195
864.823	14134
864.954	14134
865.086	14065
865.217	13967
865.349	13982
865.48	13986
865.612	14058
865.743	14058
865.875	14035
866.006	13932
866.137	13993
866.269	13974
866.4	13913
866.531	13982
866.662	13982
866.793	13925
866.924	13974
867.055	14077
867.186	13978
867.317	14088
867.448	13951
867.579	13917
867.71	13963
867.841	13974
867.972	13989
868.103	13989
868.233	14020
868.364	14020
868.495	14012
868.625	14259
868.756	14434
868.886	14256
869.017	14142
869.147	14351
869.278	14423
869.408	14275
869.539	14199
869.669	14381
869.799	14191
869.929	14366
870.06	14355
870.19	14583
870.32	14583
870.45	14598
870.58	14598
870.71	14796
870.84	14838
870.97	14651
871.1	14629
871.23	14788
871.36	14823
871.489	14765
871.619	14830
871.749	14906
871.879	14864
872.008	14948
872.138	14918
872.267	14883
872.397	14731
872.526	14727
872.656	14693
872.785	14625
872.915	14925
873.044	14941
873.173	14933
873.303	14880
873.432	15032
873.561	15009
873.69	15009
873.819	14933
873.948	15047
874.077	14975
874.206	14792
874.335	14971
874.464	15093
874.593	15127
874.722	15169
874.851	15294
874.979	15298
875.108	15321
875.237	15184
875.365	15161
875.494	15192
875.623	15230
875.751	15214
875.88	15294
876.008	15363
876.136	15416
876.265	15724
876.393	15808
876.521	15751
876.65	15713
876.778	15667
876.906	15614
877.034	15629
877.162	15568
877.29	15568
877.418	15679
877.546	15606
877.674	15675
877.802	15656
877.93	15606
878.058	15530
878.185	15568
878.313	15523
878.441	15671
878.568	15458
878.696	15599
878.824	15637
878.951	15690
879.079	15701
879.206	15945
879.333	15850
879.461	15705
879.588	15846
879.715	15713
879.842	15865
879.97	15739
880.097	15477
880.224	15424
880.351	15526
880.478	15507
880.605	15469
880.732	15523
880.859	15694
880.986	15515
881.112	15511
881.239	15439
881.366	15211
881.493	15275
881.619	15157
881.746	15199
881.872	15093
881.999	15070
882.125	15135
882.252	15157
882.378	15192
882.505	15313
882.631	15093
882.757	14880
882.883	15051
883.01	14918
883.136	14929
883.262	14792
883.388	14792
883.514	14921
883.64	15032
883.766	14921
883.892	14792
884.018	14777
884.143	14986
884.269	14937
884.395	14727
884.52	14583
884.646	14590
884.772	14590
884.897	14541
885.023	14758
885.148	14781
885.274	14811
885.399	14750
885.524	14678
885.65	14716
885.775	14636
885.9	14727
886.025	14826
886.15	14762
886.275	14533
886.4	14617
886.525	14689
886.65	14621
886.775	14659
886.9	14815
887.025	14975
887.149	14724
887.274	14465
887.399	14495
887.523	14537
887.648	14374
887.773	14301
887.897	14476
888.021	14434
888.146	14469
888.27	14625
888.395	14686
888.519	14602
888.643	14651
888.767	14568
888.891	14377
889.015	14332
889.139	14415
889.263	14446
889.387	14454
889.511	14549
889.635	14495
889.759	14332
889.883	14362
890.006	14347
890.13	14533
890.254	14313
890.377	14374
890.501	14134
890.624	14183
890.748	14210
890.871	14149
890.995	13986
891.118	14039
891.241	14016
891.364	14092
891.488	14172
891.611	14039
891.734	14107
891.857	14062
891.98	14119
892.103	14092
892.226	14134
892.349	14088
892.471	13871
892.594	14046
892.717	14092
892.839	14050
892.962	14065
893.085	14073
893.207	13963
893.33	13936
893.452	14035
893.575	14183
893.697	14069
893.819	14256
893.941	14294
894.064	14172
894.186	13947
894.308	14020
894.43	14149
894.552	14123
894.674	14305
894.796	14088
894.918	14168
895.04	13989
895.161	14187
895.283	14145
895.405	14081
895.526	14100
895.648	14229
895.769	14240
895.891	14240
896.012	14301
896.134	14164
896.255	14259
896.376	14218
896.498	14157
896.619	14221
896.74	14233
896.861	14244
896.982	14492
897.103	14720
897.224	14495
897.345	14507
897.466	14415
897.587	14457
897.708	14648
897.828	14518
897.949	14431
898.07	14290
898.19	14404
898.311	14670
898.431	14552
898.552	14617
898.672	14670
898.792	14636
898.913	14701
899.033	14465
899.153	14492
899.273	14476
899.393	14450
899.513	14442
899.633	14377
899.753	14503
899.873	14438
899.993	14507
900.113	14514
900.232	14511
900.352	14442
900.472	14431
900.591	14358
900.711	14336
900.83	14221
900.95	14339
901.069	14347
901.189	14210
901.308	14050
901.427	14062
901.546	13951
901.665	14054
901.784	14058
901.904	13845
902.023	13791
902.141	13586
902.26	13518
902.379	13662
902.498	13529
902.617	13487
902.735	13518
902.854	13537
902.973	13483
903.091	13263
903.21	13198
903.328	13350
903.446	13179
903.565	13069
903.683	13114
903.801	13072
903.919	13061
904.038	12977
904.156	13031
904.274	12973
904.392	12939
904.51	12981
904.627	12951
904.745	13050
904.863	13046
904.981	12894
905.098	12673
905.216	12722
905.334	12566
905.451	12669
905.569	12517
905.686	12585
905.803	12662
905.921	12395
906.038	12566
906.155	12517
906.272	12422
906.389	12422
906.506	12285
906.623	12155
906.74	12186
906.857	12136
906.974	12178
907.091	12311
907.208	12334
907.324	12194
907.441	12125
907.557	11984
907.674	11931
907.79	11935
907.907	11912
908.023	12011
908.139	12068
908.256	11855
908.372	11954
908.488	11722
908.604	11775
908.72	11657
908.836	11805
908.952	11737
909.068	11726
909.184	11779
909.3	11691
909.415	11840
909.531	11676
909.647	11501
909.762	11558
909.878	11490
909.993	11608
910.108	11497
910.224	11478
910.339	11467
910.454	11433
910.57	11345
910.685	11212
910.8	11566
910.915	11482
911.03	11334
911.145	11288
911.259	11216
911.374	11246
911.489	11170
911.604	11170
911.718	10987
911.833	11003
911.947	10816
912.062	10866
912.176	11014
912.291	10942
912.405	10987
912.519	11181
912.633	11151
912.748	11037
912.862	10892
912.976	10763
913.09	10698
913.204	10824
913.318	10793
913.431	11006
913.545	10965
913.659	10938
913.772	10816
913.886	10740
914	10714
914.113	10816
914.226	10919
914.34	10782
914.453	10607
914.566	10900
914.68	10584
914.793	10672
914.906	10462
915.019	10489
915.132	10379
915.245	10447
915.358	10493
915.47	10409
915.583	10497
915.696	10519
915.809	10649
915.921	10649
916.034	10481
916.146	10421
916.259	10432
916.371	10493
916.483	10497
916.595	10390
916.708	10409
916.82	10360
916.932	10382
917.044	10379
917.156	10352
917.268	10337
917.38	10291
917.491	10280
917.603	10363
917.715	10371
917.826	10413
917.938	10284
918.049	10112
918.161	10287
918.272	10440
918.384	10386
918.495	10310
918.606	10154
918.717	10074
918.828	10261
918.939	10230
919.05	10105
919.161	10181
919.272	10017
919.383	10059
919.494	10169
919.604	10455
919.715	10215
919.826	10124
919.936	10131
920.047	10177
920.157	10154
920.267	10470
920.378	10253
920.488	10215
920.598	10436
920.708	10478
920.818	10352
920.928	10363
921.038	10546
921.148	10451
921.258	10238
921.368	10109
921.477	10101
921.587	10059
921.697	9941
921.806	10082
921.916	9979
922.025	9831
922.134	9781
922.244	9720
922.353	9743
922.462	9625
922.571	9553
922.68	9477
922.789	9435
922.898	9507
923.007	9431
923.116	9458
923.224	9454
923.333	9450
923.442	9291
923.55	9370
923.659	9336
923.767	9370
923.876	9370
923.984	9416
924.092	9207
924.201	9340
924.309	9272
924.417	9310
924.525	9226
924.633	9199
924.741	9994
924.849	9005
924.956	9268
925.064	9127
925.172	9043
925.279	9047
925.387	9116
925.494	9089
925.602	9184
925.709	9203
925.816	9085
925.924	9058
926.031	9157
926.138	9074
926.245	9116
926.352	9036
926.459	9161
926.566	9150
926.673	8994
926.779	8979
926.886	8941
926.993	8796
927.099	8815
927.206	8743
927.312	8785
927.419	8868
927.525	8811
927.631	8883
927.737	8781
927.843	8743
927.95	8613
928.056	8693
928.162	8743
928.267	8785
928.373	9340
928.479	8773
928.585	8594
928.69	8659
928.796	8716
928.901	8663
929.007	8499
929.112	8617
929.218	8610
929.323	8560
929.428	8537
929.533	8686
929.638	8473
929.743	8568
929.848	8613
929.953	8480
930.058	8415
930.163	8309
930.267	8339
930.372	8526
930.477	8305
930.581	8476
930.685	8419
930.79	8149
930.894	8256
930.998	8142
931.103	8408
931.207	8065
931.311	8020
931.415	7947
931.519	7769
931.623	7803
