Data from test_V78500241_468.txt Node
Date: Fri Mar 25 14:36:58 CST 2022
User: usil
Spectrometer: V785-0024
Trigger mode: 0
Integration Time (sec): 4.000000E-1
Scans to average: 1
Nonlinearity correction enabled: false
Boxcar width: 0
Storing dark spectrum: false
XAxis mode: Wavelengths
Number of Pixels in Spectrum: 1024
>>>>>Begin Spectral Data<<<<<
801.071	26560
801.214	26351
801.356	26252
801.499	26157
801.641	26084
801.783	25959
801.926	25845
802.068	25940
802.211	25860
802.353	25898
802.496	25632
802.638	25506
802.78	25632
802.923	25594
803.065	25373
803.208	25438
803.35	25514
803.492	25468
803.635	25575
803.777	25590
803.919	25632
804.061	25868
804.204	25506
804.346	25419
804.488	25445
804.63	25445
804.773	25369
804.915	25476
805.057	25639
805.199	25582
805.341	25582
805.483	25582
805.626	25487
805.768	25476
805.91	25384
806.052	25563
806.194	25453
806.336	25647
806.478	25571
806.62	25457
806.762	25586
806.904	25856
807.046	26046
807.188	26027
807.33	25879
807.472	25909
807.614	25921
807.756	25875
807.898	25761
808.04	25651
808.182	25655
808.324	25651
808.465	25639
808.607	25833
808.749	25993
808.891	26054
809.033	26351
809.174	26126
809.316	26001
809.458	25989
809.6	25936
809.741	26092
809.883	26100
810.025	26176
810.166	26168
810.308	26259
810.45	26103
810.591	26111
810.733	25890
810.875	25860
811.016	25734
811.158	25738
811.299	25909
811.441	25928
811.582	25989
811.724	25776
811.865	25750
812.007	25864
812.148	25894
812.29	25841
812.431	26054
812.573	26103
812.714	26237
812.855	26336
812.997	26564
813.138	26476
813.279	26343
813.421	26320
813.562	26229
813.703	26134
813.845	26031
813.986	25784
814.127	25567
814.268	25464
814.41	25529
814.551	25388
814.692	25571
814.833	25183
814.974	25392
815.115	25354
815.256	25050
815.397	25274
815.539	25282
815.68	25187
815.821	25148
815.962	25099
816.103	25042
816.244	24814
816.385	24932
816.526	24639
816.666	24650
816.807	24559
816.948	24445
817.089	24692
817.23	24532
817.371	24407
817.512	24536
817.653	24494
817.793	24517
817.934	24513
818.075	24597
818.216	24494
818.356	24403
818.497	24483
818.638	24171
818.778	24247
818.919	24117
819.06	24205
819.2	24338
819.341	24380
819.481	24544
819.622	24639
819.762	24772
819.903	24639
820.043	24585
820.184	24521
820.324	24505
820.465	24665
820.605	24521
820.746	24525
820.886	24414
821.026	24498
821.167	24369
821.307	24639
821.447	24372
821.588	24361
821.728	24136
821.868	23927
822.008	23798
822.149	23885
822.289	23805
822.429	23585
822.569	23611
822.709	23615
822.849	23436
822.99	23303
823.13	23318
823.27	23353
823.41	23105
823.55	23048
823.69	23178
823.83	22965
823.97	22987
824.11	22771
824.25	22782
824.389	22839
824.529	22858
824.669	22820
824.809	23037
824.949	22896
825.089	22877
825.228	22885
825.368	22607
825.508	22778
825.648	22580
825.787	22778
825.927	22698
826.067	22557
826.206	22603
826.346	22725
826.485	22653
826.625	22618
826.765	22717
826.904	22649
827.044	22440
827.183	22379
827.323	22284
827.462	22409
827.601	22246
827.741	22265
827.88	22303
828.02	22207
828.159	22280
828.298	22337
828.437	22284
828.577	22223
828.716	22436
828.855	22249
828.994	22021
829.134	22097
829.273	22143
829.412	21964
829.551	21934
829.69	21899
829.829	22029
829.968	22032
830.107	22078
830.246	22029
830.385	21922
830.524	21789
830.663	21831
830.802	21667
830.941	21686
831.08	21526
831.219	21587
831.357	21542
831.496	21797
831.635	21641
831.774	21519
831.913	21428
832.051	21317
832.19	21397
832.329	21329
832.467	21249
832.606	21211
832.744	21294
832.883	21241
833.022	21252
833.16	21203
833.299	21310
833.437	21176
833.576	21336
833.714	21287
833.852	21272
833.991	21237
834.129	21321
834.267	21214
834.406	21214
834.544	21249
834.682	21302
834.821	21237
834.959	21348
835.097	21184
835.235	21245
835.373	21306
835.511	21188
835.65	21032
835.788	21001
835.926	21001
836.064	20861
836.202	20960
836.34	21119
836.478	21184
836.615	21123
836.753	21070
836.891	21039
837.029	21043
837.167	21062
837.305	21039
837.443	21051
837.58	20826
837.718	21039
837.856	20975
837.993	20979
838.131	20933
838.269	20815
838.406	20834
838.544	20739
838.681	20621
838.819	20541
838.956	20492
839.094	20415
839.231	20408
839.369	20499
839.506	20705
839.643	20655
839.781	20339
839.918	20423
840.055	20393
840.193	20385
840.33	20328
840.467	20396
840.604	20320
840.742	20632
840.879	20271
841.016	20294
841.153	20153
841.29	20374
841.427	20290
841.564	20408
841.701	20336
841.838	20164
841.975	20153
842.112	20267
842.249	20092
842.385	20043
842.522	20180
842.659	20138
842.796	19978
842.933	20065
843.069	20012
843.206	19970
843.343	20119
843.479	20050
843.616	19928
843.752	19757
843.889	19830
844.025	19951
844.162	19761
844.298	19803
844.435	19879
844.571	19647
844.708	19830
844.844	19986
844.98	19879
845.117	19932
845.253	19658
845.389	19670
845.525	19742
845.661	19681
845.798	19613
845.934	19635
846.07	19613
846.206	19670
846.342	19693
846.478	19480
846.614	19354
846.75	19107
846.886	19247
847.022	19422
847.158	19297
847.294	19247
847.429	19331
847.565	19422
847.701	19415
847.837	19088
847.972	18859
848.108	19031
848.244	19008
848.379	18878
848.515	18833
848.65	18768
848.786	18859
848.921	18768
849.057	18848
849.192	18913
849.328	18875
849.463	18863
849.598	18833
849.734	18722
849.869	18665
850.004	18551
850.14	18555
850.275	18574
850.41	18498
850.545	18563
850.68	18616
850.815	18578
850.95	18570
851.085	18639
851.22	18616
851.355	18563
851.49	18544
851.625	18585
851.76	18509
851.895	18369
852.03	18475
852.165	18547
852.299	18585
852.434	18578
852.569	18616
852.703	18555
852.838	18593
852.973	18760
853.107	18642
853.242	18464
853.376	18464
853.511	18319
853.645	18448
853.78	18528
853.914	18422
854.048	18395
854.183	18304
854.317	18380
854.451	18528
854.585	18308
854.72	18388
854.854	18536
854.988	18281
855.122	18353
855.256	18106
855.39	18365
855.524	18441
855.658	18414
855.792	18380
855.926	18445
856.06	18418
856.194	18403
856.327	18251
856.461	18300
856.595	18247
856.729	18346
856.862	18437
856.996	18251
857.13	18410
857.263	18460
857.397	18464
857.53	18292
857.664	18338
857.797	18422
857.931	18460
858.064	18418
858.197	18445
858.331	18334
858.464	18292
858.597	18247
858.731	18235
858.864	18330
858.997	18285
859.13	18273
859.263	18308
859.396	18388
859.529	18205
859.662	18277
859.795	18239
859.928	18357
860.061	18452
860.194	18486
860.327	18388
860.46	18376
860.592	18330
860.725	18544
860.858	18441
860.99	18270
861.123	18296
861.256	18201
861.388	18254
861.521	18977
861.653	18232
861.786	18060
861.918	18197
862.05	18239
862.183	18258
862.315	18338
862.447	18376
862.58	18311
862.712	18102
862.844	18129
862.976	18106
863.108	18205
863.24	18380
863.372	17954
863.504	18007
863.636	18087
863.768	18167
863.9	18072
864.032	18038
864.164	18102
864.296	17984
864.428	18076
864.559	18015
864.691	18057
864.823	18106
864.954	17927
865.086	18049
865.217	17889
865.349	17904
865.48	17961
865.612	17999
865.743	18171
865.875	17942
866.006	18007
866.137	17942
866.269	18038
866.4	17935
866.531	17973
866.662	17954
866.793	17996
866.924	17931
867.055	17961
867.186	17889
867.317	17904
867.448	17767
867.579	17859
867.71	17809
867.841	17775
867.972	17866
868.103	17927
868.233	17863
868.364	17923
868.495	18007
868.625	18125
868.756	18315
868.886	17996
869.017	18083
869.147	18251
869.278	18315
869.408	18201
869.539	18205
869.669	18182
869.799	18277
869.929	18270
870.06	18220
870.19	18380
870.32	18422
870.45	18486
870.58	18528
870.71	18604
870.84	18734
870.97	18574
871.1	18513
871.23	18627
871.36	18776
871.489	18544
871.619	18692
871.749	18764
871.879	18726
872.008	18821
872.138	18715
872.267	18696
872.397	18620
872.526	18597
872.656	18490
872.785	18570
872.915	18749
873.044	18814
873.173	18753
873.303	18700
873.432	18913
873.561	18810
873.69	18722
873.819	18783
873.948	18840
874.077	18711
874.206	18738
874.335	18791
874.464	18928
874.593	19019
874.722	18920
874.851	18962
874.979	19145
875.108	19107
875.237	19042
875.365	18920
875.494	18852
875.623	19023
875.751	19012
875.88	18951
876.008	19164
876.136	19232
876.265	19468
876.393	19563
876.521	19552
876.65	19495
876.778	19457
876.906	19293
877.034	19392
877.162	19339
877.29	19415
877.418	19609
877.546	19483
877.674	19438
877.802	19426
877.93	19441
878.058	19457
878.185	19304
878.313	19392
878.441	19457
878.568	19244
878.696	19297
878.824	19464
878.951	19499
879.079	19548
879.206	19628
879.333	19563
879.461	19495
879.588	19567
879.715	19742
879.842	19655
879.97	19487
880.097	19228
880.224	19221
880.351	19289
880.478	19187
880.605	19263
880.732	19285
880.859	19533
880.986	19362
881.112	19411
881.239	19156
881.366	18985
881.493	18935
881.619	18935
881.746	18989
881.872	18817
881.999	18764
882.125	18844
882.252	18894
882.378	18905
882.505	18985
882.631	18852
882.757	18677
882.883	18703
883.01	18616
883.136	18707
883.262	18544
883.388	18426
883.514	18661
883.64	18677
883.766	18563
883.892	18456
884.018	18490
884.143	18646
884.269	18677
884.395	18391
884.52	18292
884.646	18422
884.772	18315
884.897	18254
885.023	18330
885.148	18376
885.274	18490
885.399	18441
885.524	18281
885.65	18399
885.775	18365
885.9	18376
886.025	18346
886.15	18418
886.275	18235
886.4	18258
886.525	18235
886.65	18186
886.775	18296
886.9	18342
887.025	18426
887.149	18270
887.274	18209
887.399	18110
887.523	18057
887.648	18144
887.773	17996
887.897	18216
888.021	18159
888.146	17973
888.27	18144
888.395	18292
888.519	18136
888.643	18087
888.767	18110
888.891	17942
889.015	17927
889.139	17977
889.263	17813
889.387	18091
889.511	18038
889.635	18015
889.759	17908
889.883	17878
890.006	17809
890.13	17904
890.254	17764
890.377	17828
890.501	17615
890.624	17672
890.748	17737
890.871	17592
890.995	17429
891.118	17452
891.241	17611
891.364	17509
891.488	17539
891.611	17493
891.734	17570
891.857	17573
891.98	17608
892.103	17551
892.226	17467
892.349	17467
892.471	17299
892.594	17379
892.717	17535
892.839	17429
892.962	17543
893.085	17486
893.207	17505
893.33	17337
893.452	17459
893.575	17535
893.697	17474
893.819	17672
893.941	17794
894.064	17592
894.186	17349
894.308	17395
894.43	17551
894.552	17684
894.674	17478
894.796	17429
894.918	17471
895.04	17547
895.161	17570
895.283	17547
895.405	17429
895.526	17490
895.648	17608
895.769	17532
895.891	17615
896.012	17570
896.134	17505
896.255	17627
896.376	17573
896.498	17539
896.619	17611
896.74	17592
896.861	17532
896.982	17863
897.103	18003
897.224	17821
897.345	17931
897.466	17870
897.587	17630
897.708	17942
897.828	17821
897.949	17745
898.07	17649
898.19	17779
898.311	17863
898.431	17760
898.552	17733
898.672	17836
898.792	17878
898.913	17885
899.033	17722
899.153	17554
899.273	17455
899.393	17592
899.513	17585
899.633	17486
899.753	17577
899.873	17528
899.993	17600
900.113	17627
900.232	17543
900.352	17558
900.472	17429
900.591	17406
900.711	17326
900.83	17376
900.95	17524
901.069	17596
901.189	17311
901.308	17071
901.427	17094
901.546	17166
901.665	17006
901.784	16995
901.904	16946
902.023	16812
902.141	16694
902.26	16573
902.379	16645
902.498	16630
902.617	16508
902.735	16531
902.854	16653
902.973	16474
903.091	16265
903.21	16143
903.328	16299
903.446	16082
903.565	16078
903.683	16051
903.801	15934
903.919	16048
904.038	16002
904.156	15778
904.274	15994
904.392	15869
904.51	15854
904.627	15816
904.745	15930
904.863	15945
904.981	15652
905.098	15447
905.216	15549
905.334	15595
905.451	15610
905.569	15447
905.686	15629
905.803	15587
905.921	15386
906.038	15351
906.155	15367
906.272	15104
906.389	15192
906.506	15161
906.623	15089
906.74	15074
906.857	14853
906.974	14975
907.091	15154
907.208	15077
907.324	15066
907.441	14975
907.557	14754
907.674	14716
907.79	14826
907.907	14678
908.023	14773
908.139	14781
908.256	14746
908.372	14689
908.488	14659
908.604	14514
908.72	14427
908.836	14434
908.952	14427
909.068	14503
909.184	14568
909.3	14541
909.415	14602
909.531	14469
909.647	14301
909.762	14244
909.878	14218
909.993	14210
910.108	14096
910.224	14168
910.339	14271
910.454	14130
910.57	14008
910.685	13997
910.8	14172
910.915	14145
911.03	14031
911.145	13868
911.259	13894
911.374	13917
911.489	13807
911.604	13719
911.718	13556
911.833	13567
911.947	13487
912.062	13480
912.176	13537
912.291	13658
912.405	13548
912.519	13788
912.633	13761
912.748	13613
912.862	13567
912.976	13449
913.09	13320
913.204	13453
913.318	13521
913.431	13529
913.545	13521
913.659	13590
913.772	13381
913.886	13324
914	13137
914.113	13369
914.226	13381
914.34	13415
914.453	13164
914.566	13274
914.68	13190
914.793	13141
914.906	12981
915.019	12890
915.132	12863
915.245	12913
915.358	12875
915.47	12981
915.583	12913
915.696	12943
915.809	13038
915.921	13095
916.034	12852
916.146	12890
916.259	12829
916.371	12806
916.483	12897
916.595	12772
916.708	12844
916.82	12734
916.932	12798
917.044	12753
917.156	12688
917.268	12631
917.38	12696
917.491	12642
917.603	12684
917.715	12749
917.826	12753
917.938	12593
918.049	12509
918.161	12631
918.272	12802
918.384	12817
918.495	12703
918.606	12502
918.717	12467
918.828	12525
918.939	12483
919.05	12403
919.161	12460
919.272	12277
919.383	12403
919.494	12410
919.604	12635
919.715	12395
919.826	12448
919.936	12388
920.047	12471
920.157	12445
920.267	12749
920.378	12479
920.488	12365
920.598	12589
920.708	12673
920.818	12540
920.928	12578
921.038	12703
921.148	12574
921.258	12380
921.368	12289
921.477	12292
921.587	12148
921.697	12106
921.806	12239
921.916	12136
922.025	11870
922.134	11821
922.244	11843
922.353	11809
922.462	11790
922.571	11634
922.68	11615
922.789	11581
922.898	11524
923.007	11467
923.116	11615
923.224	11539
923.333	11463
923.442	11425
923.55	11368
923.659	11417
923.767	11497
923.876	11376
923.984	11482
924.092	11299
924.201	11360
924.309	11448
924.417	11318
924.525	11231
924.633	11269
924.741	12209
924.849	11075
924.956	11193
925.064	11075
925.172	11022
925.279	11071
925.387	11147
925.494	11083
925.602	11261
925.709	11098
925.816	11071
925.924	11003
926.031	11132
926.138	11105
926.245	11079
926.352	10835
926.459	11045
926.566	11143
926.673	11071
926.779	10862
926.886	10850
926.993	10725
927.099	10683
927.206	10683
927.312	10626
927.419	10717
927.525	10702
927.631	10717
927.737	10596
927.843	10573
927.95	10451
928.056	10538
928.162	10500
928.267	10584
928.373	11094
928.479	10615
928.585	10402
928.69	10508
928.796	10497
928.901	10451
929.007	10344
929.112	10398
929.218	10409
929.323	10402
929.428	10371
929.533	10443
929.638	10276
929.743	10280
929.848	10303
929.953	10325
930.058	10120
930.163	10093
930.267	10105
930.372	10181
930.477	9960
930.581	10234
930.685	10173
930.79	9930
930.894	9972
930.998	9899
931.103	10067
931.207	9709
931.311	9629
931.415	9633
931.519	9389
931.623	9367
