Data from test_V78500241_2644.txt Node
Date: Fri Mar 25 14:52:07 CST 2022
User: usil
Spectrometer: V785-0024
Trigger mode: 0
Integration Time (sec): 4.000000E-1
Scans to average: 1
Nonlinearity correction enabled: false
Boxcar width: 0
Storing dark spectrum: false
XAxis mode: Wavelengths
Number of Pixels in Spectrum: 1024
>>>>>Begin Spectral Data<<<<<
801.071	22048
801.214	21873
801.356	21652
801.499	21481
801.641	21469
801.783	21374
801.926	21447
802.068	21317
802.211	21279
802.353	21157
802.496	20864
802.638	20872
802.78	20823
802.923	20632
803.065	20571
803.208	20674
803.35	20731
803.492	20765
803.635	20800
803.777	20727
803.919	20800
804.061	20944
804.204	20815
804.346	20670
804.488	20594
804.63	20674
804.773	20492
804.915	20632
805.057	20651
805.199	20503
805.341	20579
805.483	20659
805.626	20705
805.768	20644
805.91	20526
806.052	20564
806.194	20522
806.336	20708
806.478	20507
806.62	20450
806.762	20629
806.904	20807
807.046	21180
807.188	20963
807.33	20925
807.472	20967
807.614	20807
807.756	20750
807.898	20750
808.04	20792
808.182	20552
808.324	20689
808.465	20754
808.607	20883
808.749	20918
808.891	21043
809.033	21138
809.174	21104
809.316	20948
809.458	20963
809.6	20868
809.741	20925
809.883	21062
810.025	21116
810.166	21169
810.308	21112
810.45	21062
810.591	20963
810.733	20899
810.875	20746
811.016	20648
811.158	20655
811.299	20701
811.441	20727
811.582	20941
811.724	20670
811.865	20651
812.007	20655
812.148	20670
812.29	20686
812.431	21032
812.573	20944
812.714	21093
812.855	21154
812.997	21256
813.138	21401
813.279	21428
813.421	21093
813.562	21207
813.703	21116
813.845	20876
813.986	20606
814.127	20488
814.268	20332
814.41	20267
814.551	20233
814.692	20244
814.833	20164
814.974	20248
815.115	20324
815.256	20100
815.397	20126
815.539	20126
815.68	20088
815.821	19917
815.962	19932
816.103	19986
816.244	19761
816.385	19719
816.526	19681
816.666	19632
816.807	19483
816.948	19480
817.089	19529
817.23	19499
817.371	19373
817.512	19438
817.653	19354
817.793	19202
817.934	19377
818.075	19377
818.216	19396
818.356	19266
818.497	19209
818.638	19008
818.778	19122
818.919	19145
819.06	19076
819.2	19244
819.341	19209
819.481	19255
819.622	19362
819.762	19594
819.903	19495
820.043	19415
820.184	19362
820.324	19324
820.465	19384
820.605	19407
820.746	19255
820.886	19168
821.026	19308
821.167	19247
821.307	19472
821.447	19362
821.588	19244
821.728	19126
821.868	18993
822.008	18859
822.149	18753
822.289	18783
822.429	18578
822.569	18486
822.709	18376
822.849	18308
822.99	18243
823.13	18266
823.27	18281
823.41	18049
823.55	18045
823.69	18041
823.83	18106
823.97	18053
824.11	17950
824.25	17828
824.389	17897
824.529	18015
824.669	17912
824.809	17958
824.949	17882
825.089	17908
825.228	17874
825.368	17661
825.508	17672
825.648	17661
825.787	17710
825.927	17741
826.067	17581
826.206	17649
826.346	17695
826.485	17699
826.625	17668
826.765	17764
826.904	17737
827.044	17490
827.183	17322
827.323	17284
827.462	17414
827.601	17421
827.741	17292
827.88	17395
828.02	17166
828.159	17189
828.298	17349
828.437	17516
828.577	17288
828.716	17391
828.855	17277
828.994	17143
829.134	17258
829.273	17136
829.412	16991
829.551	16961
829.69	17033
829.829	17041
829.968	17143
830.107	17090
830.246	17098
830.385	17060
830.524	17048
830.663	16976
830.802	16805
830.941	16809
831.08	16687
831.219	16793
831.357	16771
831.496	16858
831.635	16664
831.774	16687
831.913	16653
832.051	16508
832.19	16485
832.329	16500
832.467	16367
832.606	16443
832.744	16421
832.883	16432
833.022	16322
833.16	16318
833.299	16500
833.437	16519
833.576	16447
833.714	16481
833.852	16455
833.991	16443
834.129	16470
834.267	16519
834.406	16542
834.544	16447
834.682	16535
834.821	16497
834.959	16675
835.097	16402
835.235	16615
835.373	16523
835.511	16443
835.65	16459
835.788	16367
835.926	16329
836.064	16219
836.202	16268
836.34	16352
836.478	16459
836.615	16337
836.753	16470
836.891	16489
837.029	16481
837.167	16360
837.305	16276
837.443	16386
837.58	16131
837.718	16272
837.856	16284
837.993	16120
838.131	16318
838.269	16295
838.406	16150
838.544	16109
838.681	16048
838.819	15907
838.956	15808
839.094	15698
839.231	15861
839.369	15964
839.506	16196
839.643	16055
839.781	15789
839.918	15827
840.055	15846
840.193	15770
840.33	15804
840.467	15850
840.604	15915
840.742	16109
840.879	15739
841.016	15732
841.153	15686
841.29	15895
841.427	15823
841.564	15937
841.701	15903
841.838	15785
841.975	15747
842.112	15732
842.249	15751
842.385	15568
842.522	15838
842.659	15686
842.796	15682
842.933	15591
843.069	15450
843.206	15641
843.343	15675
843.479	15690
843.616	15762
843.752	15443
843.889	15416
844.025	15477
844.162	15378
844.298	15477
844.435	15443
844.571	15370
844.708	15477
844.844	15561
844.98	15481
845.117	15500
845.253	15386
845.389	15260
845.525	15344
845.661	15367
845.798	15180
845.934	15283
846.07	15138
846.206	15173
846.342	15351
846.478	15195
846.614	15047
846.75	15089
846.886	14982
847.022	15009
847.158	14956
847.294	15039
847.429	14868
847.565	15043
847.701	15252
847.837	14686
847.972	14693
848.108	14819
848.244	14727
848.379	14549
848.515	14678
848.65	14549
848.786	14598
848.921	14568
849.057	14693
849.192	14621
849.328	14629
849.463	14613
849.598	14533
849.734	14446
849.869	14507
850.004	14412
850.14	14370
850.275	14393
850.41	14240
850.545	14324
850.68	14320
850.815	14320
850.95	14263
851.085	14438
851.22	14579
851.355	14396
851.49	14313
851.625	14218
851.76	14370
851.895	14305
852.03	14214
852.165	14282
852.299	14339
852.434	14389
852.569	14343
852.703	14381
852.838	14358
852.973	14415
853.107	14533
853.242	14377
853.376	14206
853.511	14164
853.645	14164
853.78	14309
853.914	14168
854.048	14176
854.183	14305
854.317	14195
854.451	14370
854.585	14221
854.72	14183
854.854	14328
854.988	14058
855.122	14191
855.256	14016
855.39	14259
855.524	14305
855.658	14305
855.792	14199
855.926	14305
856.06	14286
856.194	14294
856.327	14214
856.461	14157
856.595	14149
856.729	14233
856.862	14294
856.996	14168
857.13	14286
857.263	14309
857.397	14271
857.53	14248
857.664	14290
857.797	14305
857.931	14301
858.064	14336
858.197	14252
858.331	14183
858.464	14214
858.597	14176
858.731	14233
858.864	14206
858.997	14168
859.13	14164
859.263	14229
859.396	14339
859.529	14176
859.662	14176
859.795	14138
859.928	14263
860.061	14381
860.194	14427
860.327	14298
860.46	14263
860.592	14324
860.725	14450
860.858	14355
860.99	14195
861.123	14199
861.256	14142
861.388	14237
861.521	14792
861.653	14062
861.786	14008
861.918	14050
862.05	14092
862.183	14126
862.315	14142
862.447	14294
862.58	14153
862.712	14039
862.844	13928
862.976	14088
863.108	14119
863.24	14537
863.372	13978
863.504	14027
863.636	13951
863.768	14050
863.9	14027
864.032	13955
864.164	14005
864.296	13974
864.428	14073
864.559	14084
864.691	14035
864.823	14069
864.954	14172
865.086	14024
865.217	13925
865.349	13887
865.48	14035
865.612	13951
865.743	14100
865.875	13997
866.006	13989
866.137	14012
866.269	13963
866.4	13986
866.531	13955
866.662	13947
866.793	13898
866.924	14039
867.055	13947
867.186	14027
867.317	13940
867.448	13837
867.579	13993
867.71	13856
867.841	14012
867.972	14024
868.103	13993
868.233	14031
868.364	13921
868.495	14107
868.625	14309
868.756	14275
868.886	14191
869.017	14126
869.147	14278
869.278	14271
869.408	14256
869.539	14237
869.669	14351
869.799	14294
869.929	14450
870.06	14351
870.19	14564
870.32	14579
870.45	14625
870.58	14602
870.71	14724
870.84	14750
870.97	14610
871.1	14564
871.23	14720
871.36	14781
871.489	14724
871.619	14834
871.749	14826
871.879	14811
872.008	14918
872.138	14849
872.267	14788
872.397	14682
872.526	14689
872.656	14659
872.785	14667
872.915	14929
873.044	15039
873.173	14845
873.303	14937
873.432	14899
873.561	14952
873.69	14941
873.819	14853
873.948	14921
874.077	14914
874.206	14849
874.335	14937
874.464	14998
874.593	15116
874.722	15039
874.851	15321
874.979	15222
875.108	15291
875.237	15192
875.365	15081
875.494	15093
875.623	15294
875.751	15150
875.88	15245
876.008	15317
876.136	15485
876.265	15671
876.393	15747
876.521	15686
876.65	15671
876.778	15686
876.906	15561
877.034	15618
877.162	15603
877.29	15591
877.418	15549
877.546	15625
877.674	15576
877.802	15595
877.93	15736
878.058	15500
878.185	15534
878.313	15656
878.441	15614
878.568	15504
878.696	15526
878.824	15561
878.951	15629
879.079	15793
879.206	15968
879.333	15732
879.461	15675
879.588	15770
879.715	15778
879.842	15945
879.97	15682
880.097	15511
880.224	15405
880.351	15469
880.478	15450
880.605	15473
880.732	15374
880.859	15720
880.986	15507
881.112	15553
881.239	15310
881.366	15230
881.493	15211
881.619	15123
881.746	15047
881.872	15119
881.999	15093
882.125	15112
882.252	15245
882.378	15184
882.505	15317
882.631	15100
882.757	14982
882.883	14971
883.01	14899
883.136	14826
883.262	14834
883.388	14819
883.514	14918
883.64	14994
883.766	14925
883.892	14811
884.018	14716
884.143	14845
884.269	15104
884.395	14739
884.52	14640
884.646	14602
884.772	14564
884.897	14583
885.023	14667
885.148	14811
885.274	14914
885.399	14724
885.524	14629
885.65	14724
885.775	14739
885.9	14636
886.025	14765
886.15	14727
886.275	14613
886.4	14632
886.525	14659
886.65	14590
886.775	14514
886.9	14758
887.025	14876
887.149	14629
887.274	14545
887.399	14442
887.523	14347
887.648	14294
887.773	14366
887.897	14454
888.021	14659
888.146	14434
888.27	14575
888.395	14579
888.519	14571
888.643	14511
888.767	14552
888.891	14415
889.015	14324
889.139	14404
889.263	14278
889.387	14518
889.511	14674
889.635	14488
889.759	14328
889.883	14351
890.006	14393
890.13	14473
890.254	14305
890.377	14332
890.501	14244
890.624	14218
890.748	14164
890.871	14065
890.995	13974
891.118	14020
891.241	14077
891.364	14062
891.488	14138
891.611	14020
891.734	14092
891.857	14054
891.98	14073
892.103	14168
892.226	13993
892.349	14031
892.471	13822
892.594	14016
892.717	14054
892.839	13993
892.962	13951
893.085	14058
893.207	14111
893.33	13993
893.452	13955
893.575	14130
893.697	14046
893.819	14229
893.941	14210
894.064	14218
894.186	14058
894.308	14115
894.43	14191
894.552	14267
894.674	14134
894.796	14001
894.918	14084
895.04	14142
895.161	14183
895.283	14157
895.405	14157
895.526	14233
895.648	14115
895.769	14195
895.891	14301
896.012	14202
896.134	14252
896.255	14244
896.376	14187
896.498	14206
896.619	14244
896.74	14214
896.861	14199
896.982	14530
897.103	14659
897.224	14533
897.345	14419
897.466	14358
897.587	14492
897.708	14590
897.828	14507
897.949	14465
898.07	14351
898.19	14393
898.311	14590
898.431	14457
898.552	14541
898.672	14583
898.792	14621
898.913	14644
899.033	14476
899.153	14450
899.273	14317
899.393	14282
899.513	14396
899.633	14400
899.753	14377
899.873	14393
899.993	14385
900.113	14415
900.232	14419
900.352	14393
900.472	14328
900.591	14282
900.711	14351
900.83	14248
900.95	14362
901.069	14355
901.189	14275
901.308	14005
901.427	13883
901.546	13936
901.665	14035
901.784	14008
901.904	13871
902.023	13719
902.141	13514
902.26	13571
902.379	13537
902.498	13571
902.617	13495
902.735	13518
902.854	13525
902.973	13499
903.091	13266
903.21	13244
903.328	13335
903.446	13149
903.565	13137
903.683	13133
903.801	13019
903.919	13031
904.038	13080
904.156	12985
904.274	13015
904.392	12973
904.51	12901
904.627	12886
904.745	12947
904.863	12962
904.981	12764
905.098	12597
905.216	12608
905.334	12700
905.451	12601
905.569	12627
905.686	12639
905.803	12578
905.921	12433
906.038	12601
906.155	12410
906.272	12369
906.389	12403
906.506	12289
906.623	12152
906.74	12216
906.857	12007
906.974	12125
907.091	12300
907.208	12433
907.324	12228
907.441	12171
907.557	11961
907.674	11901
907.79	11824
907.907	11897
908.023	11935
908.139	11977
908.256	11882
908.372	11950
908.488	11824
908.604	11752
908.72	11661
908.836	11707
908.952	11745
909.068	11756
909.184	11752
909.3	11688
909.415	11771
909.531	11798
909.647	11482
909.762	11554
909.878	11341
909.993	11512
910.108	11448
910.224	11505
910.339	11581
910.454	11444
910.57	11277
910.685	11311
910.8	11573
910.915	11471
911.03	11383
911.145	11254
911.259	11159
911.374	11239
911.489	11136
911.604	11075
911.718	10946
911.833	10923
911.947	10866
912.062	10816
912.176	10953
912.291	10968
912.405	10889
912.519	11064
912.633	11140
912.748	10987
912.862	10965
912.976	10927
913.09	10714
913.204	10816
913.318	10820
913.431	10984
913.545	10915
913.659	11010
913.772	10866
913.886	10706
914	10698
914.113	10805
914.226	10858
914.34	10828
914.453	10622
914.566	10801
914.68	10664
914.793	10691
914.906	10436
915.019	10451
915.132	10371
915.245	10409
915.358	10459
915.47	10428
915.583	10459
915.696	10542
915.809	10679
915.921	10656
916.034	10390
916.146	10402
916.259	10424
916.371	10550
916.483	10413
916.595	10352
916.708	10363
916.82	10443
916.932	10337
917.044	10390
917.156	10375
917.268	10261
917.38	10291
917.491	10276
917.603	10272
917.715	10382
917.826	10405
917.938	10276
918.049	10234
918.161	10318
918.272	10481
918.384	10344
918.495	10310
918.606	10158
918.717	10051
918.828	10196
918.939	10291
919.05	10101
919.161	10131
919.272	9972
919.383	10059
919.494	10154
919.604	10485
919.715	10207
919.826	10078
919.936	10166
920.047	10253
920.157	10242
920.267	10325
920.378	10234
920.488	10177
920.598	10390
920.708	10478
920.818	10413
920.928	10390
921.038	10523
921.148	10481
921.258	10207
921.368	10078
921.477	9998
921.587	10093
921.697	9987
921.806	10040
921.916	9907
922.025	9785
922.134	9793
922.244	9671
922.353	9823
922.462	9591
922.571	9519
922.68	9473
922.789	9363
922.898	9443
923.007	9439
923.116	9412
923.224	9443
923.333	9454
923.442	9310
923.55	9329
923.659	9397
923.767	9408
923.876	9321
923.984	9370
924.092	9226
924.201	9344
924.309	9321
924.417	9302
924.525	9253
924.633	9287
924.741	10059
924.849	9119
924.956	9199
925.064	9085
925.172	8944
925.279	9005
925.387	9070
925.494	9100
925.602	9230
925.709	9214
925.816	8986
925.924	9055
926.031	9112
926.138	9055
926.245	9165
926.352	8998
926.459	9131
926.566	9211
926.673	9036
926.779	8933
926.886	9013
926.993	8857
927.099	8826
927.206	8788
927.312	8670
927.419	8857
927.525	8758
927.631	8849
927.737	8762
927.843	8705
927.95	8602
928.056	8773
928.162	8739
928.267	8773
928.373	9355
928.479	8735
928.585	8549
928.69	8739
928.796	8777
928.901	8587
929.007	8568
929.112	8564
929.218	8587
929.323	8545
929.428	8511
929.533	8621
929.638	8408
929.743	8564
929.848	8511
929.953	8507
930.058	8427
930.163	8336
930.267	8343
930.372	8499
930.477	8218
930.581	8473
930.685	8286
930.79	8210
930.894	8252
930.998	8221
931.103	8423
931.207	8031
931.311	7982
931.415	7856
931.519	7727
931.623	7765
