Data from test_V78500241_3540.txt Node
Date: Fri Mar 25 14:58:22 CST 2022
User: usil
Spectrometer: V785-0024
Trigger mode: 0
Integration Time (sec): 4.000000E-1
Scans to average: 1
Nonlinearity correction enabled: false
Boxcar width: 0
Storing dark spectrum: false
XAxis mode: Wavelengths
Number of Pixels in Spectrum: 1024
>>>>>Begin Spectral Data<<<<<
801.071	21922
801.214	21827
801.356	21496
801.499	21469
801.641	21264
801.783	21443
801.926	21275
802.068	21321
802.211	21112
802.353	20963
802.496	20815
802.638	20659
802.78	20724
802.923	20602
803.065	20457
803.208	20587
803.35	20716
803.492	20769
803.635	20754
803.777	20602
803.919	20640
804.061	20956
804.204	20629
804.346	20571
804.488	20522
804.63	20545
804.773	20431
804.915	20617
805.057	20564
805.199	20461
805.341	20613
805.483	20571
805.626	20625
805.768	20503
805.91	20533
806.052	20571
806.194	20476
806.336	20750
806.478	20590
806.62	20507
806.762	20476
806.904	20750
807.046	20975
807.188	20979
807.33	20887
807.472	20925
807.614	20667
807.756	20804
807.898	20678
808.04	20568
808.182	20541
808.324	20632
808.465	20739
808.607	20796
808.749	20883
808.891	20906
809.033	21058
809.174	20842
809.316	20868
809.458	20864
809.6	20914
809.741	20963
809.883	20994
810.025	21043
810.166	21001
810.308	20975
810.45	20960
810.591	20948
810.733	20929
810.875	20724
811.016	20473
811.158	20408
811.299	20792
811.441	20743
811.582	20781
811.724	20746
811.865	20750
812.007	20511
812.148	20640
812.29	20583
812.431	20811
812.573	20925
812.714	21123
812.855	21131
812.997	21222
813.138	21306
813.279	21367
813.421	21047
813.562	21066
813.703	20895
813.845	20788
813.986	20461
814.127	20317
814.268	20161
814.41	20240
814.551	20145
814.692	20218
814.833	20153
814.974	20016
815.115	20043
815.256	20111
815.397	19993
815.539	20005
815.68	19913
815.821	19906
815.962	19879
816.103	19936
816.244	19727
816.385	19620
816.526	19620
816.666	19521
816.807	19263
816.948	19468
817.089	19377
817.23	19400
817.371	19388
817.512	19400
817.653	19293
817.793	19202
817.934	19331
818.075	19285
818.216	19293
818.356	19179
818.497	19076
818.638	18973
818.778	19023
818.919	18905
819.06	18920
819.2	19198
819.341	19244
819.481	19183
819.622	19270
819.762	19441
819.903	19419
820.043	19400
820.184	19244
820.324	19270
820.465	19365
820.605	19381
820.746	19247
820.886	19088
821.026	19217
821.167	19160
821.307	19293
821.447	19251
821.588	19110
821.728	18977
821.868	18825
822.008	18642
822.149	18749
822.289	18673
822.429	18479
822.569	18323
822.709	18494
822.849	18311
822.99	18201
823.13	18167
823.27	18144
823.41	17999
823.55	17824
823.69	17931
823.83	18041
823.97	17923
824.11	17714
824.25	17665
824.389	17748
824.529	17805
824.669	17695
824.809	17965
824.949	17897
825.089	17783
825.228	17904
825.368	17710
825.508	17661
825.648	17581
825.787	17535
825.927	17657
826.067	17398
826.206	17638
826.346	17474
826.485	17604
826.625	17558
826.765	17684
826.904	17653
827.044	17326
827.183	17330
827.323	17159
827.462	17353
827.601	17280
827.741	17220
827.88	17269
828.02	17102
828.159	17356
828.298	17284
828.437	17273
828.577	17273
828.716	17391
828.855	17242
828.994	17094
829.134	16923
829.273	17064
829.412	16934
829.551	16942
829.69	17052
829.829	17124
829.968	17151
830.107	17010
830.246	16968
830.385	16915
830.524	16900
830.663	16862
830.802	16736
830.941	16542
831.08	16584
831.219	16713
831.357	16672
831.496	16873
831.635	16713
831.774	16580
831.913	16428
832.051	16436
832.19	16466
832.329	16512
832.467	16371
832.606	16284
832.744	16238
832.883	16329
833.022	16291
833.16	16390
833.299	16402
833.437	16489
833.576	16344
833.714	16352
833.852	16443
833.991	16451
834.129	16436
834.267	16481
834.406	16379
834.544	16360
834.682	16390
834.821	16440
834.959	16569
835.097	16493
835.235	16451
835.373	16402
835.511	16428
835.65	16325
835.788	16303
835.926	16223
836.064	16139
836.202	16063
836.34	16284
836.478	16462
836.615	16261
836.753	16299
836.891	16413
837.029	16356
837.167	16352
837.305	16204
837.443	16154
837.58	16158
837.718	16196
837.856	16215
837.993	16131
838.131	16150
838.269	16097
838.406	16166
838.544	16120
838.681	15899
838.819	15869
838.956	15701
839.094	15823
839.231	15800
839.369	15911
839.506	16078
839.643	15972
839.781	15804
839.918	15713
840.055	15720
840.193	15625
840.33	15720
840.467	15709
840.604	15713
840.742	16029
840.879	15568
841.016	15625
841.153	15717
841.29	15793
841.427	15694
841.564	15873
841.701	15747
841.838	15679
841.975	15663
842.112	15743
842.249	15526
842.385	15477
842.522	15641
842.659	15469
842.796	15526
842.933	15675
843.069	15568
843.206	15561
843.343	15511
843.479	15492
843.616	15538
843.752	15386
843.889	15306
844.025	15428
844.162	15287
844.298	15473
844.435	15378
844.571	15321
844.708	15359
844.844	15439
844.98	15466
845.117	15378
845.253	15233
845.389	15173
845.525	15214
845.661	15184
845.798	15123
845.934	15123
846.07	15089
846.206	15104
846.342	15222
846.478	15108
846.614	14925
846.75	14796
846.886	14929
847.022	14963
847.158	14883
847.294	14864
847.429	14994
847.565	14883
847.701	15066
847.837	14758
847.972	14613
848.108	14777
848.244	14758
848.379	14480
848.515	14495
848.65	14415
848.786	14541
848.921	14465
849.057	14697
849.192	14602
849.328	14511
849.463	14465
849.598	14419
849.734	14522
849.869	14313
850.004	14225
850.14	14263
850.275	14214
850.41	14256
850.545	14282
850.68	14320
850.815	14309
850.95	14225
851.085	14438
851.22	14301
851.355	14210
851.49	14199
851.625	14263
851.76	14187
851.895	14069
852.03	14119
852.165	14214
852.299	14244
852.434	14313
852.569	14229
852.703	14298
852.838	14358
852.973	14415
853.107	14294
853.242	14176
853.376	14081
853.511	13986
853.645	14119
853.78	14233
853.914	14168
854.048	14035
854.183	14039
854.317	14149
854.451	14267
854.585	14123
854.72	14191
854.854	14252
854.988	14088
855.122	14065
855.256	14031
855.39	14145
855.524	14096
855.658	14153
855.792	14096
855.926	14221
856.06	14138
856.194	14206
856.327	14050
856.461	14111
856.595	14024
856.729	14149
856.862	14195
856.996	14065
857.13	14229
857.263	14309
857.397	14183
857.53	14069
857.664	14130
857.797	14221
857.931	14252
858.064	14229
858.197	14210
858.331	14077
858.464	14149
858.597	13967
858.731	14210
858.864	14157
858.997	14031
859.13	14183
859.263	14123
859.396	14199
859.529	14161
859.662	14077
859.795	14161
859.928	14153
860.061	14263
860.194	14248
860.327	14153
860.46	14149
860.592	14221
860.725	14206
860.858	14259
860.99	14214
861.123	14012
861.256	14031
861.388	14142
861.521	14796
861.653	13982
861.786	13944
861.918	13967
862.05	14046
862.183	14100
862.315	14103
862.447	14138
862.58	14043
862.712	13902
862.844	13849
862.976	13906
863.108	13936
863.24	14210
863.372	13830
863.504	13959
863.636	13909
863.768	13959
863.9	13947
864.032	13951
864.164	13902
864.296	13963
864.428	14054
864.559	14031
864.691	14016
864.823	13986
864.954	13947
865.086	13982
865.217	13898
865.349	13780
865.48	13906
865.612	13902
865.743	14016
865.875	13875
866.006	13887
866.137	13856
866.269	13856
866.4	13921
866.531	13769
866.662	13849
866.793	13845
866.924	13849
867.055	13887
867.186	13822
867.317	13833
867.448	13700
867.579	13875
867.71	13898
867.841	13856
867.972	13860
868.103	13890
868.233	13993
868.364	13890
868.495	13925
868.625	14259
868.756	14248
868.886	14119
869.017	14176
869.147	14210
869.278	14317
869.408	14172
869.539	14180
869.669	14134
869.799	14218
869.929	14328
870.06	14130
870.19	14362
870.32	14473
870.45	14495
870.58	14598
870.71	14549
870.84	14708
870.97	14503
871.1	14514
871.23	14716
871.36	14792
871.489	14670
871.619	14648
871.749	14701
871.879	14815
872.008	14853
872.138	14743
872.267	14754
872.397	14606
872.526	14587
872.656	14530
872.785	14674
872.915	14712
873.044	14872
873.173	14743
873.303	14788
873.432	14785
873.561	14842
873.69	14746
873.819	14765
873.948	14895
874.077	14838
874.206	14754
874.335	14762
874.464	14899
874.593	15135
874.722	15081
874.851	15089
874.979	15081
875.108	15119
875.237	15070
875.365	15009
875.494	15112
875.623	15169
875.751	15138
875.88	15310
876.008	15302
876.136	15378
876.265	15515
876.393	15698
876.521	15641
876.65	15648
876.778	15549
876.906	15443
877.034	15530
877.162	15523
877.29	15515
877.418	15504
877.546	15534
877.674	15469
877.802	15511
877.93	15462
878.058	15504
878.185	15523
878.313	15488
878.441	15481
878.568	15450
878.696	15500
878.824	15523
878.951	15564
879.079	15595
879.206	15823
879.333	15743
879.461	15587
879.588	15622
879.715	15762
879.842	15827
879.97	15549
880.097	15397
880.224	15450
880.351	15382
880.478	15424
880.605	15298
880.732	15256
880.859	15637
880.986	15416
881.112	15355
881.239	15283
881.366	15195
881.493	15119
881.619	15070
881.746	14963
881.872	15058
881.999	15047
882.125	15032
882.252	15074
882.378	15097
882.505	15154
882.631	14994
882.757	14815
882.883	14887
883.01	14941
883.136	14906
883.262	14686
883.388	14727
883.514	14868
883.64	14895
883.766	14769
883.892	14731
884.018	14686
884.143	14769
884.269	15028
884.395	14670
884.52	14480
884.646	14636
884.772	14590
884.897	14480
885.023	14545
885.148	14621
885.274	14640
885.399	14644
885.524	14537
885.65	14473
885.775	14590
885.9	14480
886.025	14686
886.15	14617
886.275	14640
886.4	14522
886.525	14457
886.65	14556
886.775	14587
886.9	14674
887.025	14800
887.149	14651
887.274	14298
887.399	14389
887.523	14309
887.648	14256
887.773	14294
887.897	14423
888.021	14385
888.146	14370
888.27	14511
888.395	14545
888.519	14480
888.643	14450
888.767	14393
888.891	14324
889.015	14301
889.139	14298
889.263	14214
889.387	14396
889.511	14393
889.635	14374
889.759	14206
889.883	14164
890.006	14218
890.13	14457
890.254	14267
890.377	14267
890.501	14107
890.624	14058
890.748	14126
890.871	13982
890.995	13970
891.118	13864
891.241	13963
891.364	13959
891.488	14134
891.611	13925
891.734	13963
891.857	14050
891.98	14005
892.103	14145
892.226	14001
892.349	13963
892.471	13852
892.594	14046
892.717	14024
892.839	13913
892.962	14016
893.085	14111
893.207	14027
893.33	13852
893.452	13993
893.575	13940
893.697	13917
893.819	14225
893.941	14130
894.064	14084
894.186	13970
894.308	13967
894.43	14134
894.552	14092
894.674	14134
894.796	14020
894.918	13986
895.04	14062
895.161	14107
895.283	14062
895.405	14043
895.526	14065
895.648	14043
895.769	14084
895.891	14138
896.012	14183
896.134	14206
896.255	14157
896.376	14073
896.498	14073
896.619	14119
896.74	14145
896.861	14187
896.982	14606
897.103	14541
897.224	14442
897.345	14476
897.466	14362
897.587	14415
897.708	14427
897.828	14419
897.949	14457
898.07	14320
898.19	14362
898.311	14571
898.431	14423
898.552	14511
898.672	14552
898.792	14568
898.913	14511
899.033	14427
899.153	14313
899.273	14271
899.393	14362
899.513	14313
899.633	14339
899.753	14396
899.873	14263
899.993	14389
900.113	14301
900.232	14336
900.352	14396
900.472	14351
900.591	14187
900.711	14248
900.83	14126
900.95	14358
901.069	14263
901.189	14157
901.308	13826
901.427	13864
901.546	13833
901.665	13913
901.784	13883
901.904	13753
902.023	13670
902.141	13518
902.26	13514
902.379	13556
902.498	13441
902.617	13434
902.735	13510
902.854	13480
902.973	13434
903.091	13293
903.21	13171
903.328	13137
903.446	13088
903.565	13065
903.683	13164
903.801	12989
903.919	12935
904.038	13046
904.156	12859
904.274	12943
904.392	12859
904.51	12791
904.627	12852
904.745	12833
904.863	12932
904.981	12597
905.098	12601
905.216	12456
905.334	12540
905.451	12559
905.569	12544
905.686	12604
905.803	12544
905.921	12323
906.038	12433
906.155	12277
906.272	12342
906.389	12216
906.506	12155
906.623	12148
906.74	12201
906.857	11980
906.974	12079
907.091	12289
907.208	12205
907.324	12186
907.441	12045
907.557	11901
907.674	11840
907.79	11840
907.907	11809
908.023	11901
908.139	11908
908.256	11882
908.372	11779
908.488	11798
908.604	11756
908.72	11596
908.836	11627
908.952	11630
909.068	11665
909.184	11779
909.3	11630
909.415	11718
909.531	11790
909.647	11471
909.762	11433
909.878	11379
909.993	11463
910.108	11387
910.224	11360
910.339	11356
910.454	11322
910.57	11326
910.685	11166
910.8	11444
910.915	11448
911.03	11311
911.145	11147
911.259	11090
911.374	11105
911.489	11086
911.604	10934
911.718	10934
911.833	10881
911.947	10767
912.062	10778
912.176	10771
912.291	10835
912.405	10904
912.519	11067
912.633	11064
912.748	10984
912.862	10911
912.976	10748
913.09	10664
913.204	10740
913.318	10782
913.431	10854
913.545	10858
913.659	10854
913.772	10801
913.886	10622
914	10630
914.113	10805
914.226	10793
914.34	10721
914.453	10630
914.566	10740
914.68	10660
914.793	10618
914.906	10360
915.019	10417
915.132	10318
915.245	10379
915.358	10386
915.47	10363
915.583	10390
915.696	10504
915.809	10558
915.921	10535
916.034	10318
916.146	10333
916.259	10390
916.371	10322
916.483	10394
916.595	10318
916.708	10284
916.82	10356
916.932	10390
917.044	10268
917.156	10356
917.268	10135
917.38	10253
917.491	10200
917.603	10234
917.715	10318
917.826	10295
917.938	10207
918.049	10124
918.161	10242
918.272	10348
918.384	10443
918.495	10287
918.606	10093
918.717	10063
918.828	10162
918.939	10196
919.05	10055
919.161	10059
919.272	9838
919.383	9911
919.494	10116
919.604	10337
919.715	10109
919.826	10067
919.936	10086
920.047	10143
920.157	10147
920.267	10341
920.378	10204
920.488	10128
920.598	10348
920.708	10485
920.818	10337
920.928	10333
921.038	10565
921.148	10527
921.258	10242
921.368	10143
921.477	10002
921.587	9968
921.697	9911
921.806	9960
921.916	9835
922.025	9652
922.134	9736
922.244	9686
922.353	9781
922.462	9625
922.571	9469
922.68	9389
922.789	9310
922.898	9428
923.007	9355
923.116	9374
923.224	9405
923.333	9370
923.442	9264
923.55	9283
923.659	9245
923.767	9378
923.876	9226
923.984	9329
924.092	9195
924.201	9237
924.309	9237
924.417	9272
924.525	9226
924.633	9222
924.741	9994
924.849	9020
924.956	9218
925.064	8963
925.172	8906
925.279	9020
925.387	9028
925.494	9066
925.602	9184
925.709	9093
925.816	8982
925.924	9009
926.031	9169
926.138	9039
926.245	9093
926.352	8971
926.459	9104
926.566	9135
926.673	8990
926.779	8933
926.886	8906
926.993	8777
927.099	8705
927.206	8705
927.312	8712
927.419	8845
927.525	8716
927.631	8781
927.737	8632
927.843	8651
927.95	8587
928.056	8613
928.162	8705
928.267	8743
928.373	9313
928.479	8804
928.585	8499
928.69	8632
928.796	8712
928.901	8549
929.007	8434
929.112	8499
929.218	8511
929.323	8476
929.428	8484
929.533	8575
929.638	8465
929.743	8454
929.848	8492
929.953	8511
930.058	8385
930.163	8244
930.267	8317
930.372	8404
930.477	8294
930.581	8473
930.685	8332
930.79	8202
930.894	8168
930.998	8176
931.103	8279
931.207	7982
931.311	7921
931.415	7890
931.519	7658
931.623	7670
