Data from test_V78500241_2293.txt Node
Date: Fri Mar 25 14:49:40 CST 2022
User: usil
Spectrometer: V785-0024
Trigger mode: 0
Integration Time (sec): 4.000000E-1
Scans to average: 1
Nonlinearity correction enabled: false
Boxcar width: 0
Storing dark spectrum: false
XAxis mode: Wavelengths
Number of Pixels in Spectrum: 1024
>>>>>Begin Spectral Data<<<<<
801.071	22181
801.214	22006
801.356	21720
801.499	21743
801.641	21458
801.783	21447
801.926	21568
802.068	21473
802.211	21500
802.353	21195
802.496	21150
802.638	21028
802.78	20845
802.923	20929
803.065	20739
803.208	20826
803.35	20899
803.492	20979
803.635	20975
803.777	20929
803.919	20998
804.061	21222
804.204	20975
804.346	20826
804.488	20781
804.63	20849
804.773	20743
804.915	20765
805.057	20845
805.199	20811
805.341	20960
805.483	20853
805.626	20971
805.768	20796
805.91	20655
806.052	20872
806.194	20625
806.336	20960
806.478	20731
806.62	20777
806.762	20788
806.904	20990
807.046	21203
807.188	21116
807.33	21089
807.472	21245
807.614	21013
807.756	21013
807.898	20921
808.04	20823
808.182	20826
808.324	20902
808.465	20868
808.607	21081
808.749	21233
808.891	21249
809.033	21332
809.174	21256
809.316	21226
809.458	21192
809.6	21184
809.741	21218
809.883	21173
810.025	21332
810.166	21279
810.308	21230
810.45	21272
810.591	21214
810.733	21081
810.875	20895
811.016	20895
811.158	20788
811.299	20933
811.441	21013
811.582	21024
811.724	21005
811.865	20807
812.007	20979
812.148	21039
812.29	21001
812.431	21116
812.573	21184
812.714	21431
812.855	21462
812.997	21629
813.138	21762
813.279	21523
813.421	21378
813.562	21336
813.703	21211
813.845	20963
813.986	20777
814.127	20651
814.268	20488
814.41	20598
814.551	20465
814.692	20579
814.833	20461
814.974	20309
815.115	20533
815.256	20503
815.397	20385
815.539	20275
815.68	20282
815.821	20024
815.962	20294
816.103	20233
816.244	20046
816.385	20020
816.526	19837
816.666	19731
816.807	19556
816.948	19750
817.089	19753
817.23	19761
817.371	19613
817.512	19563
817.653	19738
817.793	19605
817.934	19552
818.075	19537
818.216	19544
818.356	19552
818.497	19373
818.638	19297
818.778	19228
818.919	19346
819.06	19369
819.2	19495
819.341	19552
819.481	19483
819.622	19655
819.762	19769
819.903	19791
820.043	19681
820.184	19537
820.324	19537
820.465	19658
820.605	19624
820.746	19616
820.886	19540
821.026	19624
821.167	19297
821.307	19628
821.447	19453
821.588	19529
821.728	19308
821.868	19148
822.008	18924
822.149	19046
822.289	19000
822.429	18829
822.569	18703
822.709	18696
822.849	18566
822.99	18452
823.13	18483
823.27	18502
823.41	18376
823.55	18258
823.69	18262
823.83	18308
823.97	18251
824.11	18079
824.25	18064
824.389	18064
824.529	18136
824.669	18038
824.809	18186
824.949	18140
825.089	18254
825.228	17935
825.368	17775
825.508	17927
825.648	17843
825.787	17977
825.927	17821
826.067	17783
826.206	17794
826.346	17859
826.485	17889
826.625	17790
826.765	17988
826.904	17893
827.044	17619
827.183	17684
827.323	17478
827.462	17642
827.601	17581
827.741	17414
827.88	17585
828.02	17391
828.159	17417
828.298	17570
828.437	17649
828.577	17406
828.716	17661
828.855	17398
828.994	17254
829.134	17269
829.273	17379
829.412	17231
829.551	17109
829.69	17204
829.829	17269
829.968	17334
830.107	17334
830.246	17235
830.385	17231
830.524	17162
830.663	17003
830.802	16908
830.941	16782
831.08	16839
831.219	16892
831.357	16965
831.496	17086
831.635	16877
831.774	16793
831.913	16729
832.051	16736
832.19	16672
832.329	16683
832.467	16527
832.606	16497
832.744	16531
832.883	16504
833.022	16497
833.16	16440
833.299	16626
833.437	16592
833.576	16573
833.714	16565
833.852	16626
833.991	16573
834.129	16660
834.267	16607
834.406	16656
834.544	16664
834.682	16577
834.821	16508
834.959	16740
835.097	16584
835.235	16637
835.373	16679
835.511	16588
835.65	16607
835.788	16497
835.926	16333
836.064	16379
836.202	16409
836.34	16668
836.478	16679
836.615	16409
836.753	16504
836.891	16569
837.029	16436
837.167	16402
837.305	16348
837.443	16306
837.58	16398
837.718	16348
837.856	16455
837.993	16303
838.131	16318
838.269	16303
838.406	16261
838.544	16272
838.681	16150
838.819	16082
838.956	15918
839.094	15911
839.231	15949
839.369	16067
839.506	16268
839.643	16082
839.781	15968
839.918	15785
840.055	15956
840.193	15930
840.33	15880
840.467	15892
840.604	15934
840.742	16067
840.879	15762
841.016	15842
841.153	15861
841.29	15983
841.427	15926
841.564	15911
841.701	15869
841.838	15888
841.975	15816
842.112	15835
842.249	15671
842.385	15580
842.522	15892
842.659	15644
842.796	15633
842.933	15804
843.069	15656
843.206	15538
843.343	15709
843.479	15686
843.616	15701
843.752	15504
843.889	15504
844.025	15538
844.162	15382
844.298	15622
844.435	15424
844.571	15477
844.708	15538
844.844	15584
844.98	15644
845.117	15488
845.253	15431
845.389	15252
845.525	15370
845.661	15374
845.798	15336
845.934	15336
846.07	15272
846.206	15363
846.342	15386
846.478	15180
846.614	15036
846.75	15089
846.886	15001
847.022	15150
847.158	14994
847.294	15093
847.429	15058
847.565	14994
847.701	15218
847.837	14804
847.972	14754
848.108	14845
848.244	14861
848.379	14701
848.515	14629
848.65	14625
848.786	14617
848.921	14579
849.057	14773
849.192	14682
849.328	14636
849.463	14746
849.598	14507
849.734	14667
849.869	14541
850.004	14495
850.14	14514
850.275	14446
850.41	14317
850.545	14358
850.68	14366
850.815	14427
850.95	14400
851.085	14568
851.22	14499
851.355	14362
851.49	14370
851.625	14351
851.76	14374
851.895	14263
852.03	14259
852.165	14320
852.299	14431
852.434	14473
852.569	14404
852.703	14370
852.838	14484
852.973	14541
853.107	14644
853.242	14423
853.376	14252
853.511	14195
853.645	14218
853.78	14461
853.914	14282
854.048	14282
854.183	14191
854.317	14309
854.451	14446
854.585	14233
854.72	14286
854.854	14339
854.988	14145
855.122	14278
855.256	14145
855.39	14172
855.524	14377
855.658	14294
855.792	14282
855.926	14389
856.06	14370
856.194	14393
856.327	14278
856.461	14202
856.595	14240
856.729	14161
856.862	14427
856.996	14389
857.13	14362
857.263	14431
857.397	14393
857.53	14366
857.664	14370
857.797	14393
857.931	14431
858.064	14248
858.197	14328
858.331	14221
858.464	14240
858.597	14149
858.731	14157
858.864	14263
858.997	14263
859.13	14256
859.263	14301
859.396	14396
859.529	14263
859.662	14248
859.795	14263
859.928	14301
860.061	14518
860.194	14503
860.327	14438
860.46	14332
860.592	14358
860.725	14400
860.858	14412
860.99	14259
861.123	14157
861.256	14142
861.388	14263
861.521	14906
861.653	14195
861.786	14073
861.918	14221
862.05	14134
862.183	14191
862.315	14252
862.447	14343
862.58	14206
862.712	14062
862.844	13989
862.976	14145
863.108	14111
863.24	14434
863.372	13959
863.504	14100
863.636	13925
863.768	14024
863.9	14012
864.032	13967
864.164	13955
864.296	14012
864.428	14096
864.559	14134
864.691	14145
864.823	14103
864.954	14168
865.086	14027
865.217	13974
865.349	13928
865.48	14081
865.612	13955
865.743	14248
865.875	14046
866.006	14065
866.137	14081
866.269	13967
866.4	14039
866.531	14005
866.662	13974
866.793	13871
866.924	14069
867.055	13974
867.186	13967
867.317	14058
867.448	14020
867.579	13936
867.71	13879
867.841	13921
867.972	14050
868.103	13970
868.233	14020
868.364	14005
868.495	14153
868.625	14180
868.756	14389
868.886	14206
869.017	14248
869.147	14324
869.278	14286
869.408	14256
869.539	14252
869.669	14366
869.799	14301
869.929	14438
870.06	14385
870.19	14670
870.32	14549
870.45	14571
870.58	14762
870.71	14697
870.84	14758
870.97	14686
871.1	14705
871.23	14834
871.36	14880
871.489	14705
871.619	14914
871.749	14739
871.879	14883
872.008	14963
872.138	14838
872.267	14746
872.397	14765
872.526	14610
872.656	14758
872.785	14655
872.915	14857
873.044	15058
873.173	14952
873.303	14948
873.432	14986
873.561	15085
873.69	14975
873.819	14883
873.948	14887
874.077	15005
874.206	14895
874.335	14899
874.464	15100
874.593	15351
874.722	15154
874.851	15184
874.979	15355
875.108	15389
875.237	15081
875.365	15074
875.494	15214
875.623	15218
875.751	15233
875.88	15230
876.008	15447
876.136	15523
876.265	15663
876.393	15732
876.521	15736
876.65	15778
876.778	15648
876.906	15606
877.034	15595
877.162	15618
877.29	15526
877.418	15660
877.546	15580
877.674	15713
877.802	15739
877.93	15564
878.058	15587
878.185	15507
878.313	15690
878.441	15561
878.568	15599
878.696	15587
878.824	15667
878.951	15701
879.079	15888
879.206	15945
879.333	15819
879.461	15629
879.588	15800
879.715	15949
879.842	15945
879.97	15797
880.097	15458
880.224	15473
880.351	15504
880.478	15492
880.605	15466
880.732	15469
880.859	15572
880.986	15500
881.112	15534
881.239	15477
881.366	15317
881.493	15256
881.619	15135
881.746	15195
881.872	15112
881.999	15089
882.125	15074
882.252	15241
882.378	15195
882.505	15245
882.631	15093
882.757	14952
882.883	15184
883.01	15047
883.136	14941
883.262	14838
883.388	14754
883.514	15055
883.64	15028
883.766	14910
883.892	14697
884.018	14815
884.143	14864
884.269	15032
884.395	14686
884.52	14731
884.646	14746
884.772	14537
884.897	14533
885.023	14735
885.148	14769
885.274	14838
885.399	14826
885.524	14632
885.65	14556
885.775	14743
885.9	14629
886.025	14815
886.15	14800
886.275	14697
886.4	14537
886.525	14655
886.65	14640
886.775	14674
886.9	14792
887.025	14979
887.149	14667
887.274	14514
887.399	14412
887.523	14492
887.648	14408
887.773	14446
887.897	14503
888.021	14511
888.146	14408
888.27	14530
888.395	14533
888.519	14545
888.643	14545
888.767	14621
888.891	14431
889.015	14343
889.139	14408
889.263	14263
889.387	14499
889.511	14610
889.635	14503
889.759	14408
889.883	14358
890.006	14389
890.13	14526
890.254	14294
890.377	14366
890.501	14206
890.624	14157
890.748	14332
890.871	14126
890.995	14084
891.118	13932
891.241	14107
891.364	13978
891.488	14210
891.611	13993
891.734	14043
891.857	14043
891.98	14054
892.103	14054
892.226	14119
892.349	14065
892.471	13944
892.594	14058
892.717	14058
892.839	14031
892.962	14103
893.085	14050
893.207	14069
893.33	13913
893.452	13997
893.575	14077
893.697	14043
893.819	14229
893.941	14317
894.064	14180
894.186	14107
894.308	13997
894.43	14161
894.552	14286
894.674	14263
894.796	14024
894.918	14077
895.04	14073
895.161	14119
895.283	14206
895.405	14035
895.526	14115
895.648	14096
895.769	14214
895.891	14282
896.012	14282
896.134	14248
896.255	14218
896.376	14225
896.498	14214
896.619	14370
896.74	14286
896.861	14404
896.982	14579
897.103	14659
897.224	14564
897.345	14415
897.466	14480
897.587	14461
897.708	14583
897.828	14602
897.949	14503
898.07	14469
898.19	14514
898.311	14689
898.431	14613
898.552	14598
898.672	14720
898.792	14663
898.913	14613
899.033	14511
899.153	14476
899.273	14446
899.393	14450
899.513	14526
899.633	14533
899.753	14549
899.873	14476
899.993	14564
900.113	14526
900.232	14473
900.352	14522
900.472	14347
900.591	14358
900.711	14358
900.83	14343
900.95	14427
901.069	14454
901.189	14214
901.308	14039
901.427	14016
901.546	14172
901.665	14073
901.784	14081
901.904	13909
902.023	13875
902.141	13563
902.26	13658
902.379	13681
902.498	13552
902.617	13567
902.735	13647
902.854	13597
902.973	13567
903.091	13293
903.21	13213
903.328	13377
903.446	13335
903.565	13206
903.683	13133
903.801	13076
903.919	13225
904.038	13240
904.156	13023
904.274	13069
904.392	13034
904.51	13050
904.627	13012
904.745	12996
904.863	13088
904.981	12844
905.098	12719
905.216	12810
905.334	12829
905.451	12741
905.569	12673
905.686	12669
905.803	12692
905.921	12563
906.038	12601
906.155	12494
906.272	12414
906.389	12433
906.506	12262
906.623	12251
906.74	12258
906.857	12163
906.974	12220
907.091	12350
907.208	12300
907.324	12289
907.441	12155
907.557	12102
907.674	12045
907.79	11942
907.907	11984
908.023	12076
908.139	11977
908.256	11965
908.372	11897
908.488	11977
908.604	11828
908.72	11756
908.836	11745
908.952	11783
909.068	11805
909.184	11889
909.3	11779
909.415	11832
909.531	11748
909.647	11543
909.762	11653
909.878	11505
909.993	11589
910.108	11497
910.224	11490
910.339	11524
910.454	11414
910.57	11315
910.685	11322
910.8	11642
910.915	11551
911.03	11497
911.145	11273
911.259	11254
911.374	11235
911.489	11128
911.604	11060
911.718	11022
911.833	11025
911.947	10869
912.062	10881
912.176	11052
912.291	10946
912.405	11022
912.519	11155
912.633	11242
912.748	10984
912.862	10953
912.976	10911
913.09	10782
913.204	10774
913.318	10877
913.431	11010
913.545	10930
913.659	11041
913.772	10957
913.886	10717
914	10778
914.113	10930
914.226	10873
914.34	10866
914.453	10679
914.566	10801
914.68	10755
914.793	10698
914.906	10611
915.019	10459
915.132	10466
915.245	10447
915.358	10500
915.47	10516
915.583	10577
915.696	10569
915.809	10641
915.921	10634
916.034	10500
916.146	10470
916.259	10371
916.371	10577
916.483	10596
916.595	10474
916.708	10497
916.82	10421
916.932	10459
917.044	10474
917.156	10432
917.268	10314
917.38	10337
917.491	10379
917.603	10322
917.715	10405
917.826	10493
917.938	10337
918.049	10223
918.161	10398
918.272	10500
918.384	10481
918.495	10432
918.606	10268
918.717	10154
918.828	10284
918.939	10306
919.05	10181
919.161	10272
919.272	10010
919.383	10071
919.494	10291
919.604	10421
919.715	10284
919.826	10128
919.936	10181
920.047	10303
920.157	10276
920.267	10421
920.378	10280
920.488	10200
920.598	10459
920.708	10474
920.818	10497
920.928	10386
921.038	10584
921.148	10538
921.258	10329
921.368	10234
921.477	10105
921.587	10078
921.697	9918
921.806	10162
921.916	10071
922.025	9781
922.134	9903
922.244	9740
922.353	9823
922.462	9701
922.571	9682
922.68	9485
922.789	9443
922.898	9542
923.007	9405
923.116	9523
923.224	9511
923.333	9496
923.442	9382
923.55	9340
923.659	9321
923.767	9443
923.876	9359
923.984	9416
924.092	9325
924.201	9386
924.309	9332
924.417	9359
924.525	9275
924.633	9287
924.741	10310
924.849	9100
924.956	9294
925.064	9097
925.172	9062
925.279	9161
925.387	9146
925.494	9135
925.602	9253
925.709	9195
925.816	9104
925.924	9169
926.031	9165
926.138	9184
926.245	9207
926.352	9032
926.459	9256
926.566	9264
926.673	9081
926.779	8998
926.886	8986
926.993	8895
927.099	8883
927.206	8834
927.312	8823
927.419	8872
927.525	8849
927.631	8823
927.737	8785
927.843	8720
927.95	8636
928.056	8769
928.162	8701
928.267	8849
928.373	9443
928.479	8853
928.585	8590
928.69	8720
928.796	8823
928.901	8678
929.007	8537
929.112	8667
929.218	8678
929.323	8602
929.428	8549
929.533	8716
929.638	8511
929.743	8533
929.848	8617
929.953	8522
930.058	8442
930.163	8343
930.267	8279
930.372	8465
930.477	8351
930.581	8537
930.685	8438
930.79	8240
930.894	8339
930.998	8240
931.103	8431
931.207	8081
931.311	8088
931.415	7959
931.519	7769
931.623	7731
