Data from test_V78500241_620.txt Node
Date: Fri Mar 25 14:38:02 CST 2022
User: usil
Spectrometer: V785-0024
Trigger mode: 0
Integration Time (sec): 4.000000E-1
Scans to average: 1
Nonlinearity correction enabled: false
Boxcar width: 0
Storing dark spectrum: false
XAxis mode: Wavelengths
Number of Pixels in Spectrum: 1024
>>>>>Begin Spectral Data<<<<<
801.071	27968
801.214	27808
801.356	27705
801.499	27545
801.641	27367
801.783	27329
801.926	27283
802.068	27325
802.211	27093
802.353	27032
802.496	26819
802.638	26625
802.78	26880
802.923	26754
803.065	26689
803.208	26800
803.35	26883
803.492	26944
803.635	26895
803.777	26902
803.919	26979
804.061	27336
804.204	26994
804.346	26967
804.488	26937
804.63	27066
804.773	26883
804.915	27142
805.057	27279
805.199	27348
805.341	27386
805.483	27386
805.626	27504
805.768	27530
805.91	27629
806.052	27599
806.194	27583
806.336	27941
806.478	27949
806.62	28017
806.762	28371
806.904	28698
807.046	29132
807.188	29273
807.33	29615
807.472	30136
807.614	30479
807.756	31346
807.898	32035
808.04	32963
808.182	34683
808.324	36597
808.465	38769
808.607	41254
808.749	43312
808.891	44617
809.033	44895
809.174	43518
809.316	41208
809.458	38724
809.6	36308
809.741	34421
809.883	32765
810.025	31780
810.166	30981
810.308	30277
810.45	29809
810.591	29421
810.733	29041
810.875	28637
811.016	28322
811.158	28284
811.299	28238
811.441	28154
811.582	28017
811.724	27846
811.865	27747
812.007	27648
812.148	27770
812.29	27713
812.431	27557
812.573	27804
812.714	27713
812.855	27960
812.997	27968
813.138	28067
813.279	27926
813.421	27732
813.562	27701
813.703	27500
813.845	27454
813.986	27005
814.127	26758
814.268	26754
814.41	26754
814.551	26659
814.692	26602
814.833	26396
814.974	26503
815.115	26549
815.256	26442
815.397	26381
815.539	26313
815.68	26256
815.821	26218
815.962	26271
816.103	26168
816.244	25997
816.385	25917
816.526	25814
816.666	25822
816.807	25632
816.948	25723
817.089	25506
817.23	25666
817.371	25476
817.512	25620
817.653	25422
817.793	25533
817.934	25453
818.075	25479
818.216	25499
818.356	25407
818.497	25270
818.638	25129
818.778	25152
818.919	25274
819.06	25244
819.2	25369
819.341	25354
819.481	25274
819.622	25441
819.762	25674
819.903	25571
820.043	25468
820.184	25460
820.324	25388
820.465	25411
820.605	25266
820.746	25327
820.886	25187
821.026	25289
821.167	25354
821.307	25381
821.447	25148
821.588	25053
821.728	24947
821.868	24848
822.008	24601
822.149	24540
822.289	24509
822.429	24300
822.569	24216
822.709	24254
822.849	24072
822.99	24079
823.13	24022
823.27	23870
823.41	23718
823.55	23760
823.69	23980
823.83	23824
823.97	23714
824.11	23592
824.25	23619
824.389	23581
824.529	23752
824.669	23642
824.809	23707
824.949	23535
825.089	23653
825.228	23581
825.368	23387
825.508	23406
825.648	23463
825.787	23341
825.927	23501
826.067	23353
826.206	23372
826.346	23349
826.485	23455
826.625	23379
826.765	23417
826.904	23288
827.044	23162
827.183	23136
827.323	23006
827.462	23136
827.601	23041
827.741	23071
827.88	23128
828.02	22755
828.159	22965
828.298	23010
828.437	23102
828.577	22949
828.716	23056
828.855	22877
828.994	22793
829.134	22763
829.273	22820
829.412	22641
829.551	22637
829.69	22672
829.829	22580
829.968	22812
830.107	22809
830.246	22565
830.385	22504
830.524	22527
830.663	22603
830.802	22386
830.941	22272
831.08	22276
831.219	22451
831.357	22280
831.496	22481
831.635	22234
831.774	22306
831.913	22226
832.051	22067
832.19	21987
832.329	22158
832.467	22078
832.606	22021
832.744	21979
832.883	22029
833.022	22204
833.16	22147
833.299	22276
833.437	22341
833.576	22580
833.714	22508
833.852	22767
833.991	22896
834.129	22938
834.267	22900
834.406	22911
834.544	22934
834.682	22634
834.821	22557
834.959	22774
835.097	22348
835.235	22367
835.373	22261
835.511	22177
835.65	22093
835.788	21884
835.926	21907
836.064	21622
836.202	21762
836.34	21785
836.478	21899
836.615	21667
836.753	21857
836.891	21869
837.029	21766
837.167	21724
837.305	21591
837.443	21720
837.58	21591
837.718	21648
837.856	21603
837.993	21694
838.131	21568
838.269	21485
838.406	21435
838.544	21420
838.681	21154
838.819	21241
838.956	20986
839.094	21047
839.231	21226
839.369	21146
839.506	21382
839.643	21241
839.781	21028
839.918	20872
840.055	21032
840.193	20880
840.33	20826
840.467	20902
840.604	20883
840.742	21214
840.879	20811
841.016	20861
841.153	20918
841.29	21165
841.427	21024
841.564	21005
841.701	20929
841.838	20941
841.975	20849
842.112	20933
842.249	20792
842.385	20648
842.522	20864
842.659	20849
842.796	20609
842.933	20746
843.069	20674
843.206	20800
843.343	20891
843.479	20769
843.616	20842
843.752	20678
843.889	20682
844.025	20921
844.162	20724
844.298	20853
844.435	20921
844.571	21245
844.708	21370
844.844	21660
844.98	22158
845.117	22424
845.253	23105
845.389	24448
845.525	26963
845.661	31122
845.798	36224
845.934	40318
846.07	41779
846.206	40698
846.342	37628
846.478	32324
846.614	27800
846.75	24916
846.886	23181
847.022	22230
847.158	21568
847.294	21142
847.429	20876
847.565	20571
847.701	20644
847.837	20145
847.972	19993
848.108	20157
848.244	19932
848.379	19879
848.515	19715
848.65	19681
848.786	19658
848.921	19765
849.057	19791
849.192	19746
849.328	19712
849.463	19674
849.598	19571
849.734	19578
849.869	19388
850.004	19312
850.14	19384
850.275	19308
850.41	19198
850.545	19358
850.68	19255
850.815	19327
850.95	19213
851.085	19495
851.22	19373
851.355	19285
851.49	19327
851.625	19270
851.76	19282
851.895	19282
852.03	19304
852.165	19198
852.299	19350
852.434	19339
852.569	19373
852.703	19396
852.838	19407
852.973	19533
853.107	19525
853.242	19304
853.376	19209
853.511	19255
853.645	19343
853.78	19468
853.914	19358
854.048	19369
854.183	19464
854.317	19384
854.451	19613
854.585	19358
854.72	19384
854.854	19358
854.988	19327
855.122	19297
855.256	19145
855.39	19289
855.524	19301
855.658	19179
855.792	19206
855.926	19232
856.06	19133
856.194	19206
856.327	19141
856.461	19065
856.595	19107
856.729	19031
856.862	19282
856.996	19164
857.13	19152
857.263	19251
857.397	19266
857.53	19110
857.664	19137
857.797	19042
857.931	19145
858.064	18985
858.197	19103
858.331	19069
858.464	18916
858.597	18947
858.731	19000
858.864	18875
858.997	18802
859.13	19012
859.263	19065
859.396	19057
859.529	18993
859.662	18977
859.795	18962
859.928	18943
860.061	19137
860.194	19072
860.327	19019
860.46	18939
860.592	19084
860.725	19141
860.858	18954
860.99	18928
861.123	18905
861.256	19042
861.388	18920
861.521	19552
861.653	18909
861.786	18825
861.918	18833
862.05	18871
862.183	18924
862.315	19042
862.447	19012
862.58	18848
862.712	18730
862.844	18639
862.976	18814
863.108	18677
863.24	19069
863.372	18673
863.504	18738
863.636	18566
863.768	18707
863.9	18677
864.032	18528
864.164	18642
864.296	18544
864.428	18715
864.559	18791
864.691	18665
864.823	18658
864.954	18665
865.086	18612
865.217	18506
865.349	18475
865.48	18601
865.612	18654
865.743	18734
865.875	18585
866.006	18483
866.137	18479
866.269	18429
866.4	18566
866.531	18532
866.662	18391
866.793	18452
866.924	18521
867.055	18452
867.186	18448
867.317	18448
867.448	18490
867.579	18486
867.71	18506
867.841	18372
867.972	18551
868.103	18555
868.233	18585
868.364	18391
868.495	18574
868.625	18707
868.756	18848
868.886	18760
869.017	18779
869.147	18833
869.278	18871
869.408	18802
869.539	18696
869.669	18760
869.799	18852
869.929	18947
870.06	18954
870.19	19164
870.32	18897
870.45	19065
870.58	19141
870.71	19263
870.84	19354
870.97	19179
871.1	19293
871.23	19449
871.36	19396
871.489	19236
871.619	19403
871.749	19438
871.879	19400
872.008	19582
872.138	19480
872.267	19468
872.397	19407
872.526	19365
872.656	19285
872.785	19419
872.915	19495
873.044	19559
873.173	19620
873.303	19677
873.432	19651
873.561	19746
873.69	19632
873.819	19700
873.948	19750
874.077	19662
874.206	19723
874.335	19715
874.464	19868
874.593	20088
874.722	20024
874.851	20103
874.979	20142
875.108	20282
875.237	20100
875.365	20073
875.494	20069
875.623	20309
875.751	20218
875.88	20358
876.008	20446
876.136	20480
876.265	20720
876.393	21036
876.521	20891
876.65	21127
876.778	20986
876.906	20910
877.034	20963
877.162	21024
877.29	21100
877.418	21184
877.546	21188
877.674	21348
877.802	21401
877.93	21557
878.058	21545
878.185	21671
878.313	22032
878.441	22207
878.568	22394
878.696	22873
878.824	23543
878.951	24308
879.079	25499
879.206	27081
879.333	28660
879.461	29950
879.588	30901
879.715	30658
879.842	30224
879.97	28706
880.097	27066
880.224	25780
880.351	24814
880.478	24365
880.605	23775
880.732	23646
880.859	23684
880.986	23292
881.112	23159
881.239	23098
881.366	22820
881.493	22778
881.619	22710
881.746	22771
881.872	22843
881.999	22740
882.125	22752
882.252	22900
882.378	22839
882.505	23003
882.631	22889
882.757	22713
882.883	22706
883.01	22778
883.136	22664
883.262	22569
883.388	22481
883.514	22782
883.64	22721
883.766	22538
883.892	22451
884.018	22481
884.143	22687
884.269	22729
884.395	22295
884.52	22265
884.646	22337
884.772	22173
884.897	22158
885.023	22363
885.148	22371
885.274	22508
885.399	22333
885.524	22097
885.65	22086
885.775	22093
885.9	21869
886.025	21899
886.15	21663
886.275	21564
886.4	21443
886.525	21329
886.65	21146
886.775	21138
886.9	21161
887.025	21325
887.149	20925
887.274	20754
887.399	20473
887.523	20621
887.648	20511
887.773	20317
887.897	20415
888.021	20412
888.146	20233
888.27	20351
888.395	20355
888.519	20225
888.643	20233
888.767	20240
888.891	20054
889.015	19879
889.139	19928
889.263	19788
889.387	19883
889.511	19940
889.635	19944
889.759	19670
889.883	19662
890.006	19677
890.13	19677
890.254	19506
890.377	19521
890.501	19426
890.624	19320
890.748	19327
890.871	19324
890.995	18981
891.118	19012
891.241	19145
891.364	19046
891.488	19061
891.611	19053
891.734	18954
891.857	19103
891.98	19042
892.103	18973
892.226	18863
892.349	18802
892.471	18700
892.594	18760
892.717	18909
892.839	18715
892.962	18821
893.085	18802
893.207	18738
893.33	18582
893.452	18665
893.575	18703
893.697	18536
893.819	18821
893.941	18764
894.064	18677
894.186	18566
894.308	18429
894.43	18669
894.552	18620
894.674	18578
894.796	18426
894.918	18445
895.04	18388
895.161	18555
895.283	18506
895.405	18372
895.526	18350
895.648	18407
895.769	18391
895.891	18551
896.012	18509
896.134	18369
896.255	18407
896.376	18338
896.498	18323
896.619	18445
896.74	18410
896.861	18353
896.982	18722
897.103	18837
897.224	18566
897.345	18612
897.466	18528
897.587	18604
897.708	18787
897.828	18646
897.949	18521
898.07	18388
898.19	18448
898.311	18604
898.431	18525
898.552	18547
898.672	18494
898.792	18620
898.913	18486
899.033	18475
899.153	18399
899.273	18330
899.393	18376
899.513	18323
899.633	18247
899.753	18235
899.873	18296
899.993	18346
900.113	18342
900.232	18346
900.352	18224
900.472	18243
900.591	18049
900.711	18121
900.83	18022
900.95	18247
901.069	18133
901.189	17984
901.308	17779
901.427	17737
901.546	17684
901.665	17802
901.784	17634
901.904	17642
902.023	17524
902.141	17288
902.26	17189
902.379	17284
902.498	17094
902.617	17041
902.735	17098
902.854	17102
902.973	17105
903.091	16790
903.21	16831
903.328	16858
903.446	16721
903.565	16691
903.683	16645
903.801	16558
903.919	16599
904.038	16447
904.156	16382
904.274	16459
904.392	16257
904.51	16280
904.627	16310
904.745	16230
904.863	16409
904.981	16078
905.098	16040
905.216	16002
905.334	16040
905.451	16097
905.569	16078
905.686	15972
905.803	15895
905.921	15793
906.038	15895
906.155	15800
906.272	15652
906.389	15736
906.506	15523
906.623	15542
906.74	15435
906.857	15416
906.974	15481
907.091	15610
907.208	15568
907.324	15534
907.441	15443
907.557	15237
907.674	15211
907.79	15157
907.907	15157
908.023	15241
908.139	15188
908.256	15211
908.372	15066
908.488	15062
908.604	14933
908.72	14906
908.836	14948
908.952	14876
909.068	14876
909.184	15001
909.3	14910
909.415	14948
909.531	14868
909.647	14625
909.762	14621
909.878	14648
909.993	14632
910.108	14598
910.224	14606
910.339	14568
910.454	14488
910.57	14461
910.685	14336
910.8	14594
910.915	14621
911.03	14545
911.145	14317
911.259	14233
911.374	14294
911.489	14130
911.604	14176
911.718	13951
911.833	14065
911.947	13887
912.062	13837
912.176	14043
912.291	13974
912.405	13890
912.519	14180
912.633	14176
912.748	14054
912.862	13993
912.976	13841
913.09	13742
913.204	13780
913.318	13879
913.431	13940
913.545	13780
913.659	13936
913.772	13830
913.886	13750
914	13715
914.113	13753
914.226	13799
914.34	13784
914.453	13540
914.566	13765
914.68	13643
914.793	13533
914.906	13422
915.019	13343
915.132	13388
915.245	13339
915.358	13483
915.47	13453
915.583	13384
915.696	13445
915.809	13510
915.921	13476
916.034	13304
916.146	13354
916.259	13263
916.371	13483
916.483	13354
916.595	13362
916.708	13282
916.82	13320
916.932	13236
917.044	13278
917.156	13285
917.268	13099
917.38	13145
917.491	13114
917.603	13133
917.715	13209
917.826	13228
917.938	13065
918.049	12909
918.161	13023
918.272	13263
918.384	13194
918.495	13031
918.606	12848
918.717	12776
918.828	12951
918.939	12905
919.05	12852
919.161	12859
919.272	12662
919.383	12753
919.494	12844
919.604	13053
919.715	12837
919.826	12662
919.936	12795
920.047	12928
920.157	12882
920.267	13053
920.378	12859
920.488	12795
920.598	13008
920.708	13088
920.818	13038
920.928	12981
921.038	13118
921.148	13095
921.258	12829
921.368	12707
921.477	12570
921.587	12494
921.697	12483
921.806	12692
921.916	12498
922.025	12220
922.134	12266
922.244	12114
922.353	12262
922.462	12148
922.571	12091
922.68	11969
922.789	11866
922.898	11935
923.007	11870
923.116	11931
923.224	11889
923.333	11836
923.442	11688
923.55	11680
923.659	11840
923.767	11779
923.876	11745
923.984	11802
924.092	11577
924.201	11718
924.309	11688
924.417	11608
924.525	11630
924.633	11623
924.741	12270
924.849	11383
924.956	11566
925.064	11372
925.172	11353
925.279	11318
925.387	11486
925.494	11429
925.602	11551
925.709	11505
925.816	11356
925.924	11417
926.031	11482
926.138	11284
926.245	11341
926.352	11292
926.459	11433
926.566	11448
926.673	11353
926.779	11178
926.886	11223
926.993	11003
927.099	11033
927.206	11060
927.312	11075
927.419	11079
927.525	11048
927.631	11010
927.737	10900
927.843	10869
927.95	10706
928.056	10763
928.162	10828
928.267	10908
928.373	11467
928.479	10900
928.585	10733
928.69	10885
928.796	10854
928.901	10755
929.007	10611
929.112	10698
929.218	10706
929.323	10645
929.428	10679
929.533	10759
929.638	10599
929.743	10634
929.848	10599
929.953	10573
930.058	10565
930.163	10371
930.267	10413
930.372	10462
930.477	10295
930.581	10558
930.685	10451
930.79	10246
930.894	10280
930.998	10135
931.103	10341
931.207	10067
931.311	9945
931.415	9876
931.519	9671
931.623	9720
