Data from test_V78500241_2657.txt Node
Date: Fri Mar 25 14:52:12 CST 2022
User: usil
Spectrometer: V785-0024
Trigger mode: 0
Integration Time (sec): 4.000000E-1
Scans to average: 1
Nonlinearity correction enabled: false
Boxcar width: 0
Storing dark spectrum: false
XAxis mode: Wavelengths
Number of Pixels in Spectrum: 1024
>>>>>Begin Spectral Data<<<<<
801.071	22086
801.214	21895
801.356	21709
801.499	21523
801.641	21412
801.783	21348
801.926	21389
802.068	21340
802.211	21256
802.353	21211
802.496	21001
802.638	20899
802.78	20899
802.923	20746
803.065	20735
803.208	20716
803.35	20758
803.492	20762
803.635	20735
803.777	20609
803.919	20800
804.061	21001
804.204	20731
804.346	20693
804.488	20556
804.63	20674
804.773	20587
804.915	20545
805.057	20746
805.199	20579
805.341	20644
805.483	20739
805.626	20720
805.768	20632
805.91	20682
806.052	20727
806.194	20526
806.336	20735
806.478	20594
806.62	20503
806.762	20621
806.904	20788
807.046	21009
807.188	20853
807.33	20868
807.472	21039
807.614	20864
807.756	20868
807.898	20830
808.04	20663
808.182	20758
808.324	20697
808.465	20758
808.607	20788
808.749	21047
808.891	21047
809.033	21142
809.174	21058
809.316	21009
809.458	20952
809.6	20952
809.741	20952
809.883	21039
810.025	21055
810.166	21116
810.308	21195
810.45	21150
810.591	21036
810.733	20914
810.875	20743
811.016	20549
811.158	20667
811.299	20644
811.441	20849
811.582	20883
811.724	20697
811.865	20708
812.007	20629
812.148	20651
812.29	20792
812.431	20918
812.573	21096
812.714	21100
812.855	21245
812.997	21351
813.138	21473
813.279	21298
813.421	21199
813.562	21138
813.703	20990
813.845	20872
813.986	20617
814.127	20446
814.268	20343
814.41	20366
814.551	20225
814.692	20377
814.833	20278
814.974	20176
815.115	20267
815.256	20103
815.397	20157
815.539	20088
815.68	20073
815.821	19921
815.962	19978
816.103	20020
816.244	19925
816.385	19925
816.526	19807
816.666	19582
816.807	19495
816.948	19457
817.089	19586
817.23	19377
817.371	19472
817.512	19400
817.653	19400
817.793	19396
817.934	19354
818.075	19411
818.216	19506
818.356	19312
818.497	19270
818.638	19099
818.778	19038
818.919	19099
819.06	19168
819.2	19350
819.341	19266
819.481	19225
819.622	19388
819.762	19666
819.903	19502
820.043	19529
820.184	19457
820.324	19362
820.465	19491
820.605	19369
820.746	19403
820.886	19289
821.026	19209
821.167	19445
821.307	19411
821.447	19312
821.588	19285
821.728	19076
821.868	19042
822.008	18791
822.149	18795
822.289	18715
822.429	18582
822.569	18513
822.709	18441
822.849	18262
822.99	18350
823.13	18205
823.27	18243
823.41	18140
823.55	18034
823.69	18133
823.83	18163
823.97	18106
824.11	17874
824.25	17798
824.389	17897
824.529	17874
824.669	17889
824.809	17942
824.949	18015
825.089	18144
825.228	17821
825.368	17767
825.508	17680
825.648	17596
825.787	17726
825.927	17771
826.067	17707
826.206	17623
826.346	17638
826.485	17676
826.625	17699
826.765	17840
826.904	17714
827.044	17543
827.183	17455
827.323	17379
827.462	17512
827.601	17436
827.741	17368
827.88	17429
828.02	17311
828.159	17368
828.298	17318
828.437	17524
828.577	17341
828.716	17444
828.855	17334
828.994	17143
829.134	17147
829.273	17166
829.412	17151
829.551	17117
829.69	17128
829.829	17162
829.968	17368
830.107	17254
830.246	17185
830.385	17029
830.524	16999
830.663	17003
830.802	16889
830.941	16854
831.08	16797
831.219	16835
831.357	16748
831.496	16900
831.635	16778
831.774	16664
831.913	16626
832.051	16519
832.19	16531
832.329	16645
832.467	16493
832.606	16436
832.744	16569
832.883	16485
833.022	16451
833.16	16485
833.299	16569
833.437	16512
833.576	16561
833.714	16561
833.852	16550
833.991	16592
834.129	16611
834.267	16603
834.406	16493
834.544	16721
834.682	16409
834.821	16508
834.959	16816
835.097	16554
835.235	16599
835.373	16588
835.511	16611
835.65	16314
835.788	16478
835.926	16371
836.064	16272
836.202	16360
836.34	16592
836.478	16577
836.615	16485
836.753	16462
836.891	16531
837.029	16565
837.167	16329
837.305	16371
837.443	16318
837.58	16246
837.718	16394
837.856	16337
837.993	16242
838.131	16341
838.269	16204
838.406	16268
838.544	16185
838.681	16048
838.819	16006
838.956	15808
839.094	15907
839.231	15972
839.369	15991
839.506	16303
839.643	16185
839.781	15915
839.918	15816
840.055	15854
840.193	15861
840.33	15827
840.467	15888
840.604	15949
840.742	16082
840.879	15728
841.016	15694
841.153	15934
841.29	15968
841.427	15934
841.564	15892
841.701	15888
841.838	15854
841.975	15812
842.112	15918
842.249	15724
842.385	15587
842.522	15895
842.659	15698
842.796	15625
842.933	15701
843.069	15694
843.206	15606
843.343	15663
843.479	15694
843.616	15679
843.752	15435
843.889	15591
844.025	15644
844.162	15397
844.298	15587
844.435	15530
844.571	15386
844.708	15435
844.844	15587
844.98	15519
845.117	15637
845.253	15496
845.389	15359
845.525	15393
845.661	15370
845.798	15237
845.934	15256
846.07	15230
846.206	15344
846.342	15382
846.478	15195
846.614	15039
846.75	14929
846.886	15013
847.022	14986
847.158	15017
847.294	14952
847.429	15039
847.565	14994
847.701	15302
847.837	14754
847.972	14777
848.108	14944
848.244	14785
848.379	14712
848.515	14571
848.65	14670
848.786	14636
848.921	14636
849.057	14636
849.192	14670
849.328	14621
849.463	14579
849.598	14598
849.734	14556
849.869	14484
850.004	14385
850.14	14454
850.275	14374
850.41	14237
850.545	14404
850.68	14385
850.815	14480
850.95	14385
851.085	14579
851.22	14564
851.355	14374
851.49	14389
851.625	14320
851.76	14339
851.895	14404
852.03	14290
852.165	14370
852.299	14374
852.434	14370
852.569	14320
852.703	14408
852.838	14507
852.973	14613
853.107	14480
853.242	14317
853.376	14317
853.511	14149
853.645	14145
853.78	14366
853.914	14305
854.048	14286
854.183	14168
854.317	14259
854.451	14454
854.585	14221
854.72	14191
854.854	14442
854.988	14199
855.122	14206
855.256	14073
855.39	14267
855.524	14294
855.658	14313
855.792	14370
855.926	14336
856.06	14332
856.194	14320
856.327	14130
856.461	14161
856.595	14130
856.729	14210
856.862	14412
856.996	14320
857.13	14381
857.263	14305
857.397	14393
857.53	14248
857.664	14286
857.797	14313
857.931	14286
858.064	14351
858.197	14377
858.331	14362
858.464	14172
858.597	14153
858.731	14282
858.864	14252
858.997	14199
859.13	14248
859.263	14328
859.396	14339
859.529	14259
859.662	14233
859.795	14221
859.928	14191
860.061	14389
860.194	14533
860.327	14336
860.46	14240
860.592	14309
860.725	14408
860.858	14366
860.99	14218
861.123	14123
861.256	14164
861.388	14282
861.521	14941
861.653	14176
861.786	14058
861.918	14187
862.05	14138
862.183	14240
862.315	14206
862.447	14244
862.58	14252
862.712	13986
862.844	14008
862.976	14157
863.108	14069
863.24	14450
863.372	13940
863.504	13978
863.636	14012
863.768	14039
863.9	13982
864.032	14001
864.164	14058
864.296	14069
864.428	14256
864.559	14168
864.691	14153
864.823	14073
864.954	14050
865.086	14031
865.217	13974
865.349	13894
865.48	13955
865.612	14043
865.743	14153
865.875	13993
866.006	13970
866.137	13913
866.269	14027
866.4	13989
866.531	13928
866.662	13868
866.793	14012
866.924	13970
867.055	14024
867.186	13947
867.317	13906
867.448	13921
867.579	13925
867.71	13944
867.841	13902
867.972	14016
868.103	13947
868.233	13989
868.364	14050
868.495	14096
868.625	14282
868.756	14233
868.886	14157
869.017	14271
869.147	14374
869.278	14351
869.408	14324
869.539	14256
869.669	14370
869.799	14309
869.929	14347
870.06	14286
870.19	14651
870.32	14587
870.45	14594
870.58	14686
870.71	14705
870.84	14758
870.97	14686
871.1	14648
871.23	14864
871.36	14902
871.489	14796
871.619	14842
871.749	14800
871.879	14864
872.008	15005
872.138	14910
872.267	14819
872.397	14575
872.526	14735
872.656	14769
872.785	14682
872.915	14823
873.044	14914
873.173	14921
873.303	15043
873.432	15001
873.561	14956
873.69	14944
873.819	14899
873.948	14982
874.077	14891
874.206	14918
874.335	14937
874.464	15036
874.593	15154
874.722	15135
874.851	15176
874.979	15332
875.108	15329
875.237	15199
875.365	15119
875.494	15249
875.623	15340
875.751	15218
875.88	15157
876.008	15405
876.136	15526
876.265	15606
876.393	15808
876.521	15816
876.65	15827
876.778	15637
876.906	15599
877.034	15519
877.162	15637
877.29	15530
877.418	15568
877.546	15561
877.674	15614
877.802	15622
877.93	15739
878.058	15534
878.185	15622
878.313	15720
878.441	15641
878.568	15447
878.696	15572
878.824	15644
878.951	15705
879.079	15857
879.206	15941
879.333	15842
879.461	15709
879.588	15637
879.715	15854
879.842	15903
879.97	15694
880.097	15507
880.224	15466
880.351	15420
880.478	15553
880.605	15500
880.732	15473
880.859	15675
880.986	15458
881.112	15557
881.239	15458
881.366	15252
881.493	15135
881.619	15203
881.746	15142
881.872	15058
881.999	15081
882.125	15233
882.252	15283
882.378	15161
882.505	15317
882.631	15161
882.757	14952
882.883	15070
883.01	14994
883.136	14864
883.262	14838
883.388	14880
883.514	14982
883.64	14960
883.766	14918
883.892	14819
884.018	14861
884.143	14902
884.269	14986
884.395	14701
884.52	14621
884.646	14777
884.772	14632
884.897	14549
885.023	14640
885.148	14739
885.274	14956
885.399	14819
885.524	14731
885.65	14610
885.775	14777
885.9	14636
886.025	14811
886.15	14689
886.275	14697
886.4	14587
886.525	14655
886.65	14651
886.775	14655
886.9	14762
887.025	14823
887.149	14735
887.274	14537
887.399	14606
887.523	14503
887.648	14313
887.773	14492
887.897	14636
888.021	14568
888.146	14461
888.27	14651
888.395	14720
888.519	14537
888.643	14575
888.767	14583
888.891	14446
889.015	14290
889.139	14473
889.263	14415
889.387	14461
889.511	14526
889.635	14473
889.759	14400
889.883	14301
890.006	14454
890.13	14495
890.254	14408
890.377	14343
890.501	14153
890.624	14240
890.748	14221
890.871	14149
890.995	14115
891.118	13917
891.241	14046
891.364	14107
891.488	14225
891.611	14138
891.734	14119
891.857	14107
891.98	14172
892.103	14142
892.226	14130
892.349	14054
892.471	13955
892.594	13947
892.717	14092
892.839	14069
892.962	14077
893.085	14111
893.207	14069
893.33	13986
893.452	14031
893.575	14149
893.697	14046
893.819	14298
893.941	14218
894.064	14244
894.186	13974
894.308	13982
894.43	14199
894.552	14259
894.674	14214
894.796	14077
894.918	14084
895.04	14016
895.161	14290
895.283	14191
895.405	14084
895.526	14229
895.648	14145
895.769	14210
895.891	14275
896.012	14290
896.134	14214
896.255	14290
896.376	14145
896.498	14248
896.619	14286
896.74	14256
896.861	14298
896.982	14571
897.103	14705
897.224	14549
897.345	14518
897.466	14347
897.587	14568
897.708	14632
897.828	14522
897.949	14454
898.07	14404
898.19	14427
898.311	14537
898.431	14598
898.552	14598
898.672	14632
898.792	14613
898.913	14587
899.033	14484
899.153	14457
899.273	14351
899.393	14404
899.513	14450
899.633	14423
899.753	14511
899.873	14450
899.993	14396
900.113	14480
900.232	14419
900.352	14385
900.472	14324
900.591	14225
900.711	14286
900.83	14191
900.95	14461
901.069	14362
901.189	14218
901.308	14069
901.427	13951
901.546	14069
901.665	13959
901.784	13963
901.904	13852
902.023	13784
902.141	13552
902.26	13495
902.379	13575
902.498	13518
902.617	13582
902.735	13552
902.854	13537
902.973	13419
903.091	13289
903.21	13255
903.328	13308
903.446	13263
903.565	13183
903.683	13141
903.801	13061
903.919	13202
904.038	13129
904.156	12939
904.274	13065
904.392	12924
904.51	12894
904.627	12909
904.745	13061
904.863	12970
904.981	12760
905.098	12635
905.216	12604
905.334	12635
905.451	12642
905.569	12506
905.686	12631
905.803	12566
905.921	12460
906.038	12528
906.155	12365
906.272	12281
906.389	12391
906.506	12251
906.623	12205
906.74	12140
906.857	12102
906.974	12129
907.091	12330
907.208	12270
907.324	12270
907.441	12133
907.557	11969
907.674	11961
907.79	11870
907.907	11939
908.023	11920
908.139	11984
908.256	11836
908.372	12003
908.488	11923
908.604	11794
908.72	11710
908.836	11813
908.952	11638
909.068	11783
909.184	11748
909.3	11737
909.415	11821
909.531	11710
909.647	11554
909.762	11516
909.878	11535
909.993	11482
910.108	11524
910.224	11463
910.339	11474
910.454	11471
910.57	11364
910.685	11242
910.8	11608
910.915	11493
911.03	11376
911.145	11242
911.259	11170
911.374	11220
911.489	11098
911.604	11083
911.718	11045
911.833	11079
911.947	10908
912.062	10778
912.176	10892
912.291	11006
912.405	10919
912.519	11189
912.633	11121
912.748	11025
912.862	10995
912.976	10816
913.09	10744
913.204	10790
913.318	10854
913.431	10972
913.545	10923
913.659	11003
913.772	10816
913.886	10710
914	10744
914.113	10885
914.226	10767
914.34	10786
914.453	10672
914.566	10816
914.68	10645
914.793	10687
914.906	10451
915.019	10447
915.132	10322
915.245	10413
915.358	10455
915.47	10500
915.583	10535
915.696	10497
915.809	10580
915.921	10641
916.034	10485
916.146	10367
916.259	10405
916.371	10512
916.483	10455
916.595	10379
916.708	10360
916.82	10443
916.932	10371
917.044	10344
917.156	10459
917.268	10211
917.38	10306
917.491	10287
917.603	10303
917.715	10478
917.826	10398
917.938	10360
918.049	10211
918.161	10219
918.272	10432
918.384	10390
918.495	10318
918.606	10207
918.717	10128
918.828	10272
918.939	10147
919.05	10082
919.161	10051
919.272	9964
919.383	10067
919.494	10242
919.604	10367
919.715	10188
919.826	10048
919.936	10158
920.047	10200
920.157	10227
920.267	10348
920.378	10185
920.488	10219
920.598	10379
920.708	10622
920.818	10344
920.928	10379
921.038	10542
921.148	10474
921.258	10287
921.368	10097
921.477	10063
921.587	10029
921.697	10013
921.806	9979
921.916	9892
922.025	9781
922.134	9800
922.244	9656
922.353	9770
922.462	9759
922.571	9557
922.68	9435
922.789	9473
922.898	9466
923.007	9466
923.116	9523
923.224	9507
923.333	9454
923.442	9332
923.55	9348
923.659	9359
923.767	9321
923.876	9233
923.984	9355
924.092	9310
924.201	9264
924.309	9317
924.417	9321
924.525	9214
924.633	9245
924.741	10029
924.849	9028
924.956	9211
925.064	9036
925.172	9032
925.279	9005
925.387	9112
925.494	9165
925.602	9214
925.709	9188
925.816	9028
925.924	9138
926.031	9214
926.138	9100
926.245	9119
926.352	9058
926.459	9169
926.566	9237
926.673	9070
926.779	8975
926.886	8975
926.993	8880
927.099	8754
927.206	8777
927.312	8743
927.419	8811
927.525	8872
927.631	8842
927.737	8705
927.843	8712
927.95	8644
928.056	8743
928.162	8777
928.267	8792
928.373	9397
928.479	8830
928.585	8594
928.69	8693
928.796	8762
928.901	8613
929.007	8495
929.112	8636
929.218	8583
929.323	8541
929.428	8492
929.533	8625
929.638	8484
929.743	8484
929.848	8541
929.953	8511
930.058	8484
930.163	8210
930.267	8343
930.372	8415
930.477	8271
930.581	8560
930.685	8343
930.79	8248
930.894	8275
930.998	8225
931.103	8328
931.207	8054
931.311	7970
931.415	7925
931.519	7719
931.623	7772
