Data from test_V78500241_502.txt Node
Date: Fri Mar 25 14:37:12 CST 2022
User: usil
Spectrometer: V785-0024
Trigger mode: 0
Integration Time (sec): 4.000000E-1
Scans to average: 1
Nonlinearity correction enabled: false
Boxcar width: 0
Storing dark spectrum: false
XAxis mode: Wavelengths
Number of Pixels in Spectrum: 1024
>>>>>Begin Spectral Data<<<<<
801.071	26792
801.214	26804
801.356	26522
801.499	26415
801.641	26427
801.783	26328
801.926	26263
802.068	26221
802.211	26199
802.353	26069
802.496	25871
802.638	25719
802.78	25811
802.923	25712
803.065	25753
803.208	25746
803.35	25731
803.492	25784
803.635	25940
803.777	25799
803.919	25795
804.061	25997
804.204	25906
804.346	25655
804.488	25784
804.63	25571
804.773	25597
804.915	25666
805.057	25791
805.199	25662
805.341	25635
805.483	25715
805.626	25769
805.768	25662
805.91	25788
806.052	25674
806.194	25582
806.336	25814
806.478	25788
806.62	25734
806.762	25951
806.904	25986
807.046	26355
807.188	26210
807.33	26199
807.472	26294
807.614	26339
807.756	26374
807.898	26248
808.04	26434
808.182	26427
808.324	26511
808.465	26758
808.607	27173
808.749	27466
808.891	27682
809.033	27728
809.174	27511
809.316	27127
809.458	26929
809.6	26731
809.741	26838
809.883	26720
810.025	26682
810.166	26575
810.308	26625
810.45	26571
810.591	26457
810.733	26252
810.875	26214
811.016	26024
811.158	26012
811.299	26084
811.441	26210
811.582	26290
811.724	26088
811.865	26016
812.007	26027
812.148	26130
812.29	26134
812.431	26191
812.573	26275
812.714	26404
812.855	26549
812.997	26625
813.138	26815
813.279	26602
813.421	26629
813.562	26427
813.703	26263
813.845	26126
813.986	25898
814.127	25715
814.268	25563
814.41	25685
814.551	25613
814.692	25624
814.833	25411
814.974	25666
815.115	25506
815.256	25350
815.397	25259
815.539	25434
815.68	25282
815.821	25228
815.962	25293
816.103	25228
816.244	25175
816.385	25023
816.526	24924
816.666	24867
816.807	24707
816.948	24783
817.089	24646
817.23	24707
817.371	24631
817.512	24753
817.653	24578
817.793	24483
817.934	24578
818.075	24559
818.216	24696
818.356	24521
818.497	24429
818.638	24380
818.778	24350
818.919	24414
819.06	24391
819.2	24460
819.341	24505
819.481	24475
819.622	24620
819.762	24909
819.903	24833
820.043	24707
820.184	24608
820.324	24673
820.465	24612
820.605	24593
820.746	24669
820.886	24395
821.026	24547
821.167	24551
821.307	24722
821.447	24479
821.588	24327
821.728	24182
821.868	24152
822.008	23931
822.149	23996
822.289	23980
822.429	23608
822.569	23630
822.709	23551
822.849	23448
822.99	23482
823.13	23364
823.27	23417
823.41	23159
823.55	23147
823.69	23193
823.83	23277
823.97	23170
824.11	23014
824.25	22908
824.389	23010
824.529	22991
824.669	22927
824.809	23056
824.949	23094
825.089	23052
825.228	23033
825.368	22892
825.508	22713
825.648	22748
825.787	22858
825.927	22942
826.067	22816
826.206	22672
826.346	22816
826.485	22706
826.625	22782
826.765	22729
826.904	22793
827.044	22672
827.183	22493
827.323	22318
827.462	22470
827.601	22405
827.741	22402
827.88	22432
828.02	22135
828.159	22234
828.298	22417
828.437	22478
828.577	22341
828.716	22603
828.855	22234
828.994	22048
829.134	22154
829.273	22116
829.412	22128
829.551	21964
829.69	21998
829.829	22158
829.968	22234
830.107	22147
830.246	22192
830.385	21937
830.524	21949
830.663	21907
830.802	21831
830.941	21701
831.08	21648
831.219	21644
831.357	21618
831.496	21850
831.635	21583
831.774	21610
831.913	21580
832.051	21469
832.19	21393
832.329	21523
832.467	21363
832.606	21431
832.744	21230
832.883	21272
833.022	21283
833.16	21370
833.299	21359
833.437	21294
833.576	21393
833.714	21317
833.852	21355
833.991	21393
834.129	21526
834.267	21485
834.406	21374
834.544	21344
834.682	21401
834.821	21329
834.959	21458
835.097	21329
835.235	21389
835.373	21348
835.511	21252
835.65	21199
835.788	21150
835.926	21146
836.064	21001
836.202	21020
836.34	21142
836.478	21237
836.615	21131
836.753	21207
836.891	21336
837.029	21237
837.167	21077
837.305	21081
837.443	21116
837.58	21089
837.718	21123
837.856	21116
837.993	20929
838.131	21070
838.269	20887
838.406	20990
838.544	20849
838.681	20716
838.819	20727
838.956	20404
839.094	20454
839.231	20587
839.369	20602
839.506	20731
839.643	20629
839.781	20419
839.918	20362
840.055	20427
840.193	20499
840.33	20438
840.467	20415
840.604	20400
840.742	20720
840.879	20164
841.016	20275
841.153	20275
841.29	20419
841.427	20362
841.564	20431
841.701	20218
841.838	20240
841.975	20199
842.112	20313
842.249	20001
842.385	20069
842.522	20336
842.659	20134
842.796	20054
842.933	20145
843.069	19986
843.206	20069
843.343	20172
843.479	20100
843.616	20199
843.752	19803
843.889	19864
844.025	19955
844.162	19849
844.298	19932
844.435	19814
844.571	19837
844.708	19963
844.844	20134
844.98	20043
845.117	20122
845.253	19921
845.389	19951
845.525	20286
845.661	20587
845.798	20800
845.934	21157
846.07	21230
846.206	21252
846.342	21032
846.478	20636
846.614	20024
846.75	19681
846.886	19624
847.022	19590
847.158	19514
847.294	19403
847.429	19403
847.565	19403
847.701	19540
847.837	19061
847.972	18958
848.108	19148
848.244	18993
848.379	18989
848.515	18890
848.65	18924
848.786	18886
848.921	18920
849.057	19034
849.192	18943
849.328	18856
849.463	18913
849.598	18856
849.734	18684
849.869	18745
850.004	18719
850.14	18616
850.275	18574
850.41	18654
850.545	18521
850.68	18608
850.815	18684
850.95	18616
851.085	18692
851.22	18703
851.355	18654
851.49	18604
851.625	18551
851.76	18551
851.895	18418
852.03	18391
852.165	18467
852.299	18646
852.434	18604
852.569	18661
852.703	18692
852.838	18673
852.973	18722
853.107	18673
853.242	18555
853.376	18490
853.511	18353
853.645	18429
853.78	18578
853.914	18422
854.048	18422
854.183	18414
854.317	18429
854.451	18460
854.585	18483
854.72	18448
854.854	18517
854.988	18342
855.122	18418
855.256	18281
855.39	18414
855.524	18361
855.658	18456
855.792	18414
855.926	18414
856.06	18384
856.194	18460
856.327	18384
856.461	18357
856.595	18403
856.729	18311
856.862	18475
856.996	18479
857.13	18525
857.263	18540
857.397	18445
857.53	18403
857.664	18517
857.797	18433
857.931	18464
858.064	18418
858.197	18464
858.331	18490
858.464	18239
858.597	18254
858.731	18395
858.864	18247
858.997	18315
859.13	18369
859.263	18365
859.396	18464
859.529	18372
859.662	18190
859.795	18258
859.928	18277
860.061	18369
860.194	18551
860.327	18391
860.46	18384
860.592	18414
860.725	18437
860.858	18372
860.99	18243
861.123	18273
861.256	18300
861.388	18380
861.521	19122
861.653	18232
861.786	18296
861.918	18213
862.05	18308
862.183	18308
862.315	18426
862.447	18357
862.58	18441
862.712	18277
862.844	18076
862.976	18197
863.108	18068
863.24	18608
863.372	18007
863.504	18049
863.636	18163
863.768	18022
863.9	18171
864.032	18034
864.164	18019
864.296	17992
864.428	18182
864.559	18159
864.691	18159
864.823	18102
864.954	18079
865.086	18038
865.217	17977
865.349	17946
865.48	17931
865.612	17996
865.743	18194
865.875	18007
866.006	18045
866.137	17961
866.269	17999
866.4	17923
866.531	17904
866.662	17920
866.793	17920
866.924	17927
867.055	17973
867.186	17920
867.317	17969
867.448	17767
867.579	17931
867.71	17840
867.841	17805
867.972	18015
868.103	17969
868.233	17961
868.364	17969
868.495	17977
868.625	18155
868.756	18155
868.886	18201
869.017	18136
869.147	18315
869.278	18376
869.408	18121
869.539	18140
869.669	18251
869.799	18194
869.929	18338
870.06	18133
870.19	18399
870.32	18467
870.45	18479
870.58	18525
870.71	18692
870.84	18612
870.97	18631
871.1	18441
871.23	18692
871.36	18760
871.489	18585
871.619	18772
871.749	18817
871.879	18875
872.008	18837
872.138	18791
872.267	18867
872.397	18650
872.526	18635
872.656	18696
872.785	18692
872.915	18745
873.044	18817
873.173	18852
873.303	18882
873.432	18806
873.561	18844
873.69	18814
873.819	18768
873.948	18962
874.077	18837
874.206	18734
874.335	18871
874.464	19004
874.593	19099
874.722	19080
874.851	19274
874.979	19156
875.108	19228
875.237	18989
875.365	18928
875.494	19213
875.623	19213
875.751	19141
875.88	19148
876.008	19354
876.136	19308
876.265	19502
876.393	19620
876.521	19655
876.65	19567
876.778	19647
876.906	19567
877.034	19601
877.162	19491
877.29	19559
877.418	19582
877.546	19548
877.674	19521
877.802	19506
877.93	19559
878.058	19518
878.185	19518
878.313	19571
878.441	19651
878.568	19525
878.696	19529
878.824	19723
878.951	19883
879.079	20008
879.206	20161
879.333	20336
879.461	20362
879.588	20393
879.715	20514
879.842	20503
879.97	20168
880.097	19944
880.224	19818
880.351	19578
880.478	19685
880.605	19464
880.732	19578
880.859	19822
880.986	19533
881.112	19540
881.239	19529
881.366	19327
881.493	19266
881.619	19282
881.746	19209
881.872	19118
881.999	19160
882.125	19069
882.252	19069
882.378	19194
882.505	19259
882.631	19164
882.757	18973
882.883	19053
883.01	19012
883.136	18814
883.262	18863
883.388	18745
883.514	19038
883.64	19053
883.766	18897
883.892	18817
884.018	18715
884.143	18852
884.269	18996
884.395	18791
884.52	18627
884.646	18703
884.772	18536
884.897	18452
885.023	18688
885.148	18715
885.274	18658
885.399	18654
885.524	18582
885.65	18593
885.775	18635
885.9	18612
886.025	18719
886.15	18574
886.275	18391
886.4	18372
886.525	18460
886.65	18407
886.775	18380
886.9	18502
887.025	18681
887.149	18490
887.274	18289
887.399	18220
887.523	18270
887.648	18182
887.773	18220
887.897	18441
888.021	18380
888.146	18292
888.27	18258
888.395	18323
888.519	18243
888.643	18251
888.767	18296
888.891	18106
889.015	17992
889.139	18163
889.263	17920
889.387	18159
889.511	18140
889.635	18155
889.759	18038
889.883	18011
890.006	17984
890.13	18091
890.254	17893
890.377	17946
890.501	17832
890.624	17680
890.748	17923
890.871	17665
890.995	17722
891.118	17490
891.241	17627
891.364	17623
891.488	17661
891.611	17611
891.734	17642
891.857	17589
891.98	17592
892.103	17710
892.226	17707
892.349	17703
892.471	17452
892.594	17539
892.717	17467
892.839	17501
892.962	17482
893.085	17657
893.207	17604
893.33	17459
893.452	17577
893.575	17630
893.697	17493
893.819	17596
893.941	17760
894.064	17657
894.186	17467
894.308	17459
894.43	17608
894.552	17733
894.674	17585
894.796	17391
894.918	17528
895.04	17512
895.161	17619
895.283	17657
895.405	17551
895.526	17642
895.648	17532
895.769	17589
895.891	17558
896.012	17661
896.134	17600
896.255	17733
896.376	17634
896.498	17627
896.619	17665
896.74	17691
896.861	17627
896.982	18053
897.103	18007
897.224	17980
897.345	17874
897.466	17756
897.587	17908
897.708	17889
897.828	17904
897.949	17897
898.07	17687
898.19	17783
898.311	17973
898.431	17863
898.552	17885
898.672	17992
898.792	17920
898.913	17878
899.033	17745
899.153	17790
899.273	17649
899.393	17562
899.513	17634
899.633	17699
899.753	17764
899.873	17649
899.993	17676
900.113	17600
900.232	17562
900.352	17554
900.472	17551
900.591	17334
900.711	17459
900.83	17501
900.95	17600
901.069	17573
901.189	17337
901.308	17143
901.427	17147
901.546	17174
901.665	17075
901.784	17071
901.904	16942
902.023	16927
902.141	16744
902.26	16763
902.379	16816
902.498	16729
902.617	16607
902.735	16835
902.854	16611
902.973	16603
903.091	16325
903.21	16276
903.328	16257
903.446	16112
903.565	16105
903.683	16177
903.801	16097
903.919	16120
904.038	16044
904.156	15918
904.274	15991
904.392	15895
904.51	15926
904.627	15831
904.745	16025
904.863	15956
904.981	15663
905.098	15538
905.216	15625
905.334	15656
905.451	15553
905.569	15519
905.686	15538
905.803	15511
905.921	15348
906.038	15401
906.155	15386
906.272	15344
906.389	15245
906.506	15123
906.623	15154
906.74	15127
906.857	14998
906.974	14986
907.091	15154
907.208	15222
907.324	15135
907.441	15001
907.557	14891
907.674	14868
907.79	14648
907.907	14815
908.023	14811
908.139	14823
908.256	14636
908.372	14629
908.488	14663
908.604	14617
908.72	14537
908.836	14480
908.952	14511
909.068	14469
909.184	14602
909.3	14469
909.415	14484
909.531	14423
909.647	14214
909.762	14168
909.878	14240
909.993	14263
910.108	14168
910.224	14130
910.339	14153
910.454	14168
910.57	14008
910.685	13868
910.8	14358
910.915	14229
911.03	14035
911.145	13906
911.259	13925
911.374	13814
911.489	13723
911.604	13795
911.718	13670
911.833	13670
911.947	13445
912.062	13510
912.176	13556
912.291	13609
912.405	13445
912.519	13765
912.633	13791
912.748	13609
912.862	13582
912.976	13483
913.09	13285
913.204	13373
913.318	13434
913.431	13544
913.545	13502
913.659	13525
913.772	13419
913.886	13274
914	13266
914.113	13331
914.226	13403
914.34	13369
914.453	13206
914.566	13282
914.68	13209
914.793	13175
914.906	13015
915.019	12867
915.132	12928
915.245	12962
915.358	12966
915.47	12932
915.583	12943
915.696	12973
915.809	13107
915.921	13057
916.034	12928
916.146	12833
916.259	12837
916.371	12916
916.483	12935
916.595	12848
916.708	12935
916.82	12882
916.932	12749
917.044	12688
917.156	12749
917.268	12665
917.38	12783
917.491	12684
917.603	12696
917.715	12745
917.826	12734
917.938	12669
918.049	12544
918.161	12711
918.272	12650
918.384	12829
918.495	12662
918.606	12490
918.717	12426
918.828	12623
918.939	12502
919.05	12410
919.161	12422
919.272	12209
919.383	12254
919.494	12528
919.604	12627
919.715	12448
919.826	12407
919.936	12452
920.047	12448
920.157	12483
920.267	12612
920.378	12490
920.488	12536
920.598	12665
920.708	12700
920.818	12528
920.928	12604
921.038	12700
921.148	12745
921.258	12464
921.368	12315
921.477	12258
921.587	12190
921.697	12057
921.806	12167
921.916	12110
922.025	11927
922.134	12015
922.244	11897
922.353	12007
922.462	11729
922.571	11638
922.68	11615
922.789	11524
922.898	11600
923.007	11463
923.116	11592
923.224	11528
923.333	11554
923.442	11414
923.55	11356
923.659	11455
923.767	11444
923.876	11356
923.984	11337
924.092	11227
924.201	11360
924.309	11364
924.417	11341
924.525	11231
924.633	11231
924.741	12201
924.849	11113
924.956	11246
925.064	11079
925.172	11041
925.279	11014
925.387	11098
925.494	11090
925.602	11258
925.709	11121
925.816	10934
925.924	11086
926.031	11197
926.138	11010
926.245	11083
926.352	10953
926.459	11102
926.566	11052
926.673	11064
926.779	10938
926.886	10862
926.993	10717
927.099	10748
927.206	10603
927.312	10573
927.419	10736
927.525	10717
927.631	10725
927.737	10527
927.843	10550
927.95	10516
928.056	10577
928.162	10687
928.267	10637
928.373	11216
928.479	10626
928.585	10504
928.69	10527
928.796	10599
928.901	10512
929.007	10306
929.112	10470
929.218	10424
929.323	10356
929.428	10337
929.533	10478
929.638	10211
929.743	10310
929.848	10348
929.953	10253
930.058	10204
930.163	10078
930.267	10074
930.372	10169
930.477	10051
930.581	10337
930.685	10097
930.79	9983
930.894	9960
930.998	9915
931.103	10124
931.207	9736
931.311	9682
931.415	9564
931.519	9447
931.623	9408
