Data from test_V78500241_2460.txt Node
Date: Fri Mar 25 14:50:50 CST 2022
User: usil
Spectrometer: V785-0024
Trigger mode: 0
Integration Time (sec): 4.000000E-1
Scans to average: 1
Nonlinearity correction enabled: false
Boxcar width: 0
Storing dark spectrum: false
XAxis mode: Wavelengths
Number of Pixels in Spectrum: 1024
>>>>>Begin Spectral Data<<<<<
801.071	22181
801.214	22090
801.356	21854
801.499	21713
801.641	21591
801.783	21462
801.926	21370
802.068	21435
802.211	21249
802.353	21332
802.496	21176
802.638	21077
802.78	20933
802.923	20868
803.065	20823
803.208	20708
803.35	20998
803.492	20971
803.635	20883
803.777	20781
803.919	20819
804.061	21142
804.204	20887
804.346	20838
804.488	20659
804.63	20788
804.773	20617
804.915	20849
805.057	20819
805.199	20686
805.341	20868
805.483	20815
805.626	20785
805.768	20716
805.91	20834
806.052	20746
806.194	20686
806.336	20872
806.478	20705
806.62	20720
806.762	20811
806.904	20948
807.046	21142
807.188	21020
807.33	21085
807.472	20971
807.614	20941
807.756	20998
807.898	20895
808.04	20781
808.182	20716
808.324	20785
808.465	20937
808.607	21020
808.749	21275
808.891	21264
809.033	21169
809.174	21207
809.316	21096
809.458	21150
809.6	21123
809.741	21211
809.883	21169
810.025	21302
810.166	21199
810.308	21203
810.45	21230
810.591	21203
810.733	21043
810.875	20899
811.016	20902
811.158	20853
811.299	21028
811.441	21100
811.582	20910
811.724	20868
811.865	20899
812.007	20834
812.148	20895
812.29	20956
812.431	21089
812.573	21199
812.714	21332
812.855	21344
812.997	21496
813.138	21618
813.279	21561
813.421	21435
813.562	21279
813.703	20986
813.845	21009
813.986	20644
814.127	20579
814.268	20526
814.41	20381
814.551	20434
814.692	20533
814.833	20347
814.974	20518
815.115	20351
815.256	20271
815.397	20218
815.539	20256
815.68	20134
815.821	20039
815.962	20130
816.103	20218
816.244	19936
816.385	19913
816.526	19807
816.666	19594
816.807	19590
816.948	19651
817.089	19708
817.23	19651
817.371	19510
817.512	19533
817.653	19518
817.793	19419
817.934	19495
818.075	19571
818.216	19559
818.356	19335
818.497	19392
818.638	19137
818.778	19171
818.919	19259
819.06	19263
819.2	19358
819.341	19362
819.481	19460
819.622	19476
819.762	19784
819.903	19689
820.043	19639
820.184	19613
820.324	19537
820.465	19499
820.605	19696
820.746	19468
820.886	19350
821.026	19582
821.167	19556
821.307	19521
821.447	19472
821.588	19354
821.728	19171
821.868	19095
822.008	18920
822.149	18962
822.289	18875
822.429	18688
822.569	18627
822.709	18673
822.849	18479
822.99	18399
823.13	18407
823.27	18342
823.41	18262
823.55	18201
823.69	18201
823.83	18194
823.97	18186
824.11	18057
824.25	17961
824.389	18064
824.529	18095
824.669	18019
824.809	18125
824.949	18026
825.089	18049
825.228	18072
825.368	17912
825.508	17847
825.648	17786
825.787	17783
825.927	17817
826.067	17767
826.206	17764
826.346	17866
826.485	17771
826.625	17714
826.765	17840
826.904	17809
827.044	17638
827.183	17539
827.323	17520
827.462	17509
827.601	17604
827.741	17402
827.88	17425
828.02	17406
828.159	17353
828.298	17543
828.437	17520
828.577	17436
828.716	17516
828.855	17337
828.994	17147
829.134	17200
829.273	17143
829.412	17223
829.551	17193
829.69	17189
829.829	17254
829.968	17368
830.107	17174
830.246	17174
830.385	17170
830.524	17079
830.663	17181
830.802	16896
830.941	16790
831.08	16862
831.219	16904
831.357	16843
831.496	16991
831.635	16828
831.774	16778
831.913	16698
832.051	16702
832.19	16603
832.329	16611
832.467	16630
832.606	16519
832.744	16466
832.883	16527
833.022	16459
833.16	16607
833.299	16504
833.437	16645
833.576	16565
833.714	16603
833.852	16580
833.991	16641
834.129	16809
834.267	16656
834.406	16588
834.544	16672
834.682	16500
834.821	16573
834.959	16740
835.097	16481
835.235	16664
835.373	16504
835.511	16588
835.65	16481
835.788	16497
835.926	16344
836.064	16276
836.202	16360
836.34	16516
836.478	16466
836.615	16493
836.753	16561
836.891	16462
837.029	16546
837.167	16466
837.305	16390
837.443	16386
837.58	16310
837.718	16455
837.856	16333
837.993	16310
838.131	16322
838.269	16249
838.406	16363
838.544	16230
838.681	16074
838.819	15972
838.956	15892
839.094	15800
839.231	15941
839.369	16074
839.506	16356
839.643	16177
839.781	15979
839.918	15892
840.055	15884
840.193	15846
840.33	15831
840.467	15941
840.604	15953
840.742	16204
840.879	15751
841.016	15842
841.153	15751
841.29	16025
841.427	15850
841.564	15911
841.701	15987
841.838	15911
841.975	15854
842.112	15816
842.249	15705
842.385	15599
842.522	15903
842.659	15644
842.796	15698
842.933	15690
843.069	15709
843.206	15603
843.343	15641
843.479	15682
843.616	15663
843.752	15279
843.889	15458
844.025	15564
844.162	15485
844.298	15507
844.435	15439
844.571	15386
844.708	15473
844.844	15542
844.98	15595
845.117	15534
845.253	15401
845.389	15252
845.525	15435
845.661	15370
845.798	15245
845.934	15279
846.07	15203
846.206	15340
846.342	15344
846.478	15176
846.614	15085
846.75	15032
846.886	14975
847.022	15135
847.158	14948
847.294	15043
847.429	15017
847.565	14910
847.701	15218
847.837	14781
847.972	14682
848.108	14800
848.244	14830
848.379	14739
848.515	14613
848.65	14670
848.786	14689
848.921	14590
849.057	14682
849.192	14644
849.328	14621
849.463	14594
849.598	14499
849.734	14503
849.869	14503
850.004	14377
850.14	14530
850.275	14473
850.41	14370
850.545	14294
850.68	14377
850.815	14415
850.95	14419
851.085	14579
851.22	14507
851.355	14419
851.49	14446
851.625	14400
851.76	14347
851.895	14221
852.03	14252
852.165	14282
852.299	14484
852.434	14522
852.569	14381
852.703	14400
852.838	14469
852.973	14522
853.107	14560
853.242	14362
853.376	14298
853.511	14195
853.645	14229
853.78	14457
853.914	14214
854.048	14309
854.183	14237
854.317	14347
854.451	14518
854.585	14244
854.72	14362
854.854	14313
854.988	14218
855.122	14309
855.256	14134
855.39	14218
855.524	14404
855.658	14244
855.792	14332
855.926	14305
856.06	14396
856.194	14450
856.327	14259
856.461	14214
856.595	14328
856.729	14199
856.862	14469
856.996	14290
857.13	14446
857.263	14438
857.397	14454
857.53	14355
857.664	14377
857.797	14427
857.931	14438
858.064	14396
858.197	14518
858.331	14313
858.464	14320
858.597	14161
858.731	14278
858.864	14267
858.997	14237
859.13	14298
859.263	14225
859.396	14415
859.529	14298
859.662	14172
859.795	14324
859.928	14320
860.061	14492
860.194	14476
860.327	14343
860.46	14347
860.592	14446
860.725	14442
860.858	14446
860.99	14267
861.123	14202
861.256	14278
861.388	14282
861.521	14887
861.653	14149
861.786	14073
861.918	14180
862.05	14214
862.183	14168
862.315	14286
862.447	14389
862.58	14259
862.712	14103
862.844	14043
862.976	14157
863.108	14115
863.24	14423
863.372	14020
863.504	14092
863.636	14111
863.768	14100
863.9	13993
864.032	13963
864.164	14027
864.296	14172
864.428	14191
864.559	14199
864.691	14183
864.823	14145
864.954	14161
865.086	14096
865.217	14027
865.349	14027
865.48	14043
865.612	14119
865.743	14225
865.875	14058
866.006	14069
866.137	13993
866.269	13997
866.4	14073
866.531	13982
866.662	13978
866.793	14024
866.924	14073
867.055	14088
867.186	13955
867.317	13974
867.448	13940
867.579	13913
867.71	13883
867.841	13967
867.972	14054
868.103	14005
868.233	14058
868.364	14088
868.495	14164
868.625	14282
868.756	14362
868.886	14237
869.017	14412
869.147	14446
869.278	14469
869.408	14431
869.539	14267
869.669	14298
869.799	14343
869.929	14377
870.06	14488
870.19	14678
870.32	14632
870.45	14701
870.58	14716
870.71	14716
870.84	14769
870.97	14697
871.1	14697
871.23	14960
871.36	14929
871.489	14792
871.619	14963
871.749	14880
871.879	14937
872.008	15066
872.138	14902
872.267	14868
872.397	14823
872.526	14762
872.656	14720
872.785	14792
872.915	14944
873.044	14952
873.173	14845
873.303	14986
873.432	15062
873.561	14998
873.69	15005
873.819	14883
873.948	15055
874.077	14921
874.206	14887
874.335	14952
874.464	15074
874.593	15180
874.722	15203
874.851	15287
874.979	15321
875.108	15344
875.237	15226
875.365	15226
875.494	15211
875.623	15264
875.751	15310
875.88	15233
876.008	15469
876.136	15545
876.265	15732
876.393	15835
876.521	15724
876.65	15895
876.778	15789
876.906	15644
877.034	15637
877.162	15682
877.29	15606
877.418	15705
877.546	15705
877.674	15656
877.802	15774
877.93	15743
878.058	15644
878.185	15618
878.313	15675
878.441	15694
878.568	15466
878.696	15663
878.824	15701
878.951	15755
879.079	15854
879.206	15960
879.333	15827
879.461	15717
879.588	15762
879.715	16036
879.842	16051
879.97	15709
880.097	15553
880.224	15458
880.351	15519
880.478	15637
880.605	15507
880.732	15515
880.859	15701
880.986	15454
881.112	15606
881.239	15382
881.366	15302
881.493	15226
881.619	15180
881.746	15222
881.872	15233
881.999	15226
882.125	15192
882.252	15199
882.378	15230
882.505	15332
882.631	15165
882.757	14952
882.883	14986
883.01	15028
883.136	14921
883.262	14861
883.388	14849
883.514	15093
883.64	15119
883.766	14971
883.892	14785
884.018	14830
884.143	15032
884.269	15017
884.395	14735
884.52	14678
884.646	14720
884.772	14636
884.897	14629
885.023	14640
885.148	14804
885.274	14880
885.399	14811
885.524	14788
885.65	14731
885.775	14727
885.9	14682
886.025	14891
886.15	14853
886.275	14518
886.4	14632
886.525	14697
886.65	14594
886.775	14621
886.9	14834
887.025	14921
887.149	14670
887.274	14583
887.399	14579
887.523	14613
887.648	14461
887.773	14438
887.897	14667
888.021	14613
888.146	14511
888.27	14651
888.395	14648
888.519	14613
888.643	14556
888.767	14644
888.891	14503
889.015	14427
889.139	14442
889.263	14339
889.387	14678
889.511	14613
889.635	14526
889.759	14408
889.883	14393
890.006	14362
890.13	14514
890.254	14248
890.377	14305
890.501	14225
890.624	14229
890.748	14214
890.871	14180
890.995	14073
891.118	13974
891.241	13989
891.364	14145
891.488	14233
891.611	14096
891.734	14069
891.857	14130
891.98	14100
892.103	14180
892.226	14130
892.349	14081
892.471	13978
892.594	14138
892.717	14149
892.839	14081
892.962	14062
893.085	14062
893.207	14138
893.33	14046
893.452	14073
893.575	14126
893.697	14149
893.819	14336
893.941	14301
894.064	14256
894.186	14046
894.308	14092
894.43	14210
894.552	14381
894.674	14206
894.796	14043
894.918	14142
895.04	14103
895.161	14317
895.283	14145
895.405	14164
895.526	14180
895.648	14256
895.769	14343
895.891	14199
896.012	14358
896.134	14301
896.255	14404
896.376	14214
896.498	14271
896.619	14339
896.74	14374
896.861	14351
896.982	14571
897.103	14807
897.224	14602
897.345	14457
897.466	14556
897.587	14583
897.708	14583
897.828	14640
897.949	14499
898.07	14355
898.19	14438
898.311	14587
898.431	14610
898.552	14621
898.672	14720
898.792	14727
898.913	14663
899.033	14533
899.153	14385
899.273	14290
899.393	14393
899.513	14438
899.633	14571
899.753	14507
899.873	14461
899.993	14465
900.113	14438
900.232	14434
900.352	14503
900.472	14381
900.591	14362
900.711	14275
900.83	14267
900.95	14434
901.069	14377
901.189	14233
901.308	14107
901.427	13978
901.546	13932
901.665	14039
901.784	14073
901.904	13795
902.023	13807
902.141	13689
902.26	13639
902.379	13658
902.498	13521
902.617	13578
902.735	13601
902.854	13548
902.973	13578
903.091	13362
903.21	13312
903.328	13270
903.446	13168
903.565	13168
903.683	13221
903.801	13019
903.919	13175
904.038	13095
904.156	12989
904.274	13042
904.392	12939
904.51	12905
904.627	12901
904.745	13015
904.863	12981
904.981	12692
905.098	12608
905.216	12620
905.334	12608
905.451	12608
905.569	12555
905.686	12627
905.803	12703
905.921	12441
906.038	12540
906.155	12574
906.272	12414
906.389	12391
906.506	12319
906.623	12258
906.74	12232
906.857	12140
906.974	12186
907.091	12289
907.208	12308
907.324	12239
907.441	12175
907.557	12045
907.674	11999
907.79	11882
907.907	11950
908.023	11999
908.139	11954
908.256	11908
908.372	11882
908.488	11855
908.604	11813
908.72	11726
908.836	11794
908.952	11676
909.068	11745
909.184	11847
909.3	11764
909.415	11855
909.531	11798
909.647	11566
909.762	11528
909.878	11543
909.993	11482
910.108	11501
910.224	11509
910.339	11585
910.454	11387
910.57	11436
910.685	11288
910.8	11592
910.915	11566
911.03	11330
911.145	11322
911.259	11223
911.374	11265
911.489	11121
911.604	11052
911.718	10999
911.833	11060
911.947	10877
912.062	10824
912.176	10957
912.291	11025
912.405	10957
912.519	11242
912.633	11231
912.748	11056
912.862	10942
912.976	10873
913.09	10816
913.204	10869
913.318	10892
913.431	10915
913.545	10991
913.659	10892
913.772	10828
913.886	10763
914	10748
914.113	10873
914.226	10885
914.34	10812
914.453	10683
914.566	10801
914.68	10717
914.793	10641
914.906	10455
915.019	10500
915.132	10390
915.245	10531
915.358	10455
915.47	10561
915.583	10500
915.696	10512
915.809	10717
915.921	10618
916.034	10436
916.146	10436
916.259	10440
916.371	10519
916.483	10451
916.595	10443
916.708	10474
916.82	10413
916.932	10421
917.044	10394
917.156	10341
917.268	10352
917.38	10287
917.491	10314
917.603	10284
917.715	10394
917.826	10341
917.938	10303
918.049	10166
918.161	10314
918.272	10440
918.384	10402
918.495	10344
918.606	10166
918.717	10109
918.828	10181
918.939	10173
919.05	10147
919.161	10101
919.272	9945
919.383	10078
919.494	10204
919.604	10344
919.715	10166
919.826	10135
919.936	10234
920.047	10306
920.157	10272
920.267	10405
920.378	10284
920.488	10219
920.598	10409
920.708	10512
920.818	10447
920.928	10333
921.038	10596
921.148	10542
921.258	10242
921.368	10158
921.477	10112
921.587	10036
921.697	10013
921.806	10063
921.916	9945
922.025	9873
922.134	9804
922.244	9732
922.353	9819
922.462	9690
922.571	9591
922.68	9481
922.789	9424
922.898	9481
923.007	9447
923.116	9538
923.224	9443
923.333	9466
923.442	9351
923.55	9348
923.659	9359
923.767	9412
923.876	9329
923.984	9412
924.092	9283
924.201	9317
924.309	9298
924.417	9431
924.525	9275
924.633	9332
924.741	10074
924.849	9081
924.956	9245
925.064	9135
925.172	9005
925.279	9100
925.387	9180
925.494	9116
925.602	9230
925.709	9157
925.816	9032
925.924	9097
926.031	9131
926.138	9116
926.245	9116
926.352	8998
926.459	9138
926.566	9241
926.673	9039
926.779	9024
926.886	9017
926.993	8842
927.099	8815
927.206	8800
927.312	8777
927.419	8853
927.525	8819
927.631	8857
927.737	8746
927.843	8705
927.95	8617
928.056	8750
928.162	8697
928.267	8758
928.373	9401
928.479	8834
928.585	8670
928.69	8773
928.796	8750
928.901	8651
929.007	8545
929.112	8598
929.218	8610
929.323	8575
929.428	8579
929.533	8697
929.638	8511
929.743	8507
929.848	8625
929.953	8583
930.058	8438
930.163	8336
930.267	8355
930.372	8480
930.477	8279
930.581	8556
930.685	8309
930.79	8271
930.894	8271
930.998	8267
931.103	8389
931.207	8077
931.311	7989
931.415	7928
931.519	7814
931.623	7712
