Data from test_V78500241_2365.txt Node
Date: Fri Mar 25 14:50:10 CST 2022
User: usil
Spectrometer: V785-0024
Trigger mode: 0
Integration Time (sec): 4.000000E-1
Scans to average: 1
Nonlinearity correction enabled: false
Boxcar width: 0
Storing dark spectrum: false
XAxis mode: Wavelengths
Number of Pixels in Spectrum: 1024
>>>>>Begin Spectral Data<<<<<
801.071	22128
801.214	22013
801.356	21724
801.499	21717
801.641	21580
801.783	21469
801.926	21515
802.068	21428
802.211	21374
802.353	21302
802.496	21173
802.638	21009
802.78	20944
802.923	20941
803.065	20743
803.208	20708
803.35	20785
803.492	20937
803.635	20921
803.777	20811
803.919	20952
804.061	21336
804.204	20853
804.346	20785
804.488	20796
804.63	20887
804.773	20617
804.915	20777
805.057	20933
805.199	20739
805.341	20823
805.483	20899
805.626	20765
805.768	20834
805.91	20663
806.052	20750
806.194	20667
806.336	20842
806.478	20693
806.62	20640
806.762	20785
806.904	20990
807.046	21203
807.188	21119
807.33	21047
807.472	21268
807.614	20906
807.756	21009
807.898	20853
808.04	20781
808.182	20804
808.324	20861
808.465	20895
808.607	20963
808.749	21081
808.891	21176
809.033	21435
809.174	21199
809.316	21138
809.458	21131
809.6	21096
809.741	21192
809.883	21241
810.025	21279
810.166	21340
810.308	21378
810.45	21348
810.591	21214
810.733	20975
810.875	20990
811.016	20743
811.158	20769
811.299	21100
811.441	21005
811.582	21032
811.724	20864
811.865	20929
812.007	20975
812.148	20857
812.29	20937
812.431	21150
812.573	21188
812.714	21222
812.855	21370
812.997	21504
813.138	21625
813.279	21447
813.421	21382
813.562	21382
813.703	21119
813.845	21043
813.986	20804
814.127	20655
814.268	20484
814.41	20393
814.551	20537
814.692	20560
814.833	20427
814.974	20385
815.115	20362
815.256	20282
815.397	20259
815.539	20313
815.68	20168
815.821	20176
815.962	20164
816.103	20214
816.244	20065
816.385	19921
816.526	19890
816.666	19746
816.807	19567
816.948	19734
817.089	19757
817.23	19674
817.371	19499
817.512	19643
817.653	19590
817.793	19502
817.934	19594
818.075	19563
818.216	19655
818.356	19483
818.497	19430
818.638	19263
818.778	19213
818.919	19335
819.06	19244
819.2	19411
819.341	19339
819.481	19491
819.622	19647
819.762	19731
819.903	19704
820.043	19647
820.184	19514
820.324	19567
820.465	19685
820.605	19525
820.746	19556
820.886	19377
821.026	19472
821.167	19510
821.307	19476
821.447	19514
821.588	19403
821.728	19247
821.868	19118
822.008	18939
822.149	18962
822.289	18848
822.429	18776
822.569	18688
822.709	18658
822.849	18486
822.99	18616
823.13	18399
823.27	18441
823.41	18270
823.55	18201
823.69	18296
823.83	18254
823.97	18152
824.11	18121
824.25	18095
824.389	18019
824.529	18091
824.669	18015
824.809	18148
824.949	18125
825.089	18091
825.228	18110
825.368	17786
825.508	17798
825.648	17866
825.787	17863
825.927	17832
826.067	17802
826.206	17828
826.346	17973
826.485	17847
826.625	17832
826.765	17882
826.904	17832
827.044	17585
827.183	17615
827.323	17512
827.462	17562
827.601	17478
827.741	17585
827.88	17532
828.02	17410
828.159	17391
828.298	17452
828.437	17474
828.577	17543
828.716	17634
828.855	17493
828.994	17197
829.134	17178
829.273	17280
829.412	17235
829.551	17193
829.69	17292
829.829	17185
829.968	17269
830.107	17235
830.246	17155
830.385	17239
830.524	17098
830.663	17090
830.802	16980
830.941	16805
831.08	16892
831.219	16873
831.357	16987
831.496	17075
831.635	16889
831.774	16755
831.913	16748
832.051	16683
832.19	16653
832.329	16641
832.467	16573
832.606	16554
832.744	16504
832.883	16512
833.022	16493
833.16	16577
833.299	16565
833.437	16538
833.576	16573
833.714	16577
833.852	16561
833.991	16706
834.129	16569
834.267	16679
834.406	16599
834.544	16611
834.682	16675
834.821	16550
834.959	16774
835.097	16672
835.235	16656
835.373	16577
835.511	16546
835.65	16634
835.788	16577
835.926	16234
836.064	16333
836.202	16363
836.34	16455
836.478	16538
836.615	16398
836.753	16573
836.891	16531
837.029	16558
837.167	16481
837.305	16375
837.443	16493
837.58	16287
837.718	16405
837.856	16409
837.993	16272
838.131	16363
838.269	16352
838.406	16253
838.544	16150
838.681	16143
838.819	15994
838.956	15968
839.094	15793
839.231	15880
839.369	15972
839.506	16371
839.643	16211
839.781	15960
839.918	15915
840.055	15899
840.193	15857
840.33	15835
840.467	15884
840.604	15922
840.742	16143
840.879	15892
841.016	15747
841.153	15778
841.29	15960
841.427	15941
841.564	15892
841.701	15819
841.838	15759
841.975	15907
842.112	15831
842.249	15679
842.385	15561
842.522	15888
842.659	15595
842.796	15667
842.933	15686
843.069	15663
843.206	15698
843.343	15679
843.479	15648
843.616	15648
843.752	15439
843.889	15450
844.025	15557
844.162	15401
844.298	15561
844.435	15473
844.571	15374
844.708	15561
844.844	15644
844.98	15564
845.117	15542
845.253	15416
845.389	15336
845.525	15466
845.661	15382
845.798	15211
845.934	15332
846.07	15211
846.206	15298
846.342	15298
846.478	15268
846.614	15112
846.75	14963
846.886	15032
847.022	15138
847.158	15066
847.294	15017
847.429	15047
847.565	15020
847.701	15329
847.837	14781
847.972	14788
848.108	14754
848.244	14990
848.379	14587
848.515	14705
848.65	14587
848.786	14708
848.921	14693
849.057	14743
849.192	14746
849.328	14727
849.463	14610
849.598	14629
849.734	14511
849.869	14568
850.004	14476
850.14	14442
850.275	14389
850.41	14298
850.545	14351
850.68	14301
850.815	14427
850.95	14358
851.085	14473
851.22	14461
851.355	14374
851.49	14313
851.625	14396
851.76	14389
851.895	14221
852.03	14313
852.165	14473
852.299	14442
852.434	14503
852.569	14469
852.703	14381
852.838	14518
852.973	14488
853.107	14613
853.242	14408
853.376	14320
853.511	14134
853.645	14294
853.78	14389
853.914	14362
854.048	14221
854.183	14256
854.317	14256
854.451	14393
854.585	14305
854.72	14282
854.854	14336
854.988	14256
855.122	14210
855.256	14096
855.39	14191
855.524	14396
855.658	14263
855.792	14298
855.926	14313
856.06	14366
856.194	14328
856.327	14336
856.461	14142
856.595	14278
856.729	14298
856.862	14324
856.996	14324
857.13	14377
857.263	14324
857.397	14461
857.53	14294
857.664	14294
857.797	14347
857.931	14377
858.064	14275
858.197	14317
858.331	14370
858.464	14176
858.597	14161
858.731	14183
858.864	14256
858.997	14214
859.13	14332
859.263	14347
859.396	14389
859.529	14301
859.662	14176
859.795	14229
859.928	14309
860.061	14374
860.194	14507
860.327	14305
860.46	14145
860.592	14423
860.725	14355
860.858	14339
860.99	14157
861.123	14248
861.256	14305
861.388	14343
861.521	14899
861.653	14142
861.786	14149
861.918	14210
862.05	14180
862.183	14153
862.315	14317
862.447	14320
862.58	14229
862.712	14031
862.844	13944
862.976	14130
863.108	14005
863.24	14473
863.372	13890
863.504	14024
863.636	14012
863.768	14096
863.9	14103
864.032	13921
864.164	13982
864.296	14069
864.428	14176
864.559	14138
864.691	14084
864.823	14153
864.954	14111
865.086	14119
865.217	14005
865.349	13932
865.48	13986
865.612	14008
865.743	14210
865.875	13986
866.006	13982
866.137	14027
866.269	13997
866.4	13989
866.531	14031
866.662	13852
866.793	14058
866.924	13993
867.055	14050
867.186	13982
867.317	14016
867.448	13947
867.579	13883
867.71	14008
867.841	13974
867.972	14073
868.103	14020
868.233	14035
868.364	14039
868.495	14039
868.625	14271
868.756	14389
868.886	14218
869.017	14237
869.147	14301
869.278	14374
869.408	14191
869.539	14332
869.669	14339
869.799	14347
869.929	14336
870.06	14343
870.19	14511
870.32	14530
870.45	14587
870.58	14651
870.71	14845
870.84	14785
870.97	14693
871.1	14617
871.23	14826
871.36	14872
871.489	14746
871.619	14864
871.749	14842
871.879	14872
872.008	15017
872.138	14971
872.267	14948
872.397	14830
872.526	14689
872.656	14651
872.785	14674
872.915	14906
873.044	14990
873.173	14895
873.303	14998
873.432	14971
873.561	14876
873.69	14910
873.819	14944
873.948	14990
874.077	14963
874.206	14902
874.335	14864
874.464	15039
874.593	15127
874.722	15207
874.851	15245
874.979	15294
875.108	15287
875.237	15123
875.365	15203
875.494	15192
875.623	15272
875.751	15123
875.88	15272
876.008	15382
876.136	15496
876.265	15701
876.393	15751
876.521	15774
876.65	15751
876.778	15644
876.906	15633
877.034	15633
877.162	15606
877.29	15587
877.418	15576
877.546	15652
877.674	15610
877.802	15622
877.93	15671
878.058	15553
878.185	15599
878.313	15564
878.441	15724
878.568	15469
878.696	15572
878.824	15644
878.951	15793
879.079	15876
879.206	16013
879.333	15778
879.461	15682
879.588	15690
879.715	15739
879.842	16063
879.97	15770
880.097	15523
880.224	15500
880.351	15393
880.478	15523
880.605	15507
880.732	15500
880.859	15724
880.986	15561
881.112	15663
881.239	15367
881.366	15211
881.493	15195
881.619	15161
881.746	15264
881.872	15184
881.999	15169
882.125	15135
882.252	15203
882.378	15226
882.505	15298
882.631	15066
882.757	14986
882.883	14994
883.01	15043
883.136	14975
883.262	14834
883.388	14804
883.514	15051
883.64	15055
883.766	14960
883.892	14838
884.018	14773
884.143	15017
884.269	15077
884.395	14765
884.52	14655
884.646	14659
884.772	14621
884.897	14606
885.023	14674
885.148	14807
885.274	14815
885.399	14804
885.524	14727
885.65	14777
885.775	14746
885.9	14716
886.025	14773
886.15	14800
886.275	14674
886.4	14560
886.525	14708
886.65	14583
886.775	14617
886.9	14815
887.025	14811
887.149	14705
887.274	14495
887.399	14495
887.523	14537
887.648	14415
887.773	14374
887.897	14564
888.021	14552
888.146	14530
888.27	14610
888.395	14674
888.519	14629
888.643	14583
888.767	14579
888.891	14362
889.015	14370
889.139	14412
889.263	14290
889.387	14518
889.511	14583
889.635	14518
889.759	14343
889.883	14275
890.006	14434
890.13	14461
890.254	14305
890.377	14408
890.501	14161
890.624	14107
890.748	14252
890.871	14065
890.995	14035
891.118	14043
891.241	14031
891.364	14103
891.488	14210
891.611	14088
891.734	14069
891.857	14176
891.98	14088
892.103	14161
892.226	14134
892.349	14039
892.471	13959
892.594	14024
892.717	14134
892.839	14115
892.962	14077
893.085	14111
893.207	14088
893.33	13921
893.452	13955
893.575	14145
893.697	14039
893.819	14282
893.941	14210
894.064	14221
894.186	14115
894.308	14035
894.43	14221
894.552	14240
894.674	14282
894.796	14054
894.918	14153
895.04	14058
895.161	14218
895.283	14176
895.405	14088
895.526	14126
895.648	14187
895.769	14210
895.891	14298
896.012	14259
896.134	14286
896.255	14244
896.376	14168
896.498	14206
896.619	14408
896.74	14328
896.861	14320
896.982	14579
897.103	14800
897.224	14579
897.345	14537
897.466	14415
897.587	14503
897.708	14632
897.828	14568
897.949	14514
898.07	14355
898.19	14514
898.311	14678
898.431	14480
898.552	14640
898.672	14678
898.792	14667
898.913	14765
899.033	14438
899.153	14488
899.273	14358
899.393	14545
899.513	14476
899.633	14541
899.753	14396
899.873	14454
899.993	14621
900.113	14484
900.232	14526
900.352	14507
900.472	14446
900.591	14290
900.711	14393
900.83	14271
900.95	14370
901.069	14526
901.189	14244
901.308	13989
901.427	13940
901.546	14005
901.665	14031
901.784	14027
901.904	13898
902.023	13841
902.141	13636
902.26	13639
902.379	13677
902.498	13544
902.617	13529
902.735	13578
902.854	13590
902.973	13476
903.091	13335
903.21	13228
903.328	13278
903.446	13213
903.565	13141
903.683	13107
903.801	13099
903.919	13122
904.038	13099
904.156	12954
904.274	12981
904.392	12928
904.51	13050
904.627	12909
904.745	13046
904.863	12973
904.981	12829
905.098	12726
905.216	12692
905.334	12681
905.451	12639
905.569	12620
905.686	12616
905.803	12684
905.921	12528
906.038	12593
906.155	12456
906.272	12422
906.389	12395
906.506	12300
906.623	12285
906.74	12239
906.857	12079
906.974	12163
907.091	12315
907.208	12353
907.324	12361
907.441	12163
907.557	11939
907.674	11954
907.79	11973
907.907	11946
908.023	11980
908.139	11999
908.256	12003
908.372	11916
908.488	11973
908.604	11817
908.72	11752
908.836	11748
908.952	11828
909.068	11733
909.184	11920
909.3	11775
909.415	11874
909.531	11756
909.647	11478
909.762	11497
909.878	11429
909.993	11512
910.108	11459
910.224	11577
910.339	11543
910.454	11387
910.57	11334
910.685	11349
910.8	11589
910.915	11493
911.03	11368
911.145	11231
911.259	11223
911.374	11265
911.489	11189
911.604	11075
911.718	11003
911.833	10885
911.947	10805
912.062	10774
912.176	10991
912.291	10938
912.405	10892
912.519	11124
912.633	11166
912.748	10961
912.862	10953
912.976	10904
913.09	10763
913.204	10797
913.318	10847
913.431	10919
913.545	10949
913.659	10946
913.772	10839
913.886	10721
914	10759
914.113	10847
914.226	10858
914.34	10847
914.453	10778
914.566	10752
914.68	10748
914.793	10694
914.906	10489
915.019	10466
915.132	10371
915.245	10447
915.358	10405
915.47	10428
915.583	10470
915.696	10508
915.809	10634
915.921	10611
916.034	10500
916.146	10432
916.259	10417
916.371	10519
916.483	10519
916.595	10390
916.708	10409
916.82	10367
916.932	10443
917.044	10424
917.156	10375
917.268	10268
917.38	10386
917.491	10272
917.603	10234
917.715	10360
917.826	10428
917.938	10249
918.049	10185
918.161	10325
918.272	10459
918.384	10443
918.495	10367
918.606	10154
918.717	10143
918.828	10169
918.939	10242
919.05	10120
919.161	10147
919.272	9941
919.383	10063
919.494	10249
919.604	10371
919.715	10230
919.826	10090
919.936	10101
920.047	10230
920.157	10230
920.267	10443
920.378	10253
920.488	10185
920.598	10421
920.708	10577
920.818	10474
920.928	10447
921.038	10519
921.148	10497
921.258	10280
921.368	10090
921.477	10063
921.587	10055
921.697	9991
921.806	10093
921.916	9937
922.025	9819
922.134	9793
922.244	9740
922.353	9762
922.462	9637
922.571	9682
922.68	9481
922.789	9435
922.898	9488
923.007	9397
923.116	9412
923.224	9473
923.333	9428
923.442	9348
923.55	9302
923.659	9397
923.767	9458
923.876	9294
923.984	9386
924.092	9241
924.201	9317
924.309	9249
924.417	9283
924.525	9253
924.633	9359
924.741	10097
924.849	9100
924.956	9306
925.064	9039
925.172	8994
925.279	9100
925.387	9119
925.494	9119
925.602	9211
925.709	9150
925.816	9005
925.924	9146
926.031	9272
926.138	9127
926.245	9245
926.352	9047
926.459	9184
926.566	9157
926.673	9024
926.779	9070
926.886	8921
926.993	8883
927.099	8804
927.206	8800
927.312	8781
927.419	8868
927.525	8899
927.631	8838
927.737	8689
927.843	8754
927.95	8632
928.056	8697
928.162	8720
928.267	8826
928.373	9454
928.479	8800
928.585	8590
928.69	8735
928.796	8697
928.901	8697
929.007	8438
929.112	8674
929.218	8636
929.323	8575
929.428	8545
929.533	8708
929.638	8511
929.743	8461
929.848	8530
929.953	8530
930.058	8465
930.163	8301
930.267	8400
930.372	8438
930.477	8339
930.581	8560
930.685	8347
930.79	8252
930.894	8252
930.998	8199
931.103	8442
931.207	8096
931.311	7951
931.415	7947
931.519	7776
931.623	7715
