Data from test_V78500241_1252.txt Node
Date: Fri Mar 25 14:42:26 CST 2022
User: usil
Spectrometer: V785-0024
Trigger mode: 0
Integration Time (sec): 4.000000E-1
Scans to average: 1
Nonlinearity correction enabled: false
Boxcar width: 0
Storing dark spectrum: false
XAxis mode: Wavelengths
Number of Pixels in Spectrum: 1024
>>>>>Begin Spectral Data<<<<<
801.071	22413
801.214	22348
801.356	22048
801.499	21907
801.641	21842
801.783	21732
801.926	21857
802.068	21667
802.211	21648
802.353	21561
802.496	21355
802.638	21302
802.78	21199
802.923	21150
803.065	21051
803.208	21009
803.35	21123
803.492	21157
803.635	21287
803.777	21135
803.919	21226
804.061	21408
804.204	21104
804.346	21085
804.488	21009
804.63	21017
804.773	21005
804.915	20963
805.057	21093
805.199	20986
805.341	21009
805.483	21157
805.626	21051
805.768	20906
805.91	21043
806.052	20952
806.194	20853
806.336	21131
806.478	20941
806.62	20990
806.762	21058
806.904	21146
807.046	21492
807.188	21435
807.33	21397
807.472	21306
807.614	21230
807.756	21363
807.898	21150
808.04	21207
808.182	21157
808.324	21195
808.465	21249
808.607	21481
808.749	21561
808.891	21629
809.033	21583
809.174	21428
809.316	21450
809.458	21424
809.6	21389
809.741	21500
809.883	21511
810.025	21625
810.166	21519
810.308	21488
810.45	21526
810.591	21481
810.733	21233
810.875	21279
811.016	21089
811.158	21089
811.299	21192
811.441	21367
811.582	21389
811.724	21138
811.865	21093
812.007	21100
812.148	21218
812.29	21176
812.431	21321
812.573	21370
812.714	21587
812.855	21671
812.997	21800
813.138	21903
813.279	21850
813.421	21690
813.562	21580
813.703	21416
813.845	21363
813.986	21104
814.127	20948
814.268	20838
814.41	20788
814.551	20701
814.692	20887
814.833	20648
814.974	20678
815.115	20674
815.256	20602
815.397	20663
815.539	20644
815.68	20377
815.821	20415
815.962	20438
816.103	20461
816.244	20347
816.385	20256
816.526	20218
816.666	19963
816.807	19871
816.948	20024
817.089	20065
817.23	19947
817.371	19947
817.512	19879
817.653	19868
817.793	19913
817.934	19925
818.075	20043
818.216	19978
818.356	19837
818.497	19799
818.638	19571
818.778	19540
818.919	19647
819.06	19556
819.2	19731
819.341	19765
819.481	19685
819.622	19936
819.762	20115
819.903	19944
820.043	19909
820.184	19955
820.324	19955
820.465	19902
820.605	19841
820.746	19887
820.886	19689
821.026	19841
821.167	19856
821.307	19788
821.447	19883
821.588	19685
821.728	19491
821.868	19483
822.008	19251
822.149	19240
822.289	19217
822.429	18977
822.569	18962
822.709	18909
822.849	18753
822.99	18821
823.13	18776
823.27	18795
823.41	18604
823.55	18528
823.69	18513
823.83	18570
823.97	18498
824.11	18407
824.25	18323
824.389	18467
824.529	18410
824.669	18372
824.809	18547
824.949	18467
825.089	18403
825.228	18475
825.368	18205
825.508	18190
825.648	18190
825.787	18232
825.927	18350
826.067	18186
826.206	17935
826.346	18209
826.485	18136
826.625	18159
826.765	18266
826.904	18133
827.044	17950
827.183	17908
827.323	17954
827.462	18003
827.601	17908
827.741	17863
827.88	17931
828.02	17737
828.159	17786
828.298	17855
828.437	18022
828.577	17847
828.716	17946
828.855	17866
828.994	17600
829.134	17642
829.273	17642
829.412	17703
829.551	17596
829.69	17642
829.829	17680
829.968	17813
830.107	17646
830.246	17665
830.385	17501
830.524	17558
830.663	17512
830.802	17391
830.941	17258
831.08	17204
831.219	17349
831.357	17330
831.496	17440
831.635	17208
831.774	17212
831.913	17102
832.051	17014
832.19	17045
832.329	17052
832.467	17022
832.606	16854
832.744	16938
832.883	16889
833.022	17033
833.16	17075
833.299	17086
833.437	16961
833.576	17003
833.714	17048
833.852	17041
833.991	16991
834.129	17098
834.267	17045
834.406	17052
834.544	17094
834.682	16927
834.821	16957
834.959	17208
835.097	16991
835.235	17109
835.373	17029
835.511	17025
835.65	16965
835.788	16934
835.926	16771
836.064	16611
836.202	16687
836.34	16919
836.478	16953
836.615	16847
836.753	16961
836.891	17025
837.029	16984
837.167	16908
837.305	16854
837.443	16911
837.58	16755
837.718	16733
837.856	16858
837.993	16694
838.131	16748
838.269	16771
838.406	16683
838.544	16573
838.681	16432
838.819	16394
838.956	16284
839.094	16265
839.231	16382
839.369	16405
839.506	16668
839.643	16607
839.781	16363
839.918	16284
840.055	16390
840.193	16394
840.33	16413
840.467	16348
840.604	16379
840.742	16691
840.879	16276
841.016	16234
841.153	16166
841.29	16440
841.427	16379
841.564	16360
841.701	16428
841.838	16265
841.975	16310
842.112	16211
842.249	16090
842.385	16086
842.522	16234
842.659	16204
842.796	16055
842.933	16120
843.069	16158
843.206	16013
843.343	16207
843.479	16109
843.616	15972
843.752	15926
843.889	15899
844.025	16010
844.162	15903
844.298	16006
844.435	15880
844.571	15819
844.708	15953
844.844	16029
844.98	16131
845.117	15953
845.253	15800
845.389	15899
845.525	15926
845.661	15831
845.798	15838
845.934	15827
846.07	15770
846.206	15884
846.342	15918
846.478	15770
846.614	15523
846.75	15462
846.886	15405
847.022	15568
847.158	15435
847.294	15561
847.429	15580
847.565	15310
847.701	15720
847.837	15188
847.972	15131
848.108	15389
848.244	15222
848.379	15135
848.515	15123
848.65	14990
848.786	15032
848.921	15024
849.057	15104
849.192	15093
849.328	15116
849.463	15150
849.598	15089
849.734	14963
849.869	14876
850.004	14842
850.14	14849
850.275	14788
850.41	14758
850.545	14876
850.68	14785
850.815	14864
850.95	14773
851.085	14925
851.22	14948
851.355	14788
851.49	14823
851.625	14788
851.76	14800
851.895	14804
852.03	14746
852.165	14823
852.299	14819
852.434	14914
852.569	14910
852.703	14876
852.838	14994
852.973	14891
853.107	14929
853.242	14727
853.376	14777
853.511	14663
853.645	14590
853.78	14830
853.914	14648
854.048	14678
854.183	14773
854.317	14792
854.451	14883
854.585	14613
854.72	14735
854.854	14750
854.988	14598
855.122	14598
855.256	14655
855.39	14655
855.524	14883
855.658	14800
855.792	14648
855.926	14845
856.06	14735
856.194	14849
856.327	14739
856.461	14674
856.595	14602
856.729	14674
856.862	14777
856.996	14716
857.13	14807
857.263	14823
857.397	14720
857.53	14765
857.664	14777
857.797	14834
857.931	14830
858.064	14670
858.197	14872
858.331	14636
858.464	14663
858.597	14590
858.731	14659
858.864	14617
858.997	14648
859.13	14720
859.263	14621
859.396	14689
859.529	14701
859.662	14613
859.795	14636
859.928	14762
860.061	14758
860.194	14906
860.327	14765
860.46	14765
860.592	14746
860.725	14754
860.858	14735
860.99	14552
861.123	14594
861.256	14613
861.388	14720
861.521	15401
861.653	14621
861.786	14530
861.918	14484
862.05	14583
862.183	14613
862.315	14640
862.447	14716
862.58	14651
862.712	14495
862.844	14412
862.976	14533
863.108	14545
863.24	14906
863.372	14434
863.504	14355
863.636	14431
863.768	14511
863.9	14484
864.032	14408
864.164	14400
864.296	14511
864.428	14583
864.559	14564
864.691	14556
864.823	14629
864.954	14438
865.086	14575
865.217	14412
865.349	14415
865.48	14507
865.612	14434
865.743	14492
865.875	14419
866.006	14442
866.137	14492
866.269	14488
866.4	14434
866.531	14412
866.662	14393
866.793	14351
866.924	14400
867.055	14438
867.186	14480
867.317	14396
867.448	14313
867.579	14408
867.71	14370
867.841	14415
867.972	14393
868.103	14457
868.233	14442
868.364	14419
868.495	14602
868.625	14526
868.756	14659
868.886	14568
869.017	14541
869.147	14804
869.278	14762
869.408	14731
869.539	14746
869.669	14876
869.799	14739
869.929	14777
870.06	14765
870.19	14895
870.32	14956
870.45	15005
870.58	15146
870.71	15093
870.84	15169
870.97	15036
871.1	15070
871.23	15272
871.36	15245
871.489	15150
871.619	15188
871.749	15340
871.879	15332
872.008	15405
872.138	15306
872.267	15222
872.397	15097
872.526	15093
872.656	15104
872.785	15184
872.915	15431
873.044	15454
873.173	15302
873.303	15496
873.432	15306
873.561	15378
873.69	15344
873.819	15306
873.948	15370
874.077	15397
874.206	15351
874.335	15298
874.464	15507
874.593	15705
874.722	15576
874.851	15648
874.979	15644
875.108	15736
875.237	15663
875.365	15622
875.494	15648
875.623	15644
875.751	15564
875.88	15637
876.008	15819
876.136	15953
876.265	16120
876.393	16185
876.521	16044
876.65	16078
876.778	16093
876.906	15960
877.034	16017
877.162	15941
877.29	15941
877.418	16105
877.546	16063
877.674	16128
877.802	16082
877.93	16082
878.058	15899
878.185	16013
878.313	16048
878.441	16059
878.568	15956
878.696	16063
878.824	16090
878.951	16135
879.079	16154
879.206	16390
879.333	16352
879.461	16181
879.588	16261
879.715	16367
879.842	16394
879.97	16200
880.097	15846
880.224	15850
880.351	15884
880.478	15972
880.605	15884
880.732	15884
880.859	16158
880.986	15972
881.112	15926
881.239	15831
881.366	15644
881.493	15610
881.619	15511
881.746	15637
881.872	15587
881.999	15603
882.125	15519
882.252	15625
882.378	15492
882.505	15751
882.631	15416
882.757	15420
882.883	15538
883.01	15374
883.136	15275
883.262	15264
883.388	15146
883.514	15344
883.64	15420
883.766	15325
883.892	15218
884.018	15249
884.143	15374
884.269	15507
884.395	15058
884.52	15043
884.646	15100
884.772	15001
884.897	15028
885.023	15066
885.148	15169
885.274	15146
885.399	15150
885.524	15135
885.65	15154
885.775	15146
885.9	15070
886.025	15176
886.15	15104
886.275	15009
886.4	14971
886.525	15070
886.65	15055
886.775	14967
886.9	15154
887.025	15256
887.149	15112
887.274	14830
887.399	14887
887.523	14864
887.648	14876
887.773	14849
887.897	14986
888.021	14948
888.146	14849
888.27	15013
888.395	15039
888.519	14929
888.643	14910
888.767	15043
888.891	14819
889.015	14804
889.139	14769
889.263	14807
889.387	14826
889.511	14887
889.635	14849
889.759	14663
889.883	14773
890.006	14708
890.13	14891
890.254	14640
890.377	14674
890.501	14541
890.624	14697
890.748	14651
890.871	14571
890.995	14358
891.118	14434
891.241	14480
891.364	14347
891.488	14621
891.611	14393
891.734	14434
891.857	14454
891.98	14492
892.103	14560
892.226	14518
892.349	14343
892.471	14324
892.594	14370
892.717	14450
892.839	14495
892.962	14457
893.085	14526
893.207	14503
893.33	14366
893.452	14347
893.575	14431
893.697	14408
893.819	14644
893.941	14659
894.064	14507
894.186	14374
894.308	14328
894.43	14454
894.552	14613
894.674	14617
894.796	14362
894.918	14530
895.04	14465
895.161	14476
895.283	14560
895.405	14431
895.526	14526
895.648	14469
895.769	14568
895.891	14579
896.012	14610
896.134	14556
896.255	14667
896.376	14533
896.498	14549
896.619	14644
896.74	14625
896.861	14758
896.982	14929
897.103	15032
897.224	14811
897.345	14929
897.466	14758
897.587	14777
897.708	14952
897.828	14921
897.949	14796
898.07	14727
898.19	14765
898.311	14982
898.431	14804
898.552	14872
898.672	14956
898.792	15039
898.913	15032
899.033	14918
899.153	14785
899.273	14708
899.393	14727
899.513	14849
899.633	14800
899.753	14876
899.873	14765
899.993	14876
900.113	14743
900.232	14777
900.352	14712
900.472	14674
900.591	14613
900.711	14659
900.83	14556
900.95	14815
901.069	14773
901.189	14602
901.308	14366
901.427	14168
901.546	14301
901.665	14351
901.784	14374
901.904	14183
902.023	14130
902.141	13928
902.26	13925
902.379	13928
902.498	13932
902.617	13887
902.735	13868
902.854	13909
902.973	13784
903.091	13582
903.21	13605
903.328	13544
903.446	13476
903.565	13453
903.683	13438
903.801	13377
903.919	13464
904.038	13411
904.156	13255
904.274	13304
904.392	13202
904.51	13141
904.627	13316
904.745	13350
904.863	13369
904.981	13023
905.098	12954
905.216	12954
905.334	13012
905.451	12954
905.569	12894
905.686	13053
905.803	12951
905.921	12802
906.038	12875
906.155	12840
906.272	12658
906.389	12688
906.506	12509
906.623	12555
906.74	12563
906.857	12445
906.974	12399
907.091	12654
907.208	12760
907.324	12597
907.441	12441
907.557	12251
907.674	12346
907.79	12239
907.907	12201
908.023	12285
908.139	12289
908.256	12235
908.372	12159
908.488	12175
908.604	12053
908.72	11954
908.836	12060
908.952	12049
909.068	12015
909.184	12079
909.3	12034
909.415	12121
909.531	11988
909.647	11889
909.762	11783
909.878	11672
909.993	11817
910.108	11786
910.224	11779
910.339	11863
910.454	11741
910.57	11619
910.685	11589
910.8	11843
910.915	11794
911.03	11638
911.145	11452
911.259	11452
911.374	11490
911.489	11471
911.604	11406
911.718	11239
911.833	11326
911.947	11121
912.062	11048
912.176	11254
912.291	11083
912.405	11254
912.519	11455
912.633	11474
912.748	11231
912.862	11220
912.976	11155
913.09	10976
913.204	11117
913.318	11113
913.431	11212
913.545	11204
913.659	11265
913.772	11045
913.886	11048
914	11067
914.113	11094
914.226	11170
914.34	11083
914.453	10923
914.566	11117
914.68	10995
914.793	10900
914.906	10801
915.019	10691
915.132	10603
915.245	10759
915.358	10752
915.47	10797
915.583	10809
915.696	10782
915.809	10847
915.921	10892
916.034	10721
916.146	10774
916.259	10767
916.371	10725
916.483	10748
916.595	10561
916.708	10664
916.82	10710
916.932	10710
917.044	10660
917.156	10645
917.268	10542
917.38	10527
917.491	10478
917.603	10577
917.715	10618
917.826	10656
917.938	10535
918.049	10459
918.161	10531
918.272	10721
918.384	10748
918.495	10580
918.606	10462
918.717	10314
918.828	10455
918.939	10432
919.05	10382
919.161	10421
919.272	10227
919.383	10306
919.494	10459
919.604	10607
919.715	10531
919.826	10287
919.936	10382
920.047	10516
920.157	10455
920.267	10702
920.378	10421
920.488	10504
920.598	10599
920.708	10809
920.818	10622
920.928	10584
921.038	10717
921.148	10721
921.258	10466
921.368	10390
921.477	10314
921.587	10215
921.697	10147
921.806	10318
921.916	10249
922.025	10017
922.134	9998
922.244	9937
922.353	10017
922.462	9892
922.571	9819
922.68	9652
922.789	9720
922.898	9652
923.007	9614
923.116	9743
923.224	9660
923.333	9641
923.442	9572
923.55	9549
923.659	9614
923.767	9603
923.876	9511
923.984	9584
924.092	9454
924.201	9523
924.309	9580
924.417	9568
924.525	9485
924.633	9420
924.741	10249
924.849	9287
924.956	9492
925.064	9310
925.172	9154
925.279	9291
925.387	9294
925.494	9340
925.602	9458
925.709	9386
925.816	9260
925.924	9329
926.031	9351
926.138	9397
926.245	9291
926.352	9222
926.459	9336
926.566	9408
926.673	9279
926.779	9176
926.886	9180
926.993	8990
927.099	8979
927.206	9039
927.312	9032
927.419	9062
927.525	9070
927.631	9020
927.737	8914
927.843	8910
927.95	8777
928.056	8861
928.162	8925
928.267	8986
928.373	9564
928.479	8971
928.585	8811
928.69	8918
928.796	8956
928.901	8800
929.007	8644
929.112	8788
929.218	8838
929.323	8693
929.428	8739
929.533	8918
929.638	8663
929.743	8682
929.848	8781
929.953	8727
930.058	8571
930.163	8507
930.267	8507
930.372	8655
930.477	8423
930.581	8708
930.685	8564
930.79	8438
930.894	8457
930.998	8434
931.103	8541
931.207	8202
931.311	8180
931.415	8168
931.519	7959
931.623	7887
