Data from test_V78500241_2421.txt Node
Date: Fri Mar 25 14:50:34 CST 2022
User: usil
Spectrometer: V785-0024
Trigger mode: 0
Integration Time (sec): 4.000000E-1
Scans to average: 1
Nonlinearity correction enabled: false
Boxcar width: 0
Storing dark spectrum: false
XAxis mode: Wavelengths
Number of Pixels in Spectrum: 1024
>>>>>Begin Spectral Data<<<<<
801.071	22120
801.214	22074
801.356	21713
801.499	21663
801.641	21545
801.783	21507
801.926	21534
802.068	21431
802.211	21214
802.353	21157
802.496	21058
802.638	20990
802.78	21013
802.923	20845
803.065	20765
803.208	20765
803.35	20880
803.492	20868
803.635	20933
803.777	20773
803.919	20910
804.061	21157
804.204	20998
804.346	20807
804.488	20613
804.63	20868
804.773	20693
804.915	20712
805.057	20777
805.199	20750
805.341	20796
805.483	20861
805.626	20731
805.768	20758
805.91	20686
806.052	20796
806.194	20670
806.336	20800
806.478	20674
806.62	20807
806.762	20750
806.904	20910
807.046	21123
807.188	20994
807.33	21058
807.472	21131
807.614	21001
807.756	20914
807.898	20929
808.04	20705
808.182	20937
808.324	20842
808.465	20914
808.607	21024
808.749	21203
808.891	21230
809.033	21336
809.174	21226
809.316	21199
809.458	21154
809.6	21051
809.741	21184
809.883	21108
810.025	21226
810.166	21165
810.308	21218
810.45	21150
810.591	21142
810.733	20971
810.875	20902
811.016	20872
811.158	20743
811.299	20872
811.441	20902
811.582	21005
811.724	20876
811.865	20891
812.007	20842
812.148	20906
812.29	20864
812.431	21116
812.573	21123
812.714	21306
812.855	21412
812.997	21477
813.138	21709
813.279	21435
813.421	21378
813.562	21279
813.703	21119
813.845	21013
813.986	20727
814.127	20621
814.268	20556
814.41	20434
814.551	20339
814.692	20450
814.833	20396
814.974	20480
815.115	20450
815.256	20324
815.397	20183
815.539	20305
815.68	20138
815.821	20183
815.962	20168
816.103	20206
816.244	20062
816.385	19871
816.526	19788
816.666	19700
816.807	19556
816.948	19776
817.089	19689
817.23	19605
817.371	19578
817.512	19616
817.653	19403
817.793	19430
817.934	19582
818.075	19556
818.216	19540
818.356	19540
818.497	19274
818.638	19213
818.778	19232
818.919	19213
819.06	19293
819.2	19244
819.341	19377
819.481	19434
819.622	19506
819.762	19670
819.903	19647
820.043	19616
820.184	19582
820.324	19514
820.465	19586
820.605	19567
820.746	19521
820.886	19339
821.026	19514
821.167	19381
821.307	19499
821.447	19521
821.588	19422
821.728	19198
821.868	19061
822.008	18859
822.149	18954
822.289	18894
822.429	18623
822.569	18574
822.709	18700
822.849	18456
822.99	18407
823.13	18426
823.27	18292
823.41	18209
823.55	18148
823.69	18273
823.83	18254
823.97	18155
824.11	18057
824.25	18049
824.389	18034
824.529	18057
824.669	18087
824.809	18045
824.949	18049
825.089	18030
825.228	17939
825.368	17828
825.508	17840
825.648	17836
825.787	17904
825.927	17824
826.067	17764
826.206	17756
826.346	17832
826.485	17760
826.625	17741
826.765	17950
826.904	17741
827.044	17630
827.183	17535
827.323	17410
827.462	17520
827.601	17448
827.741	17497
827.88	17417
828.02	17440
828.159	17490
828.298	17452
828.437	17524
828.577	17425
828.716	17596
828.855	17429
828.994	17296
829.134	17246
829.273	17197
829.412	17067
829.551	17143
829.69	17223
829.829	17254
829.968	17258
830.107	17258
830.246	17235
830.385	17140
830.524	17022
830.663	17086
830.802	16854
830.941	16904
831.08	16774
831.219	16904
831.357	16801
831.496	17086
831.635	16866
831.774	16812
831.913	16767
832.051	16542
832.19	16615
832.329	16664
832.467	16607
832.606	16485
832.744	16481
832.883	16493
833.022	16432
833.16	16573
833.299	16584
833.437	16459
833.576	16611
833.714	16474
833.852	16554
833.991	16656
834.129	16607
834.267	16717
834.406	16546
834.544	16603
834.682	16550
834.821	16558
834.959	16748
835.097	16489
835.235	16596
835.373	16584
835.511	16630
835.65	16519
835.788	16531
835.926	16375
836.064	16314
836.202	16356
836.34	16493
836.478	16656
836.615	16432
836.753	16474
836.891	16569
837.029	16554
837.167	16352
837.305	16405
837.443	16386
837.58	16363
837.718	16371
837.856	16325
837.993	16284
838.131	16363
838.269	16306
838.406	16265
838.544	16204
838.681	15994
838.819	15972
838.956	15827
839.094	15892
839.231	15953
839.369	16048
839.506	16356
839.643	16086
839.781	15949
839.918	15907
840.055	15926
840.193	15804
840.33	15846
840.467	15975
840.604	15983
840.742	16074
840.879	15724
841.016	15762
841.153	15831
841.29	15930
841.427	15838
841.564	15903
841.701	15884
841.838	15812
841.975	15732
842.112	15781
842.249	15789
842.385	15591
842.522	15819
842.659	15618
842.796	15675
842.933	15709
843.069	15603
843.206	15568
843.343	15755
843.479	15637
843.616	15644
843.752	15401
843.889	15313
844.025	15686
844.162	15378
844.298	15564
844.435	15386
844.571	15435
844.708	15473
844.844	15618
844.98	15504
845.117	15439
845.253	15378
845.389	15321
845.525	15405
845.661	15351
845.798	15203
845.934	15317
846.07	15135
846.206	15344
846.342	15287
846.478	15188
846.614	15017
846.75	14944
846.886	14963
847.022	15123
847.158	14998
847.294	15047
847.429	15081
847.565	14925
847.701	15317
847.837	14743
847.972	14651
848.108	14819
848.244	14792
848.379	14617
848.515	14606
848.65	14655
848.786	14621
848.921	14568
849.057	14720
849.192	14568
849.328	14659
849.463	14659
849.598	14549
849.734	14583
849.869	14419
850.004	14431
850.14	14499
850.275	14442
850.41	14370
850.545	14389
850.68	14400
850.815	14396
850.95	14298
851.085	14564
851.22	14492
851.355	14427
851.49	14362
851.625	14282
851.76	14393
851.895	14313
852.03	14282
852.165	14301
852.299	14317
852.434	14454
852.569	14431
852.703	14301
852.838	14438
852.973	14473
853.107	14560
853.242	14457
853.376	14180
853.511	14084
853.645	14244
853.78	14377
853.914	14240
854.048	14206
854.183	14157
854.317	14252
854.451	14393
854.585	14320
854.72	14248
854.854	14271
854.988	14183
855.122	14168
855.256	14145
855.39	14278
855.524	14309
855.658	14305
855.792	14309
855.926	14305
856.06	14461
856.194	14454
856.327	14267
856.461	14195
856.595	14069
856.729	14233
856.862	14305
856.996	14218
857.13	14336
857.263	14389
857.397	14374
857.53	14259
857.664	14328
857.797	14377
857.931	14298
858.064	14355
858.197	14317
858.331	14210
858.464	14164
858.597	14195
858.731	14199
858.864	14191
858.997	14149
859.13	14214
859.263	14290
859.396	14362
859.529	14275
859.662	14229
859.795	14187
859.928	14233
860.061	14385
860.194	14427
860.327	14351
860.46	14214
860.592	14339
860.725	14461
860.858	14396
860.99	14309
861.123	14221
861.256	14172
861.388	14298
861.521	14921
861.653	14119
861.786	14020
861.918	14168
862.05	14088
862.183	14278
862.315	14252
862.447	14244
862.58	14199
862.712	13932
862.844	13997
862.976	14176
863.108	14168
863.24	14461
863.372	13959
863.504	13997
863.636	14069
863.768	14069
863.9	14031
864.032	13989
864.164	13932
864.296	14043
864.428	14157
864.559	14157
864.691	14138
864.823	14103
864.954	14058
865.086	14069
865.217	14043
865.349	13837
865.48	13936
865.612	14123
865.743	14161
865.875	14084
866.006	13871
866.137	14092
866.269	14020
866.4	14031
866.531	13936
866.662	13928
866.793	14001
866.924	13951
867.055	14012
867.186	14027
867.317	13993
867.448	13883
867.579	13989
867.71	14012
867.841	13932
867.972	14084
868.103	13997
868.233	14058
868.364	14012
868.495	14145
868.625	14259
868.756	14389
868.886	14138
869.017	14282
869.147	14339
869.278	14339
869.408	14301
869.539	14263
869.669	14366
869.799	14275
869.929	14404
870.06	14328
870.19	14579
870.32	14632
870.45	14568
870.58	14674
870.71	14796
870.84	14842
870.97	14594
871.1	14758
871.23	14804
871.36	14861
871.489	14701
871.619	14826
871.749	14811
871.879	14941
872.008	14971
872.138	14758
872.267	14952
872.397	14674
872.526	14629
872.656	14575
872.785	14750
872.915	14979
873.044	15005
873.173	14937
873.303	14857
873.432	15005
873.561	14967
873.69	14994
873.819	14963
873.948	15051
874.077	14933
874.206	14830
874.335	14933
874.464	15066
874.593	15260
874.722	15157
874.851	15192
874.979	15226
875.108	15188
875.237	15207
875.365	15176
875.494	15222
875.623	15310
875.751	15211
875.88	15237
876.008	15264
876.136	15515
876.265	15587
876.393	15770
876.521	15762
876.65	15690
876.778	15622
876.906	15599
877.034	15606
877.162	15660
877.29	15660
877.418	15614
877.546	15648
877.674	15736
877.802	15720
877.93	15648
878.058	15534
878.185	15610
878.313	15682
878.441	15614
878.568	15534
878.696	15481
878.824	15660
878.951	15701
879.079	15800
879.206	15956
879.333	15774
879.461	15667
879.588	15759
879.715	15857
879.842	15876
879.97	15698
880.097	15439
880.224	15443
880.351	15549
880.478	15485
880.605	15572
880.732	15466
880.859	15800
880.986	15515
881.112	15549
881.239	15469
881.366	15241
881.493	15188
881.619	15268
881.746	15146
881.872	15123
881.999	15173
882.125	15093
882.252	15199
882.378	15154
882.505	15264
882.631	15093
882.757	14925
882.883	14998
883.01	14963
883.136	14849
883.262	14785
883.388	14834
883.514	14914
883.64	14941
883.766	14948
883.892	14716
884.018	14842
884.143	14982
884.269	15211
884.395	14781
884.52	14587
884.646	14617
884.772	14659
884.897	14511
885.023	14651
885.148	14735
885.274	14743
885.399	14674
885.524	14636
885.65	14716
885.775	14697
885.9	14693
886.025	14872
886.15	14716
886.275	14655
886.4	14617
886.525	14693
886.65	14575
886.775	14571
886.9	14830
887.025	14910
887.149	14746
887.274	14568
887.399	14503
887.523	14522
887.648	14461
887.773	14362
887.897	14537
888.021	14514
888.146	14438
888.27	14594
888.395	14712
888.519	14560
888.643	14476
888.767	14431
888.891	14419
889.015	14187
889.139	14450
889.263	14358
889.387	14427
889.511	14514
889.635	14495
889.759	14404
889.883	14278
890.006	14499
890.13	14495
890.254	14271
890.377	14336
890.501	14199
890.624	14199
890.748	14225
890.871	14168
890.995	14142
891.118	13944
891.241	14081
891.364	14199
891.488	14153
891.611	14092
891.734	14035
891.857	14027
891.98	14073
892.103	14168
892.226	14096
892.349	14016
892.471	13883
892.594	14012
892.717	14123
892.839	14065
892.962	14054
893.085	14138
893.207	14107
893.33	13989
893.452	13925
893.575	14100
893.697	14065
893.819	14195
893.941	14240
894.064	14149
894.186	14016
894.308	14031
894.43	14210
894.552	14286
894.674	14298
894.796	14027
894.918	13959
895.04	14115
895.161	14206
895.283	14214
895.405	14096
895.526	14240
895.648	14149
895.769	14164
895.891	14225
896.012	14225
896.134	14317
896.255	14218
896.376	14229
896.498	14248
896.619	14233
896.74	14252
896.861	14355
896.982	14541
897.103	14644
897.224	14621
897.345	14488
897.466	14484
897.587	14514
897.708	14651
897.828	14495
897.949	14503
898.07	14438
898.19	14514
898.311	14590
898.431	14499
898.552	14636
898.672	14674
898.792	14659
898.913	14648
899.033	14507
899.153	14469
899.273	14309
899.393	14374
899.513	14461
899.633	14415
899.753	14488
899.873	14495
899.993	14495
900.113	14434
900.232	14434
900.352	14537
900.472	14332
900.591	14404
900.711	14324
900.83	14202
900.95	14347
901.069	14393
901.189	14183
901.308	14065
901.427	13974
901.546	13978
901.665	14039
901.784	14016
901.904	13894
902.023	13852
902.141	13639
902.26	13613
902.379	13670
902.498	13518
902.617	13510
902.735	13605
902.854	13655
902.973	13464
903.091	13381
903.21	13247
903.328	13335
903.446	13217
903.565	13145
903.683	13175
903.801	13084
903.919	13091
904.038	13232
904.156	12871
904.274	13042
904.392	12966
904.51	12924
904.627	12859
904.745	12947
904.863	13015
904.981	12764
905.098	12604
905.216	12642
905.334	12700
905.451	12631
905.569	12669
905.686	12639
905.803	12650
905.921	12403
906.038	12555
906.155	12460
906.272	12346
906.389	12350
906.506	12266
906.623	12232
906.74	12270
906.857	12102
906.974	12167
907.091	12262
907.208	12334
907.324	12304
907.441	12102
907.557	12015
907.674	12041
907.79	11901
907.907	11927
908.023	11973
908.139	12068
908.256	11927
908.372	11954
908.488	11885
908.604	11741
908.72	11676
908.836	11745
908.952	11729
909.068	11794
909.184	11870
909.3	11653
909.415	11813
909.531	11760
909.647	11532
909.762	11455
909.878	11455
909.993	11471
910.108	11429
910.224	11551
910.339	11501
910.454	11379
910.57	11296
910.685	11296
910.8	11608
910.915	11505
911.03	11440
911.145	11246
911.259	11242
911.374	11242
911.489	11079
911.604	11048
911.718	11014
911.833	10915
911.947	10816
912.062	10736
912.176	10927
912.291	10965
912.405	10961
912.519	11185
912.633	11201
912.748	11010
912.862	10987
912.976	10869
913.09	10816
913.204	10774
913.318	10801
913.431	11006
913.545	10976
913.659	10915
913.772	10831
913.886	10664
914	10702
914.113	10725
914.226	10812
914.34	10790
914.453	10698
914.566	10733
914.68	10634
914.793	10729
914.906	10512
915.019	10451
915.132	10417
915.245	10455
915.358	10443
915.47	10432
915.583	10558
915.696	10546
915.809	10554
915.921	10611
916.034	10474
916.146	10432
916.259	10371
916.371	10500
916.483	10421
916.595	10318
916.708	10459
916.82	10440
916.932	10363
917.044	10436
917.156	10295
917.268	10280
917.38	10242
917.491	10227
917.603	10276
917.715	10375
917.826	10398
917.938	10223
918.049	10154
918.161	10299
918.272	10417
918.384	10459
918.495	10325
918.606	10238
918.717	10105
918.828	10287
918.939	10173
919.05	10109
919.161	10166
919.272	10002
919.383	9998
919.494	10211
919.604	10485
919.715	10242
919.826	10154
919.936	10112
920.047	10310
920.157	10219
920.267	10409
920.378	10204
920.488	10200
920.598	10382
920.708	10527
920.818	10455
920.928	10329
921.038	10512
921.148	10546
921.258	10215
921.368	10078
921.477	9994
921.587	10032
921.697	9964
921.806	10040
921.916	10021
922.025	9766
922.134	9751
922.244	9694
922.353	9793
922.462	9713
922.571	9564
922.68	9424
922.789	9458
922.898	9359
923.007	9507
923.116	9450
923.224	9389
923.333	9477
923.442	9287
923.55	9268
923.659	9317
923.767	9374
923.876	9279
923.984	9447
924.092	9287
924.201	9310
924.309	9256
924.417	9367
924.525	9192
924.633	9283
924.741	10051
924.849	9119
924.956	9207
925.064	9173
925.172	8990
925.279	9066
925.387	9154
925.494	9066
925.602	9272
925.709	9214
925.816	8975
925.924	9119
926.031	9188
926.138	9146
926.245	9157
926.352	9062
926.459	9165
926.566	9268
926.673	9020
926.779	8975
926.886	8998
926.993	8804
927.099	8861
927.206	8766
927.312	8754
927.419	8845
927.525	8758
927.631	8872
927.737	8731
927.843	8766
927.95	8552
928.056	8678
928.162	8731
928.267	8766
928.373	9412
928.479	8823
928.585	8571
928.69	8716
928.796	8712
928.901	8583
929.007	8499
929.112	8640
929.218	8587
929.323	8598
929.428	8507
929.533	8610
929.638	8495
929.743	8484
929.848	8537
929.953	8518
930.058	8488
930.163	8282
930.267	8362
930.372	8454
930.477	8332
930.581	8473
930.685	8450
930.79	8210
930.894	8279
930.998	8210
931.103	8347
931.207	8035
931.311	8054
931.415	7913
931.519	7788
931.623	7818
