Data from test_V78500241_849.txt Node
Date: Fri Mar 25 14:39:37 CST 2022
User: usil
Spectrometer: V785-0024
Trigger mode: 0
Integration Time (sec): 4.000000E-1
Scans to average: 1
Nonlinearity correction enabled: false
Boxcar width: 0
Storing dark spectrum: false
XAxis mode: Wavelengths
Number of Pixels in Spectrum: 1024
>>>>>Begin Spectral Data<<<<<
801.071	25898
801.214	25860
801.356	25571
801.499	25453
801.641	25392
801.783	25152
801.926	25285
802.068	25168
802.211	25076
802.353	25008
802.496	24711
802.638	24726
802.78	24658
802.923	24646
803.065	24555
803.208	24559
803.35	24741
803.492	24783
803.635	24913
803.777	24745
803.919	24711
804.061	25012
804.204	24848
804.346	24783
804.488	24627
804.63	24703
804.773	24684
804.915	24798
805.057	24992
805.199	24856
805.341	24943
805.483	25099
805.626	25012
805.768	24894
805.91	25118
806.052	25183
806.194	25110
806.336	25510
806.478	25514
806.62	25472
806.762	25776
806.904	25932
807.046	26278
807.188	26560
807.33	26724
807.472	27047
807.614	27393
807.756	27926
807.898	28375
808.04	29094
808.182	30380
808.324	31734
808.465	33310
808.607	35121
808.749	36684
808.891	37575
809.033	37757
809.174	36738
809.316	35185
809.458	33332
809.6	31518
809.741	30140
809.883	29170
810.025	28204
810.166	27701
810.308	27325
810.45	27001
810.591	26541
810.733	26225
810.875	26149
811.016	25594
811.158	25765
811.299	25696
811.441	25674
811.582	25590
811.724	25403
811.865	25202
812.007	25247
812.148	25221
812.29	25133
812.431	25293
812.573	25468
812.714	25388
812.855	25544
812.997	25662
813.138	25746
813.279	25655
813.421	25635
813.562	25495
813.703	25388
813.845	25247
813.986	24859
814.127	24661
814.268	24563
814.41	24517
814.551	24475
814.692	24608
814.833	24369
814.974	24315
815.115	24433
815.256	24129
815.397	24205
815.539	24110
815.68	24003
815.821	23961
815.962	24053
816.103	23946
816.244	23859
816.385	23813
816.526	23596
816.666	23611
816.807	23547
816.948	23615
817.089	23623
817.23	23459
817.371	23471
817.512	23318
817.653	23425
817.793	23311
817.934	23326
818.075	23512
818.216	23387
818.356	23311
818.497	23311
818.638	23071
818.778	23086
818.919	22991
819.06	23033
819.2	23140
819.341	23189
819.481	23216
819.622	23360
819.762	23528
819.903	23497
820.043	23341
820.184	23284
820.324	23170
820.465	23341
820.605	23303
820.746	23250
820.886	23151
821.026	23181
821.167	23212
821.307	23265
821.447	22965
821.588	22968
821.728	22995
821.868	22885
822.008	22637
822.149	22573
822.289	22596
822.429	22154
822.569	22215
822.709	22173
822.849	22025
822.99	22051
823.13	21979
823.27	21987
823.41	21827
823.55	21724
823.69	21797
823.83	21899
823.97	21694
824.11	21648
824.25	21523
824.389	21641
824.529	21610
824.669	21469
824.809	21667
824.949	21743
825.089	21682
825.228	21545
825.368	21507
825.508	21424
825.648	21424
825.787	21389
825.927	21526
826.067	21424
826.206	21226
826.346	21428
826.485	21450
826.625	21222
826.765	21393
826.904	21351
827.044	21081
827.183	21093
827.323	21062
827.462	20971
827.601	21028
827.741	21074
827.88	20990
828.02	20842
828.159	20933
828.298	21039
828.437	21043
828.577	20834
828.716	21036
828.855	20872
828.994	20796
829.134	20746
829.273	20849
829.412	20629
829.551	20651
829.69	20629
829.829	20720
829.968	20705
830.107	20708
830.246	20705
830.385	20674
830.524	20533
830.663	20526
830.802	20427
830.941	20332
831.08	20278
831.219	20259
831.357	20237
831.496	20450
831.635	20210
831.774	20199
831.913	20301
832.051	20001
832.19	20157
832.329	20092
832.467	20122
832.606	20073
832.744	20103
832.883	20096
833.022	20161
833.16	20134
833.299	20286
833.437	20324
833.576	20480
833.714	20583
833.852	20613
833.991	20556
834.129	20746
834.267	20796
834.406	20609
834.544	20644
834.682	20606
834.821	20480
834.959	20454
835.097	20256
835.235	20419
835.373	20195
835.511	20096
835.65	19951
835.788	20050
835.926	19856
836.064	19784
836.202	19776
836.34	19974
836.478	19902
836.615	19887
836.753	19769
836.891	19951
837.029	19822
837.167	19753
837.305	19681
837.443	19681
837.58	19639
837.718	19818
837.856	19715
837.993	19502
838.131	19514
838.269	19529
838.406	19575
838.544	19449
838.681	19327
838.819	19244
838.956	19198
839.094	19114
839.231	19308
839.369	19354
839.506	19529
839.643	19346
839.781	19164
839.918	19141
840.055	18993
840.193	19050
840.33	18989
840.467	19038
840.604	19141
840.742	19164
840.879	18901
841.016	19008
841.153	18924
841.29	19091
841.427	18993
841.564	19088
841.701	19091
841.838	19103
841.975	19004
842.112	19080
842.249	18814
842.385	18806
842.522	18989
842.659	18871
842.796	18863
842.933	18875
843.069	18795
843.206	18837
843.343	18913
843.479	18943
843.616	18973
843.752	18791
843.889	18722
844.025	18913
844.162	18745
844.298	18993
844.435	18962
844.571	19023
844.708	19346
844.844	19426
844.98	19613
845.117	19879
845.253	20469
845.389	21222
845.525	23109
845.661	25955
845.798	29497
845.934	32549
846.07	33709
846.206	33108
846.342	30802
846.478	27116
846.614	24064
846.75	21633
846.886	20476
847.022	19731
847.158	19228
847.294	18905
847.429	18681
847.565	18601
847.701	18753
847.837	18125
847.972	17980
848.108	18159
848.244	18129
848.379	17798
848.515	17889
848.65	17821
848.786	17866
848.921	17809
849.057	17843
849.192	17897
849.328	17771
849.463	17729
849.598	17687
849.734	17729
849.869	17634
850.004	17562
850.14	17429
850.275	17387
850.41	17406
850.545	17341
850.68	17417
850.815	17608
850.95	17349
851.085	17596
851.22	17619
851.355	17444
851.49	17414
851.625	17395
851.76	17417
851.895	17482
852.03	17330
852.165	17303
852.299	17490
852.434	17604
852.569	17478
852.703	17573
852.838	17573
852.973	17562
853.107	17619
853.242	17493
853.376	17273
853.511	17318
853.645	17455
853.78	17558
853.914	17467
854.048	17417
854.183	17459
854.317	17558
854.451	17691
854.585	17478
854.72	17474
854.854	17535
854.988	17379
855.122	17448
855.256	17185
855.39	17330
855.524	17360
855.658	17356
855.792	17398
855.926	17326
856.06	17417
856.194	17376
856.327	17318
856.461	17220
856.595	17250
856.729	17292
856.862	17433
856.996	17356
857.13	17307
857.263	17379
857.397	17387
857.53	17353
857.664	17284
857.797	17334
857.931	17379
858.064	17155
858.197	17284
858.331	17280
858.464	17181
858.597	17242
858.731	17147
858.864	17166
858.997	17220
859.13	17235
859.263	17242
859.396	17105
859.529	17140
859.662	17239
859.795	17166
859.928	17174
860.061	17315
860.194	17269
860.327	17220
860.46	17216
860.592	17212
860.725	17277
860.858	17273
860.99	17235
861.123	17090
861.256	17170
861.388	17136
861.521	17923
861.653	17178
861.786	16999
861.918	16999
862.05	17136
862.183	17041
862.315	17170
862.447	17223
862.58	17113
862.712	16972
862.844	16877
862.976	17014
863.108	17041
863.24	17330
863.372	16820
863.504	16889
863.636	16831
863.768	16968
863.9	16908
864.032	16786
864.164	16927
864.296	16847
864.428	16923
864.559	17010
864.691	16938
864.823	16866
864.954	16904
865.086	16873
865.217	16923
865.349	16809
865.48	16835
865.612	16805
865.743	16976
865.875	16752
866.006	16850
866.137	16915
866.269	16835
866.4	16919
866.531	16744
866.662	16759
866.793	16736
866.924	16828
867.055	16900
867.186	16881
867.317	16904
867.448	16588
867.579	16797
867.71	16790
867.841	16687
867.972	16839
868.103	16850
868.233	16771
868.364	16915
868.495	16866
868.625	16976
868.756	17067
868.886	17010
869.017	17003
869.147	17102
869.278	17159
869.408	17071
869.539	17136
869.669	17151
869.799	17064
869.929	17136
870.06	17261
870.19	17414
870.32	17391
870.45	17444
870.58	17455
870.71	17554
870.84	17634
870.97	17493
871.1	17482
871.23	17760
871.36	17767
871.489	17573
871.619	17649
871.749	17615
871.879	17737
872.008	17870
872.138	17741
872.267	17680
872.397	17608
872.526	17608
872.656	17684
872.785	17665
872.915	17851
873.044	17866
873.173	17805
873.303	17882
873.432	17859
873.561	17897
873.69	17897
873.819	17912
873.948	17992
874.077	17935
874.206	17950
874.335	18007
874.464	18144
874.593	18235
874.722	18121
874.851	18281
874.979	18346
875.108	18281
875.237	18239
875.365	18232
875.494	18319
875.623	18456
875.751	18342
875.88	18517
876.008	18498
876.136	18688
876.265	18920
876.393	19129
876.521	18970
876.65	18977
876.778	18951
876.906	19023
877.034	19031
877.162	19099
877.29	19118
877.418	19171
877.546	19236
877.674	19251
877.802	19209
877.93	19441
878.058	19426
878.185	19559
878.313	19582
878.441	19860
878.568	20016
878.696	20396
878.824	20918
878.951	21557
879.079	22360
879.206	23429
879.333	24525
879.461	25491
879.588	26031
879.715	26161
879.842	25822
879.97	24509
880.097	23227
880.224	22462
880.351	21644
880.478	21447
880.605	20895
880.732	20785
880.859	20883
880.986	20545
881.112	20575
881.239	20343
881.366	20294
881.493	20092
881.619	20210
881.746	20115
881.872	20176
881.999	20172
882.125	20221
882.252	20221
882.378	20267
882.505	20419
882.631	20206
882.757	20046
882.883	20050
883.01	20115
883.136	20020
883.262	19921
883.388	19837
883.514	20031
883.64	20062
883.766	19955
883.892	19685
884.018	19860
884.143	19925
884.269	20058
884.395	19818
884.52	19529
884.646	19917
884.772	19689
884.897	19597
885.023	19723
885.148	19822
885.274	19830
885.399	19727
885.524	19514
885.65	19514
885.775	19472
885.9	19297
886.025	19403
886.15	19324
886.275	19042
886.4	19095
886.525	18973
886.65	18996
886.775	18840
886.9	19008
887.025	19008
887.149	18817
887.274	18498
887.399	18426
887.523	18437
887.648	18292
887.773	18178
887.897	18422
888.021	18357
888.146	18270
888.27	18186
888.395	18403
888.519	18213
888.643	18155
888.767	18194
888.891	18102
889.015	17878
889.139	18049
889.263	17882
889.387	17897
889.511	18034
889.635	17916
889.759	17779
889.883	17821
890.006	17737
890.13	17813
890.254	17684
890.377	17634
890.501	17539
890.624	17379
890.748	17520
890.871	17311
890.995	17261
891.118	17140
891.241	17284
891.364	17242
891.488	17425
891.611	17231
891.734	17235
891.857	17174
891.98	17200
892.103	17273
892.226	17220
892.349	17132
892.471	17006
892.594	17018
892.717	17052
892.839	16957
892.962	17090
893.085	17060
893.207	17033
893.33	16866
893.452	16850
893.575	16911
893.697	16835
893.819	17151
893.941	17128
894.064	17075
894.186	16896
894.308	16774
894.43	16968
894.552	17064
894.674	16869
894.796	16843
894.918	16828
895.04	16820
895.161	16869
895.283	16839
895.405	16786
895.526	16854
895.648	16866
895.769	16824
895.891	16801
896.012	16873
896.134	16873
896.255	16900
896.376	16797
896.498	16805
896.619	16843
896.74	16938
896.861	16850
896.982	17235
897.103	17239
897.224	17037
897.345	17086
897.466	17041
897.587	17037
897.708	17212
897.828	17098
897.949	16934
898.07	16885
898.19	17132
898.311	17178
898.431	17022
898.552	17071
898.672	17220
898.792	17159
898.913	17121
899.033	17025
899.153	16972
899.273	16782
899.393	16968
899.513	16927
899.633	16835
899.753	16934
899.873	16850
899.993	17056
900.113	16835
900.232	16854
900.352	16908
900.472	16843
900.591	16828
900.711	16835
900.83	16649
900.95	16820
901.069	16957
901.189	16664
901.308	16421
901.427	16363
901.546	16284
901.665	16348
901.784	16360
901.904	16181
902.023	16112
902.141	15918
902.26	15918
902.379	15911
902.498	15907
902.617	15869
902.735	15842
902.854	15789
902.973	15781
903.091	15564
903.21	15511
903.328	15538
903.446	15382
903.565	15359
903.683	15355
903.801	15188
903.919	15287
904.038	15268
904.156	15230
904.274	15089
904.392	15066
904.51	14891
904.627	15085
904.745	15108
904.863	15146
904.981	14887
905.098	14640
905.216	14834
905.334	14746
905.451	14689
905.569	14697
905.686	14739
905.803	14765
905.921	14590
906.038	14701
906.155	14533
906.272	14408
906.389	14473
906.506	14214
906.623	14259
906.74	14259
906.857	14073
906.974	14138
907.091	14240
907.208	14423
907.324	14237
907.441	14134
907.557	14005
907.674	13928
907.79	13932
907.907	13967
908.023	14062
908.139	14020
908.256	13856
908.372	13890
908.488	13856
908.604	13765
908.72	13636
908.836	13795
908.952	13677
909.068	13765
909.184	13803
909.3	13708
909.415	13689
909.531	13696
909.647	13567
909.762	13510
909.878	13468
909.993	13445
910.108	13396
910.224	13487
910.339	13430
910.454	13312
910.57	13331
910.685	13149
910.8	13438
910.915	13403
911.03	13369
911.145	13015
911.259	13072
911.374	13137
911.489	13046
911.604	12954
911.718	12905
911.833	12905
911.947	12730
912.062	12692
912.176	12882
912.291	12791
912.405	12783
912.519	13023
912.633	13038
912.748	12909
912.862	12776
912.976	12658
913.09	12639
913.204	12616
913.318	12684
913.431	12837
913.545	12730
913.659	12776
913.772	12631
913.886	12627
914	12486
914.113	12635
914.226	12741
914.34	12627
914.453	12384
914.566	12646
914.68	12547
914.793	12464
914.906	12315
915.019	12350
915.132	12190
915.245	12228
915.358	12327
915.47	12311
915.583	12273
915.696	12315
915.809	12334
915.921	12384
916.034	12243
916.146	12205
916.259	12239
916.371	12300
916.483	12216
916.595	12148
916.708	12254
916.82	12209
916.932	12155
917.044	12159
917.156	12079
917.268	12079
917.38	12083
917.491	12019
917.603	12091
917.715	12091
917.826	12098
917.938	11973
918.049	11885
918.161	12079
918.272	12117
918.384	12129
918.495	12003
918.606	11889
918.717	11790
918.828	11855
918.939	11813
919.05	11661
919.161	11836
919.272	11619
919.383	11581
919.494	11878
919.604	12019
919.715	11809
919.826	11718
919.936	11722
920.047	11893
920.157	11809
920.267	11961
920.378	11878
920.488	11680
920.598	11996
920.708	12045
920.818	11954
920.928	12041
921.038	12072
921.148	12133
921.258	11756
921.368	11691
921.477	11570
921.587	11695
921.697	11497
921.806	11562
921.916	11463
922.025	11292
922.134	11277
922.244	11204
922.353	11299
922.462	11189
922.571	11098
922.68	10938
922.789	10927
922.898	10942
923.007	10919
923.116	11003
923.224	10953
923.333	10965
923.442	10790
923.55	10698
923.659	10828
923.767	10869
923.876	10820
923.984	10885
924.092	10740
924.201	10759
924.309	10790
924.417	10793
924.525	10721
924.633	10679
924.741	11691
924.849	10573
924.956	10725
925.064	10565
925.172	10436
925.279	10470
925.387	10584
925.494	10542
925.602	10622
925.709	10618
925.816	10512
925.924	10504
926.031	10622
926.138	10535
926.245	10550
926.352	10402
926.459	10596
926.566	10599
926.673	10485
926.779	10306
926.886	10268
926.993	10192
927.099	10249
927.206	10211
927.312	10120
927.419	10249
927.525	10192
927.631	10265
927.737	10162
927.843	10093
927.95	10006
928.056	10010
928.162	10025
928.267	10055
928.373	10683
928.479	10181
928.585	9972
928.69	10082
928.796	10055
928.901	10025
929.007	9823
929.112	9930
929.218	9956
929.323	9861
929.428	9861
929.533	10051
929.638	9880
929.743	9816
929.848	9915
929.953	9865
930.058	9774
930.163	9545
930.267	9572
930.372	9816
930.477	9614
930.581	9789
930.685	9701
930.79	9538
930.894	9511
930.998	9568
931.103	9633
931.207	9370
931.311	9256
931.415	9142
931.519	8998
931.623	8998
