Data from test_V78500241_2713.txt Node
Date: Fri Mar 25 14:52:36 CST 2022
User: usil
Spectrometer: V785-0024
Trigger mode: 0
Integration Time (sec): 4.000000E-1
Scans to average: 1
Nonlinearity correction enabled: false
Boxcar width: 0
Storing dark spectrum: false
XAxis mode: Wavelengths
Number of Pixels in Spectrum: 1024
>>>>>Begin Spectral Data<<<<<
801.071	21975
801.214	21880
801.356	21724
801.499	21485
801.641	21416
801.783	21321
801.926	21317
802.068	21203
802.211	21329
802.353	21043
802.496	20933
802.638	20804
802.78	20838
802.923	20796
803.065	20609
803.208	20796
803.35	20716
803.492	20796
803.635	20811
803.777	20697
803.919	20872
804.061	20963
804.204	20743
804.346	20594
804.488	20579
804.63	20613
804.773	20530
804.915	20659
805.057	20663
805.199	20560
805.341	20697
805.483	20640
805.626	20758
805.768	20454
805.91	20606
806.052	20594
806.194	20495
806.336	20800
806.478	20606
806.62	20636
806.762	20739
806.904	20785
807.046	20906
807.188	21074
807.33	20902
807.472	20975
807.614	20815
807.756	20899
807.898	20609
808.04	20556
808.182	20651
808.324	20568
808.465	20625
808.607	20857
808.749	20971
808.891	21157
809.033	21093
809.174	21047
809.316	20777
809.458	20994
809.6	20830
809.741	20963
809.883	21036
810.025	21024
810.166	21161
810.308	21047
810.45	21142
810.591	20933
810.733	20876
810.875	20655
811.016	20644
811.158	20533
811.299	20830
811.441	20929
811.582	20956
811.724	20682
811.865	20644
812.007	20727
812.148	20720
812.29	20868
812.431	21020
812.573	21096
812.714	21138
812.855	21184
812.997	21317
813.138	21408
813.279	21310
813.421	21241
813.562	21123
813.703	21051
813.845	20895
813.986	20613
814.127	20408
814.268	20336
814.41	20294
814.551	20282
814.692	20469
814.833	20237
814.974	20278
815.115	20332
815.256	20149
815.397	20062
815.539	20126
815.68	19970
815.821	19986
815.962	19967
816.103	19887
816.244	19875
816.385	19776
816.526	19765
816.666	19491
816.807	19502
816.948	19567
817.089	19651
817.23	19495
817.371	19499
817.512	19468
817.653	19396
817.793	19407
817.934	19350
818.075	19480
818.216	19476
818.356	19411
818.497	19171
818.638	19019
818.778	19114
818.919	19107
819.06	19217
819.2	19168
819.341	19247
819.481	19221
819.622	19529
819.762	19601
819.903	19510
820.043	19480
820.184	19392
820.324	19422
820.465	19487
820.605	19335
820.746	19289
820.886	19244
821.026	19491
821.167	19381
821.307	19434
821.447	19419
821.588	19145
821.728	19103
821.868	18909
822.008	18848
822.149	18859
822.289	18776
822.429	18635
822.569	18399
822.709	18506
822.849	18429
822.99	18323
823.13	18300
823.27	18121
823.41	18209
823.55	18068
823.69	18117
823.83	18121
823.97	18015
824.11	17874
824.25	17790
824.389	17992
824.529	17882
824.669	17958
824.809	18022
824.949	17946
825.089	17984
825.228	17942
825.368	17691
825.508	17676
825.648	17764
825.787	17794
825.927	17543
826.067	17695
826.206	17665
826.346	17748
826.485	17741
826.625	17676
826.765	17684
826.904	17619
827.044	17524
827.183	17433
827.323	17231
827.462	17452
827.601	17383
827.741	17410
827.88	17376
828.02	17303
828.159	17372
828.298	17379
828.437	17444
828.577	17280
828.716	17463
828.855	17284
828.994	17121
829.134	17090
829.273	17136
829.412	17128
829.551	17048
829.69	17098
829.829	17124
829.968	17261
830.107	17223
830.246	17155
830.385	17041
830.524	17025
830.663	16919
830.802	16812
830.941	16809
831.08	16622
831.219	16767
831.357	16824
831.496	16980
831.635	16793
831.774	16653
831.913	16611
832.051	16596
832.19	16508
832.329	16596
832.467	16497
832.606	16333
832.744	16382
832.883	16451
833.022	16432
833.16	16451
833.299	16424
833.437	16466
833.576	16455
833.714	16497
833.852	16497
833.991	16531
834.129	16489
834.267	16516
834.406	16379
834.544	16474
834.682	16497
834.821	16493
834.959	16630
835.097	16459
835.235	16561
835.373	16569
835.511	16561
835.65	16382
835.788	16394
835.926	16261
836.064	16200
836.202	16215
836.34	16535
836.478	16508
836.615	16322
836.753	16432
836.891	16462
837.029	16440
837.167	16360
837.305	16272
837.443	16363
837.58	16299
837.718	16382
837.856	16322
837.993	16230
838.131	16360
838.269	16230
838.406	16162
838.544	16173
838.681	16002
838.819	15895
838.956	15751
839.094	15831
839.231	15918
839.369	16013
839.506	16268
839.643	16131
839.781	15907
839.918	15804
840.055	15743
840.193	15816
840.33	15728
840.467	15747
840.604	15888
840.742	16097
840.879	15823
841.016	15774
841.153	15743
841.29	16021
841.427	15797
841.564	15808
841.701	15857
841.838	15846
841.975	15671
842.112	15762
842.249	15587
842.385	15561
842.522	15789
842.659	15629
842.796	15713
842.933	15618
843.069	15660
843.206	15542
843.343	15648
843.479	15694
843.616	15701
843.752	15405
843.889	15466
844.025	15526
844.162	15363
844.298	15523
844.435	15405
844.571	15272
844.708	15428
844.844	15549
844.98	15595
845.117	15538
845.253	15298
845.389	15268
845.525	15317
845.661	15332
845.798	15116
845.934	15180
846.07	15169
846.206	15211
846.342	15386
846.478	15260
846.614	14963
846.75	14842
846.886	15051
847.022	14986
847.158	14986
847.294	15066
847.429	15017
847.565	15039
847.701	15214
847.837	14754
847.972	14606
848.108	14792
848.244	14815
848.379	14689
848.515	14545
848.65	14568
848.786	14606
848.921	14484
849.057	14754
849.192	14701
849.328	14587
849.463	14655
849.598	14617
849.734	14583
849.869	14530
850.004	14347
850.14	14412
850.275	14343
850.41	14366
850.545	14332
850.68	14278
850.815	14381
850.95	14301
851.085	14484
851.22	14434
851.355	14404
851.49	14347
851.625	14339
851.76	14301
851.895	14210
852.03	14278
852.165	14294
852.299	14298
852.434	14476
852.569	14362
852.703	14362
852.838	14514
852.973	14450
853.107	14492
853.242	14309
853.376	14305
853.511	14111
853.645	14199
853.78	14389
853.914	14225
854.048	14123
854.183	14248
854.317	14248
854.451	14381
854.585	14267
854.72	14214
854.854	14305
854.988	14107
855.122	14172
855.256	14077
855.39	14153
855.524	14214
855.658	14248
855.792	14282
855.926	14225
856.06	14301
856.194	14294
856.327	14142
856.461	14168
856.595	14180
856.729	14244
856.862	14374
856.996	14191
857.13	14290
857.263	14256
857.397	14347
857.53	14214
857.664	14336
857.797	14317
857.931	14412
858.064	14305
858.197	14309
858.331	14218
858.464	14237
858.597	14111
858.731	14183
858.864	14210
858.997	14130
859.13	14218
859.263	14214
859.396	14248
859.529	14202
859.662	14157
859.795	14237
859.928	14305
860.061	14374
860.194	14328
860.327	14199
860.46	14237
860.592	14313
860.725	14431
860.858	14385
860.99	14317
861.123	14111
861.256	14077
861.388	14271
861.521	14868
861.653	14119
861.786	14107
861.918	13993
862.05	14084
862.183	14172
862.315	14164
862.447	14229
862.58	14107
862.712	13967
862.844	13909
862.976	14172
863.108	14153
863.24	14461
863.372	13959
863.504	14020
863.636	13986
863.768	14084
863.9	13967
864.032	13997
864.164	13925
864.296	14073
864.428	14115
864.559	14138
864.691	14210
864.823	13993
864.954	14020
865.086	14100
865.217	14008
865.349	13936
865.48	13928
865.612	13947
865.743	14164
865.875	13955
866.006	13894
866.137	14005
866.269	13902
866.4	14035
866.531	13898
866.662	13864
866.793	13982
866.924	13894
867.055	13989
867.186	14016
867.317	13982
867.448	13898
867.579	14016
867.71	13894
867.841	13852
867.972	13940
868.103	14008
868.233	14016
868.364	13928
868.495	14100
868.625	14180
868.756	14305
868.886	14153
869.017	14191
869.147	14313
869.278	14389
869.408	14332
869.539	14214
869.669	14366
869.799	14282
869.929	14438
870.06	14313
870.19	14625
870.32	14587
870.45	14549
870.58	14727
870.71	14701
870.84	14735
870.97	14621
871.1	14693
871.23	14804
871.36	14826
871.489	14746
871.619	14788
871.749	14754
871.879	14834
872.008	14944
872.138	14811
872.267	14785
872.397	14686
872.526	14697
872.656	14629
872.785	14735
872.915	14830
873.044	14994
873.173	14883
873.303	14887
873.432	14918
873.561	14925
873.69	14914
873.819	14956
873.948	14952
874.077	14811
874.206	14872
874.335	14933
874.464	15058
874.593	15192
874.722	15192
874.851	15252
874.979	15291
875.108	15249
875.237	15089
875.365	15112
875.494	15123
875.623	15268
875.751	15089
875.88	15211
876.008	15336
876.136	15431
876.265	15633
876.393	15835
876.521	15660
876.65	15751
876.778	15580
876.906	15530
877.034	15599
877.162	15660
877.29	15526
877.418	15705
877.546	15641
877.674	15667
877.802	15603
877.93	15614
878.058	15561
878.185	15496
878.313	15549
878.441	15663
878.568	15386
878.696	15557
878.824	15644
878.951	15656
879.079	15739
879.206	15911
879.333	15800
879.461	15705
879.588	15690
879.715	15816
879.842	15991
879.97	15739
880.097	15431
880.224	15405
880.351	15515
880.478	15462
880.605	15549
880.732	15435
880.859	15709
880.986	15481
881.112	15500
881.239	15351
881.366	15199
881.493	15176
881.619	15081
881.746	15180
881.872	15013
881.999	15024
882.125	15108
882.252	15195
882.378	15123
882.505	15275
882.631	15108
882.757	14948
882.883	15020
883.01	14921
883.136	14952
883.262	14883
883.388	14735
883.514	14967
883.64	14994
883.766	14906
883.892	14693
884.018	14769
884.143	14952
884.269	15028
884.395	14648
884.52	14621
884.646	14712
884.772	14655
884.897	14606
885.023	14583
885.148	14781
885.274	14773
885.399	14762
885.524	14610
885.65	14655
885.775	14678
885.9	14571
886.025	14861
886.15	14769
886.275	14564
886.4	14522
886.525	14575
886.65	14636
886.775	14659
886.9	14773
887.025	14937
887.149	14720
887.274	14568
887.399	14434
887.523	14446
887.648	14305
887.773	14442
887.897	14575
888.021	14667
888.146	14415
888.27	14568
888.395	14674
888.519	14545
888.643	14499
888.767	14537
888.891	14408
889.015	14362
889.139	14423
889.263	14362
889.387	14328
889.511	14571
889.635	14457
889.759	14267
889.883	14362
890.006	14396
890.13	14473
890.254	14290
890.377	14351
890.501	14161
890.624	14130
890.748	14210
890.871	14103
890.995	14039
891.118	13944
891.241	13963
891.364	14126
891.488	14176
891.611	14092
891.734	14027
891.857	14062
891.98	14020
892.103	14107
892.226	14069
892.349	14092
892.471	13887
892.594	14016
892.717	14123
892.839	14069
892.962	14043
893.085	14046
893.207	14100
893.33	13982
893.452	13932
893.575	14024
893.697	13917
893.819	14199
893.941	14240
894.064	14191
894.186	14039
894.308	13925
894.43	14138
894.552	14298
894.674	14206
894.796	14039
894.918	14077
895.04	14065
895.161	14225
895.283	14199
895.405	14187
895.526	14161
895.648	14130
895.769	14149
895.891	14210
896.012	14214
896.134	14191
896.255	14096
896.376	14134
896.498	14256
896.619	14298
896.74	14263
896.861	14263
896.982	14499
897.103	14678
897.224	14518
897.345	14511
897.466	14446
897.587	14423
897.708	14587
897.828	14579
897.949	14522
898.07	14332
898.19	14457
898.311	14549
898.431	14465
898.552	14457
898.672	14670
898.792	14659
898.913	14640
899.033	14499
899.153	14415
899.273	14377
899.393	14503
899.513	14480
899.633	14328
899.753	14507
899.873	14362
899.993	14507
900.113	14412
900.232	14530
900.352	14412
900.472	14305
900.591	14282
900.711	14427
900.83	14210
900.95	14446
901.069	14389
901.189	14199
901.308	14077
901.427	13993
901.546	13871
901.665	14119
901.784	13909
901.904	13795
902.023	13677
902.141	13594
902.26	13548
902.379	13552
902.498	13590
902.617	13552
902.735	13563
902.854	13537
902.973	13487
903.091	13202
903.21	13346
903.328	13316
903.446	13179
903.565	13152
903.683	13110
903.801	12993
903.919	13084
904.038	13080
904.156	12909
904.274	13008
904.392	12875
904.51	12905
904.627	12844
904.745	13012
904.863	13133
904.981	12802
905.098	12555
905.216	12620
905.334	12658
905.451	12601
905.569	12582
905.686	12627
905.803	12563
905.921	12445
906.038	12555
906.155	12490
906.272	12292
906.389	12350
906.506	12144
906.623	12228
906.74	12152
906.857	12114
906.974	12144
907.091	12323
907.208	12376
907.324	12273
907.441	12148
907.557	11996
907.674	11988
907.79	11882
907.907	11885
908.023	12003
908.139	11977
908.256	11939
908.372	11840
908.488	11805
908.604	11657
908.72	11695
908.836	11714
908.952	11726
909.068	11790
909.184	11760
909.3	11703
909.415	11809
909.531	11688
909.647	11573
909.762	11509
909.878	11493
909.993	11520
910.108	11364
910.224	11452
910.339	11486
910.454	11398
910.57	11356
910.685	11330
910.8	11627
910.915	11573
911.03	11341
911.145	11220
911.259	11254
911.374	11204
911.489	11147
911.604	11056
911.718	10976
911.833	10961
911.947	10843
912.062	10771
912.176	10915
912.291	11025
912.405	10904
912.519	11166
912.633	11098
912.748	10957
912.862	10999
912.976	10824
913.09	10721
913.204	10763
913.318	10824
913.431	10911
913.545	10877
913.659	10919
913.772	10809
913.886	10660
914	10668
914.113	10843
914.226	10828
914.34	10793
914.453	10672
914.566	10771
914.68	10672
914.793	10691
914.906	10462
915.019	10390
915.132	10363
915.245	10417
915.358	10497
915.47	10413
915.583	10417
915.696	10531
915.809	10531
915.921	10637
916.034	10413
916.146	10424
916.259	10402
916.371	10535
916.483	10447
916.595	10409
916.708	10375
916.82	10325
916.932	10382
917.044	10375
917.156	10337
917.268	10219
917.38	10272
917.491	10287
917.603	10303
917.715	10333
917.826	10428
917.938	10257
918.049	10112
918.161	10337
918.272	10402
918.384	10436
918.495	10303
918.606	10185
918.717	10051
918.828	10181
918.939	10169
919.05	10116
919.161	10181
919.272	9949
919.383	10090
919.494	10166
919.604	10299
919.715	10204
919.826	10112
919.936	10166
920.047	10211
920.157	10154
920.267	10360
920.378	10223
920.488	10166
920.598	10329
920.708	10489
920.818	10371
920.928	10367
921.038	10565
921.148	10516
921.258	10253
921.368	10154
921.477	10051
921.587	10036
921.697	9972
921.806	10097
921.916	9880
922.025	9720
922.134	9732
922.244	9762
922.353	9781
922.462	9663
922.571	9595
922.68	9504
922.789	9420
922.898	9424
923.007	9340
923.116	9500
923.224	9439
923.333	9523
923.442	9325
923.55	9306
923.659	9340
923.767	9408
923.876	9264
923.984	9348
924.092	9291
924.201	9348
924.309	9355
924.417	9317
924.525	9230
924.633	9264
924.741	10063
924.849	9146
924.956	9253
925.064	9173
925.172	9032
925.279	8994
925.387	9100
925.494	9131
925.602	9291
925.709	9154
925.816	9077
925.924	9116
926.031	9195
926.138	9081
926.245	9135
926.352	9005
926.459	9192
926.566	9226
926.673	9047
926.779	8941
926.886	8975
926.993	8815
927.099	8807
927.206	8815
927.312	8807
927.419	8834
927.525	8807
927.631	8960
927.737	8754
927.843	8651
927.95	8556
928.056	8731
928.162	8701
928.267	8773
928.373	9382
928.479	8819
928.585	8541
928.69	8754
928.796	8705
928.901	8632
929.007	8533
929.112	8659
929.218	8606
929.323	8530
929.428	8514
929.533	8602
929.638	8480
929.743	8514
929.848	8568
929.953	8465
930.058	8450
930.163	8290
930.267	8275
930.372	8446
930.477	8282
930.581	8434
930.685	8336
930.79	8111
930.894	8263
930.998	8164
931.103	8408
931.207	8039
931.311	7955
931.415	7841
931.519	7765
931.623	7731
