Data from test_V78500241_3271.txt Node
Date: Fri Mar 25 14:56:29 CST 2022
User: usil
Spectrometer: V785-0024
Trigger mode: 0
Integration Time (sec): 4.000000E-1
Scans to average: 1
Nonlinearity correction enabled: false
Boxcar width: 0
Storing dark spectrum: false
XAxis mode: Wavelengths
Number of Pixels in Spectrum: 1024
>>>>>Begin Spectral Data<<<<<
801.071	21895
801.214	21892
801.356	21667
801.499	21557
801.641	21405
801.783	21283
801.926	21393
802.068	21359
802.211	21150
802.353	21112
802.496	20921
802.638	20891
802.78	20849
802.923	20727
803.065	20594
803.208	20674
803.35	20613
803.492	20777
803.635	20758
803.777	20788
803.919	20655
804.061	21009
804.204	20625
804.346	20556
804.488	20541
804.63	20636
804.773	20495
804.915	20541
805.057	20754
805.199	20484
805.341	20549
805.483	20701
805.626	20651
805.768	20564
805.91	20663
806.052	20552
806.194	20457
806.336	20655
806.478	20480
806.62	20530
806.762	20655
806.904	20773
807.046	20956
807.188	20929
807.33	20842
807.472	20944
807.614	20765
807.756	20857
807.898	20731
808.04	20495
808.182	20609
808.324	20602
808.465	20598
808.607	20792
808.749	20994
808.891	21013
809.033	21176
809.174	20979
809.316	20918
809.458	21028
809.6	20842
809.741	20887
809.883	20994
810.025	21154
810.166	21127
810.308	20948
810.45	21032
810.591	20956
810.733	20906
810.875	20701
811.016	20659
811.158	20514
811.299	20731
811.441	20834
811.582	20800
811.724	20644
811.865	20583
812.007	20571
812.148	20609
812.29	20678
812.431	20773
812.573	20880
812.714	21123
812.855	21154
812.997	21233
813.138	21374
813.279	21291
813.421	21142
813.562	21096
813.703	20910
813.845	20792
813.986	20667
814.127	20374
814.268	20282
814.41	20271
814.551	20138
814.692	20309
814.833	20199
814.974	20187
815.115	20278
815.256	20130
815.397	19997
815.539	20161
815.68	19974
815.821	19898
815.962	19978
816.103	19989
816.244	19826
816.385	19628
816.526	19689
816.666	19594
816.807	19392
816.948	19324
817.089	19510
817.23	19327
817.371	19422
817.512	19339
817.653	19331
817.793	19183
817.934	19426
818.075	19274
818.216	19457
818.356	19312
818.497	19304
818.638	19065
818.778	19110
818.919	18905
819.06	19278
819.2	19221
819.341	19263
819.481	19304
819.622	19419
819.762	19590
819.903	19499
820.043	19460
820.184	19430
820.324	19365
820.465	19521
820.605	19403
820.746	19388
820.886	19282
821.026	19358
821.167	19377
821.307	19343
821.447	19244
821.588	19126
821.728	19107
821.868	18894
822.008	18833
822.149	18684
822.289	18776
822.429	18521
822.569	18540
822.709	18506
822.849	18289
822.99	18273
823.13	18330
823.27	18201
823.41	18194
823.55	18072
823.69	18083
823.83	18110
823.97	18095
824.11	17870
824.25	17874
824.389	17923
824.529	17942
824.669	17916
824.809	17866
824.949	17931
825.089	17950
825.228	17805
825.368	17634
825.508	17615
825.648	17657
825.787	17570
825.927	17687
826.067	17653
826.206	17604
826.346	17718
826.485	17638
826.625	17600
826.765	17783
826.904	17703
827.044	17444
827.183	17387
827.323	17269
827.462	17372
827.601	17345
827.741	17299
827.88	17334
828.02	17200
828.159	17292
828.298	17322
828.437	17493
828.577	17185
828.716	17463
828.855	17189
828.994	17056
829.134	17121
829.273	17022
829.412	16999
829.551	17124
829.69	17052
829.829	17113
829.968	17227
830.107	17197
830.246	17132
830.385	17014
830.524	16968
830.663	16869
830.802	16805
830.941	16805
831.08	16645
831.219	16767
831.357	16721
831.496	16904
831.635	16649
831.774	16599
831.913	16618
832.051	16440
832.19	16516
832.329	16481
832.467	16348
832.606	16386
832.744	16333
832.883	16455
833.022	16291
833.16	16333
833.299	16527
833.437	16424
833.576	16428
833.714	16409
833.852	16371
833.991	16451
834.129	16508
834.267	16474
834.406	16455
834.544	16546
834.682	16443
834.821	16382
834.959	16637
835.097	16390
835.235	16451
835.373	16447
835.511	16493
835.65	16363
835.788	16459
835.926	16303
836.064	16082
836.202	16234
836.34	16485
836.478	16462
836.615	16344
836.753	16405
836.891	16485
837.029	16363
837.167	16276
837.305	16310
837.443	16268
837.58	16322
837.718	16352
837.856	16352
837.993	16147
838.131	16150
838.269	16253
838.406	16173
838.544	16051
838.681	16025
838.819	15876
838.956	15823
839.094	15774
839.231	15770
839.369	15911
839.506	16124
839.643	16040
839.781	15755
839.918	15732
840.055	15880
840.193	15751
840.33	15778
840.467	15850
840.604	15926
840.742	16154
840.879	15648
841.016	15682
841.153	15747
841.29	15842
841.427	15827
841.564	15838
841.701	15800
841.838	15603
841.975	15633
842.112	15717
842.249	15572
842.385	15500
842.522	15667
842.659	15633
842.796	15515
842.933	15652
843.069	15492
843.206	15553
843.343	15728
843.479	15679
843.616	15561
843.752	15340
843.889	15321
844.025	15492
844.162	15317
844.298	15507
844.435	15405
844.571	15256
844.708	15443
844.844	15481
844.98	15530
845.117	15389
845.253	15279
845.389	15302
845.525	15313
845.661	15294
845.798	15283
845.934	15249
846.07	15077
846.206	15233
846.342	15184
846.478	15184
846.614	14925
846.75	14925
846.886	14918
847.022	15081
847.158	14933
847.294	14971
847.429	15062
847.565	14864
847.701	15066
847.837	14663
847.972	14693
848.108	14689
848.244	14644
848.379	14533
848.515	14560
848.65	14503
848.786	14556
848.921	14488
849.057	14583
849.192	14575
849.328	14629
849.463	14495
849.598	14598
849.734	14434
849.869	14370
850.004	14286
850.14	14324
850.275	14343
850.41	14202
850.545	14199
850.68	14233
850.815	14347
850.95	14290
851.085	14446
851.22	14358
851.355	14324
851.49	14164
851.625	14298
851.76	14267
851.895	14134
852.03	14107
852.165	14275
852.299	14355
852.434	14396
852.569	14320
852.703	14282
852.838	14400
852.973	14492
853.107	14404
853.242	14221
853.376	14202
853.511	14115
853.645	14088
853.78	14290
853.914	14221
854.048	14081
854.183	14149
854.317	14062
854.451	14328
854.585	14229
854.72	14153
854.854	14138
854.988	14035
855.122	14084
855.256	14138
855.39	14164
855.524	14263
855.658	14214
855.792	14206
855.926	14202
856.06	14183
856.194	14259
856.327	14199
856.461	14157
856.595	14081
856.729	14183
856.862	14252
856.996	14218
857.13	14183
857.263	14233
857.397	14400
857.53	14123
857.664	14202
857.797	14309
857.931	14286
858.064	14187
858.197	14278
858.331	14191
858.464	14115
858.597	14164
858.731	14199
858.864	14142
858.997	14180
859.13	14119
859.263	14263
859.396	14305
859.529	14130
859.662	14248
859.795	14130
859.928	14103
860.061	14248
860.194	14320
860.327	14199
860.46	14187
860.592	14317
860.725	14294
860.858	14286
860.99	14210
861.123	14035
861.256	14012
861.388	14130
861.521	14906
861.653	14008
861.786	14031
861.918	14103
862.05	14111
862.183	14191
862.315	14092
862.447	14199
862.58	14031
862.712	13932
862.844	13864
862.976	14050
863.108	14005
863.24	14263
863.372	13871
863.504	14035
863.636	13963
863.768	14016
863.9	13951
864.032	13871
864.164	13811
864.296	13982
864.428	14027
864.559	14016
864.691	14039
864.823	13932
864.954	13951
865.086	13955
865.217	13959
865.349	13784
865.48	13932
865.612	13944
865.743	14142
865.875	13944
866.006	13849
866.137	13909
866.269	13993
866.4	13906
866.531	13906
866.662	13921
866.793	13913
866.924	13849
867.055	13982
867.186	13856
867.317	13917
867.448	13849
867.579	13906
867.71	13921
867.841	13780
867.972	13974
868.103	13955
868.233	13898
868.364	13902
868.495	14031
868.625	14172
868.756	14180
868.886	14096
869.017	14119
869.147	14286
869.278	14256
869.408	14225
869.539	14176
869.669	14286
869.799	14218
869.929	14237
870.06	14275
870.19	14568
870.32	14495
870.45	14522
870.58	14602
870.71	14613
870.84	14640
870.97	14530
871.1	14541
871.23	14773
871.36	14758
871.489	14697
871.619	14716
871.749	14792
871.879	14819
872.008	14891
872.138	14781
872.267	14781
872.397	14689
872.526	14708
872.656	14568
872.785	14598
872.915	14769
873.044	14925
873.173	14804
873.303	14830
873.432	14838
873.561	14933
873.69	14891
873.819	14883
873.948	14891
874.077	14853
874.206	14788
874.335	14826
874.464	14944
874.593	15116
874.722	15146
874.851	15154
874.979	15173
875.108	15230
875.237	15089
875.365	15070
875.494	15100
875.623	15214
875.751	15214
875.88	15154
876.008	15306
876.136	15469
876.265	15606
876.393	15675
876.521	15614
876.65	15614
876.778	15572
876.906	15473
877.034	15504
877.162	15606
877.29	15454
877.418	15591
877.546	15553
877.674	15477
877.802	15485
877.93	15564
878.058	15530
878.185	15458
878.313	15591
878.441	15496
878.568	15412
878.696	15606
878.824	15515
878.951	15660
879.079	15709
879.206	15918
879.333	15865
879.461	15606
879.588	15686
879.715	15766
879.842	15956
879.97	15523
880.097	15462
880.224	15355
880.351	15355
880.478	15454
880.605	15329
880.732	15382
880.859	15644
880.986	15428
881.112	15389
881.239	15386
881.366	15264
881.493	15039
881.619	15093
881.746	15028
881.872	15047
881.999	14952
882.125	15131
882.252	15188
882.378	15047
882.505	15211
882.631	14899
882.757	14902
882.883	14910
883.01	14960
883.136	14800
883.262	14781
883.388	14785
883.514	14914
883.64	14895
883.766	14769
883.892	14651
884.018	14807
884.143	14918
884.269	14914
884.395	14678
884.52	14564
884.646	14667
884.772	14575
884.897	14476
885.023	14583
885.148	14712
885.274	14758
885.399	14739
885.524	14644
885.65	14610
885.775	14655
885.9	14560
886.025	14739
886.15	14587
886.275	14499
886.4	14549
886.525	14610
886.65	14545
886.775	14537
886.9	14693
887.025	14823
887.149	14537
887.274	14469
887.399	14446
887.523	14381
887.648	14366
887.773	14267
887.897	14514
888.021	14537
888.146	14389
888.27	14526
888.395	14518
888.519	14530
888.643	14503
888.767	14571
888.891	14434
889.015	14240
889.139	14358
889.263	14240
889.387	14396
889.511	14530
889.635	14351
889.759	14362
889.883	14263
890.006	14229
890.13	14404
890.254	14233
890.377	14199
890.501	14142
890.624	14058
890.748	14153
890.871	14031
890.995	13917
891.118	13959
891.241	14016
891.364	14062
891.488	14157
891.611	14020
891.734	13944
891.857	14092
891.98	13978
892.103	14005
892.226	14100
892.349	14081
892.471	13860
892.594	13841
892.717	14069
892.839	13928
892.962	14073
893.085	14046
893.207	13974
893.33	13928
893.452	13959
893.575	14050
893.697	14001
893.819	14100
893.941	14191
894.064	14119
894.186	13982
894.308	13947
894.43	14126
894.552	14225
894.674	14161
894.796	13993
894.918	13997
895.04	13989
895.161	14195
895.283	14138
895.405	14115
895.526	14096
895.648	14107
895.769	14138
895.891	14199
896.012	14214
896.134	14267
896.255	14229
896.376	14145
896.498	14183
896.619	14202
896.74	14199
896.861	14248
896.982	14495
897.103	14629
897.224	14412
897.345	14404
897.466	14404
897.587	14473
897.708	14545
897.828	14412
897.949	14362
898.07	14301
898.19	14450
898.311	14644
898.431	14408
898.552	14507
898.672	14579
898.792	14598
898.913	14587
899.033	14396
899.153	14362
899.273	14324
899.393	14355
899.513	14438
899.633	14317
899.753	14408
899.873	14320
899.993	14415
900.113	14370
900.232	14450
900.352	14313
900.472	14183
900.591	14233
900.711	14366
900.83	14237
900.95	14305
901.069	14328
901.189	14157
901.308	14039
901.427	13864
901.546	13765
901.665	13883
901.784	13898
901.904	13731
902.023	13704
902.141	13491
902.26	13445
902.379	13548
902.498	13506
902.617	13480
902.735	13476
902.854	13438
902.973	13270
903.091	13259
903.21	13198
903.328	13304
903.446	13190
903.565	13069
903.683	13057
903.801	12932
903.919	13084
904.038	13038
904.156	12943
904.274	12916
904.392	12905
904.51	12939
904.627	12867
904.745	12951
904.863	12848
904.981	12730
905.098	12521
905.216	12563
905.334	12597
905.451	12536
905.569	12578
905.686	12597
905.803	12604
905.921	12414
906.038	12433
906.155	12414
906.272	12247
906.389	12327
906.506	12182
906.623	12133
906.74	12125
906.857	12083
906.974	12038
907.091	12213
907.208	12311
907.324	12235
907.441	12022
907.557	11885
907.674	11882
907.79	11878
907.907	11897
908.023	11901
908.139	11935
908.256	11866
908.372	11847
908.488	11813
908.604	11649
908.72	11592
908.836	11745
908.952	11676
909.068	11646
909.184	11764
909.3	11627
909.415	11786
909.531	11627
909.647	11444
909.762	11516
909.878	11410
909.993	11520
910.108	11379
910.224	11368
910.339	11474
910.454	11402
910.57	11284
910.685	11277
910.8	11528
910.915	11421
911.03	11307
911.145	11132
911.259	11140
911.374	11086
911.489	11056
911.604	11022
911.718	10904
911.833	10972
911.947	10839
912.062	10809
912.176	10892
912.291	10843
912.405	10862
912.519	11109
912.633	11136
912.748	10984
912.862	10980
912.976	10744
913.09	10569
913.204	10759
913.318	10816
913.431	10908
913.545	10854
913.659	10904
913.772	10771
913.886	10626
914	10641
914.113	10710
914.226	10782
914.34	10729
914.453	10622
914.566	10672
914.68	10599
914.793	10630
914.906	10421
915.019	10352
915.132	10371
915.245	10379
915.358	10413
915.47	10436
915.583	10398
915.696	10424
915.809	10516
915.921	10588
916.034	10402
916.146	10352
916.259	10310
916.371	10409
916.483	10474
916.595	10310
916.708	10291
916.82	10306
916.932	10310
917.044	10314
917.156	10318
917.268	10230
917.38	10268
917.491	10200
917.603	10215
917.715	10333
917.826	10314
917.938	10303
918.049	10162
918.161	10253
918.272	10409
918.384	10379
918.495	10207
918.606	10093
918.717	10097
918.828	10071
918.939	10162
919.05	10090
919.161	10131
919.272	9937
919.383	9972
919.494	10169
919.604	10287
919.715	10105
919.826	10063
919.936	10147
920.047	10154
920.157	10158
920.267	10341
920.378	10196
920.488	10097
920.598	10322
920.708	10516
920.818	10287
920.928	10386
921.038	10519
921.148	10379
921.258	10207
921.368	10128
921.477	10071
921.587	9975
921.697	9873
921.806	10029
921.916	9846
922.025	9728
922.134	9663
922.244	9705
922.353	9724
922.462	9599
922.571	9618
922.68	9389
922.789	9378
922.898	9367
923.007	9321
923.116	9431
923.224	9408
923.333	9359
923.442	9310
923.55	9214
923.659	9332
923.767	9351
923.876	9165
923.984	9389
924.092	9336
924.201	9294
924.309	9313
924.417	9306
924.525	9157
924.633	9294
924.741	10177
924.849	9055
924.956	9161
925.064	9043
925.172	9005
925.279	9028
925.387	9138
925.494	9100
925.602	9260
925.709	9169
925.816	9020
925.924	9047
926.031	9108
926.138	9066
926.245	9093
926.352	8918
926.459	9161
926.566	9146
926.673	9009
926.779	8895
926.886	8933
926.993	8735
927.099	8758
927.206	8701
927.312	8735
927.419	8807
927.525	8766
927.631	8800
927.737	8583
927.843	8651
927.95	8606
928.056	8655
928.162	8621
928.267	8682
928.373	9241
928.479	8773
928.585	8552
928.69	8636
928.796	8678
928.901	8575
929.007	8473
929.112	8583
929.218	8499
929.323	8480
929.428	8492
929.533	8629
929.638	8362
929.743	8396
929.848	8530
929.953	8495
930.058	8320
930.163	8332
930.267	8233
930.372	8366
930.477	8256
930.581	8454
930.685	8404
930.79	8218
930.894	8233
930.998	8202
931.103	8320
931.207	8016
931.311	7963
931.415	7928
931.519	7666
931.623	7727
