Data from test_V78500241_3287.txt Node
Date: Fri Mar 25 14:56:36 CST 2022
User: usil
Spectrometer: V785-0024
Trigger mode: 0
Integration Time (sec): 4.000000E-1
Scans to average: 1
Nonlinearity correction enabled: false
Boxcar width: 0
Storing dark spectrum: false
XAxis mode: Wavelengths
Number of Pixels in Spectrum: 1024
>>>>>Begin Spectral Data<<<<<
801.071	22070
801.214	21876
801.356	21458
801.499	21481
801.641	21321
801.783	21351
801.926	21435
802.068	21359
802.211	21184
802.353	21180
802.496	20948
802.638	20876
802.78	20804
802.923	20682
803.065	20743
803.208	20526
803.35	20629
803.492	20842
803.635	20800
803.777	20640
803.919	20758
804.061	20982
804.204	20754
804.346	20568
804.488	20526
804.63	20617
804.773	20457
804.915	20670
805.057	20617
805.199	20522
805.341	20590
805.483	20697
805.626	20663
805.768	20480
805.91	20606
806.052	20689
806.194	20457
806.336	20758
806.478	20583
806.62	20560
806.762	20602
806.904	20693
807.046	20998
807.188	20781
807.33	20819
807.472	20899
807.614	20826
807.756	20895
807.898	20689
808.04	20613
808.182	20571
808.324	20590
808.465	20651
808.607	20804
808.749	20929
808.891	21017
809.033	21074
809.174	20891
809.316	20857
809.458	20845
809.6	20853
809.741	20971
809.883	21062
810.025	21013
810.166	21043
810.308	21077
810.45	20906
810.591	20891
810.733	20864
810.875	20674
811.016	20617
811.158	20514
811.299	20731
811.441	20750
811.582	20895
811.724	20701
811.865	20503
812.007	20667
812.148	20651
812.29	20743
812.431	20880
812.573	21036
812.714	20979
812.855	21245
812.997	21222
813.138	21405
813.279	21294
813.421	21062
813.562	21077
813.703	20941
813.845	20872
813.986	20571
814.127	20419
814.268	20168
814.41	20218
814.551	20180
814.692	20343
814.833	20168
814.974	20065
815.115	20259
815.256	20115
815.397	20043
815.539	20062
815.68	19940
815.821	19898
815.962	19921
816.103	19917
816.244	19788
816.385	19772
816.526	19620
816.666	19571
816.807	19377
816.948	19518
817.089	19445
817.23	19449
817.371	19354
817.512	19293
817.653	19236
817.793	19308
817.934	19320
818.075	19430
818.216	19392
818.356	19339
818.497	19114
818.638	19069
818.778	19038
818.919	19019
819.06	19122
819.2	19240
819.341	19156
819.481	19175
819.622	19407
819.762	19594
819.903	19499
820.043	19327
820.184	19350
820.324	19320
820.465	19373
820.605	19274
820.746	19289
820.886	19263
821.026	19426
821.167	19301
821.307	19308
821.447	19164
821.588	19187
821.728	19008
821.868	18825
822.008	18757
822.149	18726
822.289	18753
822.429	18422
822.569	18506
822.709	18494
822.849	18171
822.99	18289
823.13	18174
823.27	18258
823.41	18053
823.55	17946
823.69	18110
823.83	18019
823.97	18053
824.11	17855
824.25	17832
824.389	17828
824.529	17912
824.669	17760
824.809	17908
824.949	17714
825.089	17923
825.228	17798
825.368	17710
825.508	17505
825.648	17619
825.787	17623
825.927	17649
826.067	17452
826.206	17509
826.346	17710
826.485	17608
826.625	17604
826.765	17775
826.904	17707
827.044	17349
827.183	17265
827.323	17299
827.462	17261
827.601	17269
827.741	17254
827.88	17376
828.02	17155
828.159	17231
828.298	17311
828.437	17227
828.577	17303
828.716	17463
828.855	17216
828.994	17064
829.134	17052
829.273	17022
829.412	16968
829.551	16984
829.69	17071
829.829	17094
829.968	17083
830.107	17189
830.246	17113
830.385	17083
830.524	17094
830.663	16896
830.802	16801
830.941	16645
831.08	16599
831.219	16763
831.357	16706
831.496	16752
831.635	16721
831.774	16599
831.913	16607
832.051	16584
832.19	16440
832.329	16413
832.467	16402
832.606	16356
832.744	16314
832.883	16272
833.022	16394
833.16	16306
833.299	16382
833.437	16287
833.576	16367
833.714	16440
833.852	16390
833.991	16447
834.129	16398
834.267	16440
834.406	16375
834.544	16527
834.682	16428
834.821	16432
834.959	16546
835.097	16261
835.235	16577
835.373	16417
835.511	16440
835.65	16341
835.788	16344
835.926	16173
836.064	16025
836.202	16078
836.34	16344
836.478	16421
836.615	16299
836.753	16318
836.891	16344
837.029	16242
837.167	16333
837.305	16166
837.443	16150
837.58	16143
837.718	16310
837.856	16234
837.993	16169
838.131	16211
838.269	16105
838.406	16158
838.544	16086
838.681	15838
838.819	15823
838.956	15774
839.094	15762
839.231	15857
839.369	15907
839.506	16124
839.643	15949
839.781	15766
839.918	15648
840.055	15804
840.193	15781
840.33	15717
840.467	15835
840.604	15690
840.742	15979
840.879	15667
841.016	15663
841.153	15587
841.29	15831
841.427	15793
841.564	15762
841.701	15869
841.838	15831
841.975	15595
842.112	15713
842.249	15545
842.385	15526
842.522	15819
842.659	15545
842.796	15545
842.933	15553
843.069	15500
843.206	15485
843.343	15496
843.479	15587
843.616	15610
843.752	15306
843.889	15336
844.025	15424
844.162	15336
844.298	15306
844.435	15340
844.571	15302
844.708	15397
844.844	15405
844.98	15424
845.117	15454
845.253	15287
845.389	15298
845.525	15340
845.661	15188
845.798	15104
845.934	15104
846.07	15169
846.206	15180
846.342	15192
846.478	15104
846.614	14918
846.75	14880
846.886	14853
847.022	14906
847.158	14868
847.294	14906
847.429	14982
847.565	14910
847.701	15157
847.837	14659
847.972	14663
848.108	14712
848.244	14659
848.379	14564
848.515	14522
848.65	14469
848.786	14431
848.921	14484
849.057	14545
849.192	14571
849.328	14579
849.463	14457
849.598	14556
849.734	14408
849.869	14389
850.004	14393
850.14	14252
850.275	14301
850.41	14202
850.545	14252
850.68	14221
850.815	14233
850.95	14210
851.085	14476
851.22	14374
851.355	14301
851.49	14278
851.625	14225
851.76	14256
851.895	14221
852.03	14081
852.165	14191
852.299	14267
852.434	14256
852.569	14282
852.703	14301
852.838	14301
852.973	14362
853.107	14362
853.242	14252
853.376	14168
853.511	14062
853.645	14088
853.78	14240
853.914	14145
854.048	14172
854.183	14024
854.317	14142
854.451	14305
854.585	14115
854.72	14103
854.854	14180
854.988	14107
855.122	14126
855.256	13982
855.39	14149
855.524	14282
855.658	14180
855.792	14187
855.926	14176
856.06	14199
856.194	14202
856.327	14039
856.461	14096
856.595	14050
856.729	14157
856.862	14256
856.996	14218
857.13	14199
857.263	14202
857.397	14225
857.53	14183
857.664	14180
857.797	14240
857.931	14263
858.064	14142
858.197	14240
858.331	14149
858.464	14103
858.597	14043
858.731	14157
858.864	14172
858.997	14077
859.13	14111
859.263	14100
859.396	14240
859.529	14202
859.662	14043
859.795	14050
859.928	14180
860.061	14149
860.194	14339
860.327	14161
860.46	14123
860.592	14252
860.725	14343
860.858	14248
860.99	14035
861.123	14077
861.256	14092
861.388	14191
861.521	14960
861.653	14069
861.786	14027
861.918	13925
862.05	14126
862.183	14119
862.315	14069
862.447	14092
862.58	14077
862.712	13913
862.844	13852
862.976	13955
863.108	13947
863.24	14298
863.372	13849
863.504	13925
863.636	13887
863.768	13936
863.9	13909
864.032	13906
864.164	13845
864.296	13947
864.428	14008
864.559	14031
864.691	14012
864.823	13974
864.954	14016
865.086	13970
865.217	13967
865.349	13841
865.48	13883
865.612	13909
865.743	14008
865.875	13925
866.006	13902
866.137	13978
866.269	13868
866.4	13894
866.531	13822
866.662	13822
866.793	13860
866.924	13902
867.055	13944
867.186	13852
867.317	13753
867.448	13852
867.579	13849
867.71	13772
867.841	13906
867.972	13894
868.103	14024
868.233	13993
868.364	13940
868.495	14069
868.625	14161
868.756	14218
868.886	14100
869.017	14050
869.147	14339
869.278	14339
869.408	14142
869.539	14161
869.669	14294
869.799	14142
869.929	14324
870.06	14244
870.19	14507
870.32	14396
870.45	14518
870.58	14552
870.71	14674
870.84	14697
870.97	14583
871.1	14549
871.23	14743
871.36	14842
871.489	14735
871.619	14693
871.749	14743
871.879	14910
872.008	14746
872.138	14823
872.267	14754
872.397	14632
872.526	14541
872.656	14495
872.785	14579
872.915	14667
873.044	14861
873.173	14792
873.303	14845
873.432	14834
873.561	14975
873.69	14781
873.819	14819
873.948	14864
874.077	14792
874.206	14754
874.335	14899
874.464	14986
874.593	15093
874.722	14944
874.851	15192
874.979	15161
875.108	15256
875.237	15237
875.365	14971
875.494	15058
875.623	15154
875.751	15123
875.88	15100
876.008	15336
876.136	15382
876.265	15595
876.393	15720
876.521	15595
876.65	15500
876.778	15656
876.906	15477
877.034	15561
877.162	15584
877.29	15408
877.418	15530
877.546	15447
877.674	15610
877.802	15610
877.93	15549
878.058	15557
878.185	15416
878.313	15606
878.441	15633
878.568	15367
878.696	15420
878.824	15511
878.951	15580
879.079	15717
879.206	15797
879.333	15671
879.461	15595
879.588	15713
879.715	15778
879.842	15873
879.97	15545
880.097	15340
880.224	15298
880.351	15477
880.478	15370
880.605	15283
880.732	15378
880.859	15599
880.986	15325
881.112	15408
881.239	15283
881.366	15207
881.493	15036
881.619	15028
881.746	15077
881.872	15173
881.999	14921
882.125	14887
882.252	15100
882.378	15154
882.505	15142
882.631	15005
882.757	15028
882.883	14925
883.01	14952
883.136	14811
883.262	14693
883.388	14636
883.514	14830
883.64	14872
883.766	14834
883.892	14651
884.018	14720
884.143	14781
884.269	14963
884.395	14629
884.52	14598
884.646	14648
884.772	14522
884.897	14545
885.023	14473
885.148	14689
885.274	14716
885.399	14758
885.524	14537
885.65	14579
885.775	14541
885.9	14697
886.025	14739
886.15	14678
886.275	14629
886.4	14431
886.525	14632
886.65	14549
886.775	14465
886.9	14667
887.025	14746
887.149	14503
887.274	14427
887.399	14343
887.523	14339
887.648	14351
887.773	14282
887.897	14518
888.021	14400
888.146	14366
888.27	14507
888.395	14545
888.519	14488
888.643	14457
888.767	14476
888.891	14290
889.015	14237
889.139	14305
889.263	14301
889.387	14358
889.511	14473
889.635	14514
889.759	14267
889.883	14286
890.006	14343
890.13	14412
890.254	14191
890.377	14271
890.501	14149
890.624	14039
890.748	14103
890.871	14031
890.995	13963
891.118	13909
891.241	13955
891.364	13986
891.488	14111
891.611	13978
891.734	14039
891.857	13967
891.98	13974
892.103	13986
892.226	14016
892.349	13982
892.471	13750
892.594	13917
892.717	14134
892.839	13997
892.962	13913
893.085	14100
893.207	14035
893.33	13925
893.452	13917
893.575	14065
893.697	13989
893.819	14210
893.941	14183
894.064	14130
894.186	13944
894.308	13849
894.43	14046
894.552	14138
894.674	14073
894.796	13864
894.918	14008
895.04	13959
895.161	14145
895.283	14073
895.405	13997
895.526	14069
895.648	14084
895.769	14096
895.891	14237
896.012	14240
896.134	14180
896.255	14092
896.376	14035
896.498	14145
896.619	14229
896.74	14218
896.861	14256
896.982	14438
897.103	14587
897.224	14438
897.345	14374
897.466	14362
897.587	14415
897.708	14514
897.828	14568
897.949	14484
898.07	14294
898.19	14400
898.311	14507
898.431	14442
898.552	14473
898.672	14640
898.792	14644
898.913	14518
899.033	14400
899.153	14396
899.273	14248
899.393	14313
899.513	14317
899.633	14317
899.753	14377
899.873	14347
899.993	14450
900.113	14374
900.232	14393
900.352	14339
900.472	14263
900.591	14199
900.711	14191
900.83	14202
900.95	14347
901.069	14301
901.189	14161
901.308	13974
901.427	13811
901.546	13917
901.665	13940
901.784	13932
901.904	13799
902.023	13742
902.141	13472
902.26	13438
902.379	13563
902.498	13460
902.617	13434
902.735	13575
902.854	13403
902.973	13289
903.091	13225
903.21	13213
903.328	13190
903.446	13175
903.565	13065
903.683	13084
903.801	12985
903.919	13038
904.038	13004
904.156	12856
904.274	12913
904.392	12806
904.51	12776
904.627	12848
904.745	12901
904.863	12920
904.981	12658
905.098	12483
905.216	12559
905.334	12589
905.451	12604
905.569	12540
905.686	12525
905.803	12544
905.921	12369
906.038	12471
906.155	12437
906.272	12353
906.389	12296
906.506	12114
906.623	12155
906.74	12140
906.857	11973
906.974	12045
907.091	12213
907.208	12292
907.324	12235
907.441	12045
907.557	11977
907.674	11908
907.79	11851
907.907	11882
908.023	11874
908.139	11927
908.256	11908
908.372	11817
908.488	11790
908.604	11668
908.72	11608
908.836	11684
908.952	11653
909.068	11695
909.184	11779
909.3	11688
909.415	11638
909.531	11684
909.647	11455
909.762	11471
909.878	11356
909.993	11379
910.108	11376
910.224	11406
910.339	11467
910.454	11341
910.57	11334
910.685	11261
910.8	11501
910.915	11520
911.03	11322
911.145	11151
911.259	11143
911.374	11189
911.489	11079
911.604	11003
911.718	10927
911.833	10869
911.947	10843
912.062	10683
912.176	10828
912.291	10919
912.405	10915
912.519	11220
912.633	11170
912.748	11025
912.862	10873
912.976	10771
913.09	10687
913.204	10820
913.318	10839
913.431	10904
913.545	10908
913.659	10942
913.772	10862
913.886	10694
914	10615
914.113	10729
914.226	10889
914.34	10706
914.453	10584
914.566	10843
914.68	10649
914.793	10622
914.906	10424
915.019	10360
915.132	10318
915.245	10443
915.358	10451
915.47	10459
915.583	10451
915.696	10447
915.809	10573
915.921	10615
916.034	10436
916.146	10379
916.259	10432
916.371	10478
916.483	10390
916.595	10371
916.708	10417
916.82	10276
916.932	10386
917.044	10344
917.156	10333
917.268	10166
917.38	10272
917.491	10287
917.603	10253
917.715	10363
917.826	10363
917.938	10280
918.049	10131
918.161	10249
918.272	10390
918.384	10462
918.495	10306
918.606	10101
918.717	10006
918.828	10162
918.939	10181
919.05	10059
919.161	10135
919.272	9945
919.383	9991
919.494	10169
919.604	10333
919.715	10169
919.826	10063
919.936	10215
920.047	10234
920.157	10227
920.267	10352
920.378	10242
920.488	10150
920.598	10348
920.708	10584
920.818	10402
920.928	10356
921.038	10531
921.148	10504
921.258	10249
921.368	10135
921.477	10135
921.587	10002
921.697	9895
921.806	10051
921.916	9934
922.025	9766
922.134	9682
922.244	9720
922.353	9755
922.462	9648
922.571	9557
922.68	9481
922.789	9367
922.898	9439
923.007	9351
923.116	9367
923.224	9424
923.333	9374
923.442	9306
923.55	9283
923.659	9363
923.767	9393
923.876	9272
923.984	9348
924.092	9256
924.201	9272
924.309	9332
924.417	9249
924.525	9230
924.633	9188
924.741	10158
924.849	9097
924.956	9218
925.064	9077
925.172	8963
925.279	9032
925.387	9123
925.494	9077
925.602	9275
925.709	9218
925.816	9032
925.924	9108
926.031	9157
926.138	9081
926.245	9150
926.352	9070
926.459	9192
926.566	9157
926.673	9070
926.779	8971
926.886	8918
926.993	8872
927.099	8796
927.206	8769
927.312	8724
927.419	8804
927.525	8766
927.631	8815
927.737	8750
927.843	8697
927.95	8575
928.056	8705
928.162	8743
928.267	8716
928.373	9245
928.479	8811
928.585	8499
928.69	8655
928.796	8727
928.901	8625
929.007	8484
929.112	8571
929.218	8617
929.323	8594
929.428	8507
929.533	8678
929.638	8518
929.743	8533
929.848	8552
929.953	8476
930.058	8457
930.163	8275
930.267	8328
930.372	8415
930.477	8271
930.581	8541
930.685	8454
930.79	8237
930.894	8244
930.998	8233
931.103	8374
931.207	7993
931.311	8001
931.415	7997
931.519	7693
931.623	7788
