Data from test_V78500241_858.txt Node
Date: Fri Mar 25 14:39:41 CST 2022
User: usil
Spectrometer: V785-0024
Trigger mode: 0
Integration Time (sec): 4.000000E-1
Scans to average: 1
Nonlinearity correction enabled: false
Boxcar width: 0
Storing dark spectrum: false
XAxis mode: Wavelengths
Number of Pixels in Spectrum: 1024
>>>>>Begin Spectral Data<<<<<
801.071	25738
801.214	25670
801.356	25324
801.499	25327
801.641	25221
801.783	25069
801.926	25228
802.068	25091
802.211	24882
802.353	24791
802.496	24791
802.638	24532
802.78	24616
802.923	24540
803.065	24528
803.208	24467
803.35	24505
803.492	24631
803.635	24696
803.777	24616
803.919	24578
804.061	24848
804.204	24722
804.346	24646
804.488	24505
804.63	24627
804.773	24350
804.915	24532
805.057	24840
805.199	24627
805.341	24878
805.483	24932
805.626	24928
805.768	24772
805.91	24878
806.052	24878
806.194	24981
806.336	25247
806.478	25148
806.62	25206
806.762	25392
806.904	25674
807.046	26065
807.188	26126
807.33	26438
807.472	26552
807.614	27074
807.756	27268
807.898	27842
808.04	28489
808.182	29455
808.324	30673
808.465	32012
808.607	33671
808.749	35071
808.891	35866
809.033	35916
809.174	35109
809.316	33720
809.458	32172
809.6	30604
809.741	29379
809.883	28459
810.025	27827
810.166	27252
810.308	26899
810.45	26571
810.591	26282
810.733	25936
810.875	25738
811.016	25529
811.158	25415
811.299	25571
811.441	25495
811.582	25293
811.724	25232
811.865	24992
812.007	24966
812.148	25012
812.29	25240
812.431	25194
812.573	25407
812.714	25369
812.855	25487
812.997	25365
813.138	25632
813.279	25529
813.421	25533
813.562	25301
813.703	25266
813.845	24962
813.986	24681
814.127	24494
814.268	24384
814.41	24308
814.551	24338
814.692	24327
814.833	24213
814.974	24186
815.115	24285
815.256	24182
815.397	24148
815.539	24098
815.68	23996
815.821	23824
815.962	23927
816.103	23836
816.244	23798
816.385	23737
816.526	23634
816.666	23455
816.807	23421
816.948	23452
817.089	23364
817.23	23318
817.371	23318
817.512	23307
817.653	23227
817.793	23223
817.934	23303
818.075	23322
818.216	23277
818.356	23193
818.497	23113
818.638	22873
818.778	23010
818.919	22946
819.06	22991
819.2	22938
819.341	23189
819.481	23162
819.622	23170
819.762	23410
819.903	23356
820.043	23208
820.184	23174
820.324	23166
820.465	23288
820.605	23185
820.746	23185
820.886	23003
821.026	23086
821.167	23064
821.307	23193
821.447	22972
821.588	22987
821.728	22729
821.868	22603
822.008	22504
822.149	22394
822.289	22462
822.429	22211
822.569	22154
822.709	22036
822.849	21892
822.99	21857
823.13	21861
823.27	21857
823.41	21778
823.55	21614
823.69	21663
823.83	21660
823.97	21534
824.11	21515
824.25	21450
824.389	21511
824.529	21568
824.669	21412
824.809	21595
824.949	21553
825.089	21561
825.228	21519
825.368	21241
825.508	21211
825.648	21332
825.787	21264
825.927	21287
826.067	21294
826.206	21207
826.346	21275
826.485	21203
826.625	21317
826.765	21389
826.904	21184
827.044	21005
827.183	20998
827.323	20918
827.462	21028
827.601	20937
827.741	20765
827.88	20937
828.02	20739
828.159	20948
828.298	20902
828.437	21020
828.577	20773
828.716	21001
828.855	20796
828.994	20720
829.134	20617
829.273	20632
829.412	20640
829.551	20594
829.69	20606
829.829	20716
829.968	20613
830.107	20678
830.246	20533
830.385	20526
830.524	20522
830.663	20442
830.802	20263
830.941	20244
831.08	20206
831.219	20202
831.357	20237
831.496	20488
831.635	20206
831.774	20065
831.913	20081
832.051	20039
832.19	20077
832.329	20031
832.467	19871
832.606	19928
832.744	19970
832.883	20122
833.022	19947
833.16	20084
833.299	20088
833.437	20096
833.576	20191
833.714	20263
833.852	20404
833.991	20423
834.129	20560
834.267	20434
834.406	20374
834.544	20385
834.682	20393
834.821	20286
834.959	20412
835.097	20142
835.235	20202
835.373	20126
835.511	20073
835.65	19913
835.788	19871
835.926	19769
836.064	19685
836.202	19601
836.34	19811
836.478	19883
836.615	19788
836.753	19746
836.891	19807
837.029	19757
837.167	19658
837.305	19594
837.443	19624
837.58	19556
837.718	19605
837.856	19658
837.993	19468
838.131	19434
838.269	19403
838.406	19499
838.544	19365
838.681	19213
838.819	19240
838.956	19095
839.094	18993
839.231	19050
839.369	19247
839.506	19365
839.643	19289
839.781	19114
839.918	19050
840.055	19114
840.193	19008
840.33	18977
840.467	18947
840.604	19053
840.742	19179
840.879	18768
841.016	18875
841.153	18981
841.29	19133
841.427	18913
841.564	19031
841.701	19008
841.838	18924
841.975	18840
842.112	18890
842.249	18772
842.385	18620
842.522	18905
842.659	18776
842.796	18840
842.933	18821
843.069	18798
843.206	18719
843.343	18897
843.479	18783
843.616	18787
843.752	18658
843.889	18646
844.025	18730
844.162	18601
844.298	18856
844.435	18817
844.571	18916
844.708	19057
844.844	19400
844.98	19457
845.117	19822
845.253	20115
845.389	20777
845.525	22265
845.661	24829
845.798	27857
845.934	30517
846.07	31537
846.206	31240
846.342	29223
846.478	25970
846.614	23060
846.75	21089
846.886	20202
847.022	19419
847.158	18985
847.294	18833
847.429	18559
847.565	18479
847.701	18536
847.837	18038
847.972	17984
848.108	18087
848.244	18011
848.379	17764
848.515	17741
848.65	17684
848.786	17722
848.921	17760
849.057	17821
849.192	17752
849.328	17687
849.463	17627
849.598	17543
849.734	17547
849.869	17566
850.004	17425
850.14	17368
850.275	17387
850.41	17322
850.545	17341
850.68	17379
850.815	17417
850.95	17326
851.085	17596
851.22	17547
851.355	17463
851.49	17417
851.625	17296
851.76	17368
851.895	17383
852.03	17337
852.165	17356
852.299	17376
852.434	17505
852.569	17398
852.703	17315
852.838	17429
852.973	17516
853.107	17509
853.242	17467
853.376	17478
853.511	17265
853.645	17258
853.78	17493
853.914	17292
854.048	17292
854.183	17376
854.317	17463
854.451	17493
854.585	17402
854.72	17471
854.854	17353
854.988	17356
855.122	17368
855.256	17124
855.39	17265
855.524	17318
855.658	17334
855.792	17349
855.926	17292
856.06	17288
856.194	17341
856.327	17200
856.461	17155
856.595	17334
856.729	17185
856.862	17216
856.996	17181
857.13	17292
857.263	17242
857.397	17322
857.53	17166
857.664	17292
857.797	17174
857.931	17410
858.064	17162
858.197	17258
858.331	17208
858.464	17067
858.597	17025
858.731	17189
858.864	17151
858.997	17098
859.13	17128
859.263	17212
859.396	17223
859.529	17102
859.662	17143
859.795	17056
859.928	17197
860.061	17208
860.194	17307
860.327	17162
860.46	17067
860.592	17216
860.725	17277
860.858	17200
860.99	17124
861.123	17086
861.256	17090
861.388	17010
861.521	17805
861.653	17064
861.786	16934
861.918	16991
862.05	17060
862.183	17124
862.315	17090
862.447	17204
862.58	17048
862.712	16881
862.844	16755
862.976	17075
863.108	16885
863.24	17220
863.372	16634
863.504	16740
863.636	16797
863.768	16835
863.9	16694
864.032	16721
864.164	16729
864.296	16869
864.428	16930
864.559	16843
864.691	16858
864.823	16854
864.954	16866
865.086	16839
865.217	16774
865.349	16725
865.48	16763
865.612	16862
865.743	16927
865.875	16793
866.006	16820
866.137	16862
866.269	16778
866.4	16831
866.531	16607
866.662	16618
866.793	16744
866.924	16672
867.055	16763
867.186	16885
867.317	16763
867.448	16653
867.579	16736
867.71	16569
867.841	16698
867.972	16752
868.103	16740
868.233	16683
868.364	16744
868.495	16759
868.625	17022
868.756	17128
868.886	16911
869.017	16908
869.147	17056
869.278	17147
869.408	17033
869.539	17094
869.669	17067
869.799	16965
869.929	17143
870.06	17178
870.19	17349
870.32	17296
870.45	17280
870.58	17368
870.71	17524
870.84	17520
870.97	17376
871.1	17322
871.23	17608
871.36	17653
871.489	17608
871.619	17512
871.749	17619
871.879	17687
872.008	17726
872.138	17699
872.267	17672
872.397	17429
872.526	17486
872.656	17543
872.785	17558
872.915	17707
873.044	17771
873.173	17691
873.303	17756
873.432	17840
873.561	17874
873.69	17904
873.819	17779
873.948	17984
874.077	17866
874.206	17813
874.335	17950
874.464	18049
874.593	18125
874.722	18019
874.851	18281
874.979	18190
875.108	18228
875.237	18235
875.365	18197
875.494	18273
875.623	18361
875.751	18232
875.88	18342
876.008	18566
876.136	18540
876.265	18783
876.393	18905
876.521	18821
876.65	18829
876.778	18894
876.906	18711
877.034	18878
877.162	18913
877.29	18856
877.418	19019
877.546	19038
877.674	19110
877.802	19244
877.93	19247
878.058	19247
878.185	19285
878.313	19457
878.441	19605
878.568	19685
878.696	20058
878.824	20419
878.951	20902
879.079	21766
879.206	22831
879.333	23748
879.461	24369
879.588	24996
879.715	24962
879.842	24833
879.97	23665
880.097	22622
880.224	21838
880.351	21173
880.478	20815
880.605	20613
880.732	20434
880.859	20396
880.986	20244
881.112	20187
881.239	20005
881.366	19913
881.493	19807
881.619	19761
881.746	19837
881.872	19772
881.999	19849
882.125	19662
882.252	19917
882.378	19837
882.505	19982
882.631	19795
882.757	19693
882.883	19746
883.01	19643
883.136	19704
883.262	19491
883.388	19476
883.514	19628
883.64	19575
883.766	19525
883.892	19438
884.018	19411
884.143	19540
884.269	19693
884.395	19403
884.52	19312
884.646	19426
884.772	19289
884.897	19194
885.023	19472
885.148	19400
885.274	19491
885.399	19316
885.524	19187
885.65	19194
885.775	19202
885.9	19012
886.025	19137
886.15	19027
886.275	18878
886.4	18760
886.525	18719
886.65	18559
886.775	18681
886.9	18753
887.025	18719
887.149	18391
887.274	18289
887.399	18178
887.523	18182
887.648	18083
887.773	17961
887.897	18289
888.021	18087
888.146	17954
888.27	18072
888.395	18098
888.519	18038
888.643	17946
888.767	17870
888.891	17840
889.015	17665
889.139	17840
889.263	17653
889.387	17672
889.511	17935
889.635	17794
889.759	17501
889.883	17528
890.006	17634
890.13	17707
890.254	17425
890.377	17539
890.501	17261
890.624	17254
890.748	17383
890.871	17132
890.995	17025
891.118	17113
891.241	17086
891.364	17265
891.488	17117
891.611	17033
891.734	16968
891.857	17086
891.98	17010
892.103	17185
892.226	17212
892.349	16991
892.471	16759
892.594	16889
892.717	16938
892.839	16892
892.962	16968
893.085	16896
893.207	16839
893.33	16702
893.452	16774
893.575	16862
893.697	16767
893.819	16930
893.941	17014
894.064	17018
894.186	16778
894.308	16729
894.43	16866
894.552	16972
894.674	16942
894.796	16725
894.918	16649
895.04	16744
895.161	16839
895.283	16672
895.405	16672
895.526	16805
895.648	16752
895.769	16805
895.891	16847
896.012	16793
896.134	16828
896.255	16820
896.376	16675
896.498	16790
896.619	16858
896.74	16759
896.861	16771
896.982	17151
897.103	17162
897.224	16892
897.345	16927
897.466	16927
897.587	16987
897.708	17151
897.828	16938
897.949	16938
898.07	16915
898.19	16930
898.311	17121
898.431	16999
898.552	17033
898.672	17090
898.792	17060
898.913	16949
899.033	16892
899.153	16828
899.273	16824
899.393	16908
899.513	16816
899.633	16752
899.753	16843
899.873	16755
899.993	16873
900.113	16831
900.232	16793
900.352	16801
900.472	16713
900.591	16687
900.711	16649
900.83	16797
900.95	16691
901.069	16854
901.189	16721
901.308	16333
901.427	16249
901.546	16341
901.665	16303
901.784	16360
901.904	16143
902.023	16082
902.141	15926
902.26	15793
902.379	15846
902.498	15861
902.617	15732
902.735	15907
902.854	15747
902.973	15736
903.091	15469
903.21	15435
903.328	15557
903.446	15382
903.565	15264
903.683	15260
903.801	15207
903.919	15195
904.038	15169
904.156	15013
904.274	15154
904.392	15017
904.51	15058
904.627	15043
904.745	15005
904.863	15081
904.981	14830
905.098	14735
905.216	14670
905.334	14708
905.451	14610
905.569	14773
905.686	14781
905.803	14735
905.921	14419
906.038	14571
906.155	14499
906.272	14415
906.389	14450
906.506	14317
906.623	14180
906.74	14180
906.857	14138
906.974	14119
907.091	14259
907.208	14294
907.324	14252
907.441	14077
907.557	13978
907.674	13947
907.79	13902
907.907	13940
908.023	13989
908.139	13879
908.256	13902
908.372	13761
908.488	13868
908.604	13696
908.72	13647
908.836	13719
908.952	13613
909.068	13689
909.184	13769
909.3	13662
909.415	13769
909.531	13616
909.647	13506
909.762	13434
909.878	13419
909.993	13411
910.108	13388
910.224	13308
910.339	13430
910.454	13381
910.57	13209
910.685	13107
910.8	13419
910.915	13407
911.03	13259
911.145	12981
911.259	13046
911.374	13072
911.489	13046
911.604	12951
911.718	12696
911.833	12825
911.947	12673
912.062	12639
912.176	12795
912.291	12821
912.405	12722
912.519	12859
912.633	12958
912.748	12776
912.862	12806
912.976	12677
913.09	12513
913.204	12620
913.318	12627
913.431	12749
913.545	12681
913.659	12764
913.772	12654
913.886	12509
914	12448
914.113	12570
914.226	12612
914.34	12623
914.453	12407
914.566	12570
914.68	12437
914.793	12460
914.906	12239
915.019	12224
915.132	12129
915.245	12304
915.358	12239
915.47	12228
915.583	12251
915.696	12235
915.809	12262
915.921	12346
916.034	12232
916.146	12247
916.259	12083
916.371	12289
916.483	12175
916.595	12083
916.708	12110
916.82	12106
916.932	12190
917.044	12106
917.156	11996
917.268	11920
917.38	12038
917.491	11935
917.603	11965
917.715	12041
917.826	12030
917.938	11923
918.049	11847
918.161	11901
918.272	12114
918.384	12083
918.495	11927
918.606	11889
918.717	11726
918.828	11779
918.939	11923
919.05	11665
919.161	11779
919.272	11646
919.383	11779
919.494	11950
919.604	12095
919.715	11710
919.826	11722
919.936	11752
920.047	11863
920.157	11824
920.267	11901
920.378	11767
920.488	11779
920.598	11927
920.708	12114
920.818	11885
920.928	11916
921.038	12148
921.148	12034
921.258	11771
921.368	11741
921.477	11661
921.587	11638
921.697	11398
921.806	11642
921.916	11516
922.025	11273
922.134	11220
922.244	11193
922.353	11227
922.462	11189
922.571	11109
922.68	11022
922.789	10942
922.898	10919
923.007	10869
923.116	10892
923.224	10854
923.333	10946
923.442	10843
923.55	10793
923.659	10790
923.767	10854
923.876	10744
923.984	10824
924.092	10672
924.201	10771
924.309	10786
924.417	10767
924.525	10641
924.633	10641
924.741	11532
924.849	10489
924.956	10637
925.064	10462
925.172	10436
925.279	10489
925.387	10508
925.494	10466
925.602	10580
925.709	10504
925.816	10413
925.924	10481
926.031	10481
926.138	10489
926.245	10519
926.352	10436
926.459	10489
926.566	10481
926.673	10451
926.779	10379
926.886	10322
926.993	10181
927.099	10188
927.206	10074
927.312	10048
927.419	10143
927.525	10173
927.631	10215
927.737	9968
927.843	10029
927.95	9884
928.056	9937
928.162	10010
928.267	10063
928.373	10664
928.479	10097
928.585	9857
928.69	9994
928.796	10128
928.901	9918
929.007	9804
929.112	9911
929.218	9869
929.323	9789
929.428	9800
929.533	9960
929.638	9663
929.743	9808
929.848	9804
929.953	9781
930.058	9724
930.163	9633
930.267	9633
930.372	9720
930.477	9542
930.581	9743
930.685	9591
930.79	9412
930.894	9538
930.998	9496
931.103	9545
931.207	9249
931.311	9218
931.415	9154
931.519	8921
931.623	9028
