Data from test_V78500241_1548.txt Node
Date: Fri Mar 25 14:44:29 CST 2022
User: usil
Spectrometer: V785-0024
Trigger mode: 0
Integration Time (sec): 4.000000E-1
Scans to average: 1
Nonlinearity correction enabled: false
Boxcar width: 0
Storing dark spectrum: false
XAxis mode: Wavelengths
Number of Pixels in Spectrum: 1024
>>>>>Begin Spectral Data<<<<<
801.071	22379
801.214	22367
801.356	22055
801.499	21964
801.641	21736
801.783	21713
801.926	21793
802.068	21663
802.211	21709
802.353	21557
802.496	21412
802.638	21218
802.78	21214
802.923	21199
803.065	21024
803.208	21116
803.35	21127
803.492	21222
803.635	21272
803.777	21085
803.919	21100
804.061	21538
804.204	21131
804.346	21024
804.488	21055
804.63	21062
804.773	21024
804.915	21020
805.057	21081
805.199	21017
805.341	21043
805.483	21211
805.626	21211
805.768	20963
805.91	21066
806.052	21173
806.194	20982
806.336	21161
806.478	21089
806.62	21123
806.762	21104
806.904	21119
807.046	21477
807.188	21416
807.33	21485
807.472	21447
807.614	21279
807.756	21389
807.898	21294
808.04	20979
808.182	21157
808.324	21268
808.465	21256
808.607	21431
808.749	21633
808.891	21694
809.033	21667
809.174	21641
809.316	21557
809.458	21447
809.6	21454
809.741	21724
809.883	21568
810.025	21637
810.166	21717
810.308	21553
810.45	21641
810.591	21587
810.733	21306
810.875	21302
811.016	21108
811.158	21146
811.299	21310
811.441	21469
811.582	21397
811.724	21272
811.865	21081
812.007	21150
812.148	21195
812.29	21329
812.431	21424
812.573	21416
812.714	21701
812.855	21789
812.997	21857
813.138	21956
813.279	21717
813.421	21728
813.562	21633
813.703	21534
813.845	21359
813.986	21154
814.127	20986
814.268	20902
814.41	20838
814.551	20708
814.692	20861
814.833	20826
814.974	20823
815.115	20762
815.256	20613
815.397	20621
815.539	20678
815.68	20511
815.821	20514
815.962	20450
816.103	20564
816.244	20309
816.385	20423
816.526	20347
816.666	20096
816.807	20073
816.948	19932
817.089	19890
817.23	20012
817.371	20008
817.512	19974
817.653	19830
817.793	19860
817.934	19894
818.075	19959
818.216	19841
818.356	19887
818.497	19738
818.638	19655
818.778	19529
818.919	19571
819.06	19537
819.2	19723
819.341	19696
819.481	19909
819.622	19997
819.762	20180
819.903	20111
820.043	19970
820.184	19894
820.324	19913
820.465	19932
820.605	19795
820.746	19898
820.886	19811
821.026	19902
821.167	19883
821.307	19974
821.447	19776
821.588	19689
821.728	19590
821.868	19377
822.008	19426
822.149	19225
822.289	19202
822.429	19023
822.569	18924
822.709	18958
822.849	18741
822.99	18753
823.13	18772
823.27	18688
823.41	18502
823.55	18498
823.69	18589
823.83	18597
823.97	18448
824.11	18319
824.25	18441
824.389	18338
824.529	18479
824.669	18372
824.809	18441
824.949	18433
825.089	18475
825.228	18357
825.368	18247
825.508	18205
825.648	18201
825.787	18194
825.927	18152
826.067	18083
826.206	18133
826.346	18129
826.485	18083
826.625	18155
826.765	18129
826.904	18258
827.044	17954
827.183	17927
827.323	17817
827.462	17935
827.601	17824
827.741	17859
827.88	17878
828.02	17646
828.159	17813
828.298	17878
828.437	17893
828.577	17680
828.716	17954
828.855	17805
828.994	17573
829.134	17532
829.273	17577
829.412	17520
829.551	17497
829.69	17577
829.829	17703
829.968	17627
830.107	17611
830.246	17509
830.385	17433
830.524	17448
830.663	17406
830.802	17337
830.941	17159
831.08	17086
831.219	17242
831.357	17277
831.496	17379
831.635	17212
831.774	17159
831.913	17109
832.051	16987
832.19	16968
832.329	17102
832.467	16839
832.606	16850
832.744	16839
832.883	16854
833.022	16801
833.16	16896
833.299	16927
833.437	16896
833.576	16839
833.714	16961
833.852	16881
833.991	16927
834.129	16930
834.267	16995
834.406	16873
834.544	17029
834.682	16904
834.821	16858
834.959	17102
835.097	16911
835.235	16987
835.373	17014
835.511	16946
835.65	16820
835.788	16801
835.926	16710
836.064	16664
836.202	16603
836.34	16805
836.478	16968
836.615	16771
836.753	16866
836.891	16869
837.029	16778
837.167	16721
837.305	16683
837.443	16710
837.58	16542
837.718	16649
837.856	16630
837.993	16649
838.131	16645
838.269	16584
838.406	16542
838.544	16592
838.681	16363
838.819	16318
838.956	16234
839.094	16162
839.231	16204
839.369	16402
839.506	16527
839.643	16367
839.781	16200
839.918	16131
840.055	16223
840.193	16204
840.33	16196
840.467	16158
840.604	16166
840.742	16508
840.879	16036
841.016	16097
841.153	16082
841.29	16360
841.427	16154
841.564	16238
841.701	16242
841.838	16090
841.975	16097
842.112	16124
842.249	16067
842.385	15846
842.522	16173
842.659	16051
842.796	15937
842.933	15911
843.069	15827
843.206	15922
843.343	16002
843.479	16013
843.616	16017
843.752	15766
843.889	15774
844.025	15895
844.162	15698
844.298	15842
844.435	15759
844.571	15751
844.708	15778
844.844	15907
844.98	15895
845.117	15808
845.253	15667
845.389	15591
845.525	15831
845.661	15709
845.798	15675
845.934	15762
846.07	15698
846.206	15842
846.342	15892
846.478	15694
846.614	15370
846.75	15393
846.886	15348
847.022	15401
847.158	15321
847.294	15306
847.429	15348
847.565	15222
847.701	15622
847.837	15135
847.972	14979
848.108	15207
848.244	15131
848.379	14906
848.515	14876
848.65	14902
848.786	14941
848.921	14979
849.057	15074
849.192	15062
849.328	14986
849.463	14963
849.598	14895
849.734	14948
849.869	14925
850.004	14670
850.14	14769
850.275	14716
850.41	14518
850.545	14651
850.68	14579
850.815	14670
850.95	14629
851.085	14830
851.22	14804
851.355	14796
851.49	14693
851.625	14674
851.76	14777
851.895	14636
852.03	14594
852.165	14632
852.299	14765
852.434	14708
852.569	14644
852.703	14804
852.838	14834
852.973	14762
853.107	14743
853.242	14716
853.376	14625
853.511	14446
853.645	14488
853.78	14606
853.914	14636
854.048	14499
854.183	14442
854.317	14533
854.451	14735
854.585	14530
854.72	14507
854.854	14587
854.988	14450
855.122	14476
855.256	14457
855.39	14480
855.524	14568
855.658	14526
855.792	14621
855.926	14594
856.06	14606
856.194	14663
856.327	14552
856.461	14503
856.595	14457
856.729	14473
856.862	14686
856.996	14632
857.13	14556
857.263	14674
857.397	14693
857.53	14549
857.664	14670
857.797	14640
857.931	14659
858.064	14495
858.197	14701
858.331	14594
858.464	14442
858.597	14320
858.731	14541
858.864	14461
858.997	14450
859.13	14549
859.263	14610
859.396	14545
859.529	14594
859.662	14461
859.795	14495
859.928	14613
860.061	14705
860.194	14765
860.327	14590
860.46	14560
860.592	14746
860.725	14708
860.858	14674
860.99	14541
861.123	14393
861.256	14450
861.388	14556
861.521	15256
861.653	14442
861.786	14385
861.918	14465
862.05	14438
862.183	14598
862.315	14590
862.447	14579
862.58	14484
862.712	14370
862.844	14332
862.976	14431
863.108	14343
863.24	14792
863.372	14221
863.504	14370
863.636	14355
863.768	14385
863.9	14252
864.032	14332
864.164	14320
864.296	14317
864.428	14442
864.559	14484
864.691	14309
864.823	14438
864.954	14385
865.086	14431
865.217	14366
865.349	14286
865.48	14294
865.612	14374
865.743	14431
865.875	14290
866.006	14244
866.137	14202
866.269	14313
866.4	14294
866.531	14202
866.662	14275
866.793	14324
866.924	14225
867.055	14336
867.186	14233
867.317	14256
867.448	14161
867.579	14286
867.71	14123
867.841	14145
867.972	14351
868.103	14282
868.233	14389
868.364	14263
868.495	14351
868.625	14514
868.756	14541
868.886	14530
869.017	14465
869.147	14667
869.278	14773
869.408	14518
869.539	14537
869.669	14617
869.799	14602
869.929	14720
870.06	14724
870.19	14853
870.32	14861
870.45	14941
870.58	14933
870.71	14979
870.84	15043
870.97	14880
871.1	14956
871.23	15146
871.36	15161
871.489	14986
871.619	15062
871.749	15150
871.879	15176
872.008	15184
872.138	15154
872.267	15112
872.397	15028
872.526	14868
872.656	15017
872.785	14971
872.915	15135
873.044	15199
873.173	15192
873.303	15241
873.432	15230
873.561	15291
873.69	15252
873.819	15226
873.948	15252
874.077	15218
874.206	15157
874.335	15302
874.464	15287
874.593	15496
874.722	15447
874.851	15473
874.979	15526
875.108	15507
875.237	15420
875.365	15374
875.494	15466
875.623	15572
875.751	15458
875.88	15584
876.008	15614
876.136	15652
876.265	15857
876.393	15964
876.521	16044
876.65	16021
876.778	15945
876.906	15800
877.034	15850
877.162	15911
877.29	15842
877.418	15937
877.546	15968
877.674	16036
877.802	15850
877.93	15975
878.058	15778
878.185	15789
878.313	15785
878.441	15941
878.568	15892
878.696	15781
878.824	15937
878.951	16002
879.079	16284
879.206	16413
879.333	16196
879.461	16021
879.588	16078
879.715	16162
879.842	16196
879.97	16006
880.097	15846
880.224	15759
880.351	15827
880.478	15739
880.605	15876
880.732	15800
880.859	16044
880.986	15774
881.112	15846
881.239	15660
881.366	15485
881.493	15443
881.619	15481
881.746	15496
881.872	15447
881.999	15374
882.125	15397
882.252	15504
882.378	15424
882.505	15606
882.631	15374
882.757	15192
882.883	15294
883.01	15321
883.136	15211
883.262	15097
883.388	15157
883.514	15272
883.64	15329
883.766	15119
883.892	15138
884.018	15081
884.143	15203
884.269	15382
884.395	15005
884.52	15051
884.646	14982
884.772	14963
884.897	14933
885.023	14952
885.148	15005
885.274	15100
885.399	15043
885.524	15058
885.65	14994
885.775	14868
885.9	14857
886.025	15062
886.15	14925
886.275	14944
886.4	14914
886.525	14891
886.65	14994
886.775	14963
886.9	15036
887.025	15157
887.149	14880
887.274	14758
887.399	14804
887.523	14735
887.648	14731
887.773	14686
887.897	14842
888.021	14804
888.146	14716
888.27	14883
888.395	14921
888.519	14735
888.643	14785
888.767	14899
888.891	14773
889.015	14625
889.139	14693
889.263	14678
889.387	14739
889.511	14765
889.635	14788
889.759	14617
889.883	14598
890.006	14682
890.13	14781
890.254	14602
890.377	14606
890.501	14454
890.624	14381
890.748	14427
890.871	14339
890.995	14248
891.118	14256
891.241	14339
891.364	14294
891.488	14396
891.611	14271
891.734	14282
891.857	14434
891.98	14317
892.103	14427
892.226	14252
892.349	14210
892.471	14206
892.594	14332
892.717	14389
892.839	14298
892.962	14202
893.085	14362
893.207	14187
893.33	14199
893.452	14278
893.575	14366
893.697	14267
893.819	14336
893.941	14632
894.064	14423
894.186	14347
894.308	14195
894.43	14465
894.552	14514
894.674	14400
894.796	14248
894.918	14332
895.04	14412
895.161	14423
895.283	14404
895.405	14313
895.526	14370
895.648	14465
895.769	14396
895.891	14495
896.012	14590
896.134	14518
896.255	14446
896.376	14427
896.498	14511
896.619	14579
896.74	14499
896.861	14503
896.982	14769
897.103	14929
897.224	14796
897.345	14716
897.466	14785
897.587	14765
897.708	14887
897.828	14727
897.949	14682
898.07	14667
898.19	14632
898.311	14914
898.431	14735
898.552	14857
898.672	14933
898.792	14895
898.913	14838
899.033	14857
899.153	14678
899.273	14571
899.393	14689
899.513	14739
899.633	14651
899.753	14678
899.873	14670
899.993	14754
900.113	14705
900.232	14670
900.352	14667
900.472	14629
900.591	14560
900.711	14541
900.83	14545
900.95	14720
901.069	14663
901.189	14473
901.308	14256
901.427	14157
901.546	14278
901.665	14210
901.784	14294
901.904	14115
902.023	14123
902.141	13852
902.26	13856
902.379	13894
902.498	13750
902.617	13826
902.735	13860
902.854	13803
902.973	13655
903.091	13499
903.21	13491
903.328	13533
903.446	13415
903.565	13438
903.683	13320
903.801	13358
903.919	13388
904.038	13358
904.156	13251
904.274	13320
904.392	13084
904.51	13091
904.627	13149
904.745	13236
904.863	13324
904.981	12875
905.098	12837
905.216	12848
905.334	12837
905.451	12825
905.569	12734
905.686	12973
905.803	12787
905.921	12642
906.038	12787
906.155	12650
906.272	12597
906.389	12623
906.506	12525
906.623	12513
906.74	12441
906.857	12285
906.974	12414
907.091	12445
907.208	12509
907.324	12494
907.441	12365
907.557	12235
907.674	12152
907.79	12110
907.907	12182
908.023	12148
908.139	12258
908.256	12045
908.372	12110
908.488	12091
908.604	11973
908.72	11939
908.836	11901
908.952	11988
909.068	11847
909.184	12136
909.3	11958
909.415	12007
909.531	11973
909.647	11714
909.762	11703
909.878	11665
909.993	11699
910.108	11691
910.224	11691
910.339	11695
910.454	11634
910.57	11558
910.685	11493
910.8	11794
910.915	11653
911.03	11596
911.145	11452
911.259	11383
911.374	11501
911.489	11368
911.604	11337
911.718	11223
911.833	11143
911.947	11071
912.062	10892
912.176	11117
912.291	11208
912.405	11166
912.519	11322
912.633	11379
912.748	11178
912.862	11166
912.976	11037
913.09	10980
913.204	10911
913.318	11018
913.431	11041
913.545	11075
913.659	11151
913.772	10904
913.886	10904
914	10866
914.113	10934
914.226	11045
914.34	10999
914.453	10831
914.566	10972
914.68	10828
914.793	10778
914.906	10706
915.019	10622
915.132	10626
915.245	10615
915.358	10725
915.47	10668
915.583	10599
915.696	10710
915.809	10748
915.921	10721
916.034	10653
916.146	10645
916.259	10584
916.371	10714
916.483	10607
916.595	10527
916.708	10493
916.82	10641
916.932	10516
917.044	10546
917.156	10527
917.268	10485
917.38	10466
917.491	10447
917.603	10481
917.715	10565
917.826	10516
917.938	10455
918.049	10356
918.161	10455
918.272	10634
918.384	10649
918.495	10455
918.606	10367
918.717	10287
918.828	10333
918.939	10386
919.05	10207
919.161	10329
919.272	10128
919.383	10211
919.494	10409
919.604	10577
919.715	10344
919.826	10223
919.936	10268
920.047	10375
920.157	10417
920.267	10508
920.378	10367
920.488	10371
920.598	10615
920.708	10721
920.818	10538
920.928	10561
921.038	10668
921.148	10649
921.258	10405
921.368	10356
921.477	10166
921.587	10188
921.697	10169
921.806	10272
921.916	10139
922.025	10021
922.134	9884
922.244	9953
922.353	9998
922.462	9827
922.571	9755
922.68	9610
922.789	9656
922.898	9679
923.007	9561
923.116	9701
923.224	9576
923.333	9614
923.442	9462
923.55	9462
923.659	9485
923.767	9622
923.876	9447
923.984	9561
924.092	9408
924.201	9469
924.309	9485
924.417	9462
924.525	9382
924.633	9389
924.741	10299
924.849	9192
924.956	9378
925.064	9241
925.172	9135
925.279	9188
925.387	9298
925.494	9302
925.602	9310
925.709	9397
925.816	9249
925.924	9249
926.031	9241
926.138	9256
926.245	9306
926.352	9249
926.459	9321
926.566	9370
926.673	9222
926.779	9154
926.886	9157
926.993	9036
927.099	9009
927.206	8944
927.312	8914
927.419	9077
927.525	8929
927.631	9043
927.737	8845
927.843	8864
927.95	8769
928.056	8853
928.162	8914
928.267	8906
928.373	9431
928.479	9009
928.585	8758
928.69	8849
928.796	8838
928.901	8697
929.007	8545
929.112	8811
929.218	8739
929.323	8720
929.428	8670
929.533	8872
929.638	8648
929.743	8632
929.848	8701
929.953	8727
930.058	8613
930.163	8415
930.267	8446
930.372	8606
930.477	8412
930.581	8644
930.685	8442
930.79	8370
930.894	8423
930.998	8419
931.103	8507
931.207	8191
931.311	8115
931.415	8092
931.519	7830
931.623	7932
