Data from test_V78500241_3624.txt Node
Date: Fri Mar 25 14:58:57 CST 2022
User: usil
Spectrometer: V785-0024
Trigger mode: 0
Integration Time (sec): 4.000000E-1
Scans to average: 1
Nonlinearity correction enabled: false
Boxcar width: 0
Storing dark spectrum: false
XAxis mode: Wavelengths
Number of Pixels in Spectrum: 1024
>>>>>Begin Spectral Data<<<<<
801.071	21964
801.214	21800
801.356	21576
801.499	21485
801.641	21302
801.783	21275
801.926	21222
802.068	21211
802.211	21108
802.353	21108
802.496	20765
802.638	20845
802.78	20788
802.923	20693
803.065	20617
803.208	20511
803.35	20541
803.492	20796
803.635	20636
803.777	20514
803.919	20617
804.061	21024
804.204	20648
804.346	20530
804.488	20545
804.63	20613
804.773	20484
804.915	20381
805.057	20480
805.199	20457
805.341	20484
805.483	20625
805.626	20617
805.768	20518
805.91	20530
806.052	20568
806.194	20328
806.336	20556
806.478	20518
806.62	20431
806.762	20560
806.904	20606
807.046	20861
807.188	20811
807.33	20845
807.472	20826
807.614	20701
807.756	20823
807.898	20621
808.04	20587
808.182	20533
808.324	20488
808.465	20629
808.607	20788
808.749	20834
808.891	20986
809.033	21062
809.174	20941
809.316	20746
809.458	20800
809.6	20788
809.741	20769
809.883	20944
810.025	20971
810.166	21024
810.308	21039
810.45	20804
810.591	20792
810.733	20735
810.875	20625
811.016	20438
811.158	20606
811.299	20674
811.441	20834
811.582	20746
811.724	20537
811.865	20621
812.007	20457
812.148	20583
812.29	20632
812.431	20773
812.573	20902
812.714	20986
812.855	21058
812.997	21142
813.138	21329
813.279	21135
813.421	21150
813.562	21085
813.703	20838
813.845	20773
813.986	20461
814.127	20252
814.268	20252
814.41	20180
814.551	20248
814.692	20157
814.833	20039
814.974	20122
815.115	20043
815.256	19955
815.397	20035
815.539	20100
815.68	19761
815.821	19818
815.962	19890
816.103	19894
816.244	19791
816.385	19556
816.526	19533
816.666	19506
816.807	19213
816.948	19304
817.089	19335
817.23	19304
817.371	19289
817.512	19232
817.653	19156
817.793	19209
817.934	19327
818.075	19339
818.216	19202
818.356	19164
818.497	19122
818.638	18901
818.778	18947
818.919	19008
819.06	18977
819.2	19126
819.341	19038
819.481	19217
819.622	19278
819.762	19556
819.903	19339
820.043	19457
820.184	19297
820.324	19213
820.465	19392
820.605	19293
820.746	19202
820.886	19091
821.026	19259
821.167	19232
821.307	19285
821.447	19247
821.588	19046
821.728	19004
821.868	18772
822.008	18608
822.149	18711
822.289	18658
822.429	18448
822.569	18452
822.709	18410
822.849	18178
822.99	18102
823.13	18102
823.27	18102
823.41	18045
823.55	17813
823.69	18015
823.83	17988
823.97	17908
824.11	17722
824.25	17687
824.389	17707
824.529	17779
824.669	17760
824.809	17878
824.949	17653
825.089	17824
825.228	17691
825.368	17490
825.508	17615
825.648	17642
825.787	17611
825.927	17535
826.067	17512
826.206	17421
826.346	17547
826.485	17596
826.625	17429
826.765	17554
826.904	17562
827.044	17341
827.183	17235
827.323	17212
827.462	17254
827.601	17193
827.741	17189
827.88	17318
828.02	17045
828.159	17231
828.298	17124
828.437	17220
828.577	17239
828.716	17360
828.855	17166
828.994	16980
829.134	17117
829.273	17037
829.412	16873
829.551	16854
829.69	16942
829.829	17079
829.968	17098
830.107	16995
830.246	16915
830.385	16915
830.524	16980
830.663	16774
830.802	16660
830.941	16653
831.08	16683
831.219	16702
831.357	16440
831.496	16687
831.635	16569
831.774	16516
831.913	16440
832.051	16363
832.19	16398
832.329	16459
832.467	16295
832.606	16253
832.744	16284
832.883	16162
833.022	16261
833.16	16306
833.299	16348
833.437	16352
833.576	16371
833.714	16284
833.852	16367
833.991	16402
834.129	16382
834.267	16478
834.406	16272
834.544	16379
834.682	16284
834.821	16322
834.959	16516
835.097	16394
835.235	16428
835.373	16409
835.511	16386
835.65	16173
835.788	16211
835.926	16173
836.064	16074
836.202	16147
836.34	16192
836.478	16295
836.615	16162
836.753	16333
836.891	16379
837.029	16310
837.167	16257
837.305	16147
837.443	16166
837.58	16124
837.718	16135
837.856	16147
837.993	16082
838.131	16093
838.269	16006
838.406	16040
838.544	16032
838.681	15793
838.819	15842
838.956	15614
839.094	15679
839.231	15679
839.369	15892
839.506	16055
839.643	15979
839.781	15743
839.918	15667
840.055	15663
840.193	15629
840.33	15709
840.467	15660
840.604	15679
840.742	15956
840.879	15622
841.016	15568
841.153	15637
841.29	15701
841.427	15812
841.564	15682
841.701	15831
841.838	15606
841.975	15618
842.112	15698
842.249	15675
842.385	15488
842.522	15675
842.659	15496
842.796	15401
842.933	15469
843.069	15568
843.206	15412
843.343	15610
843.479	15549
843.616	15507
843.752	15306
843.889	15264
844.025	15416
844.162	15195
844.298	15382
844.435	15279
844.571	15359
844.708	15424
844.844	15374
844.98	15397
845.117	15310
845.253	15222
845.389	15058
845.525	15176
845.661	15157
845.798	15138
845.934	15116
846.07	15097
846.206	15161
846.342	15169
846.478	14979
846.614	14937
846.75	14777
846.886	14800
847.022	14982
847.158	14887
847.294	14921
847.429	14872
847.565	14842
847.701	15032
847.837	14708
847.972	14556
848.108	14693
848.244	14682
848.379	14495
848.515	14499
848.65	14404
848.786	14571
848.921	14602
849.057	14556
849.192	14518
849.328	14575
849.463	14454
849.598	14476
849.734	14454
849.869	14393
850.004	14282
850.14	14248
850.275	14259
850.41	14229
850.545	14206
850.68	14233
850.815	14275
850.95	14278
851.085	14393
851.22	14343
851.355	14267
851.49	14172
851.625	14339
851.76	14278
851.895	14199
852.03	14218
852.165	14202
852.299	14229
852.434	14294
852.569	14221
852.703	14294
852.838	14309
852.973	14393
853.107	14381
853.242	14244
853.376	14142
853.511	14062
853.645	14107
853.78	14210
853.914	14206
854.048	14100
854.183	14054
854.317	14142
854.451	14286
854.585	14103
854.72	14065
854.854	14164
854.988	13986
855.122	14119
855.256	14039
855.39	14153
855.524	14263
855.658	14164
855.792	14172
855.926	14161
856.06	14161
856.194	14187
856.327	14092
856.461	14096
856.595	14058
856.729	14062
856.862	14248
856.996	14134
857.13	14191
857.263	14202
857.397	14225
857.53	14084
857.664	14187
857.797	14187
857.931	14244
858.064	14214
858.197	14195
858.331	14195
858.464	14103
858.597	13970
858.731	14126
858.864	14088
858.997	14134
859.13	14092
859.263	14187
859.396	14130
859.529	14172
859.662	14039
859.795	14123
859.928	14134
860.061	14263
860.194	14377
860.327	14164
860.46	14248
860.592	14237
860.725	14290
860.858	14351
860.99	14111
861.123	14073
861.256	14008
861.388	14142
861.521	15051
861.653	14024
861.786	13940
861.918	14039
862.05	14062
862.183	14103
862.315	14126
862.447	14111
862.58	14050
862.712	13788
862.844	13860
862.976	14039
863.108	13986
863.24	14237
863.372	13761
863.504	13887
863.636	13967
863.768	13936
863.9	13993
864.032	13822
864.164	13864
864.296	14050
864.428	13997
864.559	14077
864.691	13989
864.823	13955
864.954	14001
865.086	14001
865.217	13940
865.349	13826
865.48	13898
865.612	14008
865.743	14092
865.875	13871
866.006	13986
866.137	13982
866.269	13830
866.4	13936
866.531	13860
866.662	13909
866.793	13822
866.924	13875
867.055	13955
867.186	13944
867.317	13860
867.448	13864
867.579	13856
867.71	13746
867.841	13852
867.972	13837
868.103	13883
868.233	13856
868.364	13921
868.495	13917
868.625	14100
868.756	14199
868.886	14027
869.017	14012
869.147	14263
869.278	14229
869.408	14202
869.539	14145
869.669	14362
869.799	14187
869.929	14336
870.06	14305
870.19	14438
870.32	14374
870.45	14556
870.58	14507
870.71	14625
870.84	14617
870.97	14602
871.1	14488
871.23	14686
871.36	14754
871.489	14625
871.619	14853
871.749	14769
871.879	14781
872.008	14777
872.138	14758
872.267	14727
872.397	14598
872.526	14587
872.656	14640
872.785	14579
872.915	14842
873.044	14785
873.173	14857
873.303	14804
873.432	14781
873.561	14826
873.69	14765
873.819	14868
873.948	14891
874.077	14895
874.206	14750
874.335	14811
874.464	15013
874.593	15097
874.722	15081
874.851	15184
874.979	15154
875.108	15135
875.237	15112
875.365	14986
875.494	15127
875.623	15195
875.751	15051
875.88	15161
876.008	15321
876.136	15256
876.265	15466
876.393	15709
876.521	15614
876.65	15584
876.778	15686
876.906	15568
877.034	15504
877.162	15412
877.29	15462
877.418	15549
877.546	15507
877.674	15488
877.802	15587
877.93	15553
878.058	15458
878.185	15466
878.313	15549
878.441	15599
878.568	15458
878.696	15435
878.824	15515
878.951	15606
879.079	15694
879.206	15869
879.333	15705
879.461	15648
879.588	15618
879.715	15751
879.842	15857
879.97	15580
880.097	15310
880.224	15447
880.351	15424
880.478	15355
880.605	15306
880.732	15408
880.859	15751
880.986	15332
881.112	15420
881.239	15138
881.366	15188
881.493	15032
881.619	15047
881.746	15089
881.872	15051
881.999	15017
882.125	15017
882.252	15066
882.378	15112
882.505	15142
882.631	15009
882.757	14861
882.883	14929
883.01	14891
883.136	14773
883.262	14655
883.388	14781
883.514	14861
883.64	14849
883.766	14785
883.892	14644
884.018	14720
884.143	14914
884.269	14929
884.395	14613
884.52	14518
884.646	14598
884.772	14541
884.897	14488
885.023	14651
885.148	14667
885.274	14735
885.399	14693
885.524	14602
885.65	14583
885.775	14663
885.9	14617
886.025	14739
886.15	14674
886.275	14556
886.4	14473
886.525	14446
886.65	14473
886.775	14461
886.9	14598
887.025	14838
887.149	14629
887.274	14374
887.399	14358
887.523	14393
887.648	14404
887.773	14240
887.897	14583
888.021	14457
888.146	14332
888.27	14568
888.395	14560
888.519	14473
888.643	14480
888.767	14438
888.891	14446
889.015	14275
889.139	14309
889.263	14252
889.387	14317
889.511	14377
889.635	14419
889.759	14244
889.883	14145
890.006	14317
890.13	14313
890.254	14183
890.377	14237
890.501	14119
890.624	14069
890.748	14119
890.871	13997
890.995	13849
891.118	13906
891.241	13963
891.364	14012
891.488	14043
891.611	13947
891.734	14073
891.857	14031
891.98	13986
892.103	14039
892.226	13970
892.349	13860
892.471	13864
892.594	13849
892.717	14008
892.839	13986
892.962	14031
893.085	14005
893.207	13970
893.33	13826
893.452	13932
893.575	14065
893.697	14012
893.819	14142
893.941	14176
894.064	14065
894.186	13925
894.308	13814
894.43	14115
894.552	14142
894.674	14111
894.796	14001
894.918	14005
895.04	14065
895.161	14081
895.283	14035
895.405	14077
895.526	14077
895.648	14187
895.769	14130
895.891	14172
896.012	14111
896.134	14252
896.255	14142
896.376	14130
896.498	14153
896.619	14138
896.74	14134
896.861	14263
896.982	14461
897.103	14594
897.224	14476
897.345	14328
897.466	14343
897.587	14488
897.708	14541
897.828	14476
897.949	14362
898.07	14206
898.19	14336
898.311	14533
898.431	14454
898.552	14484
898.672	14552
898.792	14651
898.913	14552
899.033	14488
899.153	14419
899.273	14168
899.393	14290
899.513	14385
899.633	14442
899.753	14328
899.873	14240
899.993	14374
900.113	14366
900.232	14317
900.352	14286
900.472	14263
900.591	14199
900.711	14164
900.83	14183
900.95	14324
901.069	14347
901.189	14142
901.308	13967
901.427	13845
901.546	13871
901.665	13822
901.784	13993
901.904	13719
902.023	13719
902.141	13460
902.26	13468
902.379	13552
902.498	13502
902.617	13430
902.735	13544
902.854	13384
902.973	13419
903.091	13110
903.21	13114
903.328	13236
903.446	13084
903.565	13046
903.683	13038
903.801	13019
903.919	12989
904.038	12973
904.156	12821
904.274	12920
904.392	12852
904.51	12890
904.627	12798
904.745	12890
904.863	12909
904.981	12658
905.098	12536
905.216	12528
905.334	12585
905.451	12525
905.569	12506
905.686	12525
905.803	12563
905.921	12403
906.038	12483
906.155	12308
906.272	12258
906.389	12350
906.506	12171
906.623	12091
906.74	12110
906.857	12038
906.974	12053
907.091	12152
907.208	12311
907.324	12232
907.441	12049
907.557	11889
907.674	11923
907.79	11798
907.907	11901
908.023	11931
908.139	11946
908.256	11832
908.372	11775
908.488	11786
908.604	11646
908.72	11676
908.836	11699
908.952	11611
909.068	11691
909.184	11779
909.3	11623
909.415	11752
909.531	11604
909.647	11467
909.762	11448
909.878	11356
909.993	11387
910.108	11379
910.224	11292
910.339	11410
910.454	11303
910.57	11269
910.685	11220
910.8	11505
910.915	11429
911.03	11315
911.145	11155
911.259	11003
911.374	11098
911.489	10930
911.604	11006
911.718	10862
911.833	10873
911.947	10752
912.062	10580
912.176	10835
912.291	10831
912.405	10820
912.519	11052
912.633	11113
912.748	10991
912.862	10923
912.976	10782
913.09	10710
913.204	10759
913.318	10828
913.431	10824
913.545	10824
913.659	10866
913.772	10691
913.886	10569
914	10558
914.113	10645
914.226	10778
914.34	10831
914.453	10558
914.566	10736
914.68	10558
914.793	10573
914.906	10424
915.019	10386
915.132	10287
915.245	10379
915.358	10440
915.47	10421
915.583	10428
915.696	10455
915.809	10554
915.921	10531
916.034	10440
916.146	10314
916.259	10333
916.371	10382
916.483	10379
916.595	10375
916.708	10386
916.82	10314
916.932	10322
917.044	10337
917.156	10329
917.268	10249
917.38	10314
917.491	10204
917.603	10291
917.715	10329
917.826	10367
917.938	10276
918.049	10185
918.161	10276
918.272	10432
918.384	10363
918.495	10272
918.606	10158
918.717	10055
918.828	10105
918.939	10211
919.05	10097
919.161	10185
919.272	9991
919.383	10021
919.494	10249
919.604	10432
919.715	10162
919.826	10082
919.936	10071
920.047	10207
920.157	10116
920.267	10500
920.378	10246
920.488	10112
920.598	10356
920.708	10527
920.818	10322
920.928	10367
921.038	10538
921.148	10565
921.258	10299
921.368	10120
921.477	10032
921.587	9968
921.697	9888
921.806	10029
921.916	9953
922.025	9778
922.134	9759
922.244	9690
922.353	9759
922.462	9652
922.571	9492
922.68	9393
922.789	9428
922.898	9363
923.007	9317
923.116	9526
923.224	9370
923.333	9408
923.442	9306
923.55	9241
923.659	9268
923.767	9367
923.876	9184
923.984	9344
924.092	9226
924.201	9260
924.309	9325
924.417	9310
924.525	9203
924.633	9260
924.741	9998
924.849	9131
924.956	9173
925.064	9127
925.172	8990
925.279	9051
925.387	9024
925.494	9055
925.602	9142
925.709	9161
925.816	9009
925.924	9047
926.031	9176
926.138	9112
926.245	9176
926.352	9017
926.459	9169
926.566	9146
926.673	8982
926.779	8918
926.886	8944
926.993	8792
927.099	8746
927.206	8769
927.312	8746
927.419	8921
927.525	8743
927.631	8804
927.737	8724
927.843	8689
927.95	8556
928.056	8648
928.162	8648
928.267	8712
928.373	9237
928.479	8849
928.585	8488
928.69	8670
928.796	8659
928.901	8560
929.007	8499
929.112	8526
929.218	8602
929.323	8522
929.428	8442
929.533	8678
929.638	8423
929.743	8511
929.848	8530
929.953	8484
930.058	8377
930.163	8267
930.267	8309
930.372	8415
930.477	8237
930.581	8461
930.685	8343
930.79	8202
930.894	8180
930.998	8244
931.103	8339
931.207	7974
931.311	7940
931.415	7883
931.519	7811
931.623	7708
