Data from test_V78500241_3656.txt Node
Date: Fri Mar 25 14:59:10 CST 2022
User: usil
Spectrometer: V785-0024
Trigger mode: 0
Integration Time (sec): 4.000000E-1
Scans to average: 1
Nonlinearity correction enabled: false
Boxcar width: 0
Storing dark spectrum: false
XAxis mode: Wavelengths
Number of Pixels in Spectrum: 1024
>>>>>Begin Spectral Data<<<<<
801.071	21960
801.214	21823
801.356	21428
801.499	21507
801.641	21275
801.783	21412
801.926	21329
802.068	21188
802.211	21230
802.353	21036
802.496	20800
802.638	20883
802.78	20731
802.923	20587
803.065	20621
803.208	20568
803.35	20621
803.492	20731
803.635	20754
803.777	20598
803.919	20625
804.061	20975
804.204	20724
804.346	20518
804.488	20370
804.63	20499
804.773	20442
804.915	20541
805.057	20495
805.199	20438
805.341	20621
805.483	20583
805.626	20522
805.768	20533
805.91	20465
806.052	20469
806.194	20393
806.336	20571
806.478	20526
806.62	20484
806.762	20545
806.904	20705
807.046	20925
807.188	20830
807.33	20796
807.472	20853
807.614	20598
807.756	20636
807.898	20705
808.04	20648
808.182	20431
808.324	20587
808.465	20629
808.607	20701
808.749	20948
808.891	20937
809.033	20956
809.174	20891
809.316	20823
809.458	20872
809.6	20758
809.741	20925
809.883	20918
810.025	21116
810.166	20982
810.308	21032
810.45	20910
810.591	20925
810.733	20804
810.875	20579
811.016	20499
811.158	20579
811.299	20571
811.441	20731
811.582	20716
811.724	20667
811.865	20590
812.007	20484
812.148	20507
812.29	20590
812.431	20762
812.573	20914
812.714	20979
812.855	21131
812.997	21268
813.138	21294
813.279	21245
813.421	21135
813.562	20971
813.703	20830
813.845	20876
813.986	20522
814.127	20339
814.268	20176
814.41	20180
814.551	20218
814.692	20142
814.833	20046
814.974	20157
815.115	20149
815.256	19978
815.397	19955
815.539	20039
815.68	19925
815.821	19742
815.962	19898
816.103	19856
816.244	19803
816.385	19586
816.526	19548
816.666	19411
816.807	19335
816.948	19438
817.089	19472
817.23	19411
817.371	19278
817.512	19297
817.653	19343
817.793	19225
817.934	19312
818.075	19339
818.216	19339
818.356	19206
818.497	19137
818.638	18947
818.778	19004
818.919	18973
819.06	19019
819.2	19008
819.341	19148
819.481	19206
819.622	19289
819.762	19460
819.903	19449
820.043	19400
820.184	19369
820.324	19346
820.465	19392
820.605	19247
820.746	19152
820.886	18970
821.026	19270
821.167	19247
821.307	19274
821.447	19221
821.588	19080
821.728	19034
821.868	18757
822.008	18604
822.149	18597
822.289	18650
822.429	18410
822.569	18422
822.709	18380
822.849	18095
822.99	18239
823.13	18102
823.27	18129
823.41	18106
823.55	17954
823.69	18022
823.83	17977
823.97	17889
824.11	17794
824.25	17764
824.389	17687
824.529	17794
824.669	17779
824.809	17832
824.949	17802
825.089	17805
825.228	17855
825.368	17532
825.508	17638
825.648	17596
825.787	17577
825.927	17596
826.067	17474
826.206	17459
826.346	17585
826.485	17661
826.625	17619
826.765	17676
826.904	17611
827.044	17296
827.183	17387
827.323	17124
827.462	17376
827.601	17258
827.741	17299
827.88	17273
828.02	17045
828.159	17181
828.298	17235
828.437	17254
828.577	17132
828.716	17372
828.855	17132
828.994	16972
829.134	17037
829.273	17010
829.412	16869
829.551	16881
829.69	16987
829.829	17003
829.968	17094
830.107	17090
830.246	16972
830.385	16949
830.524	16911
830.663	16809
830.802	16782
830.941	16611
831.08	16550
831.219	16733
831.357	16702
831.496	16896
831.635	16535
831.774	16512
831.913	16447
832.051	16451
832.19	16531
832.329	16443
832.467	16325
832.606	16291
832.744	16276
832.883	16249
833.022	16375
833.16	16310
833.299	16246
833.437	16299
833.576	16402
833.714	16402
833.852	16363
833.991	16379
834.129	16394
834.267	16466
834.406	16344
834.544	16367
834.682	16451
834.821	16268
834.959	16577
835.097	16405
835.235	16451
835.373	16417
835.511	16360
835.65	16280
835.788	16303
835.926	16059
836.064	16120
836.202	16204
836.34	16238
836.478	16363
836.615	16322
836.753	16352
836.891	16344
837.029	16318
837.167	16246
837.305	16242
837.443	16093
837.58	16029
837.718	16204
837.856	16223
837.993	16166
838.131	16173
838.269	16029
838.406	16135
838.544	16074
838.681	15960
838.819	15819
838.956	15724
839.094	15686
839.231	15705
839.369	15918
839.506	16128
839.643	16051
839.781	15816
839.918	15622
840.055	15682
840.193	15717
840.33	15713
840.467	15701
840.604	15854
840.742	15964
840.879	15591
841.016	15679
841.153	15564
841.29	15861
841.427	15652
841.564	15709
841.701	15732
841.838	15713
841.975	15701
842.112	15648
842.249	15595
842.385	15481
842.522	15641
842.659	15599
842.796	15439
842.933	15450
843.069	15458
843.206	15561
843.343	15553
843.479	15530
843.616	15515
843.752	15241
843.889	15291
844.025	15473
844.162	15256
844.298	15450
844.435	15252
844.571	15256
844.708	15310
844.844	15488
844.98	15466
845.117	15408
845.253	15313
845.389	15116
845.525	15268
845.661	15173
845.798	15047
845.934	15116
846.07	15028
846.206	15112
846.342	15157
846.478	15070
846.614	14925
846.75	14868
846.886	14838
847.022	15097
847.158	15009
847.294	14872
847.429	14990
847.565	14910
847.701	15138
847.837	14659
847.972	14480
848.108	14727
848.244	14720
848.379	14541
848.515	14511
848.65	14427
848.786	14427
848.921	14507
849.057	14537
849.192	14674
849.328	14533
849.463	14480
849.598	14442
849.734	14389
849.869	14221
850.004	14294
850.14	14259
850.275	14214
850.41	14218
850.545	14233
850.68	14199
850.815	14191
850.95	14176
851.085	14431
851.22	14286
851.355	14210
851.49	14267
851.625	14244
851.76	14199
851.895	14081
852.03	14069
852.165	14157
852.299	14259
852.434	14324
852.569	14225
852.703	14229
852.838	14290
852.973	14324
853.107	14347
853.242	14221
853.376	14149
853.511	13925
853.645	14050
853.78	14134
853.914	14103
854.048	14058
854.183	14054
854.317	14153
854.451	14218
854.585	13986
854.72	14088
854.854	14172
854.988	14001
855.122	14123
855.256	13970
855.39	14176
855.524	14115
855.658	14069
855.792	14142
855.926	14187
856.06	14176
856.194	14271
856.327	14081
856.461	14065
856.595	14024
856.729	14111
856.862	14229
856.996	14195
857.13	14164
857.263	14233
857.397	14199
857.53	14111
857.664	14103
857.797	14187
857.931	14202
858.064	14043
858.197	14168
858.331	14065
858.464	14073
858.597	14077
858.731	14126
858.864	14123
858.997	14073
859.13	14115
859.263	14191
859.396	14157
859.529	14062
859.662	14119
859.795	14123
859.928	14145
860.061	14282
860.194	14275
860.327	14084
860.46	14103
860.592	14237
860.725	14237
860.858	14301
860.99	14103
861.123	14058
861.256	14031
861.388	14111
861.521	14804
861.653	13967
861.786	13841
861.918	14035
862.05	14088
862.183	14027
862.315	14149
862.447	14123
862.58	14024
862.712	13799
862.844	13738
862.976	13818
863.108	14001
863.24	14328
863.372	13814
863.504	13917
863.636	13982
863.768	13986
863.9	13890
864.032	13852
864.164	13860
864.296	13986
864.428	14024
864.559	14054
864.691	13955
864.823	13902
864.954	13917
865.086	13947
865.217	13811
865.349	13826
865.48	13875
865.612	13936
865.743	13974
865.875	13875
866.006	13902
866.137	13925
866.269	13841
866.4	13871
866.531	13837
866.662	13837
866.793	13871
866.924	13742
867.055	13898
867.186	13852
867.317	13837
867.448	13765
867.579	13803
867.71	13772
867.841	13769
867.972	13803
868.103	13864
868.233	13856
868.364	13909
868.495	13894
868.625	14134
868.756	14195
868.886	14043
869.017	14050
869.147	14187
869.278	14275
869.408	14126
869.539	14081
869.669	14107
869.799	14229
869.929	14195
870.06	14221
870.19	14564
870.32	14381
870.45	14461
870.58	14533
870.71	14522
870.84	14663
870.97	14511
871.1	14434
871.23	14716
871.36	14735
871.489	14629
871.619	14712
871.749	14670
871.879	14769
872.008	14857
872.138	14777
872.267	14705
872.397	14621
872.526	14495
872.656	14492
872.785	14606
872.915	14796
873.044	14880
873.173	14765
873.303	14811
873.432	14773
873.561	14853
873.69	14788
873.819	14754
873.948	14880
874.077	14842
874.206	14834
874.335	14807
874.464	14826
874.593	15089
874.722	14952
874.851	15195
874.979	15161
875.108	15127
875.237	15009
875.365	14963
875.494	15176
875.623	15237
875.751	15138
875.88	15062
876.008	15287
876.136	15355
876.265	15526
876.393	15622
876.521	15553
876.65	15545
876.778	15682
876.906	15469
877.034	15496
877.162	15481
877.29	15462
877.418	15344
877.546	15534
877.674	15511
877.802	15549
877.93	15416
878.058	15428
878.185	15454
878.313	15553
878.441	15439
878.568	15302
878.696	15469
878.824	15568
878.951	15591
879.079	15584
879.206	15831
879.333	15739
879.461	15428
879.588	15595
879.715	15720
879.842	15808
879.97	15595
880.097	15420
880.224	15374
880.351	15408
880.478	15302
880.605	15336
880.732	15367
880.859	15622
880.986	15370
881.112	15363
881.239	15378
881.366	15138
881.493	14990
881.619	15093
881.746	15089
881.872	15005
881.999	15058
882.125	14994
882.252	15089
882.378	14990
882.505	15195
882.631	15009
882.757	14758
882.883	14811
883.01	14880
883.136	14811
883.262	14697
883.388	14724
883.514	14861
883.64	14880
883.766	14804
883.892	14571
884.018	14754
884.143	14838
884.269	14876
884.395	14564
884.52	14541
884.646	14522
884.772	14564
884.897	14427
885.023	14549
885.148	14674
885.274	14735
885.399	14682
885.524	14461
885.65	14526
885.775	14587
885.9	14526
886.025	14651
886.15	14564
886.275	14590
886.4	14495
886.525	14552
886.65	14545
886.775	14484
886.9	14606
887.025	14834
887.149	14583
887.274	14457
887.399	14450
887.523	14339
887.648	14358
887.773	14317
887.897	14423
888.021	14404
888.146	14278
888.27	14507
888.395	14499
888.519	14545
888.643	14339
888.767	14457
888.891	14336
889.015	14298
889.139	14210
889.263	14282
889.387	14419
889.511	14389
889.635	14351
889.759	14301
889.883	14149
890.006	14301
890.13	14442
890.254	14229
890.377	14225
890.501	14054
890.624	14046
890.748	14096
890.871	13982
890.995	13970
891.118	13925
891.241	14001
891.364	13993
891.488	14123
891.611	13940
891.734	14005
891.857	14054
891.98	14024
892.103	14046
892.226	14058
892.349	13894
892.471	13883
892.594	13917
892.717	14020
892.839	13989
892.962	14001
893.085	14115
893.207	13989
893.33	13932
893.452	13913
893.575	13997
893.697	13928
893.819	14221
893.941	14123
894.064	14157
894.186	13925
894.308	13986
894.43	14073
894.552	14240
894.674	14180
894.796	13989
894.918	14077
895.04	14065
895.161	14210
895.283	14138
895.405	14039
895.526	14073
895.648	14123
895.769	14138
895.891	14084
896.012	14237
896.134	14164
896.255	14187
896.376	14107
896.498	14183
896.619	14126
896.74	14153
896.861	14214
896.982	14438
897.103	14610
897.224	14450
897.345	14400
897.466	14434
897.587	14317
897.708	14552
897.828	14385
897.949	14324
898.07	14320
898.19	14324
898.311	14511
898.431	14431
898.552	14568
898.672	14583
898.792	14667
898.913	14575
899.033	14400
899.153	14355
899.273	14370
899.393	14271
899.513	14492
899.633	14278
899.753	14336
899.873	14450
899.993	14541
900.113	14317
900.232	14339
900.352	14309
900.472	14282
900.591	14191
900.711	14153
900.83	14157
900.95	14294
901.069	14374
901.189	14142
901.308	13963
901.427	13837
901.546	13944
901.665	13921
901.784	13875
901.904	13677
902.023	13830
902.141	13601
902.26	13499
902.379	13491
902.498	13392
902.617	13453
902.735	13491
902.854	13441
902.973	13491
903.091	13145
903.21	13304
903.328	13225
903.446	13129
903.565	13118
903.683	13213
903.801	12924
903.919	13076
904.038	13042
904.156	12848
904.274	12947
904.392	12844
904.51	12897
904.627	12939
904.745	13031
904.863	12943
904.981	12684
905.098	12566
905.216	12570
905.334	12589
905.451	12593
905.569	12479
905.686	12616
905.803	12547
905.921	12414
906.038	12506
906.155	12391
906.272	12296
906.389	12270
906.506	12228
906.623	12171
906.74	12041
906.857	12038
906.974	12087
907.091	12247
907.208	12300
907.324	12216
907.441	12076
907.557	11954
907.674	11939
907.79	11885
907.907	11901
908.023	11866
908.139	11904
908.256	11832
908.372	11878
908.488	11802
908.604	11748
908.72	11634
908.836	11665
908.952	11672
909.068	11691
909.184	11836
909.3	11604
909.415	11752
909.531	11726
909.647	11474
909.762	11452
909.878	11547
909.993	11467
910.108	11471
910.224	11383
910.339	11501
910.454	11387
910.57	11299
910.685	11303
910.8	11627
910.915	11486
911.03	11246
911.145	11136
911.259	11105
911.374	11128
911.489	11109
911.604	11003
911.718	10847
911.833	10927
911.947	10782
912.062	10717
912.176	10930
912.291	10904
912.405	10957
912.519	11041
912.633	11083
912.748	10965
912.862	10873
912.976	10805
913.09	10645
913.204	10740
913.318	10797
913.431	10877
913.545	10786
913.659	10892
913.772	10831
913.886	10714
914	10668
914.113	10729
914.226	10790
914.34	10801
914.453	10508
914.566	10687
914.68	10653
914.793	10577
914.906	10398
915.019	10356
915.132	10348
915.245	10379
915.358	10443
915.47	10413
915.583	10390
915.696	10459
915.809	10516
915.921	10588
916.034	10344
916.146	10375
916.259	10352
916.371	10409
916.483	10367
916.595	10333
916.708	10276
916.82	10386
916.932	10303
917.044	10402
917.156	10280
917.268	10230
917.38	10265
917.491	10211
917.603	10246
917.715	10280
917.826	10344
917.938	10246
918.049	10150
918.161	10249
918.272	10310
918.384	10379
918.495	10246
918.606	10196
918.717	10006
918.828	10135
918.939	10147
919.05	10029
919.161	10074
919.272	9979
919.383	10010
919.494	10192
919.604	10341
919.715	10128
919.826	10109
919.936	10090
920.047	10268
920.157	10173
920.267	10356
920.378	10219
920.488	10177
920.598	10379
920.708	10493
920.818	10306
920.928	10356
921.038	10538
921.148	10516
921.258	10150
921.368	10082
921.477	9994
921.587	9994
921.697	9865
921.806	9991
921.916	9876
922.025	9694
922.134	9667
922.244	9648
922.353	9736
922.462	9618
922.571	9584
922.68	9401
922.789	9393
922.898	9393
923.007	9367
923.116	9428
923.224	9439
923.333	9424
923.442	9306
923.55	9302
923.659	9359
923.767	9306
923.876	9298
923.984	9393
924.092	9214
924.201	9264
924.309	9325
924.417	9310
924.525	9207
924.633	9283
924.741	10078
924.849	9005
924.956	9165
925.064	9024
925.172	8994
925.279	9013
925.387	9032
925.494	9097
925.602	9135
925.709	9135
925.816	9055
925.924	9112
926.031	9127
926.138	9028
926.245	9077
926.352	8990
926.459	9116
926.566	9180
926.673	8990
926.779	8948
926.886	8857
926.993	8826
927.099	8781
927.206	8777
927.312	8731
927.419	8864
927.525	8746
927.631	8880
927.737	8663
927.843	8632
927.95	8579
928.056	8689
928.162	8693
928.267	8663
928.373	9199
928.479	8743
928.585	8579
928.69	8689
928.796	8708
928.901	8602
929.007	8457
929.112	8613
929.218	8587
929.323	8518
929.428	8526
929.533	8613
929.638	8454
929.743	8431
929.848	8511
929.953	8442
930.058	8358
930.163	8286
930.267	8233
930.372	8408
930.477	8252
930.581	8499
930.685	8336
930.79	8176
930.894	8233
930.998	8218
931.103	8381
931.207	8050
931.311	7883
931.415	7909
931.519	7734
931.623	7727
