Data from test_V78500241_3495.txt Node
Date: Fri Mar 25 14:58:03 CST 2022
User: usil
Spectrometer: V785-0024
Trigger mode: 0
Integration Time (sec): 4.000000E-1
Scans to average: 1
Nonlinearity correction enabled: false
Boxcar width: 0
Storing dark spectrum: false
XAxis mode: Wavelengths
Number of Pixels in Spectrum: 1024
>>>>>Begin Spectral Data<<<<<
801.071	21884
801.214	21690
801.356	21564
801.499	21526
801.641	21355
801.783	21268
801.926	21374
802.068	21264
802.211	21184
802.353	20918
802.496	20792
802.638	20682
802.78	20864
802.923	20648
803.065	20560
803.208	20484
803.35	20564
803.492	20746
803.635	20701
803.777	20583
803.919	20530
804.061	20998
804.204	20663
804.346	20552
804.488	20537
804.63	20636
804.773	20404
804.915	20541
805.057	20590
805.199	20393
805.341	20465
805.483	20579
805.626	20514
805.768	20438
805.91	20575
806.052	20415
806.194	20343
806.336	20575
806.478	20389
806.62	20400
806.762	20552
806.904	20613
807.046	20876
807.188	20842
807.33	20735
807.472	20815
807.614	20823
807.756	20762
807.898	20556
808.04	20629
808.182	20408
808.324	20590
808.465	20552
808.607	20762
808.749	20807
808.891	20929
809.033	20902
809.174	20849
809.316	20876
809.458	20872
809.6	20830
809.741	20925
809.883	20941
810.025	20921
810.166	21104
810.308	20910
810.45	20864
810.591	20891
810.733	20667
810.875	20621
811.016	20537
811.158	20541
811.299	20640
811.441	20769
811.582	20712
811.724	20708
811.865	20530
812.007	20632
812.148	20499
812.29	20667
812.431	20750
812.573	20979
812.714	21062
812.855	21157
812.997	21112
813.138	21249
813.279	21256
813.421	21112
813.562	21116
813.703	20872
813.845	20758
813.986	20587
814.127	20301
814.268	20199
814.41	20263
814.551	20142
814.692	20233
814.833	20039
814.974	20103
815.115	20100
815.256	20046
815.397	20001
815.539	20069
815.68	19860
815.821	19807
815.962	19940
816.103	19837
816.244	19609
816.385	19620
816.526	19655
816.666	19365
816.807	19301
816.948	19331
817.089	19244
817.23	19266
817.371	19255
817.512	19297
817.653	19236
817.793	19190
817.934	19160
818.075	19274
818.216	19339
818.356	19232
818.497	19118
818.638	18871
818.778	18962
818.919	19012
819.06	18951
819.2	19080
819.341	19198
819.481	19133
819.622	19198
819.762	19540
819.903	19350
820.043	19278
820.184	19202
820.324	19190
820.465	19346
820.605	19225
820.746	19244
820.886	19027
821.026	19187
821.167	19183
821.307	19297
821.447	19187
821.588	19050
821.728	19050
821.868	18878
822.008	18768
822.149	18711
822.289	18570
822.429	18456
822.569	18399
822.709	18300
822.849	18152
822.99	18220
823.13	18254
823.27	18129
823.41	17996
823.55	17923
823.69	18129
823.83	18064
823.97	18019
824.11	17684
824.25	17779
824.389	17741
824.529	17912
824.669	17703
824.809	17904
824.949	17901
825.089	17764
825.228	17703
825.368	17604
825.508	17570
825.648	17608
825.787	17657
825.927	17611
826.067	17539
826.206	17627
826.346	17535
826.485	17528
826.625	17486
826.765	17600
826.904	17520
827.044	17288
827.183	17337
827.323	17204
827.462	17345
827.601	17246
827.741	17299
827.88	17391
828.02	17231
828.159	17341
828.298	17330
828.437	17284
828.577	17231
828.716	17322
828.855	17220
828.994	17113
829.134	16961
829.273	17037
829.412	16976
829.551	16908
829.69	17064
829.829	17010
829.968	17033
830.107	17098
830.246	17098
830.385	16911
830.524	16900
830.663	16816
830.802	16687
830.941	16706
831.08	16649
831.219	16702
831.357	16573
831.496	16835
831.635	16653
831.774	16569
831.913	16565
832.051	16485
832.19	16440
832.329	16436
832.467	16417
832.606	16207
832.744	16318
832.883	16287
833.022	16318
833.16	16371
833.299	16367
833.437	16352
833.576	16394
833.714	16341
833.852	16504
833.991	16363
834.129	16493
834.267	16398
834.406	16413
834.544	16447
834.682	16363
834.821	16341
834.959	16599
835.097	16375
835.235	16497
835.373	16470
835.511	16451
835.65	16417
835.788	16287
835.926	16192
836.064	16177
836.202	16185
836.34	16421
836.478	16413
836.615	16318
836.753	16299
836.891	16500
837.029	16352
837.167	16333
837.305	16325
837.443	16265
837.58	16135
837.718	16287
837.856	16200
837.993	16071
838.131	16200
838.269	16013
838.406	16105
838.544	16074
838.681	15869
838.819	16010
838.956	15762
839.094	15800
839.231	15793
839.369	15972
839.506	16101
839.643	15972
839.781	15774
839.918	15701
840.055	15705
840.193	15755
840.33	15652
840.467	15759
840.604	15800
840.742	15953
840.879	15545
841.016	15724
841.153	15618
841.29	15865
841.427	15732
841.564	15895
841.701	15835
841.838	15698
841.975	15675
842.112	15701
842.249	15580
842.385	15523
842.522	15675
842.659	15576
842.796	15549
842.933	15515
843.069	15488
843.206	15606
843.343	15591
843.479	15584
843.616	15701
843.752	15408
843.889	15363
844.025	15443
844.162	15393
844.298	15443
844.435	15306
844.571	15332
844.708	15336
844.844	15428
844.98	15545
845.117	15458
845.253	15344
845.389	15131
845.525	15249
845.661	15291
845.798	15214
845.934	15207
846.07	15112
846.206	15123
846.342	15340
846.478	15116
846.614	14975
846.75	14921
846.886	14853
847.022	15024
847.158	14880
847.294	14864
847.429	14944
847.565	14929
847.701	15161
847.837	14590
847.972	14625
848.108	14743
848.244	14689
848.379	14488
848.515	14454
848.65	14438
848.786	14560
848.921	14450
849.057	14636
849.192	14552
849.328	14617
849.463	14492
849.598	14454
849.734	14347
849.869	14347
850.004	14328
850.14	14385
850.275	14366
850.41	14237
850.545	14294
850.68	14225
850.815	14282
850.95	14298
851.085	14526
851.22	14313
851.355	14370
851.49	14183
851.625	14290
851.76	14206
851.895	14084
852.03	14043
852.165	14225
852.299	14317
852.434	14298
852.569	14301
852.703	14240
852.838	14248
852.973	14450
853.107	14400
853.242	14187
853.376	14149
853.511	13982
853.645	14077
853.78	14305
853.914	14233
854.048	14107
854.183	14103
854.317	14176
854.451	14271
854.585	14244
854.72	14058
854.854	14039
854.988	14073
855.122	14103
855.256	13967
855.39	14103
855.524	14229
855.658	14073
855.792	14225
855.926	14191
856.06	14187
856.194	14256
856.327	14176
856.461	14062
856.595	14130
856.729	14119
856.862	14256
856.996	14183
857.13	14187
857.263	14271
857.397	14191
857.53	14221
857.664	14210
857.797	14252
857.931	14339
858.064	14199
858.197	14187
858.331	14138
858.464	14138
858.597	14077
858.731	14092
858.864	14134
858.997	14206
859.13	14210
859.263	14119
859.396	14210
859.529	14134
859.662	14107
859.795	14096
859.928	14210
860.061	14233
860.194	14328
860.327	14206
860.46	14210
860.592	14332
860.725	14229
860.858	14275
860.99	14084
861.123	14092
861.256	14016
861.388	14142
861.521	14834
861.653	13955
861.786	14005
861.918	14092
862.05	14062
862.183	14111
862.315	14100
862.447	14153
862.58	14050
862.712	13913
862.844	13868
862.976	13978
863.108	13932
863.24	14381
863.372	13883
863.504	13947
863.636	13890
863.768	14027
863.9	13970
864.032	13864
864.164	13883
864.296	13967
864.428	13982
864.559	14020
864.691	14016
864.823	13993
864.954	13887
865.086	13978
865.217	13913
865.349	13795
865.48	13875
865.612	13959
865.743	14107
865.875	13898
866.006	13906
866.137	13894
866.269	13887
866.4	13879
866.531	13845
866.662	13799
866.793	13772
866.924	13887
867.055	13955
867.186	13883
867.317	13887
867.448	13875
867.579	13898
867.71	13849
867.841	13856
867.972	13909
868.103	13849
868.233	13951
868.364	13875
868.495	14001
868.625	14161
868.756	14248
868.886	14069
869.017	14134
869.147	14202
869.278	14286
869.408	14210
869.539	14077
869.669	14145
869.799	14263
869.929	14294
870.06	14237
870.19	14499
870.32	14454
870.45	14469
870.58	14556
870.71	14655
870.84	14712
870.97	14541
871.1	14545
871.23	14720
871.36	14746
871.489	14629
871.619	14712
871.749	14792
871.879	14739
872.008	14826
872.138	14773
872.267	14754
872.397	14617
872.526	14583
872.656	14575
872.785	14644
872.915	14674
873.044	14777
873.173	14838
873.303	14925
873.432	14815
873.561	14788
873.69	14804
873.819	14899
873.948	14883
874.077	14796
874.206	14811
874.335	14842
874.464	14948
874.593	15138
874.722	15039
874.851	15074
874.979	15165
875.108	15119
875.237	15039
875.365	15058
875.494	15100
875.623	15161
875.751	15024
875.88	15161
876.008	15336
876.136	15298
876.265	15542
876.393	15671
876.521	15618
876.65	15614
876.778	15534
876.906	15431
877.034	15424
877.162	15545
877.29	15386
877.418	15561
877.546	15606
877.674	15667
877.802	15515
877.93	15500
878.058	15504
878.185	15420
878.313	15492
878.441	15542
878.568	15386
878.696	15439
878.824	15553
878.951	15675
879.079	15698
879.206	15827
879.333	15656
879.461	15591
879.588	15633
879.715	15755
879.842	15865
879.97	15641
880.097	15458
880.224	15386
880.351	15439
880.478	15344
880.605	15382
880.732	15340
880.859	15534
880.986	15332
881.112	15477
881.239	15313
881.366	15131
881.493	15135
881.619	15024
881.746	15058
881.872	15085
881.999	15100
882.125	14979
882.252	15104
882.378	15062
882.505	15214
882.631	14982
882.757	14792
882.883	14948
883.01	14883
883.136	14853
883.262	14777
883.388	14705
883.514	14979
883.64	14937
883.766	14731
883.892	14754
884.018	14743
884.143	14868
884.269	14899
884.395	14697
884.52	14518
884.646	14552
884.772	14568
884.897	14549
885.023	14617
885.148	14693
885.274	14693
885.399	14682
885.524	14526
885.65	14606
885.775	14575
885.9	14549
886.025	14606
886.15	14636
886.275	14488
886.4	14545
886.525	14518
886.65	14488
886.775	14454
886.9	14674
887.025	14743
887.149	14602
887.274	14450
887.399	14396
887.523	14454
887.648	14320
887.773	14381
887.897	14499
888.021	14499
888.146	14393
888.27	14427
888.395	14473
888.519	14560
888.643	14389
888.767	14480
888.891	14301
889.015	14298
889.139	14301
889.263	14229
889.387	14351
889.511	14480
889.635	14389
889.759	14282
889.883	14385
890.006	14237
890.13	14431
890.254	14275
890.377	14210
890.501	13970
890.624	13944
890.748	14100
890.871	14016
890.995	13982
891.118	13830
891.241	14035
891.364	13963
891.488	14111
891.611	13959
891.734	13868
891.857	14020
891.98	14054
892.103	14039
892.226	13970
892.349	14062
892.471	13868
892.594	13879
892.717	13963
892.839	13883
892.962	13928
893.085	14020
893.207	13909
893.33	13932
893.452	13947
893.575	13982
893.697	13989
893.819	14164
893.941	14229
894.064	14153
894.186	13997
894.308	13963
894.43	14027
894.552	14240
894.674	14153
894.796	13967
894.918	13917
895.04	14016
895.161	14172
895.283	14077
895.405	14012
895.526	14088
895.648	14065
895.769	14096
895.891	14107
896.012	14210
896.134	14206
896.255	14218
896.376	14130
896.498	14107
896.619	14252
896.74	14286
896.861	14286
896.982	14469
897.103	14552
897.224	14457
897.345	14351
897.466	14385
897.587	14355
897.708	14537
897.828	14400
897.949	14374
898.07	14309
898.19	14415
898.311	14541
898.431	14381
898.552	14480
898.672	14602
898.792	14598
898.913	14495
899.033	14473
899.153	14336
899.273	14187
899.393	14389
899.513	14324
899.633	14256
899.753	14385
899.873	14328
899.993	14415
900.113	14317
900.232	14412
900.352	14347
900.472	14328
900.591	14103
900.711	14180
900.83	14168
900.95	14225
901.069	14286
901.189	14244
901.308	13974
901.427	13864
901.546	13898
901.665	13989
901.784	13860
901.904	13780
902.023	13643
902.141	13567
902.26	13422
902.379	13544
902.498	13422
902.617	13312
902.735	13419
902.854	13369
902.973	13343
903.091	13266
903.21	13259
903.328	13168
903.446	13194
903.565	13095
903.683	13031
903.801	12958
903.919	13000
904.038	12973
904.156	12833
904.274	12916
904.392	12943
904.51	12859
904.627	12817
904.745	12985
904.863	13004
904.981	12593
905.098	12502
905.216	12616
905.334	12563
905.451	12536
905.569	12521
905.686	12547
905.803	12540
905.921	12365
906.038	12365
906.155	12418
906.272	12254
906.389	12277
906.506	12106
906.623	12194
906.74	12076
906.857	12011
906.974	12106
907.091	12159
907.208	12311
907.324	12216
907.441	12011
907.557	11935
907.674	11912
907.79	11855
907.907	11859
908.023	11942
908.139	11794
908.256	11828
908.372	11836
908.488	11828
908.604	11714
908.72	11611
908.836	11707
908.952	11634
909.068	11600
909.184	11688
909.3	11611
909.415	11688
909.531	11608
909.647	11421
909.762	11482
909.878	11421
909.993	11436
910.108	11444
910.224	11406
910.339	11425
910.454	11296
910.57	11288
910.685	11227
910.8	11558
910.915	11486
911.03	11345
911.145	11117
911.259	11181
911.374	11105
911.489	11056
911.604	10980
911.718	10896
911.833	10965
911.947	10809
912.062	10702
912.176	10908
912.291	10957
912.405	10953
912.519	11014
912.633	11052
912.748	10984
912.862	10961
912.976	10797
913.09	10710
913.204	10717
913.318	10702
913.431	10847
913.545	10831
913.659	10904
913.772	10759
913.886	10641
914	10637
914.113	10599
914.226	10744
914.34	10748
914.453	10508
914.566	10675
914.68	10603
914.793	10531
914.906	10459
915.019	10314
915.132	10318
915.245	10352
915.358	10440
915.47	10405
915.583	10360
915.696	10436
915.809	10527
915.921	10550
916.034	10341
916.146	10375
916.259	10352
916.371	10405
916.483	10390
916.595	10363
916.708	10295
916.82	10337
916.932	10348
917.044	10303
917.156	10322
917.268	10158
917.38	10223
917.491	10253
917.603	10207
917.715	10318
917.826	10318
917.938	10238
918.049	10093
918.161	10215
918.272	10375
918.384	10299
918.495	10287
918.606	10101
918.717	10071
918.828	10112
918.939	10139
919.05	10071
919.161	9983
919.272	9869
919.383	9975
919.494	10211
919.604	10291
919.715	10150
919.826	10116
919.936	10120
920.047	10215
920.157	10071
920.267	10363
920.378	10185
920.488	10147
920.598	10363
920.708	10421
920.818	10268
920.928	10325
921.038	10447
921.148	10478
921.258	10215
921.368	10063
921.477	9979
921.587	9964
921.697	9892
921.806	9949
921.916	9895
922.025	9701
922.134	9720
922.244	9591
922.353	9694
922.462	9629
922.571	9462
922.68	9393
922.789	9351
922.898	9325
923.007	9294
923.116	9424
923.224	9321
923.333	9386
923.442	9245
923.55	9260
923.659	9268
923.767	9332
923.876	9222
923.984	9393
924.092	9188
924.201	9287
924.309	9233
924.417	9207
924.525	9207
924.633	9211
924.741	9994
924.849	9020
924.956	9180
925.064	9077
925.172	8918
925.279	9028
925.387	9097
925.494	9043
925.602	9154
925.709	9112
925.816	9005
925.924	9051
926.031	9131
926.138	9051
926.245	9074
926.352	8963
926.459	9097
926.566	9077
926.673	8933
926.779	8952
926.886	8933
926.993	8796
927.099	8838
927.206	8731
927.312	8800
927.419	8796
927.525	8792
927.631	8830
927.737	8697
927.843	8663
927.95	8537
928.056	8701
928.162	8663
928.267	8708
928.373	9275
928.479	8746
928.585	8461
928.69	8686
928.796	8674
928.901	8545
929.007	8484
929.112	8575
929.218	8583
929.323	8480
929.428	8526
929.533	8651
929.638	8396
929.743	8469
929.848	8484
929.953	8446
930.058	8400
930.163	8244
930.267	8248
930.372	8415
930.477	8157
930.581	8434
930.685	8305
930.79	8210
930.894	8176
930.998	8225
931.103	8339
931.207	7944
931.311	8043
931.415	7856
931.519	7670
931.623	7719
