Data from test_V78500241_2173.txt Node
Date: Fri Mar 25 14:48:50 CST 2022
User: usil
Spectrometer: V785-0024
Trigger mode: 0
Integration Time (sec): 4.000000E-1
Scans to average: 1
Nonlinearity correction enabled: false
Boxcar width: 0
Storing dark spectrum: false
XAxis mode: Wavelengths
Number of Pixels in Spectrum: 1024
>>>>>Begin Spectral Data<<<<<
801.071	22017
801.214	21994
801.356	21812
801.499	21656
801.641	21496
801.783	21439
801.926	21545
802.068	21408
802.211	21355
802.353	21169
802.496	21047
802.638	20986
802.78	21001
802.923	20815
803.065	20724
803.208	20823
803.35	20785
803.492	20910
803.635	20925
803.777	20891
803.919	20815
804.061	21252
804.204	20986
804.346	20849
804.488	20773
804.63	20845
804.773	20670
804.915	20804
805.057	20963
805.199	20785
805.341	20845
805.483	20876
805.626	20743
805.768	20609
805.91	20800
806.052	20819
806.194	20636
806.336	20933
806.478	20716
806.62	20644
806.762	20838
806.904	20872
807.046	21066
807.188	21051
807.33	21203
807.472	21116
807.614	21009
807.756	20891
807.898	20910
808.04	20724
808.182	20792
808.324	20800
808.465	20876
808.607	21009
808.749	21142
808.891	21374
809.033	21291
809.174	21214
809.316	21127
809.458	21214
809.6	21093
809.741	21256
809.883	21313
810.025	21310
810.166	21325
810.308	21245
810.45	21241
810.591	21123
810.733	21024
810.875	20883
811.016	20804
811.158	20826
811.299	20986
811.441	20929
811.582	21055
811.724	20754
811.865	20826
812.007	20712
812.148	20899
812.29	20960
812.431	21093
812.573	21203
812.714	21275
812.855	21332
812.997	21542
813.138	21679
813.279	21511
813.421	21317
813.562	21405
813.703	21150
813.845	21108
813.986	20811
814.127	20644
814.268	20514
814.41	20556
814.551	20609
814.692	20454
814.833	20347
814.974	20389
815.115	20442
815.256	20259
815.397	20317
815.539	20431
815.68	20168
815.821	20069
815.962	20172
816.103	20012
816.244	19970
816.385	19890
816.526	19898
816.666	19723
816.807	19616
816.948	19708
817.089	19693
817.23	19590
817.371	19616
817.512	19571
817.653	19544
817.793	19483
817.934	19567
818.075	19655
818.216	19533
818.356	19594
818.497	19365
818.638	19202
818.778	19316
818.919	19236
819.06	19255
819.2	19266
819.341	19426
819.481	19426
819.622	19639
819.762	19658
819.903	19700
820.043	19689
820.184	19510
820.324	19651
820.465	19552
820.605	19487
820.746	19563
820.886	19365
821.026	19556
821.167	19525
821.307	19624
821.447	19495
821.588	19415
821.728	19282
821.868	19160
822.008	19019
822.149	18920
822.289	18993
822.429	18673
822.569	18597
822.709	18730
822.849	18490
822.99	18452
823.13	18407
823.27	18471
823.41	18292
823.55	18167
823.69	18194
823.83	18285
823.97	18266
824.11	18030
824.25	18091
824.389	17992
824.529	18049
824.669	18049
824.809	18095
824.949	18251
825.089	18098
825.228	18030
825.368	17859
825.508	17809
825.648	17901
825.787	17893
825.927	17893
826.067	17733
826.206	17798
826.346	17855
826.485	17828
826.625	17733
826.765	17904
826.904	17851
827.044	17596
827.183	17630
827.323	17524
827.462	17570
827.601	17604
827.741	17516
827.88	17592
828.02	17414
828.159	17627
828.298	17493
828.437	17478
828.577	17463
828.716	17691
828.855	17482
828.994	17349
829.134	17273
829.273	17246
829.412	17261
829.551	17174
829.69	17235
829.829	17284
829.968	17303
830.107	17261
830.246	17303
830.385	17204
830.524	17155
830.663	17033
830.802	16911
830.941	16904
831.08	16835
831.219	16923
831.357	16968
831.496	17003
831.635	16793
831.774	16710
831.913	16660
832.051	16687
832.19	16721
832.329	16664
832.467	16603
832.606	16519
832.744	16561
832.883	16550
833.022	16497
833.16	16565
833.299	16531
833.437	16592
833.576	16618
833.714	16538
833.852	16691
833.991	16664
834.129	16687
834.267	16626
834.406	16649
834.544	16577
834.682	16656
834.821	16550
834.959	16771
835.097	16512
835.235	16660
835.373	16630
835.511	16573
835.65	16554
835.788	16489
835.926	16371
836.064	16329
836.202	16329
836.34	16519
836.478	16668
836.615	16402
836.753	16474
836.891	16626
837.029	16538
837.167	16409
837.305	16398
837.443	16375
837.58	16253
837.718	16462
837.856	16428
837.993	16360
838.131	16436
838.269	16337
838.406	16291
838.544	16268
838.681	16036
838.819	16059
838.956	15918
839.094	15934
839.231	16021
839.369	16105
839.506	16428
839.643	16158
839.781	15987
839.918	15800
840.055	15972
840.193	15907
840.33	15850
840.467	15892
840.604	16044
840.742	16147
840.879	15751
841.016	15895
841.153	15865
841.29	16010
841.427	15930
841.564	15930
841.701	15983
841.838	15873
841.975	15892
842.112	15926
842.249	15759
842.385	15648
842.522	15918
842.659	15713
842.796	15656
842.933	15709
843.069	15694
843.206	15747
843.343	15717
843.479	15717
843.616	15732
843.752	15435
843.889	15542
844.025	15675
844.162	15538
844.298	15629
844.435	15454
844.571	15450
844.708	15500
844.844	15526
844.98	15789
845.117	15557
845.253	15458
845.389	15382
845.525	15492
845.661	15424
845.798	15260
845.934	15363
846.07	15291
846.206	15245
846.342	15412
846.478	15222
846.614	15176
846.75	15013
846.886	14956
847.022	15142
847.158	15131
847.294	15108
847.429	15066
847.565	15154
847.701	15294
847.837	14785
847.972	14777
848.108	14804
848.244	14933
848.379	14762
848.515	14739
848.65	14552
848.786	14636
848.921	14571
849.057	14708
849.192	14697
849.328	14670
849.463	14716
849.598	14575
849.734	14583
849.869	14522
850.004	14514
850.14	14594
850.275	14480
850.41	14286
850.545	14351
850.68	14374
850.815	14522
850.95	14385
851.085	14503
851.22	14434
851.355	14404
851.49	14442
851.625	14370
851.76	14381
851.895	14271
852.03	14259
852.165	14362
852.299	14415
852.434	14598
852.569	14503
852.703	14317
852.838	14511
852.973	14613
853.107	14511
853.242	14385
853.376	14385
853.511	14157
853.645	14294
853.78	14484
853.914	14301
854.048	14256
854.183	14199
854.317	14286
854.451	14454
854.585	14248
854.72	14206
854.854	14328
854.988	14248
855.122	14248
855.256	14183
855.39	14282
855.524	14343
855.658	14370
855.792	14332
855.926	14431
856.06	14347
856.194	14454
856.327	14339
856.461	14145
856.595	14134
856.729	14218
856.862	14442
856.996	14377
857.13	14389
857.263	14427
857.397	14434
857.53	14282
857.664	14339
857.797	14374
857.931	14427
858.064	14351
858.197	14423
858.331	14328
858.464	14305
858.597	14206
858.731	14298
858.864	14317
858.997	14248
859.13	14431
859.263	14366
859.396	14370
859.529	14225
859.662	14240
859.795	14221
859.928	14393
860.061	14495
860.194	14556
860.327	14362
860.46	14336
860.592	14370
860.725	14431
860.858	14488
860.99	14225
861.123	14290
861.256	14305
861.388	14370
861.521	14963
861.653	14298
861.786	14115
861.918	14271
862.05	14286
862.183	14362
862.315	14366
862.447	14305
862.58	14332
862.712	14119
862.844	14027
862.976	14107
863.108	14138
863.24	14438
863.372	13955
863.504	14077
863.636	14065
863.768	14145
863.9	14130
864.032	14005
864.164	14073
864.296	14115
864.428	14161
864.559	14214
864.691	14176
864.823	14195
864.954	14164
865.086	14088
865.217	14096
865.349	14100
865.48	14081
865.612	14161
865.743	14199
865.875	14119
866.006	14107
866.137	14145
866.269	14092
866.4	14005
866.531	14145
866.662	14035
866.793	14088
866.924	14024
867.055	14164
867.186	14069
867.317	14046
867.448	14039
867.579	14058
867.71	13997
867.841	13967
867.972	14073
868.103	14096
868.233	14100
868.364	14012
868.495	14043
868.625	14248
868.756	14469
868.886	14218
869.017	14298
869.147	14461
869.278	14385
869.408	14355
869.539	14328
869.669	14358
869.799	14374
869.929	14457
870.06	14511
870.19	14579
870.32	14533
870.45	14663
870.58	14785
870.71	14845
870.84	14895
870.97	14701
871.1	14811
871.23	14971
871.36	14872
871.489	14872
871.619	14921
871.749	14963
871.879	15001
872.008	15131
872.138	14925
872.267	14891
872.397	14762
872.526	14758
872.656	14754
872.785	14739
872.915	14956
873.044	15039
873.173	14960
873.303	15066
873.432	15047
873.561	15112
873.69	14883
873.819	14910
873.948	15001
874.077	14967
874.206	14948
874.335	14986
874.464	15146
874.593	15260
874.722	15310
874.851	15272
874.979	15279
875.108	15287
875.237	15313
875.365	15214
875.494	15298
875.623	15393
875.751	15336
875.88	15291
876.008	15443
876.136	15538
876.265	15675
876.393	15857
876.521	15660
876.65	15869
876.778	15717
876.906	15694
877.034	15610
877.162	15656
877.29	15572
877.418	15720
877.546	15701
877.674	15686
877.802	15736
877.93	15682
878.058	15622
878.185	15690
878.313	15694
878.441	15648
878.568	15500
878.696	15595
878.824	15770
878.951	15812
879.079	15934
879.206	16029
879.333	15884
879.461	15831
879.588	15861
879.715	15888
879.842	16078
879.97	15842
880.097	15584
880.224	15504
880.351	15603
880.478	15610
880.605	15523
880.732	15542
880.859	15762
880.986	15709
881.112	15576
881.239	15572
881.366	15367
881.493	15260
881.619	15233
881.746	15199
881.872	15184
881.999	15252
882.125	15138
882.252	15363
882.378	15370
882.505	15336
882.631	15165
882.757	15100
882.883	15051
883.01	15127
883.136	14891
883.262	14963
883.388	14773
883.514	15097
883.64	15070
883.766	14986
883.892	14895
884.018	14902
884.143	15017
884.269	15112
884.395	14823
884.52	14708
884.646	14807
884.772	14632
884.897	14594
885.023	14765
885.148	14830
885.274	14887
885.399	14773
885.524	14781
885.65	14739
885.775	14792
885.9	14876
886.025	14864
886.15	14826
886.275	14712
886.4	14621
886.525	14632
886.65	14800
886.775	14682
886.9	14807
887.025	14910
887.149	14724
887.274	14590
887.399	14640
887.523	14560
887.648	14469
887.773	14480
887.897	14644
888.021	14644
888.146	14598
888.27	14625
888.395	14689
888.519	14655
888.643	14590
888.767	14701
888.891	14480
889.015	14446
889.139	14511
889.263	14336
889.387	14511
889.511	14663
889.635	14499
889.759	14495
889.883	14393
890.006	14446
890.13	14495
890.254	14343
890.377	14385
890.501	14305
890.624	14221
890.748	14282
890.871	14157
890.995	14050
891.118	14054
891.241	14100
891.364	14092
891.488	14237
891.611	14073
891.734	14134
891.857	14240
891.98	14157
892.103	14317
892.226	14123
892.349	14046
892.471	13978
892.594	14123
892.717	14153
892.839	14103
892.962	14031
893.085	14199
893.207	14115
893.33	13997
893.452	14103
893.575	14191
893.697	14016
893.819	14263
893.941	14263
894.064	14210
894.186	14126
894.308	14046
894.43	14298
894.552	14434
894.674	14244
894.796	14081
894.918	14043
895.04	14202
895.161	14263
895.283	14210
895.405	14050
895.526	14218
895.648	14252
895.769	14305
895.891	14256
896.012	14461
896.134	14298
896.255	14267
896.376	14172
896.498	14317
896.619	14374
896.74	14377
896.861	14324
896.982	14648
897.103	14762
897.224	14606
897.345	14575
897.466	14469
897.587	14621
897.708	14693
897.828	14575
897.949	14533
898.07	14450
898.19	14556
898.311	14743
898.431	14560
898.552	14571
898.672	14777
898.792	14712
898.913	14689
899.033	14556
899.153	14412
899.273	14473
899.393	14476
899.513	14541
899.633	14396
899.753	14492
899.873	14446
899.993	14469
900.113	14484
900.232	14499
900.352	14358
900.472	14396
900.591	14362
900.711	14488
900.83	14309
900.95	14431
901.069	14564
901.189	14328
901.308	14123
901.427	14012
901.546	13989
901.665	14069
901.784	14020
901.904	13921
902.023	13864
902.141	13689
902.26	13575
902.379	13674
902.498	13639
902.617	13586
902.735	13693
902.854	13677
902.973	13586
903.091	13278
903.21	13373
903.328	13316
903.446	13263
903.565	13183
903.683	13369
903.801	13065
903.919	13129
904.038	13206
904.156	13012
904.274	13069
904.392	12947
904.51	12951
904.627	13012
904.745	12928
904.863	13110
904.981	12810
905.098	12703
905.216	12631
905.334	12730
905.451	12722
905.569	12665
905.686	12719
905.803	12700
905.921	12540
906.038	12589
906.155	12490
906.272	12528
906.389	12494
906.506	12285
906.623	12342
906.74	12235
906.857	12121
906.974	12228
907.091	12414
907.208	12490
907.324	12361
907.441	12167
907.557	11988
907.674	12022
907.79	12026
907.907	12083
908.023	12068
908.139	12057
908.256	11954
908.372	11977
908.488	11920
908.604	11756
908.72	11764
908.836	11752
908.952	11794
909.068	11771
909.184	11908
909.3	11764
909.415	11901
909.531	11710
909.647	11547
909.762	11543
909.878	11509
909.993	11615
910.108	11497
910.224	11512
910.339	11474
910.454	11376
910.57	11410
910.685	11315
910.8	11638
910.915	11581
911.03	11497
911.145	11201
911.259	11223
911.374	11212
911.489	11136
911.604	11079
911.718	11048
911.833	11045
911.947	10927
912.062	10919
912.176	10953
912.291	11064
912.405	10999
912.519	11265
912.633	11223
912.748	11056
912.862	11003
912.976	10896
913.09	10786
913.204	10839
913.318	10828
913.431	10991
913.545	10980
913.659	11056
913.772	10919
913.886	10793
914	10710
914.113	10892
914.226	10858
914.34	10873
914.453	10683
914.566	10843
914.68	10752
914.793	10691
914.906	10580
915.019	10470
915.132	10493
915.245	10523
915.358	10558
915.47	10516
915.583	10493
915.696	10535
915.809	10634
915.921	10626
916.034	10508
916.146	10462
916.259	10424
916.371	10561
916.483	10531
916.595	10481
916.708	10466
916.82	10424
916.932	10386
917.044	10303
917.156	10455
917.268	10363
917.38	10462
917.491	10249
917.603	10352
917.715	10447
917.826	10493
917.938	10322
918.049	10219
918.161	10344
918.272	10523
918.384	10405
918.495	10325
918.606	10257
918.717	10143
918.828	10185
918.939	10310
919.05	10128
919.161	10158
919.272	10013
919.383	10112
919.494	10257
919.604	10371
919.715	10268
919.826	10196
919.936	10223
920.047	10356
920.157	10276
920.267	10455
920.378	10219
920.488	10211
920.598	10428
920.708	10588
920.818	10424
920.928	10424
921.038	10523
921.148	10584
921.258	10280
921.368	10265
921.477	10139
921.587	10143
921.697	9968
921.806	10139
921.916	9960
922.025	9819
922.134	9728
922.244	9800
922.353	9884
922.462	9641
922.571	9625
922.68	9545
922.789	9469
922.898	9447
923.007	9462
923.116	9557
923.224	9496
923.333	9439
923.442	9431
923.55	9291
923.659	9424
923.767	9412
923.876	9294
923.984	9473
924.092	9329
924.201	9370
924.309	9386
924.417	9317
924.525	9348
924.633	9332
924.741	10101
924.849	9214
924.956	9344
925.064	9123
925.172	9055
925.279	9169
925.387	9214
925.494	9192
925.602	9332
925.709	9268
925.816	9081
925.924	9157
926.031	9184
926.138	9211
926.245	9203
926.352	9100
926.459	9230
926.566	9211
926.673	9142
926.779	9085
926.886	9043
926.993	8941
927.099	8876
927.206	8868
927.312	8800
927.419	8914
927.525	8944
927.631	8967
927.737	8811
927.843	8667
927.95	8625
928.056	8845
928.162	8754
928.267	8864
928.373	9431
928.479	8880
928.585	8613
928.69	8796
928.796	8811
928.901	8674
929.007	8461
929.112	8712
929.218	8693
929.323	8606
929.428	8590
929.533	8811
929.638	8632
929.743	8621
929.848	8602
929.953	8682
930.058	8499
930.163	8347
930.267	8408
930.372	8583
930.477	8275
930.581	8594
930.685	8503
930.79	8332
930.894	8298
930.998	8374
931.103	8492
931.207	8077
931.311	8043
931.415	7978
931.519	7864
931.623	7814
