Data from test_V78500241_1912.txt Node
Date: Fri Mar 25 14:47:01 CST 2022
User: usil
Spectrometer: V785-0024
Trigger mode: 0
Integration Time (sec): 4.000000E-1
Scans to average: 1
Nonlinearity correction enabled: false
Boxcar width: 0
Storing dark spectrum: false
XAxis mode: Wavelengths
Number of Pixels in Spectrum: 1024
>>>>>Begin Spectral Data<<<<<
801.071	22128
801.214	22063
801.356	21774
801.499	21568
801.641	21523
801.783	21443
801.926	21416
802.068	21420
802.211	21336
802.353	21180
802.496	20994
802.638	21009
802.78	20857
802.923	20887
803.065	20670
803.208	20785
803.35	20796
803.492	20914
803.635	21028
803.777	20697
803.919	20689
804.061	21165
804.204	20994
804.346	20678
804.488	20644
804.63	20689
804.773	20598
804.915	20678
805.057	20788
805.199	20739
805.341	20788
805.483	20769
805.626	20777
805.768	20674
805.91	20667
806.052	20731
806.194	20659
806.336	20853
806.478	20682
806.62	20632
806.762	20735
806.904	20857
807.046	21051
807.188	21024
807.33	20975
807.472	21150
807.614	20944
807.756	20994
807.898	20804
808.04	20682
808.182	20754
808.324	20811
808.465	20857
808.607	20944
808.749	21066
808.891	21081
809.033	21298
809.174	21226
809.316	21169
809.458	21051
809.6	21195
809.741	21112
809.883	21081
810.025	21218
810.166	21146
810.308	21150
810.45	21245
810.591	21009
810.733	20967
810.875	20975
811.016	20762
811.158	20762
811.299	20880
811.441	20868
811.582	20986
811.724	20811
811.865	20857
812.007	20777
812.148	20834
812.29	20807
812.431	21043
812.573	21142
812.714	21096
812.855	21340
812.997	21359
813.138	21500
813.279	21515
813.421	21424
813.562	21260
813.703	21211
813.845	20872
813.986	20724
814.127	20575
814.268	20469
814.41	20495
814.551	20271
814.692	20499
814.833	20362
814.974	20404
815.115	20362
815.256	20278
815.397	20271
815.539	20202
815.68	20172
815.821	20119
815.962	20153
816.103	20122
816.244	19989
816.385	19837
816.526	19883
816.666	19620
816.807	19537
816.948	19578
817.089	19693
817.23	19529
817.371	19487
817.512	19544
817.653	19426
817.793	19518
817.934	19483
818.075	19563
818.216	19548
818.356	19430
818.497	19354
818.638	19194
818.778	19114
818.919	19240
819.06	19183
819.2	19384
819.341	19320
819.481	19400
819.622	19620
819.762	19628
819.903	19647
820.043	19571
820.184	19449
820.324	19403
820.465	19506
820.605	19502
820.746	19438
820.886	19285
821.026	19499
821.167	19407
821.307	19548
821.447	19396
821.588	19365
821.728	19289
821.868	19114
822.008	19004
822.149	18886
822.289	18993
822.429	18707
822.569	18654
822.709	18593
822.849	18391
822.99	18403
823.13	18403
823.27	18388
823.41	18216
823.55	18106
823.69	18251
823.83	18205
823.97	18136
824.11	17954
824.25	18019
824.389	18129
824.529	18079
824.669	18068
824.809	18045
824.949	18121
825.089	18095
825.228	18019
825.368	17733
825.508	17859
825.648	17775
825.787	17817
825.927	17866
826.067	17668
826.206	17729
826.346	17745
826.485	17923
826.625	17695
826.765	17786
826.904	17760
827.044	17528
827.183	17444
827.323	17440
827.462	17509
827.601	17356
827.741	17516
827.88	17471
828.02	17429
828.159	17448
828.298	17467
828.437	17516
828.577	17398
828.716	17558
828.855	17436
828.994	17280
829.134	17212
829.273	17246
829.412	17250
829.551	17246
829.69	17216
829.829	17216
829.968	17296
830.107	17200
830.246	17223
830.385	17208
830.524	17200
830.663	17075
830.802	16904
830.941	16717
831.08	16847
831.219	16934
831.357	16953
831.496	17037
831.635	16896
831.774	16759
831.913	16782
832.051	16611
832.19	16679
832.329	16675
832.467	16588
832.606	16512
832.744	16580
832.883	16523
833.022	16546
833.16	16508
833.299	16554
833.437	16603
833.576	16660
833.714	16558
833.852	16637
833.991	16679
834.129	16683
834.267	16683
834.406	16546
834.544	16645
834.682	16603
834.821	16516
834.959	16664
835.097	16417
835.235	16736
835.373	16603
835.511	16599
835.65	16550
835.788	16527
835.926	16394
836.064	16360
836.202	16375
836.34	16527
836.478	16607
836.615	16516
836.753	16573
836.891	16596
837.029	16615
837.167	16440
837.305	16497
837.443	16436
837.58	16394
837.718	16413
837.856	16455
837.993	16306
838.131	16314
838.269	16367
838.406	16352
838.544	16257
838.681	16044
838.819	15979
838.956	15903
839.094	15953
839.231	15987
839.369	16139
839.506	16352
839.643	16185
839.781	15972
839.918	15846
840.055	15876
840.193	15918
840.33	16063
840.467	15994
840.604	15884
840.742	16200
840.879	15781
841.016	15781
841.153	15804
841.29	15949
841.427	15983
841.564	15911
841.701	16017
841.838	15884
841.975	15823
842.112	15861
842.249	15755
842.385	15690
842.522	15884
842.659	15816
842.796	15698
842.933	15652
843.069	15736
843.206	15660
843.343	15770
843.479	15800
843.616	15846
843.752	15526
843.889	15538
844.025	15747
844.162	15424
844.298	15629
844.435	15538
844.571	15431
844.708	15515
844.844	15656
844.98	15572
845.117	15526
845.253	15500
845.389	15454
845.525	15435
845.661	15355
845.798	15348
845.934	15287
846.07	15325
846.206	15382
846.342	15466
846.478	15294
846.614	15097
846.75	15017
846.886	15001
847.022	15203
847.158	15127
847.294	15157
847.429	15131
847.565	15051
847.701	15279
847.837	14804
847.972	14933
848.108	14929
848.244	14880
848.379	14788
848.515	14606
848.65	14590
848.786	14731
848.921	14773
849.057	14834
849.192	14777
849.328	14689
849.463	14697
849.598	14640
849.734	14697
849.869	14537
850.004	14545
850.14	14442
850.275	14492
850.41	14374
850.545	14400
850.68	14389
850.815	14545
850.95	14450
851.085	14651
851.22	14522
851.355	14461
851.49	14480
851.625	14294
851.76	14408
851.895	14263
852.03	14301
852.165	14362
852.299	14526
852.434	14587
852.569	14461
852.703	14530
852.838	14530
852.973	14571
853.107	14613
853.242	14507
853.376	14317
853.511	14172
853.645	14343
853.78	14438
853.914	14381
854.048	14320
854.183	14298
854.317	14237
854.451	14499
854.585	14366
854.72	14286
854.854	14404
854.988	14259
855.122	14339
855.256	14233
855.39	14282
855.524	14358
855.658	14389
855.792	14404
855.926	14298
856.06	14415
856.194	14412
856.327	14278
856.461	14294
856.595	14313
856.729	14286
856.862	14347
856.996	14317
857.13	14400
857.263	14511
857.397	14465
857.53	14347
857.664	14332
857.797	14393
857.931	14389
858.064	14347
858.197	14374
858.331	14317
858.464	14278
858.597	14221
858.731	14389
858.864	14366
858.997	14275
859.13	14389
859.263	14339
859.396	14412
859.529	14355
859.662	14320
859.795	14317
859.928	14313
860.061	14457
860.194	14530
860.327	14358
860.46	14347
860.592	14495
860.725	14423
860.858	14457
860.99	14328
861.123	14161
861.256	14336
861.388	14339
861.521	15074
861.653	14164
861.786	14149
861.918	14248
862.05	14309
862.183	14218
862.315	14313
862.447	14374
862.58	14309
862.712	14157
862.844	14100
862.976	14202
863.108	14073
863.24	14575
863.372	14024
863.504	14107
863.636	14107
863.768	14138
863.9	14073
864.032	14020
864.164	14012
864.296	14130
864.428	14229
864.559	14221
864.691	14176
864.823	14153
864.954	14157
865.086	14119
865.217	14027
865.349	14058
865.48	14134
865.612	14065
865.743	14233
865.875	14229
866.006	13989
866.137	14062
866.269	14142
866.4	14092
866.531	13967
866.662	14058
866.793	14058
866.924	14024
867.055	14024
867.186	14126
867.317	14005
867.448	13993
867.579	14111
867.71	14031
867.841	14001
867.972	14043
868.103	14092
868.233	14073
868.364	14123
868.495	14199
868.625	14351
868.756	14427
868.886	14267
869.017	14298
869.147	14400
869.278	14450
869.408	14381
869.539	14377
869.669	14374
869.799	14408
869.929	14507
870.06	14549
870.19	14697
870.32	14613
870.45	14693
870.58	14682
870.71	14849
870.84	14849
870.97	14750
871.1	14697
871.23	14880
871.36	14899
871.489	14849
871.619	14944
871.749	14937
871.879	14910
872.008	15028
872.138	14998
872.267	14960
872.397	14819
872.526	14712
872.656	14705
872.785	14830
872.915	15108
873.044	15112
873.173	14956
873.303	14967
873.432	15028
873.561	15013
873.69	14929
873.819	14895
873.948	15199
874.077	15017
874.206	15013
874.335	14994
874.464	15135
874.593	15283
874.722	15154
874.851	15401
874.979	15329
875.108	15355
875.237	15302
875.365	15306
875.494	15321
875.623	15302
875.751	15348
875.88	15332
876.008	15557
876.136	15469
876.265	15671
876.393	15884
876.521	15846
876.65	15781
876.778	15671
876.906	15789
877.034	15720
877.162	15766
877.29	15644
877.418	15724
877.546	15720
877.674	15663
877.802	15759
877.93	15743
878.058	15656
878.185	15641
878.313	15610
878.441	15652
878.568	15576
878.696	15682
878.824	15599
878.951	15755
879.079	15964
879.206	15968
879.333	15915
879.461	15717
879.588	15812
879.715	15998
879.842	15998
879.97	15747
880.097	15523
880.224	15572
880.351	15614
880.478	15561
880.605	15538
880.732	15485
880.859	15827
880.986	15610
881.112	15568
881.239	15496
881.366	15363
881.493	15348
881.619	15355
881.746	15321
881.872	15192
881.999	15176
882.125	15195
882.252	15321
882.378	15195
882.505	15340
882.631	15222
882.757	15081
882.883	15165
883.01	14952
883.136	15077
883.262	14975
883.388	14864
883.514	15036
883.64	15028
883.766	14887
883.892	14899
884.018	14933
884.143	15093
884.269	15150
884.395	14842
884.52	14712
884.646	14724
884.772	14674
884.897	14648
885.023	14807
885.148	14857
885.274	14982
885.399	14834
885.524	14750
885.65	14758
885.775	14693
885.9	14674
886.025	14788
886.15	14716
886.275	14724
886.4	14549
886.525	14735
886.65	14629
886.775	14655
886.9	14834
887.025	14979
887.149	14796
887.274	14549
887.399	14537
887.523	14450
887.648	14434
887.773	14488
887.897	14651
888.021	14617
888.146	14549
888.27	14587
888.395	14750
888.519	14583
888.643	14651
888.767	14606
888.891	14526
889.015	14465
889.139	14598
889.263	14495
889.387	14594
889.511	14629
889.635	14594
889.759	14358
889.883	14355
890.006	14473
890.13	14526
890.254	14389
890.377	14404
890.501	14237
890.624	14218
890.748	14286
890.871	14240
890.995	14096
891.118	14020
891.241	14024
891.364	14138
891.488	14225
891.611	14081
891.734	14134
891.857	14259
891.98	14126
892.103	14123
892.226	14145
892.349	14202
892.471	13997
892.594	14054
892.717	14180
892.839	14065
892.962	14187
893.085	14355
893.207	14126
893.33	14005
893.452	14119
893.575	14103
893.697	14077
893.819	14267
893.941	14339
894.064	14317
894.186	14107
894.308	14077
894.43	14180
894.552	14259
894.674	14286
894.796	14077
894.918	14142
895.04	14229
895.161	14271
895.283	14267
895.405	14149
895.526	14263
895.648	14225
895.769	14305
895.891	14221
896.012	14336
896.134	14191
896.255	14301
896.376	14282
896.498	14366
896.619	14332
896.74	14282
896.861	14408
896.982	14689
897.103	14830
897.224	14701
897.345	14602
897.466	14484
897.587	14560
897.708	14663
897.828	14651
897.949	14537
898.07	14495
898.19	14549
898.311	14659
898.431	14442
898.552	14724
898.672	14663
898.792	14823
898.913	14621
899.033	14533
899.153	14507
899.273	14408
899.393	14431
899.513	14552
899.633	14575
899.753	14533
899.873	14499
899.993	14518
900.113	14507
900.232	14594
900.352	14484
900.472	14454
900.591	14339
900.711	14351
900.83	14336
900.95	14518
901.069	14469
901.189	14362
901.308	14126
901.427	13989
901.546	14012
901.665	14046
901.784	13947
901.904	13913
902.023	13791
902.141	13689
902.26	13658
902.379	13685
902.498	13537
902.617	13582
902.735	13556
902.854	13537
902.973	13502
903.091	13278
903.21	13179
903.328	13324
903.446	13320
903.565	13126
903.683	13270
903.801	13118
903.919	13190
904.038	13149
904.156	12981
904.274	13076
904.392	12935
904.51	12920
904.627	13012
904.745	12989
904.863	13080
904.981	12810
905.098	12703
905.216	12677
905.334	12669
905.451	12730
905.569	12547
905.686	12734
905.803	12642
905.921	12498
906.038	12582
906.155	12498
906.272	12452
906.389	12433
906.506	12247
906.623	12300
906.74	12315
906.857	12190
906.974	12167
907.091	12247
907.208	12399
907.324	12224
907.441	12167
907.557	12133
907.674	12083
907.79	12007
907.907	11942
908.023	12072
908.139	12011
908.256	11920
908.372	11954
908.488	11931
908.604	11832
908.72	11733
908.836	11828
908.952	11745
909.068	11870
909.184	11882
909.3	11726
909.415	11805
909.531	11798
909.647	11558
909.762	11608
909.878	11551
909.993	11592
910.108	11581
910.224	11528
910.339	11611
910.454	11467
910.57	11402
910.685	11376
910.8	11623
910.915	11528
911.03	11395
911.145	11307
911.259	11292
911.374	11337
911.489	11220
911.604	11132
911.718	10991
911.833	11037
911.947	10847
912.062	10812
912.176	11071
912.291	11052
912.405	11045
912.519	11159
912.633	11220
912.748	11102
912.862	10991
912.976	10999
913.09	10763
913.204	10900
913.318	10877
913.431	11045
913.545	10980
913.659	11117
913.772	10961
913.886	10801
914	10862
914.113	10934
914.226	10923
914.34	10923
914.453	10786
914.566	10854
914.68	10828
914.793	10809
914.906	10630
915.019	10500
915.132	10417
915.245	10573
915.358	10535
915.47	10508
915.583	10538
915.696	10626
915.809	10687
915.921	10714
916.034	10531
916.146	10538
916.259	10470
916.371	10592
916.483	10561
916.595	10447
916.708	10504
916.82	10558
916.932	10500
917.044	10424
917.156	10451
917.268	10325
917.38	10402
917.491	10291
917.603	10489
917.715	10455
917.826	10519
917.938	10379
918.049	10196
918.161	10344
918.272	10512
918.384	10527
918.495	10371
918.606	10284
918.717	10215
918.828	10207
918.939	10291
919.05	10200
919.161	10257
919.272	10131
919.383	10234
919.494	10303
919.604	10432
919.715	10318
919.826	10173
919.936	10310
920.047	10386
920.157	10363
920.267	10497
920.378	10333
920.488	10249
920.598	10356
920.708	10668
920.818	10481
920.928	10516
921.038	10755
921.148	10573
921.258	10371
921.368	10227
921.477	10166
921.587	10124
921.697	9979
921.806	10177
921.916	10063
922.025	9835
922.134	9842
922.244	9816
922.353	9880
922.462	9709
922.571	9732
922.68	9511
922.789	9496
922.898	9496
923.007	9447
923.116	9568
923.224	9485
923.333	9534
923.442	9450
923.55	9351
923.659	9462
923.767	9450
923.876	9363
923.984	9477
924.092	9367
924.201	9389
924.309	9428
924.417	9405
924.525	9405
924.633	9313
924.741	10261
924.849	9195
924.956	9378
925.064	9195
925.172	9104
925.279	9138
925.387	9180
925.494	9195
925.602	9317
925.709	9294
925.816	9081
925.924	9180
926.031	9264
926.138	9199
926.245	9249
926.352	9070
926.459	9207
926.566	9249
926.673	9195
926.779	9058
926.886	9001
926.993	8944
927.099	8838
927.206	8849
927.312	8883
927.419	8998
927.525	8952
927.631	8971
927.737	8788
927.843	8796
927.95	8720
928.056	8754
928.162	8769
928.267	8883
928.373	9386
928.479	8864
928.585	8655
928.69	8731
928.796	8853
928.901	8663
929.007	8568
929.112	8648
929.218	8682
929.323	8621
929.428	8598
929.533	8727
929.638	8590
929.743	8568
929.848	8617
929.953	8549
930.058	8549
930.163	8324
930.267	8351
930.372	8549
930.477	8336
930.581	8636
930.685	8457
930.79	8256
930.894	8309
930.998	8263
931.103	8461
931.207	8103
931.311	8111
931.415	7986
931.519	7795
931.623	7883
