Data from test_V78500241_2715.txt Node
Date: Fri Mar 25 14:52:37 CST 2022
User: usil
Spectrometer: V785-0024
Trigger mode: 0
Integration Time (sec): 4.000000E-1
Scans to average: 1
Nonlinearity correction enabled: false
Boxcar width: 0
Storing dark spectrum: false
XAxis mode: Wavelengths
Number of Pixels in Spectrum: 1024
>>>>>Begin Spectral Data<<<<<
801.071	21934
801.214	21869
801.356	21618
801.499	21587
801.641	21336
801.783	21454
801.926	21367
802.068	21203
802.211	21218
802.353	21169
802.496	20876
802.638	20956
802.78	20750
802.923	20754
803.065	20590
803.208	20697
803.35	20670
803.492	20739
803.635	20864
803.777	20708
803.919	20815
804.061	21020
804.204	20724
804.346	20613
804.488	20545
804.63	20678
804.773	20587
804.915	20682
805.057	20743
805.199	20530
805.341	20667
805.483	20769
805.626	20735
805.768	20522
805.91	20606
806.052	20602
806.194	20518
806.336	20609
806.478	20518
806.62	20438
806.762	20640
806.904	20720
807.046	21024
807.188	20906
807.33	20849
807.472	21081
807.614	20838
807.756	20785
807.898	20750
808.04	20682
808.182	20644
808.324	20598
808.465	20750
808.607	20849
808.749	20948
808.891	21096
809.033	21146
809.174	21093
809.316	20929
809.458	21058
809.6	20956
809.741	20956
809.883	20937
810.025	21154
810.166	21066
810.308	21150
810.45	21013
810.591	21009
810.733	20842
810.875	20758
811.016	20659
811.158	20602
811.299	20823
811.441	20762
811.582	20937
811.724	20693
811.865	20598
812.007	20598
812.148	20739
812.29	20750
812.431	20891
812.573	21032
812.714	21203
812.855	21192
812.997	21336
813.138	21336
813.279	21298
813.421	21237
813.562	21131
813.703	20967
813.845	20872
813.986	20522
814.127	20404
814.268	20434
814.41	20404
814.551	20275
814.692	20351
814.833	20138
814.974	20202
815.115	20229
815.256	20168
815.397	20058
815.539	20183
815.68	20020
815.821	20001
815.962	20122
816.103	20020
816.244	19837
816.385	19746
816.526	19719
816.666	19628
816.807	19457
816.948	19422
817.089	19518
817.23	19400
817.371	19445
817.512	19407
817.653	19518
817.793	19400
817.934	19331
818.075	19426
818.216	19419
818.356	19316
818.497	19168
818.638	19137
818.778	19084
818.919	19057
819.06	19247
819.2	19206
819.341	19369
819.481	19270
819.622	19438
819.762	19655
819.903	19480
820.043	19460
820.184	19407
820.324	19384
820.465	19487
820.605	19384
820.746	19400
820.886	19164
821.026	19308
821.167	19316
821.307	19362
821.447	19297
821.588	19308
821.728	19099
821.868	18894
822.008	18779
822.149	18901
822.289	18848
822.429	18566
822.569	18570
822.709	18422
822.849	18350
822.99	18304
823.13	18304
823.27	18247
823.41	18144
823.55	17980
823.69	18155
823.83	18079
823.97	18045
824.11	17904
824.25	17866
824.389	17885
824.529	17923
824.669	17847
824.809	17931
824.949	17969
825.089	18022
825.228	17790
825.368	17638
825.508	17745
825.648	17653
825.787	17649
825.927	17623
826.067	17562
826.206	17585
826.346	17657
826.485	17680
826.625	17653
826.765	17680
826.904	17653
827.044	17448
827.183	17337
827.323	17277
827.462	17486
827.601	17349
827.741	17227
827.88	17391
828.02	17216
828.159	17269
828.298	17398
828.437	17417
828.577	17307
828.716	17368
828.855	17311
828.994	17159
829.134	17045
829.273	17128
829.412	17083
829.551	17094
829.69	17098
829.829	17064
829.968	17189
830.107	17025
830.246	17113
830.385	17022
830.524	17025
830.663	16938
830.802	16889
830.941	16603
831.08	16672
831.219	16702
831.357	16873
831.496	16972
831.635	16763
831.774	16641
831.913	16596
832.051	16546
832.19	16497
832.329	16504
832.467	16409
832.606	16356
832.744	16337
832.883	16367
833.022	16371
833.16	16459
833.299	16474
833.437	16512
833.576	16417
833.714	16409
833.852	16573
833.991	16512
834.129	16459
834.267	16516
834.406	16497
834.544	16493
834.682	16485
834.821	16451
834.959	16649
835.097	16489
835.235	16596
835.373	16512
835.511	16504
835.65	16325
835.788	16516
835.926	16314
836.064	16223
836.202	16291
836.34	16424
836.478	16466
836.615	16314
836.753	16405
836.891	16489
837.029	16466
837.167	16303
837.305	16398
837.443	16299
837.58	16249
837.718	16318
837.856	16234
837.993	16242
838.131	16249
838.269	16188
838.406	16124
838.544	16101
838.681	15895
838.819	15937
838.956	15823
839.094	15819
839.231	15934
839.369	15945
839.506	16238
839.643	15964
839.781	15778
839.918	15850
840.055	15819
840.193	15816
840.33	15774
840.467	15743
840.604	15838
840.742	16017
840.879	15629
841.016	15869
841.153	15709
841.29	15895
841.427	15819
841.564	15781
841.701	15808
841.838	15842
841.975	15698
842.112	15819
842.249	15675
842.385	15561
842.522	15724
842.659	15629
842.796	15511
842.933	15618
843.069	15561
843.206	15519
843.343	15713
843.479	15561
843.616	15652
843.752	15367
843.889	15317
844.025	15549
844.162	15329
844.298	15568
844.435	15408
844.571	15397
844.708	15401
844.844	15557
844.98	15515
845.117	15408
845.253	15424
845.389	15348
845.525	15302
845.661	15279
845.798	15138
845.934	15154
846.07	15135
846.206	15135
846.342	15336
846.478	15184
846.614	14990
846.75	14937
846.886	14921
847.022	15108
847.158	15020
847.294	15062
847.429	15036
847.565	14948
847.701	15188
847.837	14777
847.972	14682
848.108	14868
848.244	14682
848.379	14644
848.515	14507
848.65	14594
848.786	14590
848.921	14670
849.057	14590
849.192	14648
849.328	14579
849.463	14507
849.598	14511
849.734	14427
849.869	14400
850.004	14294
850.14	14374
850.275	14377
850.41	14233
850.545	14256
850.68	14309
850.815	14381
850.95	14301
851.085	14575
851.22	14461
851.355	14393
851.49	14199
851.625	14393
851.76	14389
851.895	14233
852.03	14142
852.165	14358
852.299	14423
852.434	14351
852.569	14377
852.703	14366
852.838	14358
852.973	14545
853.107	14457
853.242	14237
853.376	14191
853.511	14096
853.645	14088
853.78	14248
853.914	14214
854.048	14187
854.183	14054
854.317	14096
854.451	14438
854.585	14214
854.72	14210
854.854	14282
854.988	14103
855.122	14225
855.256	14119
855.39	14214
855.524	14332
855.658	14183
855.792	14290
855.926	14168
856.06	14362
856.194	14404
856.327	14229
856.461	14180
856.595	14138
856.729	14187
856.862	14320
856.996	14210
857.13	14282
857.263	14347
857.397	14324
857.53	14130
857.664	14221
857.797	14183
857.931	14290
858.064	14317
858.197	14336
858.331	14229
858.464	14225
858.597	14123
858.731	14248
858.864	14221
858.997	14145
859.13	14252
859.263	14305
859.396	14271
859.529	14271
859.662	14290
859.795	14161
859.928	14305
860.061	14332
860.194	14347
860.327	14161
860.46	14199
860.592	14240
860.725	14271
860.858	14244
860.99	14218
861.123	14130
861.256	14199
861.388	14282
861.521	14861
861.653	14069
861.786	14088
861.918	14126
862.05	14119
862.183	14195
862.315	14210
862.447	14259
862.58	14126
862.712	14081
862.844	13875
862.976	14008
863.108	13928
863.24	14476
863.372	13906
863.504	13906
863.636	13925
863.768	14043
863.9	14035
864.032	13955
864.164	14020
864.296	14046
864.428	14073
864.559	14035
864.691	14115
864.823	13986
864.954	13986
865.086	14035
865.217	13974
865.349	13849
865.48	13982
865.612	13974
865.743	14073
865.875	13959
866.006	13875
866.137	14005
866.269	13932
866.4	13970
866.531	13871
866.662	13860
866.793	13868
866.924	13936
867.055	14024
867.186	13974
867.317	13974
867.448	13841
867.579	13963
867.71	13925
867.841	13902
867.972	14088
868.103	13959
868.233	13970
868.364	13970
868.495	14058
868.625	14206
868.756	14305
868.886	14130
869.017	14225
869.147	14404
869.278	14290
869.408	14206
869.539	14210
869.669	14294
869.799	14240
869.929	14366
870.06	14358
870.19	14495
870.32	14530
870.45	14560
870.58	14629
870.71	14708
870.84	14674
870.97	14606
871.1	14541
871.23	14868
871.36	14785
871.489	14708
871.619	14845
871.749	14727
871.879	14807
872.008	14956
872.138	14838
872.267	14781
872.397	14743
872.526	14640
872.656	14598
872.785	14667
872.915	14849
873.044	14944
873.173	14838
873.303	14823
873.432	14899
873.561	15017
873.69	14876
873.819	14750
873.948	14845
874.077	14849
874.206	14777
874.335	14979
874.464	15058
874.593	15169
874.722	15203
874.851	15192
874.979	15165
875.108	15222
875.237	15081
875.365	15173
875.494	15097
875.623	15154
875.751	15135
875.88	15154
876.008	15428
876.136	15477
876.265	15637
876.393	15759
876.521	15671
876.65	15690
876.778	15542
876.906	15545
877.034	15610
877.162	15667
877.29	15431
877.418	15625
877.546	15595
877.674	15629
877.802	15610
877.93	15561
878.058	15614
878.185	15469
878.313	15610
878.441	15549
878.568	15435
878.696	15557
878.824	15667
878.951	15652
879.079	15789
879.206	15949
879.333	15709
879.461	15705
879.588	15766
879.715	15785
879.842	15869
879.97	15648
880.097	15485
880.224	15469
880.351	15500
880.478	15511
880.605	15428
880.732	15428
880.859	15709
880.986	15515
881.112	15587
881.239	15340
881.366	15268
881.493	15169
881.619	15070
881.746	15020
881.872	15211
881.999	15093
882.125	15017
882.252	15093
882.378	15165
882.505	15173
882.631	15074
882.757	14899
882.883	15032
883.01	14918
883.136	14819
883.262	14743
883.388	14750
883.514	14933
883.64	14975
883.766	14960
883.892	14777
884.018	14804
884.143	14880
884.269	15066
884.395	14659
884.52	14606
884.646	14670
884.772	14579
884.897	14530
885.023	14526
885.148	14689
885.274	14754
885.399	14838
885.524	14659
885.65	14659
885.775	14705
885.9	14617
886.025	14746
886.15	14788
886.275	14659
886.4	14663
886.525	14682
886.65	14598
886.775	14541
886.9	14826
887.025	14823
887.149	14655
887.274	14423
887.399	14434
887.523	14442
887.648	14518
887.773	14309
887.897	14545
888.021	14438
888.146	14522
888.27	14488
888.395	14556
888.519	14518
888.643	14465
888.767	14541
888.891	14450
889.015	14225
889.139	14396
889.263	14301
889.387	14431
889.511	14484
889.635	14408
889.759	14298
889.883	14313
890.006	14412
890.13	14488
890.254	14225
890.377	14263
890.501	14119
890.624	14126
890.748	14248
890.871	14103
890.995	14088
891.118	13959
891.241	13989
891.364	14084
891.488	14237
891.611	14001
891.734	14054
891.857	14103
891.98	14031
892.103	14153
892.226	14069
892.349	13928
892.471	13780
892.594	13967
892.717	14058
892.839	14043
892.962	13967
893.085	14077
893.207	14065
893.33	13978
893.452	13944
893.575	14096
893.697	14039
893.819	14199
893.941	14210
894.064	14176
894.186	14065
894.308	13993
894.43	14157
894.552	14225
894.674	14092
894.796	13955
894.918	14077
895.04	14088
895.161	14199
895.283	14111
895.405	14123
895.526	14153
895.648	14218
895.769	14180
895.891	14271
896.012	14244
896.134	14157
896.255	14248
896.376	14191
896.498	14172
896.619	14286
896.74	14259
896.861	14176
896.982	14526
897.103	14701
897.224	14484
897.345	14343
897.466	14412
897.587	14442
897.708	14674
897.828	14438
897.949	14374
898.07	14282
898.19	14423
898.311	14587
898.431	14579
898.552	14499
898.672	14648
898.792	14613
898.913	14560
899.033	14465
899.153	14419
899.273	14263
899.393	14317
899.513	14450
899.633	14366
899.753	14469
899.873	14385
899.993	14480
900.113	14381
900.232	14457
900.352	14301
900.472	14286
900.591	14123
900.711	14271
900.83	14199
900.95	14389
901.069	14374
901.189	14313
901.308	14005
901.427	13890
901.546	13906
901.665	14020
901.784	13921
901.904	13822
902.023	13704
902.141	13590
902.26	13556
902.379	13559
902.498	13559
902.617	13464
902.735	13529
902.854	13491
902.973	13544
903.091	13327
903.21	13183
903.328	13168
903.446	13187
903.565	12966
903.683	13069
903.801	13042
903.919	13061
904.038	13099
904.156	12894
904.274	12985
904.392	12920
904.51	12875
904.627	12875
904.745	12947
904.863	12840
904.981	12715
905.098	12582
905.216	12623
905.334	12639
905.451	12646
905.569	12551
905.686	12570
905.803	12608
905.921	12418
906.038	12540
906.155	12422
906.272	12346
906.389	12380
906.506	12155
906.623	12220
906.74	12171
906.857	11973
906.974	12060
907.091	12228
907.208	12338
907.324	12186
907.441	12186
907.557	12068
907.674	11988
907.79	11889
907.907	11908
908.023	11969
908.139	11961
908.256	11931
908.372	11847
908.488	11863
908.604	11726
908.72	11619
908.836	11695
908.952	11688
909.068	11627
909.184	11809
909.3	11748
909.415	11767
909.531	11794
909.647	11547
909.762	11463
909.878	11440
909.993	11467
910.108	11417
910.224	11459
910.339	11509
910.454	11337
910.57	11292
910.685	11235
910.8	11516
910.915	11391
911.03	11345
911.145	11159
911.259	11254
911.374	11174
911.489	11147
911.604	11064
911.718	10991
911.833	10892
911.947	10771
912.062	10706
912.176	10919
912.291	10904
912.405	10873
912.519	11166
912.633	11124
912.748	10987
912.862	10889
912.976	10824
913.09	10698
913.204	10801
913.318	10786
913.431	10866
913.545	10915
913.659	11037
913.772	10774
913.886	10694
914	10615
914.113	10786
914.226	10835
914.34	10862
914.453	10603
914.566	10801
914.68	10691
914.793	10649
914.906	10500
915.019	10474
915.132	10367
915.245	10493
915.358	10436
915.47	10519
915.583	10497
915.696	10573
915.809	10630
915.921	10618
916.034	10497
916.146	10367
916.259	10390
916.371	10535
916.483	10462
916.595	10394
916.708	10462
916.82	10413
916.932	10394
917.044	10428
917.156	10356
917.268	10318
917.38	10367
917.491	10280
917.603	10367
917.715	10398
917.826	10466
917.938	10371
918.049	10177
918.161	10246
918.272	10382
918.384	10409
918.495	10424
918.606	10227
918.717	10071
918.828	10268
918.939	10242
919.05	10109
919.161	10253
919.272	9975
919.383	10128
919.494	10257
919.604	10531
919.715	10188
919.826	10131
919.936	10147
920.047	10310
920.157	10287
920.267	10440
920.378	10223
920.488	10158
920.598	10386
920.708	10542
920.818	10398
920.928	10390
921.038	10558
921.148	10550
921.258	10204
921.368	10207
921.477	10150
921.587	10086
921.697	10006
921.806	10200
921.916	9968
922.025	9747
922.134	9797
922.244	9778
922.353	9759
922.462	9705
922.571	9591
922.68	9496
922.789	9450
922.898	9538
923.007	9443
923.116	9477
923.224	9469
923.333	9454
923.442	9412
923.55	9287
923.659	9382
923.767	9412
923.876	9283
923.984	9389
924.092	9287
924.201	9408
924.309	9287
924.417	9351
924.525	9222
924.633	9344
924.741	10074
924.849	9058
924.956	9253
925.064	9070
925.172	9051
925.279	9131
925.387	9180
925.494	9146
925.602	9180
925.709	9222
925.816	9131
925.924	9055
926.031	9253
926.138	9161
926.245	9195
926.352	9032
926.459	9154
926.566	9264
926.673	9024
926.779	9013
926.886	8979
926.993	8826
927.099	8819
927.206	8769
927.312	8815
927.419	8891
927.525	8792
927.631	8807
927.737	8750
927.843	8739
927.95	8682
928.056	8788
928.162	8743
928.267	8796
928.373	9397
928.479	8872
928.585	8621
928.69	8701
928.796	8746
928.901	8617
929.007	8476
929.112	8667
929.218	8632
929.323	8598
929.428	8549
929.533	8640
929.638	8575
929.743	8575
929.848	8587
929.953	8511
930.058	8465
930.163	8355
930.267	8317
930.372	8480
930.477	8328
930.581	8571
930.685	8412
930.79	8286
930.894	8332
930.998	8221
931.103	8393
931.207	8077
931.311	8031
931.415	7967
931.519	7738
931.623	7776
