Data from test_V78500241_1124.txt Node
Date: Fri Mar 25 14:41:32 CST 2022
User: usil
Spectrometer: V785-0024
Trigger mode: 0
Integration Time (sec): 4.000000E-1
Scans to average: 1
Nonlinearity correction enabled: false
Boxcar width: 0
Storing dark spectrum: false
XAxis mode: Wavelengths
Number of Pixels in Spectrum: 1024
>>>>>Begin Spectral Data<<<<<
801.071	22546
801.214	22493
801.356	22242
801.499	22147
801.641	22051
801.783	21903
801.926	21937
802.068	21873
802.211	21789
802.353	21576
802.496	21420
802.638	21557
802.78	21367
802.923	21363
803.065	21363
803.208	21233
803.35	21306
803.492	21405
803.635	21367
803.777	21245
803.919	21355
804.061	21732
804.204	21321
804.346	21287
804.488	21180
804.63	21313
804.773	21211
804.915	21199
805.057	21439
805.199	21226
805.341	21283
805.483	21424
805.626	21397
805.768	21222
805.91	21241
806.052	21272
806.194	21222
806.336	21412
806.478	21199
806.62	21218
806.762	21332
806.904	21488
807.046	21690
807.188	21667
807.33	21545
807.472	21591
807.614	21728
807.756	21663
807.898	21492
808.04	21405
808.182	21405
808.324	21618
808.465	21580
808.607	21812
808.749	22010
808.891	21945
809.033	22109
809.174	22078
809.316	21861
809.458	21835
809.6	21694
809.741	21774
809.883	21751
810.025	21994
810.166	21865
810.308	21934
810.45	21975
810.591	21713
810.733	21587
810.875	21694
811.016	21412
811.158	21363
811.299	21523
811.441	21523
811.582	21553
811.724	21485
811.865	21393
812.007	21412
812.148	21454
812.29	21473
812.431	21538
812.573	21720
812.714	21892
812.855	21945
812.997	22025
813.138	22177
813.279	22013
813.421	21873
813.562	21873
813.703	21698
813.845	21667
813.986	21424
814.127	21089
814.268	20979
814.41	20941
814.551	21131
814.692	21085
814.833	20967
814.974	20842
815.115	20921
815.256	20857
815.397	20727
815.539	20853
815.68	20720
815.821	20606
815.962	20750
816.103	20621
816.244	20606
816.385	20526
816.526	20393
816.666	20286
816.807	20145
816.948	20202
817.089	20301
817.23	20225
817.371	20221
817.512	20191
817.653	20183
817.793	20077
817.934	20111
818.075	20103
818.216	20164
818.356	20062
818.497	19944
818.638	19742
818.778	19784
818.919	19845
819.06	19830
819.2	19871
819.341	20050
819.481	19978
819.622	20164
819.762	20347
819.903	20221
820.043	20142
820.184	20096
820.324	20195
820.465	20183
820.605	20065
820.746	20168
820.886	19986
821.026	20195
821.167	20046
821.307	20081
821.447	20084
821.588	19921
821.728	19887
821.868	19639
822.008	19518
822.149	19537
822.289	19563
822.429	19282
822.569	19225
822.709	19156
822.849	18886
822.99	18977
823.13	19027
823.27	18901
823.41	18738
823.55	18856
823.69	18726
823.83	18726
823.97	18719
824.11	18589
824.25	18547
824.389	18574
824.529	18760
824.669	18494
824.809	18658
824.949	18669
825.089	18696
825.228	18582
825.368	18346
825.508	18445
825.648	18490
825.787	18418
825.927	18513
826.067	18273
826.206	18235
826.346	18289
826.485	18460
826.625	18334
826.765	18486
826.904	18296
827.044	18159
827.183	17980
827.323	17969
827.462	18049
827.601	18083
827.741	18098
827.88	18106
828.02	17954
828.159	18011
828.298	18087
828.437	18076
828.577	18095
828.716	18235
828.855	18072
828.994	17729
829.134	17950
829.273	17760
829.412	17798
829.551	17775
829.69	17813
829.829	17855
829.968	17939
830.107	17920
830.246	17843
830.385	17764
830.524	17748
830.663	17551
830.802	17554
830.941	17463
831.08	17391
831.219	17585
831.357	17512
831.496	17554
831.635	17509
831.774	17372
831.913	17227
832.051	17296
832.19	17326
832.329	17330
832.467	17102
832.606	17064
832.744	17117
832.883	17079
833.022	17098
833.16	17166
833.299	17376
833.437	17151
833.576	17208
833.714	17254
833.852	17254
833.991	17178
834.129	17227
834.267	17277
834.406	17185
834.544	17197
834.682	17197
834.821	17181
834.959	17360
835.097	17189
835.235	17258
835.373	17181
835.511	17258
835.65	17033
835.788	17052
835.926	16995
836.064	16877
836.202	16908
836.34	17147
836.478	17220
836.615	17033
836.753	17136
836.891	17208
837.029	17155
837.167	17033
837.305	17037
837.443	17006
837.58	16831
837.718	17071
837.856	16999
837.993	16850
838.131	16976
838.269	16843
838.406	16835
838.544	16786
838.681	16664
838.819	16691
838.956	16573
839.094	16436
839.231	16538
839.369	16641
839.506	16968
839.643	16725
839.781	16409
839.918	16424
840.055	16516
840.193	16478
840.33	16592
840.467	16538
840.604	16462
840.742	16706
840.879	16375
841.016	16409
841.153	16356
841.29	16622
841.427	16523
841.564	16527
841.701	16470
841.838	16451
841.975	16333
842.112	16440
842.249	16329
842.385	16276
842.522	16436
842.659	16185
842.796	16265
842.933	16299
843.069	16234
843.206	16242
843.343	16360
843.479	16322
843.616	16306
843.752	16116
843.889	16120
844.025	16185
844.162	16078
844.298	16150
844.435	16040
844.571	16044
844.708	16162
844.844	16135
844.98	16238
845.117	16230
845.253	16112
845.389	15964
845.525	16120
845.661	16162
845.798	16177
845.934	16204
846.07	16173
846.206	16226
846.342	16322
846.478	16059
846.614	15816
846.75	15728
846.886	15572
847.022	15827
847.158	15625
847.294	15622
847.429	15667
847.565	15603
847.701	15831
847.837	15435
847.972	15272
848.108	15530
848.244	15393
848.379	15203
848.515	15256
848.65	15222
848.786	15302
848.921	15188
849.057	15313
849.192	15340
849.328	15165
849.463	15260
849.598	15203
849.734	15108
849.869	15150
850.004	14975
850.14	15104
850.275	14941
850.41	14899
850.545	14941
850.68	15001
850.815	15066
850.95	14952
851.085	15108
851.22	15066
851.355	15005
851.49	14944
851.625	14975
851.76	14960
851.895	14956
852.03	14845
852.165	14876
852.299	14994
852.434	15100
852.569	15058
852.703	14963
852.838	15142
852.973	15097
853.107	15097
853.242	14952
853.376	14887
853.511	14792
853.645	14823
853.78	14906
853.914	14971
854.048	14731
854.183	14842
854.317	14842
854.451	14979
854.585	14861
854.72	14788
854.854	14899
854.988	14754
855.122	14910
855.256	14636
855.39	14777
855.524	14914
855.658	14944
855.792	14876
855.926	14853
856.06	14933
856.194	15051
856.327	14720
856.461	14765
856.595	14815
856.729	14887
856.862	14914
856.996	14948
857.13	14895
857.263	15001
857.397	15024
857.53	14800
857.664	14941
857.797	14914
857.931	14952
858.064	14868
858.197	15032
858.331	14902
858.464	14952
858.597	14804
858.731	14944
858.864	14853
858.997	14792
859.13	14842
859.263	14853
859.396	14941
859.529	14826
859.662	14963
859.795	14792
859.928	14845
860.061	15001
860.194	15028
860.327	14826
860.46	15001
860.592	14895
860.725	15074
860.858	15043
860.99	14845
861.123	14769
861.256	14864
861.388	14864
861.521	15656
861.653	14773
861.786	14727
861.918	14689
862.05	14842
862.183	14777
862.315	14910
862.447	14998
862.58	14842
862.712	14674
862.844	14537
862.976	14689
863.108	14613
863.24	15043
863.372	14560
863.504	14678
863.636	14724
863.768	14720
863.9	14716
864.032	14636
864.164	14556
864.296	14735
864.428	14746
864.559	14754
864.691	14815
864.823	14804
864.954	14689
865.086	14697
865.217	14640
865.349	14568
865.48	14625
865.612	14598
865.743	14716
865.875	14602
866.006	14541
866.137	14629
866.269	14579
866.4	14503
866.531	14610
866.662	14541
866.793	14526
866.924	14659
867.055	14568
867.186	14697
867.317	14530
867.448	14568
867.579	14530
867.71	14568
867.841	14594
867.972	14575
868.103	14689
868.233	14629
868.364	14640
868.495	14678
868.625	14887
868.756	14941
868.886	14758
869.017	14804
869.147	14990
869.278	15017
869.408	14887
869.539	14967
869.669	14948
869.799	14921
869.929	15051
870.06	15055
870.19	15184
870.32	15108
870.45	15203
870.58	15378
870.71	15348
870.84	15447
870.97	15298
871.1	15222
871.23	15473
871.36	15443
871.489	15332
871.619	15367
871.749	15443
871.879	15599
872.008	15553
872.138	15500
872.267	15428
872.397	15420
872.526	15332
872.656	15329
872.785	15351
872.915	15439
873.044	15542
873.173	15534
873.303	15526
873.432	15652
873.561	15599
873.69	15584
873.819	15466
873.948	15538
874.077	15564
874.206	15519
874.335	15428
874.464	15656
874.593	15770
874.722	15781
874.851	15819
874.979	15850
875.108	15816
875.237	15759
875.365	15682
875.494	15728
875.623	15869
875.751	15812
875.88	15854
876.008	16032
876.136	16036
876.265	16242
876.393	16421
876.521	16371
876.65	16348
876.778	16322
876.906	16192
877.034	16169
877.162	16242
877.29	16025
877.418	16246
877.546	16322
877.674	16238
877.802	16223
877.93	16272
878.058	16234
878.185	16120
878.313	16341
878.441	16249
878.568	16048
878.696	16257
878.824	16211
878.951	16284
879.079	16500
879.206	16672
879.333	16516
879.461	16436
879.588	16440
879.715	16626
879.842	16729
879.97	16432
880.097	16215
880.224	16234
880.351	16257
880.478	16063
880.605	16059
880.732	16109
880.859	16322
880.986	16181
881.112	16192
881.239	16017
881.366	15838
881.493	15884
881.619	15800
881.746	15869
881.872	15755
881.999	15770
882.125	15816
882.252	15838
882.378	15713
882.505	15964
882.631	15762
882.757	15568
882.883	15606
883.01	15591
883.136	15523
883.262	15405
883.388	15424
883.514	15610
883.64	15637
883.766	15549
883.892	15393
884.018	15481
884.143	15667
884.269	15728
884.395	15393
884.52	15287
884.646	15336
884.772	15192
884.897	15283
885.023	15321
885.148	15370
885.274	15428
885.399	15428
885.524	15203
885.65	15294
885.775	15298
885.9	15310
886.025	15355
886.15	15481
886.275	15233
886.4	15199
886.525	15245
886.65	15268
886.775	15264
886.9	15420
887.025	15530
887.149	15214
887.274	15176
887.399	15081
887.523	15077
887.648	15024
887.773	15024
887.897	15214
888.021	15047
888.146	15017
888.27	15123
888.395	15237
888.519	15074
888.643	15195
888.767	15055
888.891	14998
889.015	14986
889.139	14967
889.263	14952
889.387	14979
889.511	15230
889.635	15131
889.759	14982
889.883	14948
890.006	15047
890.13	15062
890.254	14815
890.377	14868
890.501	14796
890.624	14682
890.748	14838
890.871	14731
890.995	14484
891.118	14579
891.241	14701
891.364	14636
891.488	14792
891.611	14579
891.734	14632
891.857	14724
891.98	14579
892.103	14659
892.226	14644
892.349	14507
892.471	14415
892.594	14629
892.717	14693
892.839	14644
892.962	14659
893.085	14670
893.207	14655
893.33	14522
893.452	14560
893.575	14708
893.697	14606
893.819	14823
893.941	14800
894.064	14792
894.186	14511
894.308	14427
894.43	14655
894.552	14781
894.674	14773
894.796	14602
894.918	14648
895.04	14640
895.161	14800
895.283	14705
895.405	14670
895.526	14636
895.648	14682
895.769	14731
895.891	14769
896.012	14800
896.134	14834
896.255	14781
896.376	14765
896.498	14708
896.619	14815
896.74	14830
896.861	14758
896.982	15009
897.103	15222
897.224	15104
897.345	15055
897.466	14967
897.587	14857
897.708	15142
897.828	15127
897.949	14998
898.07	14921
898.19	15036
898.311	15112
898.431	15039
898.552	15051
898.672	15195
898.792	15203
898.913	15138
899.033	15024
899.153	14910
899.273	14826
899.393	14887
899.513	14982
899.633	14971
899.753	14910
899.873	14868
899.993	14952
900.113	14861
900.232	15032
900.352	14921
900.472	14880
900.591	14769
900.711	14853
900.83	14727
900.95	14826
901.069	15036
901.189	14800
901.308	14488
901.427	14492
901.546	14495
901.665	14511
901.784	14469
901.904	14301
902.023	14290
902.141	14126
902.26	13940
902.379	14161
902.498	14043
902.617	14020
902.735	14024
902.854	13989
902.973	14001
903.091	13841
903.21	13791
903.328	13742
903.446	13662
903.565	13556
903.683	13597
903.801	13529
903.919	13567
904.038	13540
904.156	13449
904.274	13506
904.392	13422
904.51	13350
904.627	13400
904.745	13514
904.863	13400
904.981	13324
905.098	13171
905.216	13209
905.334	13099
905.451	13194
905.569	13103
905.686	13095
905.803	13107
905.921	12916
906.038	12939
906.155	12943
906.272	12882
906.389	12814
906.506	12665
906.623	12684
906.74	12692
906.857	12536
906.974	12646
907.091	12734
907.208	12833
907.324	12642
907.441	12460
907.557	12452
907.674	12441
907.79	12285
907.907	12452
908.023	12384
908.139	12403
908.256	12285
908.372	12391
908.488	12350
908.604	12163
908.72	12152
908.836	12197
908.952	12117
909.068	12129
909.184	12232
909.3	12133
909.415	12213
909.531	12133
909.647	11885
909.762	11916
909.878	11901
909.993	11965
910.108	11866
910.224	11969
910.339	11912
910.454	11836
910.57	11828
910.685	11718
910.8	11996
910.915	11866
911.03	11779
911.145	11619
911.259	11695
911.374	11642
911.489	11566
911.604	11535
911.718	11387
911.833	11402
911.947	11280
912.062	11212
912.176	11376
912.291	11387
912.405	11391
912.519	11630
912.633	11543
912.748	11455
912.862	11448
912.976	11334
913.09	11193
913.204	11250
913.318	11239
913.431	11299
913.545	11315
913.659	11353
913.772	11265
913.886	11227
914	11075
914.113	11261
914.226	11258
914.34	11235
914.453	11037
914.566	11178
914.68	11064
914.793	11033
914.906	10866
915.019	10759
915.132	10866
915.245	10862
915.358	10892
915.47	10812
915.583	10915
915.696	10869
915.809	11006
915.921	10999
916.034	10881
916.146	10774
916.259	10755
916.371	10774
916.483	10923
916.595	10744
916.708	10877
916.82	10748
916.932	10733
917.044	10660
917.156	10740
917.268	10679
917.38	10752
917.491	10664
917.603	10698
917.715	10748
917.826	10759
917.938	10603
918.049	10531
918.161	10645
918.272	10828
918.384	10774
918.495	10702
918.606	10497
918.717	10455
918.828	10546
918.939	10550
919.05	10478
919.161	10504
919.272	10344
919.383	10455
919.494	10637
919.604	10752
919.715	10523
919.826	10493
919.936	10565
920.047	10668
920.157	10584
920.267	10725
920.378	10592
920.488	10577
920.598	10668
920.708	10881
920.818	10725
920.928	10736
921.038	10927
921.148	10946
921.258	10634
921.368	10531
921.477	10424
921.587	10417
921.697	10367
921.806	10306
921.916	10333
922.025	10150
922.134	10086
922.244	10051
922.353	10173
922.462	10025
922.571	9987
922.68	9812
922.789	9713
922.898	9808
923.007	9728
923.116	9857
923.224	9797
923.333	9762
923.442	9724
923.55	9698
923.659	9667
923.767	9732
923.876	9603
923.984	9797
924.092	9595
924.201	9720
924.309	9694
924.417	9637
924.525	9572
924.633	9610
924.741	10352
924.849	9435
924.956	9576
925.064	9428
925.172	9344
925.279	9416
925.387	9439
925.494	9416
925.602	9591
925.709	9595
925.816	9374
925.924	9485
926.031	9462
926.138	9359
926.245	9557
926.352	9374
926.459	9599
926.566	9587
926.673	9355
926.779	9348
926.886	9310
926.993	9127
927.099	9169
927.206	9089
927.312	9077
927.419	9138
927.525	9199
927.631	9203
927.737	9131
927.843	9032
927.95	8937
928.056	9001
928.162	8979
928.267	9146
928.373	9774
928.479	9138
928.585	8853
928.69	8998
928.796	9097
928.901	9047
929.007	8853
929.112	8956
929.218	8925
929.323	8891
929.428	8857
929.533	9058
929.638	8826
929.743	8849
929.848	8861
929.953	8872
930.058	8754
930.163	8625
930.267	8682
930.372	8731
930.477	8670
930.581	8838
930.685	8712
930.79	8579
930.894	8663
930.998	8522
931.103	8720
931.207	8347
931.311	8259
931.415	8267
931.519	8126
931.623	8065
