Data from test_V78500241_2879.txt Node
Date: Fri Mar 25 14:53:45 CST 2022
User: usil
Spectrometer: V785-0024
Trigger mode: 0
Integration Time (sec): 4.000000E-1
Scans to average: 1
Nonlinearity correction enabled: false
Boxcar width: 0
Storing dark spectrum: false
XAxis mode: Wavelengths
Number of Pixels in Spectrum: 1024
>>>>>Begin Spectral Data<<<<<
801.071	22135
801.214	22082
801.356	21641
801.499	21599
801.641	21561
801.783	21412
801.926	21568
802.068	21405
802.211	21355
802.353	21207
802.496	21013
802.638	20925
802.78	20921
802.923	20933
803.065	20769
803.208	20750
803.35	20727
803.492	20979
803.635	20807
803.777	20777
803.919	20853
804.061	21173
804.204	20895
804.346	20686
804.488	20655
804.63	20674
804.773	20636
804.915	20640
805.057	20739
805.199	20674
805.341	20773
805.483	20849
805.626	20609
805.768	20613
805.91	20682
806.052	20781
806.194	20644
806.336	20807
806.478	20625
806.62	20651
806.762	20739
806.904	20830
807.046	21074
807.188	20960
807.33	21001
807.472	21157
807.614	20929
807.756	20948
807.898	20746
808.04	20796
808.182	20659
808.324	20777
808.465	20880
808.607	21085
808.749	21020
808.891	21135
809.033	21112
809.174	21165
809.316	21032
809.458	21028
809.6	21150
809.741	21032
809.883	21017
810.025	21161
810.166	21275
810.308	21287
810.45	21077
810.591	21058
810.733	20956
810.875	20811
811.016	20788
811.158	20720
811.299	20773
811.441	20960
811.582	20914
811.724	20845
811.865	20785
812.007	20807
812.148	20868
812.29	20891
812.431	21058
812.573	21028
812.714	21188
812.855	21287
812.997	21386
813.138	21625
813.279	21477
813.421	21363
813.562	21203
813.703	20998
813.845	20887
813.986	20693
814.127	20431
814.268	20431
814.41	20324
814.551	20450
814.692	20423
814.833	20286
814.974	20351
815.115	20301
815.256	20149
815.397	20157
815.539	20142
815.68	20103
815.821	20058
815.962	20161
816.103	20199
816.244	19845
816.385	19864
816.526	19791
816.666	19696
816.807	19422
816.948	19689
817.089	19681
817.23	19552
817.371	19491
817.512	19430
817.653	19556
817.793	19419
817.934	19415
818.075	19552
818.216	19544
818.356	19396
818.497	19324
818.638	19228
818.778	19156
818.919	19069
819.06	19168
819.2	19304
819.341	19324
819.481	19354
819.622	19464
819.762	19727
819.903	19643
820.043	19457
820.184	19468
820.324	19518
820.465	19491
820.605	19480
820.746	19358
820.886	19213
821.026	19407
821.167	19468
821.307	19582
821.447	19464
821.588	19289
821.728	19293
821.868	19141
822.008	18920
822.149	18951
822.289	18825
822.429	18616
822.569	18585
822.709	18597
822.849	18369
822.99	18357
823.13	18365
823.27	18376
823.41	18194
823.55	18186
823.69	18243
823.83	18140
823.97	18045
824.11	17988
824.25	17984
824.389	17988
824.529	18152
824.669	17786
824.809	18057
824.949	17984
825.089	18053
825.228	18007
825.368	17695
825.508	17779
825.648	17798
825.787	17710
825.927	17710
826.067	17649
826.206	17634
826.346	17885
826.485	17794
826.625	17695
826.765	17748
826.904	17676
827.044	17474
827.183	17379
827.323	17383
827.462	17482
827.601	17353
827.741	17406
827.88	17425
828.02	17368
828.159	17395
828.298	17471
828.437	17417
828.577	17250
828.716	17554
828.855	17254
828.994	17216
829.134	17227
829.273	17265
829.412	17193
829.551	17261
829.69	17155
829.829	17258
829.968	17280
830.107	17227
830.246	17258
830.385	17033
830.524	17086
830.663	16980
830.802	16995
830.941	16782
831.08	16759
831.219	16881
831.357	16858
831.496	16927
831.635	16782
831.774	16790
831.913	16721
832.051	16622
832.19	16618
832.329	16584
832.467	16481
832.606	16432
832.744	16554
832.883	16531
833.022	16447
833.16	16542
833.299	16535
833.437	16417
833.576	16599
833.714	16622
833.852	16622
833.991	16523
834.129	16626
834.267	16618
834.406	16531
834.544	16592
834.682	16577
834.821	16626
834.959	16752
835.097	16516
835.235	16615
835.373	16538
835.511	16573
835.65	16519
835.788	16500
835.926	16295
836.064	16303
836.202	16371
836.34	16432
836.478	16538
836.615	16417
836.753	16516
836.891	16500
837.029	16481
837.167	16451
837.305	16337
837.443	16497
837.58	16303
837.718	16421
837.856	16440
837.993	16299
838.131	16344
838.269	16249
838.406	16166
838.544	16147
838.681	15979
838.819	15934
838.956	15808
839.094	15800
839.231	15846
839.369	15911
839.506	16325
839.643	16131
839.781	15930
839.918	15827
840.055	15949
840.193	15808
840.33	15842
840.467	15918
840.604	15975
840.742	16131
840.879	15694
841.016	15694
841.153	15797
841.29	16040
841.427	15911
841.564	15861
841.701	15774
841.838	15850
841.975	15679
842.112	15739
842.249	15728
842.385	15644
842.522	15945
842.659	15736
842.796	15595
842.933	15633
843.069	15568
843.206	15568
843.343	15637
843.479	15663
843.616	15606
843.752	15386
843.889	15424
844.025	15603
844.162	15412
844.298	15511
844.435	15408
844.571	15420
844.708	15443
844.844	15553
844.98	15587
845.117	15511
845.253	15454
845.389	15313
845.525	15340
845.661	15218
845.798	15142
845.934	15203
846.07	15188
846.206	15222
846.342	15332
846.478	15188
846.614	15039
846.75	15032
846.886	14887
847.022	15089
847.158	14944
847.294	15055
847.429	15070
847.565	14937
847.701	15211
847.837	14731
847.972	14712
848.108	14815
848.244	14815
848.379	14727
848.515	14583
848.65	14636
848.786	14617
848.921	14564
849.057	14758
849.192	14716
849.328	14697
849.463	14625
849.598	14541
849.734	14495
849.869	14484
850.004	14431
850.14	14408
850.275	14351
850.41	14214
850.545	14389
850.68	14320
850.815	14381
850.95	14400
851.085	14651
851.22	14419
851.355	14408
851.49	14294
851.625	14355
851.76	14332
851.895	14221
852.03	14252
852.165	14301
852.299	14366
852.434	14427
852.569	14415
852.703	14419
852.838	14434
852.973	14389
853.107	14526
853.242	14278
853.376	14275
853.511	14103
853.645	14278
853.78	14370
853.914	14233
854.048	14278
854.183	14100
854.317	14195
854.451	14442
854.585	14263
854.72	14161
854.854	14244
854.988	14134
855.122	14199
855.256	14130
855.39	14237
855.524	14332
855.658	14309
855.792	14161
855.926	14214
856.06	14233
856.194	14263
856.327	14168
856.461	14202
856.595	14225
856.729	14142
856.862	14225
856.996	14313
857.13	14271
857.263	14301
857.397	14339
857.53	14180
857.664	14267
857.797	14298
857.931	14305
858.064	14336
858.197	14221
858.331	14210
858.464	14157
858.597	14111
858.731	14202
858.864	14210
858.997	14191
859.13	14278
859.263	14176
859.396	14221
859.529	14240
859.662	14172
859.795	14199
859.928	14199
860.061	14396
860.194	14393
860.327	14294
860.46	14187
860.592	14381
860.725	14370
860.858	14347
860.99	14305
861.123	14149
861.256	14134
861.388	14142
861.521	14842
861.653	14103
861.786	14024
861.918	14172
862.05	14210
862.183	14130
862.315	14206
862.447	14275
862.58	14183
862.712	13993
862.844	13959
862.976	14012
863.108	14119
863.24	14537
863.372	13974
863.504	13978
863.636	13947
863.768	13989
863.9	14084
864.032	13997
864.164	13887
864.296	13959
864.428	14142
864.559	14043
864.691	14043
864.823	14119
864.954	14058
865.086	13993
865.217	14043
865.349	13974
865.48	13993
865.612	14005
865.743	14142
865.875	14065
866.006	13925
866.137	13970
866.269	13974
866.4	13883
866.531	14073
866.662	13890
866.793	13936
866.924	13913
867.055	14058
867.186	13917
867.317	13936
867.448	13887
867.579	13928
867.71	13849
867.841	13814
867.972	13970
868.103	14016
868.233	13993
868.364	13982
868.495	13989
868.625	14180
868.756	14336
868.886	14172
869.017	14218
869.147	14408
869.278	14427
869.408	14202
869.539	14210
869.669	14358
869.799	14290
869.929	14389
870.06	14282
870.19	14522
870.32	14598
870.45	14492
870.58	14621
870.71	14823
870.84	14727
870.97	14537
871.1	14693
871.23	14838
871.36	14838
871.489	14705
871.619	14731
871.749	14769
871.879	14921
872.008	14910
872.138	14910
872.267	14883
872.397	14735
872.526	14682
872.656	14701
872.785	14773
872.915	14887
873.044	14929
873.173	14819
873.303	14952
873.432	14849
873.561	15039
873.69	14815
873.819	14906
873.948	14956
874.077	14925
874.206	14811
874.335	14925
874.464	15093
874.593	15127
874.722	15157
874.851	15222
874.979	15302
875.108	15173
875.237	15150
875.365	15146
875.494	15188
875.623	15249
875.751	15169
875.88	15237
876.008	15405
876.136	15496
876.265	15690
876.393	15720
876.521	15724
876.65	15759
876.778	15709
876.906	15580
877.034	15492
877.162	15736
877.29	15530
877.418	15629
877.546	15595
877.674	15622
877.802	15610
877.93	15633
878.058	15564
878.185	15496
878.313	15610
878.441	15572
878.568	15481
878.696	15584
878.824	15671
878.951	15663
879.079	15785
879.206	15823
879.333	15755
879.461	15625
879.588	15690
879.715	15755
879.842	15907
879.97	15671
880.097	15439
880.224	15523
880.351	15618
880.478	15408
880.605	15435
880.732	15431
880.859	15675
880.986	15519
881.112	15519
881.239	15291
881.366	15272
881.493	15157
881.619	15104
881.746	15207
881.872	15043
881.999	15055
882.125	15150
882.252	15157
882.378	15116
882.505	15226
882.631	15062
882.757	15047
882.883	14944
883.01	15043
883.136	14868
883.262	14868
883.388	14743
883.514	14918
883.64	15017
883.766	14838
883.892	14712
884.018	14804
884.143	14891
884.269	14998
884.395	14743
884.52	14602
884.646	14571
884.772	14651
884.897	14473
885.023	14674
885.148	14659
885.274	14773
885.399	14746
885.524	14556
885.65	14610
885.775	14743
885.9	14629
886.025	14758
886.15	14720
886.275	14537
886.4	14533
886.525	14663
886.65	14606
886.775	14530
886.9	14613
887.025	14868
887.149	14655
887.274	14431
887.399	14370
887.523	14446
887.648	14381
887.773	14427
887.897	14499
888.021	14492
888.146	14488
888.27	14545
888.395	14583
888.519	14571
888.643	14541
888.767	14499
888.891	14442
889.015	14313
889.139	14400
889.263	14313
889.387	14419
889.511	14480
889.635	14450
889.759	14324
889.883	14324
890.006	14347
890.13	14415
890.254	14256
890.377	14328
890.501	14164
890.624	14111
890.748	14187
890.871	14016
890.995	14012
891.118	13887
891.241	14142
891.364	14046
891.488	14103
891.611	14065
891.734	14103
891.857	14214
891.98	14046
892.103	14103
892.226	14103
892.349	14043
892.471	13860
892.594	14130
892.717	14096
892.839	13963
892.962	13967
893.085	14031
893.207	14065
893.33	13913
893.452	13917
893.575	14096
893.697	13967
893.819	14088
893.941	14221
894.064	14172
894.186	13947
894.308	13989
894.43	14157
894.552	14240
894.674	14168
894.796	13932
894.918	14103
895.04	14081
895.161	14202
895.283	14233
895.405	14119
895.526	14073
895.648	14233
895.769	14244
895.891	14202
896.012	14233
896.134	14187
896.255	14183
896.376	14195
896.498	14233
896.619	14210
896.74	14298
896.861	14290
896.982	14495
897.103	14720
897.224	14473
897.345	14419
897.466	14339
897.587	14438
897.708	14610
897.828	14473
897.949	14366
898.07	14237
898.19	14427
898.311	14571
898.431	14526
898.552	14552
898.672	14655
898.792	14632
898.913	14518
899.033	14511
899.153	14404
899.273	14343
899.393	14339
899.513	14412
899.633	14457
899.753	14393
899.873	14457
899.993	14393
900.113	14347
900.232	14492
900.352	14396
900.472	14301
900.591	14225
900.711	14290
900.83	14221
900.95	14419
901.069	14351
901.189	14229
901.308	13993
901.427	13925
901.546	13925
901.665	14039
901.784	14008
901.904	13845
902.023	13696
902.141	13575
902.26	13567
902.379	13647
902.498	13487
902.617	13480
902.735	13590
902.854	13457
902.973	13510
903.091	13247
903.21	13232
903.328	13289
903.446	13198
903.565	13107
903.683	13145
903.801	13099
903.919	13099
904.038	13126
904.156	12924
904.274	13046
904.392	12894
904.51	12833
904.627	12958
904.745	12924
904.863	12970
904.981	12772
905.098	12582
905.216	12623
905.334	12730
905.451	12563
905.569	12585
905.686	12597
905.803	12544
905.921	12418
906.038	12506
906.155	12372
906.272	12315
906.389	12361
906.506	12201
906.623	12129
906.74	12277
906.857	12102
906.974	12045
907.091	12243
907.208	12384
907.324	12220
907.441	12159
907.557	11984
907.674	11935
907.79	11904
907.907	11984
908.023	11893
908.139	11901
908.256	11927
908.372	11783
908.488	11863
908.604	11824
908.72	11668
908.836	11695
908.952	11661
909.068	11703
909.184	11821
909.3	11824
909.415	11752
909.531	11764
909.647	11551
909.762	11509
909.878	11425
909.993	11493
910.108	11535
910.224	11410
910.339	11471
910.454	11341
910.57	11334
910.685	11231
910.8	11543
910.915	11425
911.03	11379
911.145	11162
911.259	11113
911.374	11155
911.489	11143
911.604	11060
911.718	10953
911.833	11033
911.947	10797
912.062	10748
912.176	10866
912.291	10949
912.405	10915
912.519	11201
912.633	11227
912.748	11025
912.862	10923
912.976	10763
913.09	10774
913.204	10763
913.318	10828
913.431	10908
913.545	10862
913.659	11003
913.772	10843
913.886	10664
914	10618
914.113	10710
914.226	10752
914.34	10698
914.453	10618
914.566	10714
914.68	10630
914.793	10630
914.906	10470
915.019	10459
915.132	10295
915.245	10447
915.358	10481
915.47	10588
915.583	10428
915.696	10451
915.809	10611
915.921	10584
916.034	10402
916.146	10455
916.259	10299
916.371	10516
916.483	10424
916.595	10303
916.708	10379
916.82	10367
916.932	10333
917.044	10318
917.156	10352
917.268	10227
917.38	10337
917.491	10272
917.603	10325
917.715	10344
917.826	10371
917.938	10284
918.049	10139
918.161	10204
918.272	10462
918.384	10405
918.495	10333
918.606	10147
918.717	10101
918.828	10173
918.939	10173
919.05	10093
919.161	10147
919.272	9964
919.383	10021
919.494	10223
919.604	10360
919.715	10169
919.826	10059
919.936	10181
920.047	10333
920.157	10287
920.267	10325
920.378	10227
920.488	10223
920.598	10337
920.708	10516
920.818	10356
920.928	10394
921.038	10577
921.148	10466
921.258	10177
921.368	10051
921.477	10139
921.587	10032
921.697	9876
921.806	10105
921.916	9960
922.025	9793
922.134	9808
922.244	9629
922.353	9751
922.462	9606
922.571	9572
922.68	9477
922.789	9431
922.898	9492
923.007	9389
923.116	9481
923.224	9378
923.333	9481
923.442	9272
923.55	9291
923.659	9359
923.767	9363
923.876	9279
923.984	9408
924.092	9218
924.201	9332
924.309	9287
924.417	9287
924.525	9287
924.633	9268
924.741	10238
924.849	9039
924.956	9195
925.064	9066
925.172	9017
925.279	9074
925.387	9116
925.494	9077
925.602	9173
925.709	9146
925.816	9013
925.924	9123
926.031	9135
926.138	9081
926.245	9127
926.352	8998
926.459	9180
926.566	9192
926.673	9024
926.779	8876
926.886	8910
926.993	8800
927.099	8769
927.206	8762
927.312	8724
927.419	8883
927.525	8807
927.631	8918
927.737	8697
927.843	8705
927.95	8590
928.056	8682
928.162	8727
928.267	8750
928.373	9359
928.479	8838
928.585	8514
928.69	8697
928.796	8701
928.901	8621
929.007	8446
929.112	8590
929.218	8602
929.323	8541
929.428	8549
929.533	8610
929.638	8507
929.743	8469
929.848	8541
929.953	8457
930.058	8400
930.163	8252
930.267	8271
930.372	8423
930.477	8313
930.581	8457
930.685	8324
930.79	8221
930.894	8313
930.998	8191
931.103	8419
931.207	8012
931.311	7967
931.415	7906
931.519	7715
931.623	7723
