Data from test_V78500241_1005.txt Node
Date: Fri Mar 25 14:40:42 CST 2022
User: usil
Spectrometer: V785-0024
Trigger mode: 0
Integration Time (sec): 4.000000E-1
Scans to average: 1
Nonlinearity correction enabled: false
Boxcar width: 0
Storing dark spectrum: false
XAxis mode: Wavelengths
Number of Pixels in Spectrum: 1024
>>>>>Begin Spectral Data<<<<<
801.071	23006
801.214	22904
801.356	22683
801.499	22611
801.641	22413
801.783	22348
801.926	22402
802.068	22337
802.211	22158
802.353	22177
802.496	21926
802.638	21907
802.78	21911
802.923	21861
803.065	21739
803.208	21705
803.35	21747
803.492	21873
803.635	21857
803.777	21698
803.919	21747
804.061	22276
804.204	21819
804.346	21637
804.488	21724
804.63	21663
804.773	21739
804.915	21694
805.057	21766
805.199	21698
805.341	21808
805.483	21865
805.626	21819
805.768	21804
805.91	21785
806.052	21739
806.194	21728
806.336	21983
806.478	21892
806.62	21747
806.762	21930
806.904	21972
807.046	22284
807.188	22226
807.33	22226
807.472	22367
807.614	22348
807.756	22215
807.898	22303
808.04	22185
808.182	22253
808.324	22474
808.465	22664
808.607	22908
808.749	23193
808.891	23398
809.033	23425
809.174	23220
809.316	22892
809.458	22900
809.6	22740
809.741	22649
809.883	22519
810.025	22599
810.166	22618
810.308	22500
810.45	22478
810.591	22375
810.733	22166
810.875	22109
811.016	21949
811.158	22021
811.299	22063
811.441	22070
811.582	22135
811.724	21964
811.865	21922
812.007	21941
812.148	21915
812.29	22036
812.431	22249
812.573	22131
812.714	22333
812.855	22584
812.997	22717
813.138	22828
813.279	22561
813.421	22596
813.562	22466
813.703	22295
813.845	22090
813.986	21869
814.127	21682
814.268	21587
814.41	21583
814.551	21587
814.692	21603
814.833	21519
814.974	21488
815.115	21511
815.256	21279
815.397	21321
815.539	21336
815.68	21241
815.821	21268
815.962	21283
816.103	21264
816.244	21184
816.385	21100
816.526	21055
816.666	20880
816.807	20727
816.948	20769
817.089	20777
817.23	20735
817.371	20777
817.512	20686
817.653	20617
817.793	20602
817.934	20720
818.075	20735
818.216	20720
818.356	20579
818.497	20526
818.638	20294
818.778	20370
818.919	20317
819.06	20396
819.2	20514
819.341	20560
819.481	20495
819.622	20625
819.762	20785
819.903	20910
820.043	20674
820.184	20655
820.324	20724
820.465	20697
820.605	20636
820.746	20743
820.886	20518
821.026	20583
821.167	20594
821.307	20625
821.447	20552
821.588	20423
821.728	20366
821.868	20202
822.008	20081
822.149	20115
822.289	19986
822.429	19841
822.569	19765
822.709	19700
822.849	19563
822.99	19476
823.13	19464
823.27	19460
823.41	19384
823.55	19240
823.69	19263
823.83	19354
823.97	19263
824.11	19076
824.25	19088
824.389	19126
824.529	19133
824.669	19042
824.809	19141
824.949	19129
825.089	19187
825.228	19107
825.368	18943
825.508	18924
825.648	18806
825.787	18970
825.927	18897
826.067	18814
826.206	18776
826.346	18882
826.485	18817
826.625	18825
826.765	19031
826.904	18905
827.044	18631
827.183	18734
827.323	18563
827.462	18570
827.601	18479
827.741	18661
827.88	18646
828.02	18540
828.159	18498
828.298	18502
828.437	18635
828.577	18566
828.716	18665
828.855	18429
828.994	18296
829.134	18311
829.273	18327
829.412	18133
829.551	18289
829.69	18228
829.829	18258
829.968	18353
830.107	18441
830.246	18388
830.385	18178
830.524	18254
830.663	18060
830.802	18087
830.941	17851
831.08	18011
831.219	17961
831.357	17984
831.496	18167
831.635	17999
831.774	17771
831.913	17805
832.051	17661
832.19	17623
832.329	17714
832.467	17699
832.606	17729
832.744	17566
832.883	17642
833.022	17535
833.16	17638
833.299	17737
833.437	17703
833.576	17745
833.714	17729
833.852	17760
833.991	17729
834.129	17859
834.267	17760
834.406	17718
834.544	17847
834.682	17752
834.821	17707
834.959	17779
835.097	17619
835.235	17764
835.373	17642
835.511	17687
835.65	17649
835.788	17535
835.926	17391
836.064	17368
836.202	17341
836.34	17608
836.478	17615
836.615	17577
836.753	17600
836.891	17756
837.029	17665
837.167	17436
837.305	17410
837.443	17421
837.58	17444
837.718	17505
837.856	17467
837.993	17353
838.131	17368
838.269	17345
838.406	17417
838.544	17322
838.681	17113
838.819	17041
838.956	16999
839.094	16953
839.231	16908
839.369	17064
839.506	17353
839.643	17121
839.781	16953
839.918	16889
840.055	16934
840.193	16965
840.33	16850
840.467	17006
840.604	16881
840.742	17216
840.879	16835
841.016	16911
841.153	16733
841.29	16968
841.427	16953
841.564	16957
841.701	16904
841.838	16839
841.975	16744
842.112	16835
842.249	16653
842.385	16706
842.522	16782
842.659	16691
842.796	16694
842.933	16733
843.069	16622
843.206	16729
843.343	16660
843.479	16717
843.616	16729
843.752	16535
843.889	16409
844.025	16683
844.162	16371
844.298	16588
844.435	16466
844.571	16470
844.708	16675
844.844	16771
844.98	16706
845.117	16706
845.253	16626
845.389	16573
845.525	16877
845.661	16965
845.798	17239
845.934	17638
846.07	17615
846.206	17600
846.342	17577
846.478	17071
846.614	16596
846.75	16246
846.886	16226
847.022	16287
847.158	16147
847.294	16128
847.429	16128
847.565	16105
847.701	16314
847.837	15755
847.972	15755
848.108	15679
848.244	15895
848.379	15667
848.515	15603
848.65	15629
848.786	15568
848.921	15644
849.057	15698
849.192	15701
849.328	15774
849.463	15591
849.598	15660
849.734	15603
849.869	15477
850.004	15450
850.14	15389
850.275	15344
850.41	15241
850.545	15294
850.68	15416
850.815	15378
850.95	15294
851.085	15443
851.22	15382
851.355	15291
851.49	15306
851.625	15348
851.76	15367
851.895	15355
852.03	15192
852.165	15351
852.299	15359
852.434	15401
852.569	15458
852.703	15378
852.838	15458
852.973	15500
853.107	15519
853.242	15370
853.376	15302
853.511	15165
853.645	15313
853.78	15416
853.914	15237
854.048	15306
854.183	15161
854.317	15294
854.451	15492
854.585	15260
854.72	15169
854.854	15283
854.988	15157
855.122	15161
855.256	15123
855.39	15203
855.524	15344
855.658	15241
855.792	15287
855.926	15279
856.06	15264
856.194	15351
856.327	15298
856.461	15230
856.595	15169
856.729	15184
856.862	15279
856.996	15245
857.13	15260
857.263	15367
857.397	15367
857.53	15249
857.664	15203
857.797	15359
857.931	15348
858.064	15332
858.197	15226
858.331	15233
858.464	15074
858.597	15199
858.731	15287
858.864	15104
858.997	15214
859.13	15241
859.263	15260
859.396	15378
859.529	15237
859.662	15108
859.795	15112
859.928	15237
860.061	15462
860.194	15389
860.327	15302
860.46	15249
860.592	15435
860.725	15317
860.858	15336
860.99	15138
861.123	15123
861.256	15127
861.388	15211
861.521	15838
861.653	15150
861.786	15157
861.918	14971
862.05	15195
862.183	15104
862.315	15226
862.447	15230
862.58	15211
862.712	15017
862.844	14982
862.976	15077
863.108	15028
863.24	15412
863.372	14872
863.504	14944
863.636	15001
863.768	15062
863.9	15051
864.032	14849
864.164	14910
864.296	15024
864.428	15131
864.559	15100
864.691	15100
864.823	15036
864.954	15089
865.086	15001
865.217	14963
865.349	14952
865.48	15005
865.612	14952
865.743	15074
865.875	14914
866.006	14971
866.137	15020
866.269	14918
866.4	14963
866.531	14891
866.662	14941
866.793	14895
866.924	14857
867.055	14979
867.186	14960
867.317	14800
867.448	14819
867.579	14861
867.71	14910
867.841	14750
867.972	14967
868.103	15036
868.233	15024
868.364	14895
868.495	15070
868.625	15154
868.756	15298
868.886	15077
869.017	15214
869.147	15279
869.278	15344
869.408	15260
869.539	15199
869.669	15214
869.799	15184
869.929	15317
870.06	15393
870.19	15595
870.32	15515
870.45	15526
870.58	15644
870.71	15675
870.84	15724
870.97	15682
871.1	15625
871.23	15793
871.36	15724
871.489	15686
871.619	15759
871.749	15816
871.879	15915
872.008	15861
872.138	15888
872.267	15717
872.397	15747
872.526	15572
872.656	15610
872.785	15606
872.915	15903
873.044	15827
873.173	15884
873.303	15884
873.432	15785
873.561	15918
873.69	15823
873.819	15816
873.948	15937
874.077	15880
874.206	15892
874.335	15983
874.464	16006
874.593	16219
874.722	16101
874.851	16196
874.979	16154
875.108	16169
875.237	16166
875.365	16013
875.494	16147
875.623	16261
875.751	16173
875.88	16223
876.008	16405
876.136	16417
876.265	16561
876.393	16668
876.521	16584
876.65	16618
876.778	16641
876.906	16622
877.034	16481
877.162	16592
877.29	16656
877.418	16558
877.546	16603
877.674	16596
877.802	16615
877.93	16653
878.058	16611
878.185	16485
878.313	16626
878.441	16683
878.568	16527
878.696	16656
878.824	16767
878.951	16850
879.079	17067
879.206	17265
879.333	17368
879.461	17239
879.588	17315
879.715	17482
879.842	17463
879.97	17170
880.097	16896
880.224	16622
880.351	16710
880.478	16733
880.605	16546
880.732	16580
880.859	16866
880.986	16592
881.112	16645
881.239	16542
881.366	16360
881.493	16417
881.619	16291
881.746	16261
881.872	16226
881.999	16211
882.125	16356
882.252	16249
882.378	16230
882.505	16299
882.631	16204
882.757	16025
882.883	16097
883.01	16059
883.136	15956
883.262	15911
883.388	15937
883.514	16128
883.64	15975
883.766	16090
883.892	15857
884.018	15941
884.143	16082
884.269	16150
884.395	15903
884.52	15747
884.646	15759
884.772	15739
884.897	15755
885.023	15694
885.148	15781
885.274	15960
885.399	15854
885.524	15816
885.65	15660
885.775	15850
885.9	15739
886.025	15823
886.15	15804
886.275	15682
886.4	15595
886.525	15656
886.65	15644
886.775	15637
886.9	15819
887.025	15835
887.149	15675
887.274	15511
887.399	15557
887.523	15519
887.648	15389
887.773	15424
887.897	15412
888.021	15530
888.146	15389
888.27	15698
888.395	15622
888.519	15477
888.643	15591
888.767	15492
888.891	15428
889.015	15370
889.139	15321
889.263	15226
889.387	15355
889.511	15450
889.635	15428
889.759	15249
889.883	15294
890.006	15302
890.13	15332
890.254	15188
890.377	15199
890.501	15013
890.624	15001
890.748	15165
890.871	15020
890.995	14918
891.118	14906
891.241	14918
891.364	15032
891.488	15043
891.611	14948
891.734	14933
891.857	15081
891.98	15009
892.103	14925
892.226	14982
892.349	14906
892.471	14746
892.594	14971
892.717	14948
892.839	14944
892.962	14921
893.085	14979
893.207	14925
893.33	14823
893.452	14861
893.575	14925
893.697	15005
893.819	15028
893.941	15154
894.064	14971
894.186	14921
894.308	14861
894.43	15127
894.552	15218
894.674	15032
894.796	14921
894.918	14925
895.04	14853
895.161	15043
895.283	15032
895.405	14960
895.526	14998
895.648	14914
895.769	15001
895.891	15032
896.012	15138
896.134	15104
896.255	15066
896.376	14937
896.498	15001
896.619	15043
896.74	15005
896.861	15039
896.982	15431
897.103	15519
897.224	15332
897.345	15279
897.466	15207
897.587	15431
897.708	15496
897.828	15424
897.949	15310
898.07	15245
898.19	15287
898.311	15408
898.431	15329
898.552	15348
898.672	15473
898.792	15488
898.913	15416
899.033	15241
899.153	15291
899.273	15131
899.393	15245
899.513	15207
899.633	15222
899.753	15283
899.873	15241
899.993	15291
900.113	15310
900.232	15363
900.352	15237
900.472	15256
900.591	15097
900.711	15093
900.83	15104
900.95	15180
901.069	15150
901.189	15036
901.308	14815
901.427	14686
901.546	14887
901.665	14724
901.784	14804
901.904	14613
902.023	14583
902.141	14393
902.26	14396
902.379	14461
902.498	14400
902.617	14305
902.735	14389
902.854	14290
902.973	14172
903.091	13993
903.21	14054
903.328	13967
903.446	13879
903.565	13909
903.683	13845
903.801	13833
903.919	13852
904.038	13795
904.156	13670
904.274	13826
904.392	13639
904.51	13677
904.627	13639
904.745	13715
904.863	13757
904.981	13518
905.098	13369
905.216	13487
905.334	13403
905.451	13327
905.569	13301
905.686	13491
905.803	13289
905.921	13114
906.038	13221
906.155	13110
906.272	13088
906.389	13057
906.506	12943
906.623	12947
906.74	12878
906.857	12730
906.974	12856
907.091	13053
907.208	12966
907.324	13015
907.441	12833
907.557	12700
907.674	12612
907.79	12612
907.907	12688
908.023	12673
908.139	12681
908.256	12582
908.372	12536
908.488	12601
908.604	12460
908.72	12391
908.836	12395
908.952	12437
909.068	12399
909.184	12513
909.3	12388
909.415	12498
909.531	12376
909.647	12201
909.762	12209
909.878	12079
909.993	12235
910.108	12178
910.224	12114
910.339	12136
910.454	12019
910.57	12068
910.685	11977
910.8	12266
910.915	12205
911.03	12034
911.145	11893
911.259	11859
911.374	11794
911.489	11764
911.604	11726
911.718	11684
911.833	11558
911.947	11512
912.062	11414
912.176	11623
912.291	11547
912.405	11653
912.519	11790
912.633	11882
912.748	11520
912.862	11627
912.976	11547
913.09	11330
913.204	11429
913.318	11440
913.431	11543
913.545	11493
913.659	11505
913.772	11440
913.886	11296
914	11349
914.113	11440
914.226	11440
914.34	11440
914.453	11197
914.566	11433
914.68	11307
914.793	11239
914.906	11018
915.019	11037
915.132	10965
915.245	11045
915.358	11132
915.47	11064
915.583	11041
915.696	11143
915.809	11201
915.921	11178
916.034	11098
916.146	11075
916.259	11086
916.371	11151
916.483	11045
916.595	11033
916.708	10991
916.82	10972
916.932	10919
917.044	10908
917.156	10980
917.268	10797
917.38	10831
917.491	10828
917.603	10919
917.715	10949
917.826	10987
917.938	10839
918.049	10706
918.161	10812
918.272	11121
918.384	11018
918.495	10889
918.606	10805
918.717	10752
918.828	10824
918.939	10797
919.05	10687
919.161	10656
919.272	10523
919.383	10679
919.494	10850
919.604	10892
919.715	10706
919.826	10618
919.936	10717
920.047	10835
920.157	10831
920.267	10949
920.378	10797
920.488	10721
920.598	10942
920.708	11178
920.818	10923
920.928	10942
921.038	11121
921.148	11060
921.258	10805
921.368	10710
921.477	10630
921.587	10649
921.697	10512
921.806	10573
921.916	10470
922.025	10337
922.134	10306
922.244	10207
922.353	10344
922.462	10120
922.571	10074
922.68	10029
922.789	9998
922.898	9983
923.007	9964
923.116	10025
923.224	9903
923.333	9953
923.442	9861
923.55	9915
923.659	9854
923.767	9949
923.876	9873
923.984	9823
924.092	9800
924.201	9888
924.309	9846
924.417	9732
924.525	9743
924.633	9793
924.741	10717
924.849	9572
924.956	9709
925.064	9625
925.172	9538
925.279	9504
925.387	9720
925.494	9576
925.602	9709
925.709	9671
925.816	9572
925.924	9629
926.031	9686
926.138	9553
926.245	9614
926.352	9557
926.459	9690
926.566	9633
926.673	9496
926.779	9485
926.886	9420
926.993	9306
927.099	9268
927.206	9249
927.312	9268
927.419	9389
927.525	9272
927.631	9313
927.737	9256
927.843	9169
927.95	9047
928.056	9100
928.162	9211
928.267	9260
928.373	9808
928.479	9260
928.585	9058
928.69	9135
928.796	9184
928.901	9108
929.007	8910
929.112	9066
929.218	8967
929.323	8998
929.428	8918
929.533	9214
929.638	8929
929.743	8990
929.848	9028
929.953	8937
930.058	8838
930.163	8754
930.267	8735
930.372	8914
930.477	8708
930.581	8944
930.685	8815
930.79	8640
930.894	8781
930.998	8701
931.103	8861
931.207	8522
931.311	8560
931.415	8317
931.519	8161
931.623	8088
