Data from test_V78500241_3552.txt Node
Date: Fri Mar 25 14:58:27 CST 2022
User: usil
Spectrometer: V785-0024
Trigger mode: 0
Integration Time (sec): 4.000000E-1
Scans to average: 1
Nonlinearity correction enabled: false
Boxcar width: 0
Storing dark spectrum: false
XAxis mode: Wavelengths
Number of Pixels in Spectrum: 1024
>>>>>Begin Spectral Data<<<<<
801.071	21819
801.214	21789
801.356	21534
801.499	21408
801.641	21298
801.783	21283
801.926	21336
802.068	21142
802.211	21211
802.353	21104
802.496	20830
802.638	20746
802.78	20830
802.923	20682
803.065	20655
803.208	20617
803.35	20594
803.492	20697
803.635	20712
803.777	20545
803.919	20625
804.061	20979
804.204	20720
804.346	20511
804.488	20476
804.63	20518
804.773	20442
804.915	20511
805.057	20735
805.199	20454
805.341	20530
805.483	20655
805.626	20655
805.768	20370
805.91	20552
806.052	20503
806.194	20415
806.336	20727
806.478	20583
806.62	20370
806.762	20606
806.904	20750
807.046	21001
807.188	20849
807.33	20785
807.472	21051
807.614	20838
807.756	20712
807.898	20705
808.04	20503
808.182	20590
808.324	20541
808.465	20701
808.607	20941
808.749	20876
808.891	20998
809.033	20975
809.174	20853
809.316	20902
809.458	20739
809.6	20739
809.741	20895
809.883	20876
810.025	21001
810.166	21005
810.308	20979
810.45	20868
810.591	20826
810.733	20845
810.875	20750
811.016	20594
811.158	20408
811.299	20765
811.441	20716
811.582	20785
811.724	20541
811.865	20613
812.007	20511
812.148	20552
812.29	20674
812.431	20811
812.573	20887
812.714	21005
812.855	21058
812.997	21230
813.138	21336
813.279	21214
813.421	21165
813.562	20967
813.703	20872
813.845	20765
813.986	20526
814.127	20248
814.268	20084
814.41	20191
814.551	20199
814.692	20244
814.833	20077
814.974	20096
815.115	20195
815.256	20035
815.397	19978
815.539	20024
815.68	19814
815.821	19887
815.962	19906
816.103	19909
816.244	19696
816.385	19635
816.526	19594
816.666	19426
816.807	19434
816.948	19350
817.089	19304
817.23	19392
817.371	19301
817.512	19384
817.653	19327
817.793	19225
817.934	19293
818.075	19183
818.216	19183
818.356	19255
818.497	19099
818.638	18894
818.778	18989
818.919	18916
819.06	18958
819.2	19069
819.341	19183
819.481	19164
819.622	19232
819.762	19422
819.903	19396
820.043	19301
820.184	19316
820.324	19187
820.465	19388
820.605	19293
820.746	19213
820.886	19046
821.026	19247
821.167	19145
821.307	19225
821.447	19126
821.588	19084
821.728	18916
821.868	18806
822.008	18658
822.149	18684
822.289	18703
822.429	18391
822.569	18460
822.709	18357
822.849	18346
822.99	18197
823.13	18152
823.27	18117
823.41	18026
823.55	17969
823.69	18015
823.83	18030
823.97	17847
824.11	17821
824.25	17615
824.389	17668
824.529	17836
824.669	17710
824.809	17786
824.949	17813
825.089	17836
825.228	17748
825.368	17505
825.508	17501
825.648	17611
825.787	17478
825.927	17551
826.067	17577
826.206	17448
826.346	17509
826.485	17505
826.625	17577
826.765	17627
826.904	17493
827.044	17387
827.183	17360
827.323	17223
827.462	17337
827.601	17258
827.741	17280
827.88	17212
828.02	17079
828.159	17231
828.298	17250
828.437	17216
828.577	17170
828.716	17383
828.855	17220
828.994	16995
829.134	17029
829.273	17037
829.412	16934
829.551	16858
829.69	16961
829.829	16995
829.968	17029
830.107	17033
830.246	16896
830.385	16885
830.524	16911
830.663	16881
830.802	16786
830.941	16531
831.08	16565
831.219	16679
831.357	16694
831.496	16835
831.635	16584
831.774	16626
831.913	16459
832.051	16413
832.19	16421
832.329	16325
832.467	16337
832.606	16367
832.744	16238
832.883	16238
833.022	16322
833.16	16318
833.299	16363
833.437	16390
833.576	16272
833.714	16303
833.852	16440
833.991	16348
834.129	16382
834.267	16443
834.406	16363
834.544	16421
834.682	16367
834.821	16394
834.959	16531
835.097	16428
835.235	16504
835.373	16409
835.511	16322
835.65	16291
835.788	16249
835.926	16139
836.064	16097
836.202	16154
836.34	16310
836.478	16360
836.615	16215
836.753	16318
836.891	16424
837.029	16295
837.167	16265
837.305	16211
837.443	16188
837.58	16177
837.718	16295
837.856	16192
837.993	16097
838.131	16139
838.269	16067
838.406	16063
838.544	16040
838.681	15903
838.819	15827
838.956	15819
839.094	15797
839.231	15641
839.369	15915
839.506	16169
839.643	16017
839.781	15736
839.918	15675
840.055	15755
840.193	15717
840.33	15614
840.467	15739
840.604	15705
840.742	15915
840.879	15591
841.016	15652
841.153	15618
841.29	15846
841.427	15804
841.564	15766
841.701	15759
841.838	15652
841.975	15458
842.112	15652
842.249	15515
842.385	15511
842.522	15724
842.659	15500
842.796	15466
842.933	15447
843.069	15485
843.206	15462
843.343	15671
843.479	15629
843.616	15496
843.752	15275
843.889	15214
844.025	15439
844.162	15272
844.298	15313
844.435	15340
844.571	15294
844.708	15348
844.844	15473
844.98	15435
845.117	15458
845.253	15260
845.389	15264
845.525	15165
845.661	15169
845.798	15104
845.934	15135
846.07	15112
846.206	15074
846.342	15370
846.478	15184
846.614	15036
846.75	14849
846.886	14887
847.022	15024
847.158	14925
847.294	14921
847.429	14868
847.565	14933
847.701	15093
847.837	14648
847.972	14613
848.108	14708
848.244	14651
848.379	14533
848.515	14526
848.65	14377
848.786	14454
848.921	14465
849.057	14579
849.192	14629
849.328	14492
849.463	14431
849.598	14366
849.734	14396
849.869	14320
850.004	14351
850.14	14332
850.275	14259
850.41	14153
850.545	14153
850.68	14199
850.815	14305
850.95	14301
851.085	14400
851.22	14218
851.355	14362
851.49	14298
851.625	14126
851.76	14313
851.895	14172
852.03	14073
852.165	14183
852.299	14282
852.434	14290
852.569	14199
852.703	14267
852.838	14301
852.973	14431
853.107	14484
853.242	14191
853.376	14145
853.511	14031
853.645	14119
853.78	14252
853.914	14134
854.048	14149
854.183	14096
854.317	14214
854.451	14282
854.585	14202
854.72	14111
854.854	14202
854.988	14077
855.122	14084
855.256	13978
855.39	14134
855.524	14187
855.658	14157
855.792	14180
855.926	14043
856.06	14191
856.194	14176
856.327	14077
856.461	14103
856.595	14092
856.729	14065
856.862	14206
856.996	14183
857.13	14248
857.263	14218
857.397	14244
857.53	14065
857.664	14248
857.797	14278
857.931	14214
858.064	14145
858.197	14248
858.331	14058
858.464	14096
858.597	13963
858.731	14123
858.864	14081
858.997	14107
859.13	14126
859.263	14199
859.396	14263
859.529	13997
859.662	14092
859.795	13997
859.928	14176
860.061	14199
860.194	14294
860.327	14103
860.46	14138
860.592	14225
860.725	14225
860.858	14282
860.99	14050
861.123	14012
861.256	13993
861.388	14240
861.521	14914
861.653	13989
861.786	14008
861.918	13928
862.05	14046
862.183	14084
862.315	14073
862.447	14153
862.58	14039
862.712	13947
862.844	13837
862.976	13928
863.108	14005
863.24	14248
863.372	13868
863.504	13906
863.636	13902
863.768	13955
863.9	13928
864.032	13841
864.164	13826
864.296	13909
864.428	14043
864.559	13970
864.691	14084
864.823	13974
864.954	13947
865.086	13928
865.217	13936
865.349	13776
865.48	13917
865.612	13852
865.743	13993
865.875	13887
866.006	13795
866.137	13868
866.269	13746
866.4	13826
866.531	13928
866.662	13734
866.793	13803
866.924	13883
867.055	13947
867.186	13871
867.317	13818
867.448	13818
867.579	13803
867.71	13822
867.841	13833
867.972	13944
868.103	13947
868.233	13944
868.364	13890
868.495	14084
868.625	14130
868.756	14168
868.886	13978
869.017	14111
869.147	14229
869.278	14313
869.408	14161
869.539	14180
869.669	14240
869.799	14157
869.929	14199
870.06	14271
870.19	14423
870.32	14503
870.45	14537
870.58	14533
870.71	14716
870.84	14678
870.97	14518
871.1	14552
871.23	14659
871.36	14842
871.489	14556
871.619	14785
871.749	14686
871.879	14853
872.008	14830
872.138	14819
872.267	14716
872.397	14682
872.526	14640
872.656	14526
872.785	14655
872.915	14853
873.044	14830
873.173	14800
873.303	14834
873.432	14857
873.561	14902
873.69	14914
873.819	14804
873.948	14872
874.077	14815
874.206	14743
874.335	14765
874.464	14963
874.593	15116
874.722	15085
874.851	15154
874.979	15135
875.108	15150
875.237	15093
875.365	15055
875.494	15138
875.623	15192
875.751	15116
875.88	15275
876.008	15180
876.136	15310
876.265	15561
876.393	15701
876.521	15538
876.65	15633
876.778	15439
876.906	15534
877.034	15576
877.162	15378
877.29	15534
877.418	15576
877.546	15523
877.674	15500
877.802	15477
877.93	15595
878.058	15443
878.185	15462
878.313	15405
878.441	15545
878.568	15367
878.696	15389
878.824	15553
878.951	15526
879.079	15671
879.206	15892
879.333	15698
879.461	15564
879.588	15679
879.715	15747
879.842	15759
879.97	15618
880.097	15439
880.224	15325
880.351	15416
880.478	15485
880.605	15412
880.732	15389
880.859	15504
880.986	15458
881.112	15378
881.239	15306
881.366	15203
881.493	15135
881.619	15104
881.746	15074
881.872	14910
881.999	14982
882.125	15028
882.252	15032
882.378	15032
882.505	15222
882.631	14967
882.757	14880
882.883	14967
883.01	14826
883.136	14762
883.262	14708
883.388	14640
883.514	14918
883.64	14975
883.766	14842
883.892	14659
884.018	14724
884.143	14937
884.269	14941
884.395	14541
884.52	14598
884.646	14560
884.772	14446
884.897	14454
885.023	14537
885.148	14613
885.274	14727
885.399	14720
885.524	14552
885.65	14602
885.775	14716
885.9	14556
886.025	14655
886.15	14541
886.275	14522
886.4	14461
886.525	14522
886.65	14469
886.775	14465
886.9	14754
887.025	14853
887.149	14564
887.274	14400
887.399	14389
887.523	14362
887.648	14374
887.773	14237
887.897	14469
888.021	14560
888.146	14362
888.27	14549
888.395	14621
888.519	14355
888.643	14518
888.767	14465
888.891	14229
889.015	14256
889.139	14282
889.263	14263
889.387	14351
889.511	14374
889.635	14438
889.759	14244
889.883	14240
890.006	14267
890.13	14351
890.254	14187
890.377	14301
890.501	14103
890.624	14202
890.748	14187
890.871	14020
890.995	13909
891.118	13852
891.241	13986
891.364	13898
891.488	14065
891.611	13989
891.734	13936
891.857	14100
891.98	13928
892.103	14001
892.226	14043
892.349	13986
892.471	13871
892.594	13963
892.717	13963
892.839	14001
892.962	13932
893.085	13997
893.207	14012
893.33	13826
893.452	13951
893.575	14012
893.697	13932
893.819	14103
893.941	14115
894.064	14081
894.186	13887
894.308	13883
894.43	14069
894.552	14218
894.674	14100
894.796	13871
894.918	14035
895.04	14001
895.161	14134
895.283	14123
895.405	13940
895.526	13993
895.648	14145
895.769	14096
895.891	14062
896.012	14221
896.134	14176
896.255	14111
896.376	14130
896.498	14210
896.619	14202
896.74	14119
896.861	14138
896.982	14499
897.103	14621
897.224	14442
897.345	14377
897.466	14286
897.587	14431
897.708	14533
897.828	14503
897.949	14396
898.07	14305
898.19	14431
898.311	14568
898.431	14374
898.552	14480
898.672	14579
898.792	14594
898.913	14541
899.033	14412
899.153	14233
899.273	14324
899.393	14332
899.513	14313
899.633	14434
899.753	14347
899.873	14259
899.993	14294
900.113	14355
900.232	14415
900.352	14305
900.472	14301
900.591	14218
900.711	14263
900.83	14161
900.95	14298
901.069	14324
901.189	14111
901.308	13921
901.427	13845
901.546	13868
901.665	13845
901.784	13860
901.904	13696
902.023	13738
902.141	13601
902.26	13396
902.379	13506
902.498	13464
902.617	13392
902.735	13415
902.854	13460
902.973	13453
903.091	13156
903.21	13285
903.328	13160
903.446	13107
903.565	12947
903.683	13095
903.801	12958
903.919	12951
904.038	12993
904.156	12837
904.274	12894
904.392	12833
904.51	12875
904.627	12806
904.745	12848
904.863	12890
904.981	12627
905.098	12521
905.216	12589
905.334	12559
905.451	12608
905.569	12494
905.686	12525
905.803	12540
905.921	12391
906.038	12437
906.155	12414
906.272	12247
906.389	12289
906.506	12049
906.623	12110
906.74	12136
906.857	12026
906.974	12034
907.091	12209
907.208	12338
907.324	12201
907.441	12087
907.557	11904
907.674	11901
907.79	11901
907.907	11935
908.023	11961
908.139	11946
908.256	11908
908.372	11821
908.488	11733
908.604	11703
908.72	11653
908.836	11726
908.952	11741
909.068	11672
909.184	11726
909.3	11665
909.415	11809
909.531	11760
909.647	11459
909.762	11535
909.878	11444
909.993	11436
910.108	11497
910.224	11444
910.339	11398
910.454	11284
910.57	11318
910.685	11303
910.8	11611
910.915	11452
911.03	11433
911.145	11216
911.259	11208
911.374	11170
911.489	11090
911.604	11052
911.718	10972
911.833	10987
911.947	10835
912.062	10771
912.176	10900
912.291	10850
912.405	10934
912.519	11052
912.633	11109
912.748	10976
912.862	10896
912.976	10767
913.09	10664
913.204	10725
913.318	10778
913.431	10869
913.545	10915
913.659	10923
913.772	10740
913.886	10683
914	10656
914.113	10744
914.226	10854
914.34	10786
914.453	10660
914.566	10733
914.68	10554
914.793	10656
914.906	10413
915.019	10375
915.132	10390
915.245	10363
915.358	10493
915.47	10432
915.583	10459
915.696	10447
915.809	10512
915.921	10588
916.034	10402
916.146	10466
916.259	10341
916.371	10512
916.483	10424
916.595	10382
916.708	10394
916.82	10299
916.932	10398
917.044	10310
917.156	10318
917.268	10265
917.38	10223
917.491	10238
917.603	10253
917.715	10325
917.826	10356
917.938	10284
918.049	10188
918.161	10268
918.272	10421
918.384	10405
918.495	10284
918.606	10215
918.717	10078
918.828	10207
918.939	10154
919.05	10025
919.161	10147
919.272	9930
919.383	10032
919.494	10173
919.604	10352
919.715	10154
919.826	10063
919.936	10059
920.047	10169
920.157	10261
920.267	10295
920.378	10223
920.488	10158
920.598	10398
920.708	10432
920.818	10306
920.928	10348
921.038	10542
921.148	10611
921.258	10173
921.368	10188
921.477	10048
921.587	9945
921.697	9983
921.806	10124
921.916	9903
922.025	9770
922.134	9698
922.244	9644
922.353	9762
922.462	9641
922.571	9557
922.68	9412
922.789	9405
922.898	9439
923.007	9321
923.116	9477
923.224	9412
923.333	9378
923.442	9306
923.55	9283
923.659	9279
923.767	9355
923.876	9294
923.984	9363
924.092	9195
924.201	9332
924.309	9348
924.417	9336
924.525	9195
924.633	9226
924.741	10025
924.849	9081
924.956	9176
925.064	9055
925.172	8944
925.279	9081
925.387	9051
925.494	9013
925.602	9165
925.709	9127
925.816	9017
925.924	9055
926.031	9195
926.138	9123
926.245	9127
926.352	9039
926.459	9127
926.566	9146
926.673	9024
926.779	8933
926.886	8933
926.993	8735
927.099	8792
927.206	8746
927.312	8792
927.419	8838
927.525	8758
927.631	8804
927.737	8731
927.843	8648
927.95	8556
928.056	8716
928.162	8766
928.267	8682
928.373	9351
928.479	8804
928.585	8465
928.69	8636
928.796	8731
928.901	8610
929.007	8423
929.112	8617
929.218	8552
929.323	8606
929.428	8450
929.533	8640
929.638	8465
929.743	8484
929.848	8518
929.953	8545
930.058	8450
930.163	8298
930.267	8259
930.372	8465
930.477	8248
930.581	8461
930.685	8366
930.79	8183
930.894	8248
930.998	8214
931.103	8366
931.207	8039
931.311	7932
931.415	7913
931.519	7662
931.623	7811
