Data from test_V78500241_3472.txt Node
Date: Fri Mar 25 14:57:53 CST 2022
User: usil
Spectrometer: V785-0024
Trigger mode: 0
Integration Time (sec): 4.000000E-1
Scans to average: 1
Nonlinearity correction enabled: false
Boxcar width: 0
Storing dark spectrum: false
XAxis mode: Wavelengths
Number of Pixels in Spectrum: 1024
>>>>>Begin Spectral Data<<<<<
801.071	21937
801.214	21812
801.356	21610
801.499	21477
801.641	21386
801.783	21218
801.926	21256
802.068	21157
802.211	21157
802.353	20971
802.496	20849
802.638	20845
802.78	20682
802.923	20598
803.065	20488
803.208	20590
803.35	20617
803.492	20716
803.635	20750
803.777	20613
803.919	20648
804.061	20994
804.204	20609
804.346	20571
804.488	20427
804.63	20511
804.773	20495
804.915	20495
805.057	20674
805.199	20499
805.341	20545
805.483	20659
805.626	20556
805.768	20412
805.91	20492
806.052	20564
806.194	20385
806.336	20575
806.478	20412
806.62	20400
806.762	20545
806.904	20735
807.046	20868
807.188	20872
807.33	20853
807.472	20994
807.614	20765
807.756	20826
807.898	20587
808.04	20594
808.182	20530
808.324	20533
808.465	20606
808.607	20693
808.749	20823
808.891	20902
809.033	20925
809.174	20967
809.316	20750
809.458	20823
809.6	20693
809.741	20960
809.883	20944
810.025	20963
810.166	20956
810.308	20925
810.45	21032
810.591	20887
810.733	20864
810.875	20613
811.016	20518
811.158	20454
811.299	20617
811.441	20708
811.582	20689
811.724	20590
811.865	20659
812.007	20594
812.148	20590
812.29	20724
812.431	20686
812.573	20979
812.714	20952
812.855	21165
812.997	21233
813.138	21359
813.279	21150
813.421	21180
813.562	21085
813.703	20914
813.845	20689
813.986	20552
814.127	20328
814.268	20286
814.41	20180
814.551	20107
814.692	20115
814.833	20065
814.974	20096
815.115	20187
815.256	19940
815.397	19921
815.539	19898
815.68	19947
815.821	19811
815.962	19959
816.103	19883
816.244	19708
816.385	19632
816.526	19632
816.666	19449
816.807	19228
816.948	19407
817.089	19422
817.23	19445
817.371	19422
817.512	19396
817.653	19236
817.793	19354
817.934	19175
818.075	19289
818.216	19358
818.356	19358
818.497	19133
818.638	18901
818.778	18882
818.919	19099
819.06	19019
819.2	19069
819.341	19019
819.481	19175
819.622	19308
819.762	19441
819.903	19430
820.043	19327
820.184	19236
820.324	19403
820.465	19293
820.605	19236
820.746	19236
820.886	19187
821.026	19270
821.167	19209
821.307	19133
821.447	19213
821.588	19053
821.728	18867
821.868	18859
822.008	18745
822.149	18692
822.289	18741
822.429	18407
822.569	18311
822.709	18342
822.849	18125
822.99	18133
823.13	18220
823.27	18247
823.41	17969
823.55	17958
823.69	17958
823.83	18026
823.97	17901
824.11	17726
824.25	17790
824.389	17710
824.529	17767
824.669	17764
824.809	17821
824.949	17809
825.089	17851
825.228	17672
825.368	17543
825.508	17444
825.648	17455
825.787	17554
825.927	17684
826.067	17532
826.206	17604
826.346	17524
826.485	17611
826.625	17524
826.765	17661
826.904	17562
827.044	17277
827.183	17235
827.323	17151
827.462	17349
827.601	17265
827.741	17220
827.88	17265
828.02	17147
828.159	17204
828.298	17269
828.437	17322
828.577	17227
828.716	17376
828.855	17258
828.994	16965
829.134	16930
829.273	17060
829.412	16942
829.551	17014
829.69	16885
829.829	17124
829.968	17166
830.107	17025
830.246	16976
830.385	16854
830.524	16877
830.663	16877
830.802	16763
830.941	16546
831.08	16546
831.219	16634
831.357	16596
831.496	16850
831.635	16694
831.774	16565
831.913	16512
832.051	16424
832.19	16371
832.329	16424
832.467	16265
832.606	16390
832.744	16242
832.883	16246
833.022	16318
833.16	16382
833.299	16344
833.437	16325
833.576	16402
833.714	16348
833.852	16405
833.991	16409
834.129	16451
834.267	16478
834.406	16337
834.544	16459
834.682	16367
834.821	16386
834.959	16573
835.097	16325
835.235	16455
835.373	16443
835.511	16386
835.65	16318
835.788	16314
835.926	16215
836.064	16276
836.202	16169
836.34	16306
836.478	16371
836.615	16192
836.753	16265
836.891	16329
837.029	16291
837.167	16257
837.305	16219
837.443	16219
837.58	16063
837.718	16173
837.856	16166
837.993	16051
838.131	16059
838.269	16021
838.406	16090
838.544	16006
838.681	16013
838.819	15880
838.956	15732
839.094	15774
839.231	15808
839.369	15876
839.506	16093
839.643	15979
839.781	15625
839.918	15739
840.055	15759
840.193	15831
840.33	15633
840.467	15770
840.604	15789
840.742	15979
840.879	15580
841.016	15762
841.153	15667
841.29	15751
841.427	15766
841.564	15831
841.701	15709
841.838	15701
841.975	15675
842.112	15667
842.249	15549
842.385	15443
842.522	15663
842.659	15553
842.796	15511
842.933	15564
843.069	15462
843.206	15591
843.343	15625
843.479	15542
843.616	15519
843.752	15332
843.889	15317
844.025	15469
844.162	15230
844.298	15340
844.435	15279
844.571	15226
844.708	15370
844.844	15435
844.98	15439
845.117	15401
845.253	15336
845.389	15256
845.525	15199
845.661	15176
845.798	15112
845.934	15093
846.07	15104
846.206	15104
846.342	15146
846.478	15051
846.614	14857
846.75	14845
846.886	14785
847.022	14929
847.158	14807
847.294	14807
847.429	14830
847.565	14876
847.701	15028
847.837	14629
847.972	14507
848.108	14674
848.244	14629
848.379	14511
848.515	14488
848.65	14473
848.786	14404
848.921	14461
849.057	14617
849.192	14594
849.328	14541
849.463	14495
849.598	14480
849.734	14362
849.869	14320
850.004	14309
850.14	14290
850.275	14286
850.41	14138
850.545	14218
850.68	14199
850.815	14248
850.95	14256
851.085	14465
851.22	14366
851.355	14248
851.49	14221
851.625	14244
851.76	14153
851.895	14084
852.03	14100
852.165	14187
852.299	14256
852.434	14286
852.569	14259
852.703	14412
852.838	14229
852.973	14320
853.107	14396
853.242	14210
853.376	14237
853.511	13978
853.645	14058
853.78	14233
853.914	14176
854.048	14065
854.183	14005
854.317	14024
854.451	14317
854.585	14069
854.72	14039
854.854	14218
854.988	14024
855.122	14058
855.256	13978
855.39	14157
855.524	14202
855.658	14180
855.792	14123
855.926	14168
856.06	14218
856.194	14218
856.327	14107
856.461	13982
856.595	13989
856.729	14138
856.862	14176
856.996	14073
857.13	14149
857.263	14309
857.397	14237
857.53	14062
857.664	14134
857.797	14161
857.931	14225
858.064	14081
858.197	14237
858.331	14084
858.464	14096
858.597	13955
858.731	14115
858.864	14149
858.997	13982
859.13	14088
859.263	14164
859.396	14248
859.529	14050
859.662	14103
859.795	14126
859.928	14134
860.061	14301
860.194	14278
860.327	14206
860.46	14202
860.592	14130
860.725	14294
860.858	14237
860.99	14077
861.123	14111
861.256	14065
861.388	14134
861.521	14830
861.653	13970
861.786	13986
861.918	13947
862.05	14043
862.183	14081
862.315	14191
862.447	14111
862.58	14111
862.712	13940
862.844	13875
862.976	13963
863.108	13928
863.24	14351
863.372	13814
863.504	13898
863.636	13875
863.768	13906
863.9	13841
864.032	13761
864.164	13845
864.296	13890
864.428	14043
864.559	13993
864.691	14012
864.823	13932
864.954	13887
865.086	13799
865.217	13868
865.349	13845
865.48	13890
865.612	13940
865.743	13978
865.875	13875
866.006	13814
866.137	13845
866.269	13890
866.4	13849
866.531	13860
866.662	13822
866.793	13845
866.924	13864
867.055	13860
867.186	13925
867.317	13784
867.448	13757
867.579	13784
867.71	13852
867.841	13784
867.972	13963
868.103	14005
868.233	13967
868.364	13921
868.495	13925
868.625	14145
868.756	14172
868.886	14180
869.017	14172
869.147	14221
869.278	14210
869.408	14202
869.539	14126
869.669	14214
869.799	14187
869.929	14248
870.06	14263
870.19	14427
870.32	14450
870.45	14511
870.58	14560
870.71	14651
870.84	14644
870.97	14587
871.1	14514
871.23	14689
871.36	14705
871.489	14636
871.619	14579
871.749	14693
871.879	14758
872.008	14883
872.138	14758
872.267	14720
872.397	14663
872.526	14610
872.656	14587
872.785	14648
872.915	14830
873.044	14899
873.173	14811
873.303	14811
873.432	14849
873.561	14845
873.69	14765
873.819	14880
873.948	14762
874.077	14853
874.206	14785
874.335	14842
874.464	14895
874.593	15066
874.722	15024
874.851	15062
874.979	15142
875.108	15211
875.237	15043
875.365	15001
875.494	15165
875.623	15226
875.751	15077
875.88	15032
876.008	15245
876.136	15374
876.265	15538
876.393	15599
876.521	15633
876.65	15595
876.778	15568
876.906	15530
877.034	15492
877.162	15511
877.29	15485
877.418	15534
877.546	15523
877.674	15492
877.802	15637
877.93	15439
878.058	15477
878.185	15363
878.313	15447
878.441	15557
878.568	15393
878.696	15462
878.824	15603
878.951	15637
879.079	15759
879.206	15857
879.333	15793
879.461	15534
879.588	15667
879.715	15652
879.842	15778
879.97	15580
880.097	15454
880.224	15336
880.351	15443
880.478	15370
880.605	15359
880.732	15363
880.859	15599
880.986	15302
881.112	15389
881.239	15268
881.366	15230
881.493	15192
881.619	15009
881.746	15024
881.872	15093
881.999	14971
882.125	15020
882.252	15108
882.378	15112
882.505	15203
882.631	14979
882.757	14834
882.883	14845
883.01	14891
883.136	14853
883.262	14765
883.388	14769
883.514	14804
883.64	14876
883.766	14739
883.892	14678
884.018	14689
884.143	14773
884.269	15066
884.395	14598
884.52	14549
884.646	14598
884.772	14537
884.897	14476
885.023	14556
885.148	14648
885.274	14750
885.399	14678
885.524	14606
885.65	14484
885.775	14552
885.9	14583
886.025	14617
886.15	14670
886.275	14450
886.4	14484
886.525	14556
886.65	14438
886.775	14552
886.9	14674
887.025	14826
887.149	14579
887.274	14469
887.399	14305
887.523	14358
887.648	14282
887.773	14355
887.897	14442
888.021	14442
888.146	14336
888.27	14457
888.395	14522
888.519	14450
888.643	14381
888.767	14434
888.891	14324
889.015	14290
889.139	14240
889.263	14271
889.387	14267
889.511	14415
889.635	14370
889.759	14176
889.883	14263
890.006	14301
890.13	14423
890.254	14164
890.377	14096
890.501	14096
890.624	14005
890.748	14054
890.871	13993
890.995	13860
891.118	13902
891.241	13868
891.364	13963
891.488	14084
891.611	13993
891.734	13963
891.857	13974
891.98	14039
892.103	14107
892.226	13944
892.349	14008
892.471	13871
892.594	14012
892.717	14035
892.839	13955
892.962	13917
893.085	14001
893.207	13951
893.33	13868
893.452	13814
893.575	13944
893.697	14039
893.819	14111
893.941	14183
894.064	14187
894.186	13989
894.308	14001
894.43	14088
894.552	14138
894.674	14202
894.796	13982
894.918	14073
895.04	13997
895.161	14073
895.283	14084
895.405	13982
895.526	14107
895.648	14054
895.769	14077
895.891	14039
896.012	14168
896.134	14119
896.255	14176
896.376	14039
896.498	14164
896.619	14161
896.74	14199
896.861	14229
896.982	14446
897.103	14659
897.224	14484
897.345	14450
897.466	14362
897.587	14446
897.708	14541
897.828	14377
897.949	14362
898.07	14381
898.19	14362
898.311	14488
898.431	14438
898.552	14461
898.672	14587
898.792	14488
898.913	14518
899.033	14454
899.153	14240
899.273	14290
899.393	14256
899.513	14434
899.633	14305
899.753	14393
899.873	14256
899.993	14431
900.113	14282
900.232	14374
900.352	14275
900.472	14343
900.591	14168
900.711	14218
900.83	14202
900.95	14256
901.069	14271
901.189	14145
901.308	13913
901.427	13868
901.546	13856
901.665	13902
901.784	13913
901.904	13727
902.023	13658
902.141	13552
902.26	13472
902.379	13548
902.498	13464
902.617	13426
902.735	13483
902.854	13460
902.973	13373
903.091	13114
903.21	13160
903.328	13274
903.446	12989
903.565	13057
903.683	13015
903.801	12901
903.919	13012
904.038	12996
904.156	12840
904.274	12867
904.392	12894
904.51	12787
904.627	12833
904.745	12798
904.863	12871
904.981	12589
905.098	12536
905.216	12525
905.334	12589
905.451	12547
905.569	12517
905.686	12589
905.803	12460
905.921	12361
906.038	12422
906.155	12361
906.272	12266
906.389	12266
906.506	12068
906.623	12163
906.74	12102
906.857	12068
906.974	12091
907.091	12083
907.208	12243
907.324	12060
907.441	12060
907.557	11874
907.674	11840
907.79	11760
907.907	11863
908.023	11885
908.139	11889
908.256	11889
908.372	11752
908.488	11783
908.604	11665
908.72	11596
908.836	11638
908.952	11562
909.068	11718
909.184	11771
909.3	11596
909.415	11649
909.531	11714
909.647	11395
909.762	11463
909.878	11356
909.993	11501
910.108	11433
910.224	11398
910.339	11425
910.454	11318
910.57	11261
910.685	11227
910.8	11440
910.915	11425
911.03	11315
911.145	11079
911.259	11075
911.374	11204
911.489	11029
911.604	11048
911.718	10892
911.833	10824
911.947	10702
912.062	10725
912.176	10854
912.291	10839
912.405	10759
912.519	11041
912.633	11143
912.748	10953
912.862	10896
912.976	10797
913.09	10630
913.204	10698
913.318	10812
913.431	10892
913.545	10885
913.659	10850
913.772	10717
913.886	10622
914	10630
914.113	10717
914.226	10767
914.34	10622
914.453	10630
914.566	10729
914.68	10573
914.793	10519
914.906	10413
915.019	10367
915.132	10306
915.245	10322
915.358	10398
915.47	10413
915.583	10367
915.696	10436
915.809	10516
915.921	10447
916.034	10367
916.146	10348
916.259	10329
916.371	10451
916.483	10382
916.595	10337
916.708	10421
916.82	10265
916.932	10337
917.044	10291
917.156	10379
917.268	10150
917.38	10230
917.491	10238
917.603	10261
917.715	10314
917.826	10325
917.938	10253
918.049	10162
918.161	10261
918.272	10421
918.384	10344
918.495	10352
918.606	10051
918.717	10040
918.828	10177
918.939	10116
919.05	10044
919.161	10105
919.272	9983
919.383	9972
919.494	10242
919.604	10428
919.715	10139
919.826	10071
919.936	10051
920.047	10287
920.157	10150
920.267	10428
920.378	10173
920.488	10147
920.598	10379
920.708	10516
920.818	10344
920.928	10382
921.038	10516
921.148	10523
921.258	10204
921.368	10150
921.477	9998
921.587	10013
921.697	10021
921.806	10021
921.916	9934
922.025	9694
922.134	9701
922.244	9648
922.353	9812
922.462	9561
922.571	9561
922.68	9462
922.789	9408
922.898	9462
923.007	9344
923.116	9481
923.224	9447
923.333	9355
923.442	9389
923.55	9256
923.659	9340
923.767	9298
923.876	9230
923.984	9340
924.092	9211
924.201	9332
924.309	9344
924.417	9298
924.525	9241
924.633	9230
924.741	10234
924.849	9081
924.956	9154
925.064	9032
925.172	8967
925.279	8990
925.387	9093
925.494	9100
925.602	9268
925.709	9173
925.816	9039
925.924	9081
926.031	9176
926.138	9085
926.245	9142
926.352	9058
926.459	9108
926.566	9245
926.673	9070
926.779	8933
926.886	8925
926.993	8792
927.099	8785
927.206	8735
927.312	8746
927.419	8899
927.525	8815
927.631	8864
927.737	8739
927.843	8689
927.95	8537
928.056	8667
928.162	8735
928.267	8724
928.373	9412
928.479	8758
928.585	8590
928.69	8663
928.796	8716
928.901	8606
929.007	8419
929.112	8636
929.218	8564
929.323	8598
929.428	8514
929.533	8670
929.638	8419
929.743	8473
929.848	8556
929.953	8503
930.058	8457
930.163	8275
930.267	8313
930.372	8431
930.477	8229
930.581	8507
930.685	8282
930.79	8229
930.894	8282
930.998	8187
931.103	8336
931.207	8043
931.311	7947
931.415	7928
931.519	7750
931.623	7674
