Data from test_V78500241_2855.txt Node
Date: Fri Mar 25 14:53:35 CST 2022
User: usil
Spectrometer: V785-0024
Trigger mode: 0
Integration Time (sec): 4.000000E-1
Scans to average: 1
Nonlinearity correction enabled: false
Boxcar width: 0
Storing dark spectrum: false
XAxis mode: Wavelengths
Number of Pixels in Spectrum: 1024
>>>>>Begin Spectral Data<<<<<
801.071	21899
801.214	21930
801.356	21724
801.499	21599
801.641	21431
801.783	21397
801.926	21431
802.068	21420
802.211	21344
802.353	21279
802.496	21157
802.638	20914
802.78	20967
802.923	20804
803.065	20689
803.208	20682
803.35	20773
803.492	20986
803.635	20948
803.777	20807
803.919	20868
804.061	21104
804.204	20826
804.346	20659
804.488	20613
804.63	20686
804.773	20701
804.915	20663
805.057	20625
805.199	20579
805.341	20735
805.483	20777
805.626	20739
805.768	20617
805.91	20777
806.052	20625
806.194	20560
806.336	20800
806.478	20632
806.62	20560
806.762	20739
806.904	20895
807.046	21150
807.188	21066
807.33	20971
807.472	21070
807.614	20937
807.756	20941
807.898	20667
808.04	20724
808.182	20785
808.324	20826
808.465	20975
808.607	20941
808.749	21070
808.891	21013
809.033	21230
809.174	21020
809.316	21028
809.458	21028
809.6	21096
809.741	21047
809.883	21150
810.025	21260
810.166	21249
810.308	21138
810.45	21020
810.591	21070
810.733	21036
810.875	20887
811.016	20697
811.158	20758
811.299	20845
811.441	21001
811.582	20918
811.724	20845
811.865	20716
812.007	20682
812.148	20834
812.29	20853
812.431	21062
812.573	21119
812.714	21150
812.855	21192
812.997	21336
813.138	21450
813.279	21363
813.421	21435
813.562	21279
813.703	21112
813.845	21036
813.986	20716
814.127	20495
814.268	20389
814.41	20290
814.551	20286
814.692	20412
814.833	20275
814.974	20248
815.115	20374
815.256	20176
815.397	20206
815.539	20191
815.68	20157
815.821	20024
815.962	20111
816.103	19932
816.244	19871
816.385	19780
816.526	19784
816.666	19609
816.807	19537
816.948	19666
817.089	19563
817.23	19582
817.371	19499
817.512	19563
817.653	19480
817.793	19464
817.934	19502
818.075	19453
818.216	19575
818.356	19468
818.497	19327
818.638	19232
818.778	19171
818.919	19168
819.06	19244
819.2	19339
819.341	19453
819.481	19373
819.622	19472
819.762	19605
819.903	19601
820.043	19495
820.184	19525
820.324	19430
820.465	19533
820.605	19476
820.746	19388
820.886	19350
821.026	19468
821.167	19324
821.307	19487
821.447	19377
821.588	19209
821.728	19247
821.868	18916
822.008	18821
822.149	18817
822.289	18859
822.429	18661
822.569	18555
822.709	18612
822.849	18346
822.99	18369
823.13	18311
823.27	18369
823.41	18121
823.55	18148
823.69	18304
823.83	18129
823.97	18144
824.11	18003
824.25	17977
824.389	17874
824.529	18045
824.669	17927
824.809	18019
824.949	18106
825.089	17977
825.228	18038
825.368	17874
825.508	17634
825.648	17828
825.787	17756
825.927	17794
826.067	17775
826.206	17695
826.346	17752
826.485	17760
826.625	17737
826.765	17821
826.904	17653
827.044	17520
827.183	17379
827.323	17455
827.462	17440
827.601	17318
827.741	17482
827.88	17459
828.02	17273
828.159	17364
828.298	17482
828.437	17463
828.577	17318
828.716	17459
828.855	17433
828.994	17166
829.134	17109
829.273	17220
829.412	17029
829.551	17121
829.69	17067
829.829	17136
829.968	17166
830.107	17197
830.246	17121
830.385	17128
830.524	17045
830.663	16942
830.802	16965
830.941	16866
831.08	16656
831.219	16824
831.357	16805
831.496	16965
831.635	16801
831.774	16656
831.913	16698
832.051	16561
832.19	16500
832.329	16615
832.467	16512
832.606	16421
832.744	16504
832.883	16417
833.022	16497
833.16	16443
833.299	16497
833.437	16462
833.576	16580
833.714	16516
833.852	16497
833.991	16546
834.129	16611
834.267	16649
834.406	16497
834.544	16558
834.682	16504
834.821	16504
834.959	16774
835.097	16474
835.235	16561
835.373	16554
835.511	16542
835.65	16436
835.788	16394
835.926	16375
836.064	16124
836.202	16226
836.34	16443
836.478	16470
836.615	16352
836.753	16466
836.891	16516
837.029	16402
837.167	16314
837.305	16329
837.443	16386
837.58	16325
837.718	16352
837.856	16265
837.993	16204
838.131	16284
838.269	16261
838.406	16234
838.544	16223
838.681	16006
838.819	15998
838.956	15857
839.094	15831
839.231	15831
839.369	16036
839.506	16211
839.643	16143
839.781	15854
839.918	15797
840.055	15873
840.193	15937
840.33	15739
840.467	15823
840.604	15854
840.742	16071
840.879	15633
841.016	15660
841.153	15739
841.29	15934
841.427	15918
841.564	15774
841.701	15915
841.838	15857
841.975	15679
842.112	15800
842.249	15675
842.385	15500
842.522	15854
842.659	15534
842.796	15576
842.933	15641
843.069	15549
843.206	15549
843.343	15759
843.479	15599
843.616	15564
843.752	15367
843.889	15382
844.025	15485
844.162	15279
844.298	15477
844.435	15325
844.571	15370
844.708	15431
844.844	15580
844.98	15545
845.117	15500
845.253	15367
845.389	15252
845.525	15329
845.661	15298
845.798	15207
845.934	15203
846.07	15119
846.206	15325
846.342	15256
846.478	15230
846.614	14948
846.75	14899
846.886	14811
847.022	15085
847.158	14986
847.294	14921
847.429	14937
847.565	14853
847.701	15195
847.837	14773
847.972	14629
848.108	14849
848.244	14807
848.379	14598
848.515	14579
848.65	14568
848.786	14526
848.921	14556
849.057	14571
849.192	14610
849.328	14571
849.463	14507
849.598	14598
849.734	14385
849.869	14457
850.004	14400
850.14	14396
850.275	14336
850.41	14278
850.545	14320
850.68	14214
850.815	14324
850.95	14282
851.085	14484
851.22	14442
851.355	14301
851.49	14286
851.625	14305
851.76	14317
851.895	14229
852.03	14294
852.165	14294
852.299	14404
852.434	14408
852.569	14438
852.703	14339
852.838	14381
852.973	14412
853.107	14404
853.242	14172
853.376	14233
853.511	14065
853.645	14172
853.78	14309
853.914	14252
854.048	14180
854.183	14187
854.317	14233
854.451	14366
854.585	14145
854.72	14237
854.854	14256
854.988	14100
855.122	14100
855.256	14065
855.39	14172
855.524	14286
855.658	14278
855.792	14233
855.926	14328
856.06	14259
856.194	14309
856.327	14332
856.461	14282
856.595	14202
856.729	14172
856.862	14355
856.996	14278
857.13	14370
857.263	14275
857.397	14271
857.53	14252
857.664	14377
857.797	14328
857.931	14370
858.064	14362
858.197	14336
858.331	14195
858.464	14157
858.597	14130
858.731	14164
858.864	14271
858.997	14180
859.13	14336
859.263	14240
859.396	14301
859.529	14187
859.662	14271
859.795	14168
859.928	14328
860.061	14465
860.194	14438
860.327	14336
860.46	14199
860.592	14381
860.725	14358
860.858	14347
860.99	14195
861.123	14168
861.256	14145
861.388	14271
861.521	14788
861.653	14084
861.786	14046
861.918	14195
862.05	14206
862.183	14180
862.315	14214
862.447	14256
862.58	14202
862.712	14046
862.844	13963
862.976	14012
863.108	14107
863.24	14522
863.372	13887
863.504	13993
863.636	13970
863.768	13997
863.9	14020
864.032	13963
864.164	14008
864.296	14111
864.428	14176
864.559	14100
864.691	14005
864.823	14039
864.954	14016
865.086	14138
865.217	14039
865.349	14027
865.48	13993
865.612	14035
865.743	14107
865.875	14054
866.006	13989
866.137	14084
866.269	14012
866.4	13947
866.531	13932
866.662	14043
866.793	14012
866.924	13906
867.055	14016
867.186	13925
867.317	13928
867.448	13883
867.579	13921
867.71	13849
867.841	13890
867.972	14039
868.103	14001
868.233	14092
868.364	14024
868.495	14054
868.625	14195
868.756	14305
868.886	14221
869.017	14191
869.147	14336
869.278	14351
869.408	14298
869.539	14233
869.669	14381
869.799	14214
869.929	14385
870.06	14336
870.19	14488
870.32	14560
870.45	14587
870.58	14731
870.71	14769
870.84	14781
870.97	14629
871.1	14533
871.23	14811
871.36	14758
871.489	14724
871.619	14811
871.749	14868
871.879	14845
872.008	14906
872.138	14895
872.267	14804
872.397	14701
872.526	14720
872.656	14598
872.785	14697
872.915	14826
873.044	14864
873.173	14975
873.303	14986
873.432	14933
873.561	14971
873.69	14918
873.819	14906
873.948	14982
874.077	14929
874.206	14868
874.335	14967
874.464	15028
874.593	15154
874.722	15173
874.851	15264
874.979	15184
875.108	15283
875.237	15169
875.365	15066
875.494	15157
875.623	15298
875.751	15123
875.88	15237
876.008	15386
876.136	15428
876.265	15622
876.393	15755
876.521	15819
876.65	15667
876.778	15637
876.906	15629
877.034	15519
877.162	15572
877.29	15641
877.418	15652
877.546	15633
877.674	15507
877.802	15629
877.93	15641
878.058	15526
878.185	15431
878.313	15561
878.441	15667
878.568	15389
878.696	15504
878.824	15686
878.951	15701
879.079	15751
879.206	15865
879.333	15785
879.461	15610
879.588	15724
879.715	15911
879.842	15930
879.97	15637
880.097	15519
880.224	15488
880.351	15530
880.478	15500
880.605	15462
880.732	15504
880.859	15739
880.986	15523
881.112	15511
881.239	15226
881.366	15291
881.493	15108
881.619	15089
881.746	15169
881.872	15176
881.999	15119
882.125	15150
882.252	15233
882.378	15157
882.505	15260
882.631	15070
882.757	14982
882.883	14979
883.01	14925
883.136	14887
883.262	14777
883.388	14762
883.514	14956
883.64	15009
883.766	14788
883.892	14758
884.018	14796
884.143	15024
884.269	15051
884.395	14777
884.52	14754
884.646	14629
884.772	14651
884.897	14457
885.023	14602
885.148	14708
885.274	14705
885.399	14682
885.524	14659
885.65	14720
885.775	14701
885.9	14636
886.025	14739
886.15	14731
886.275	14587
886.4	14575
886.525	14727
886.65	14670
886.775	14636
886.9	14849
887.025	14899
887.149	14682
887.274	14560
887.399	14514
887.523	14450
887.648	14465
887.773	14393
887.897	14598
888.021	14629
888.146	14507
888.27	14537
888.395	14678
888.519	14514
888.643	14545
888.767	14476
888.891	14400
889.015	14336
889.139	14358
889.263	14229
889.387	14434
889.511	14579
889.635	14484
889.759	14298
889.883	14313
890.006	14263
890.13	14473
890.254	14286
890.377	14317
890.501	14134
890.624	14138
890.748	14240
890.871	14081
890.995	13955
891.118	14035
891.241	13978
891.364	13978
891.488	14164
891.611	13986
891.734	13963
891.857	14103
891.98	14092
892.103	14092
892.226	14111
892.349	14005
892.471	13917
892.594	13989
892.717	14039
892.839	14077
892.962	14058
893.085	14145
893.207	14138
893.33	14065
893.452	14001
893.575	14149
893.697	14039
893.819	14252
893.941	14240
894.064	14271
894.186	13940
894.308	14035
894.43	14103
894.552	14267
894.674	14221
894.796	13963
894.918	14058
895.04	14130
895.161	14278
895.283	14149
895.405	14088
895.526	14145
895.648	14218
895.769	14164
895.891	14259
896.012	14358
896.134	14328
896.255	14240
896.376	14107
896.498	14172
896.619	14282
896.74	14240
896.861	14107
896.982	14598
897.103	14762
897.224	14598
897.345	14469
897.466	14381
897.587	14469
897.708	14598
897.828	14590
897.949	14507
898.07	14408
898.19	14423
898.311	14716
898.431	14465
898.552	14564
898.672	14727
898.792	14610
898.913	14617
899.033	14537
899.153	14450
899.273	14324
899.393	14438
899.513	14465
899.633	14457
899.753	14427
899.873	14362
899.993	14499
900.113	14518
900.232	14476
900.352	14473
900.472	14385
900.591	14221
900.711	14309
900.83	14244
900.95	14381
901.069	14374
901.189	14229
901.308	14035
901.427	13936
901.546	13909
901.665	14069
901.784	13959
901.904	13902
902.023	13849
902.141	13609
902.26	13544
902.379	13719
902.498	13529
902.617	13468
902.735	13502
902.854	13628
902.973	13381
903.091	13339
903.21	13232
903.328	13331
903.446	13251
903.565	13156
903.683	13149
903.801	12996
903.919	13091
904.038	13141
904.156	12981
904.274	13110
904.392	12943
904.51	12878
904.627	12939
904.745	12985
904.863	13027
904.981	12734
905.098	12616
905.216	12547
905.334	12585
905.451	12650
905.569	12616
905.686	12646
905.803	12639
905.921	12433
906.038	12528
906.155	12414
906.272	12380
906.389	12391
906.506	12232
906.623	12300
906.74	12155
906.857	12102
906.974	12072
907.091	12258
907.208	12327
907.324	12289
907.441	12159
907.557	11950
907.674	12068
907.79	11893
907.907	11984
908.023	12019
908.139	12064
908.256	11878
908.372	11840
908.488	11889
908.604	11745
908.72	11684
908.836	11726
908.952	11695
909.068	11695
909.184	11821
909.3	11786
909.415	11691
909.531	11710
909.647	11558
909.762	11455
909.878	11490
909.993	11486
910.108	11520
910.224	11478
910.339	11493
910.454	11395
910.57	11299
910.685	11315
910.8	11554
910.915	11486
911.03	11368
911.145	11204
911.259	11193
911.374	11223
911.489	11185
911.604	11105
911.718	10987
911.833	10949
911.947	10847
912.062	10683
912.176	10927
912.291	10896
912.405	10946
912.519	11109
912.633	11083
912.748	10984
912.862	10927
912.976	10850
913.09	10744
913.204	10755
913.318	10831
913.431	10919
913.545	10923
913.659	10885
913.772	10889
913.886	10793
914	10618
914.113	10748
914.226	10786
914.34	10824
914.453	10622
914.566	10828
914.68	10660
914.793	10649
914.906	10481
915.019	10478
915.132	10329
915.245	10592
915.358	10455
915.47	10493
915.583	10478
915.696	10554
915.809	10637
915.921	10588
916.034	10428
916.146	10344
916.259	10363
916.371	10485
916.483	10459
916.595	10386
916.708	10375
916.82	10424
916.932	10386
917.044	10436
917.156	10322
917.268	10227
917.38	10299
917.491	10253
917.603	10268
917.715	10390
917.826	10470
917.938	10303
918.049	10200
918.161	10284
918.272	10413
918.384	10310
918.495	10223
918.606	10181
918.717	10105
918.828	10223
918.939	10200
919.05	10105
919.161	10185
919.272	9975
919.383	9998
919.494	10261
919.604	10367
919.715	10185
919.826	10196
919.936	10139
920.047	10242
920.157	10211
920.267	10402
920.378	10177
920.488	10211
920.598	10394
920.708	10523
920.818	10375
920.928	10402
921.038	10443
921.148	10535
921.258	10181
921.368	10158
921.477	10051
921.587	9972
921.697	9956
921.806	10116
921.916	9899
922.025	9835
922.134	9747
922.244	9740
922.353	9812
922.462	9622
922.571	9572
922.68	9485
922.789	9412
922.898	9526
923.007	9378
923.116	9447
923.224	9420
923.333	9439
923.442	9378
923.55	9332
923.659	9355
923.767	9332
923.876	9249
923.984	9397
924.092	9348
924.201	9245
924.309	9287
924.417	9359
924.525	9344
924.633	9313
924.741	10166
924.849	9146
924.956	9283
925.064	9165
925.172	9051
925.279	9085
925.387	9100
925.494	9192
925.602	9218
925.709	9199
925.816	8982
925.924	9131
926.031	9154
926.138	9184
926.245	9199
926.352	9089
926.459	9192
926.566	9291
926.673	9028
926.779	8956
926.886	8960
926.993	8921
927.099	8861
927.206	8834
927.312	8883
927.419	8895
927.525	8842
927.631	8918
927.737	8804
927.843	8769
927.95	8712
928.056	8743
928.162	8762
928.267	8845
928.373	9310
928.479	8830
928.585	8579
928.69	8796
928.796	8792
928.901	8689
929.007	8537
929.112	8701
929.218	8617
929.323	8644
929.428	8613
929.533	8731
929.638	8594
929.743	8552
929.848	8537
929.953	8549
930.058	8473
930.163	8366
930.267	8324
930.372	8438
930.477	8298
930.581	8648
930.685	8431
930.79	8328
930.894	8267
930.998	8339
931.103	8351
931.207	8024
931.311	7986
931.415	7894
931.519	7837
931.623	7803
