Data from test_V78500241_669.txt Node
Date: Fri Mar 25 14:38:22 CST 2022
User: usil
Spectrometer: V785-0024
Trigger mode: 0
Integration Time (sec): 4.000000E-1
Scans to average: 1
Nonlinearity correction enabled: false
Boxcar width: 0
Storing dark spectrum: false
XAxis mode: Wavelengths
Number of Pixels in Spectrum: 1024
>>>>>Begin Spectral Data<<<<<
801.071	27987
801.214	28082
801.356	27895
801.499	27789
801.641	27610
801.783	27515
801.926	27625
802.068	27355
802.211	27370
802.353	27401
802.496	27135
802.638	27123
802.78	27028
802.923	26960
803.065	26921
803.208	26940
803.35	26906
803.492	27173
803.635	27131
803.777	27001
803.919	27203
804.061	27542
804.204	27332
804.346	27340
804.488	27218
804.63	27218
804.773	27374
804.915	27363
805.057	27504
805.199	27580
805.341	27595
805.483	27770
805.626	27838
805.768	27736
805.91	27960
806.052	27991
806.194	28181
806.336	28542
806.478	28493
806.62	28645
806.762	28949
806.904	29330
807.046	29824
807.188	30140
807.33	30673
807.472	31320
807.614	31913
807.756	32739
807.898	33648
808.04	35296
808.182	37282
808.324	39823
808.465	42772
808.607	46089
808.749	48700
808.891	50492
809.033	50686
809.174	48943
809.316	46318
809.458	42985
809.6	39534
809.741	36928
809.883	34755
810.025	33294
810.166	32065
810.308	31609
810.45	30787
810.591	30273
810.733	29668
810.875	29444
811.016	29018
811.158	28744
811.299	28767
811.441	28767
811.582	28611
811.724	28455
811.865	28090
812.007	28196
812.148	28093
812.29	27983
812.431	28059
812.573	28128
812.714	28139
812.855	28242
812.997	28226
813.138	28200
813.279	28181
813.421	28059
813.562	27838
813.703	27732
813.845	27606
813.986	27306
814.127	27127
814.268	26872
814.41	26792
814.551	26876
814.692	26940
814.833	26731
814.974	26838
815.115	26781
815.256	26549
815.397	26579
815.539	26473
815.68	26317
815.821	26355
815.962	26442
816.103	26355
816.244	26176
816.385	26096
816.526	26062
816.666	25833
816.807	25837
816.948	25738
817.089	25795
817.23	25734
817.371	25731
817.512	25643
817.653	25525
817.793	25434
817.934	25628
818.075	25605
818.216	25578
818.356	25609
818.497	25358
818.638	25293
818.778	25312
818.919	25194
819.06	25228
819.2	25308
819.341	25510
819.481	25506
819.622	25624
819.762	25864
819.903	25674
820.043	25491
820.184	25499
820.324	25518
820.465	25521
820.605	25343
820.746	25422
820.886	25179
821.026	25411
821.167	25312
821.307	25422
821.447	25232
821.588	25080
821.728	24943
821.868	24859
822.008	24703
822.149	24612
822.289	24551
822.429	24292
822.569	24410
822.709	24300
822.849	24068
822.99	24197
823.13	24205
823.27	23977
823.41	24091
823.55	23783
823.69	23935
823.83	23855
823.97	23840
824.11	23611
824.25	23585
824.389	23581
824.529	23684
824.669	23646
824.809	23748
824.949	23665
825.089	23764
825.228	23710
825.368	23531
825.508	23429
825.648	23512
825.787	23444
825.927	23459
826.067	23387
826.206	23440
826.346	23474
826.485	23376
826.625	23322
826.765	23554
826.904	23398
827.044	23113
827.183	23117
827.323	23037
827.462	23185
827.601	23147
827.741	23140
827.88	23140
828.02	23033
828.159	23155
828.298	23056
828.437	23117
828.577	22877
828.716	23083
828.855	22953
828.994	22839
829.134	22706
829.273	22748
829.412	22668
829.551	22599
829.69	22748
829.829	22679
829.968	22908
830.107	22824
830.246	22828
830.385	22649
830.524	22611
830.663	22470
830.802	22478
830.941	22428
831.08	22295
831.219	22356
831.357	22405
831.496	22569
831.635	22379
831.774	22325
831.913	22341
832.051	22135
832.19	22162
832.329	22230
832.467	22181
832.606	22230
832.744	22242
832.883	22207
833.022	22341
833.16	22405
833.299	22497
833.437	22733
833.576	22771
833.714	22968
833.852	23014
833.991	23117
834.129	23223
834.267	23231
834.406	23277
834.544	23235
834.682	22991
834.821	22866
834.959	22930
835.097	22759
835.235	22656
835.373	22489
835.511	22455
835.65	22162
835.788	22147
835.926	21838
836.064	21941
836.202	21857
836.34	22082
836.478	21979
836.615	21880
836.753	21949
836.891	21949
837.029	21972
837.167	21747
837.305	21720
837.443	21583
837.58	21629
837.718	21747
837.856	21671
837.993	21622
838.131	21553
838.269	21576
838.406	21591
838.544	21583
838.681	21317
838.819	21291
838.956	21055
839.094	21096
839.231	21112
839.369	21294
839.506	21500
839.643	21275
839.781	21142
839.918	20929
840.055	21066
840.193	21009
840.33	20880
840.467	21096
840.604	21089
840.742	21279
840.879	20906
841.016	20975
841.153	21001
841.29	21131
841.427	21108
841.564	20979
841.701	20994
841.838	20963
841.975	20944
842.112	20990
842.249	20686
842.385	20883
842.522	21062
842.659	20952
842.796	20815
842.933	20712
843.069	20861
843.206	20963
843.343	21001
843.479	20933
843.616	21043
843.752	20796
843.889	20845
844.025	21039
844.162	20963
844.298	21188
844.435	21211
844.571	21416
844.708	21747
844.844	22109
844.98	22527
845.117	23155
845.253	24102
845.389	25951
845.525	29558
845.661	35166
845.798	42026
845.934	47189
846.07	48753
846.206	47402
846.342	42871
846.478	36015
846.614	30167
846.75	26484
846.886	24114
847.022	22850
847.158	22109
847.294	21576
847.429	21192
847.565	20979
847.701	20956
847.837	20336
847.972	20233
848.108	20237
848.244	20229
848.379	20039
848.515	19826
848.65	19928
848.786	19864
848.921	19894
849.057	19860
849.192	19780
849.328	19940
849.463	19734
849.598	19723
849.734	19616
849.869	19552
850.004	19419
850.14	19571
850.275	19373
850.41	19453
850.545	19373
850.68	19316
850.815	19415
850.95	19392
851.085	19609
851.22	19480
851.355	19407
851.49	19411
851.625	19289
851.76	19434
851.895	19373
852.03	19221
852.165	19422
852.299	19575
852.434	19476
852.569	19525
852.703	19422
852.838	19499
852.973	19681
853.107	19632
853.242	19544
853.376	19384
853.511	19384
853.645	19434
853.78	19616
853.914	19525
854.048	19544
854.183	19483
854.317	19639
854.451	19784
854.585	19575
854.72	19563
854.854	19655
854.988	19445
855.122	19457
855.256	19365
855.39	19400
855.524	19483
855.658	19358
855.792	19400
855.926	19453
856.06	19327
856.194	19392
856.327	19297
856.461	19183
856.595	19297
856.729	19202
856.862	19335
856.996	19236
857.13	19304
857.263	19343
857.397	19327
857.53	19194
857.664	19137
857.797	19289
857.931	19206
858.064	19206
858.197	19263
858.331	19133
858.464	19046
858.597	18985
858.731	19099
858.864	18970
858.997	19129
859.13	19057
859.263	19194
859.396	19099
859.529	18970
859.662	19019
859.795	18973
859.928	19084
860.061	19133
860.194	19244
860.327	19015
860.46	18928
860.592	19008
860.725	19194
860.858	19141
860.99	18970
861.123	18890
861.256	18916
861.388	18947
861.521	19658
861.653	18848
861.786	18772
861.918	18772
862.05	18814
862.183	18920
862.315	18977
862.447	19164
862.58	19000
862.712	18707
862.844	18730
862.976	18882
863.108	18905
863.24	19145
863.372	18661
863.504	18700
863.636	18612
863.768	18738
863.9	18700
864.032	18536
864.164	18604
864.296	18779
864.428	18688
864.559	18779
864.691	18768
864.823	18707
864.954	18673
865.086	18734
865.217	18604
865.349	18513
865.48	18582
865.612	18593
865.743	18700
865.875	18665
866.006	18585
866.137	18585
866.269	18582
866.4	18665
866.531	18483
866.662	18616
866.793	18532
866.924	18570
867.055	18471
867.186	18627
867.317	18593
867.448	18441
867.579	18528
867.71	18471
867.841	18673
867.972	18673
868.103	18502
868.233	18551
868.364	18551
868.495	18570
868.625	18810
868.756	18909
868.886	18738
869.017	18745
869.147	18935
869.278	18924
869.408	18939
869.539	18863
869.669	18852
869.799	18882
869.929	18951
870.06	18935
870.19	19126
870.32	19129
870.45	19175
870.58	19183
870.71	19377
870.84	19396
870.97	19263
871.1	19297
871.23	19426
871.36	19430
871.489	19403
871.619	19506
871.749	19510
871.879	19556
872.008	19715
872.138	19460
872.267	19483
872.397	19438
872.526	19407
872.656	19430
872.785	19453
872.915	19742
873.044	19727
873.173	19666
873.303	19689
873.432	19849
873.561	19852
873.69	19784
873.819	19750
873.948	19890
874.077	19837
874.206	19852
874.335	19963
874.464	20119
874.593	20225
874.722	20191
874.851	20259
874.979	20278
875.108	20362
875.237	20256
875.365	20336
875.494	20446
875.623	20507
875.751	20484
875.88	20526
876.008	20781
876.136	20838
876.265	21017
876.393	21165
876.521	21226
876.65	21306
876.778	21203
876.906	21226
877.034	21325
877.162	21443
877.29	21393
877.418	21671
877.546	21736
877.674	21747
877.802	21869
877.93	22086
878.058	22192
878.185	22344
878.313	22557
878.441	22987
878.568	23277
878.696	23866
878.824	24722
878.951	25788
879.079	27466
879.206	29551
879.333	31381
879.461	32975
879.588	34120
879.715	34230
879.842	33382
879.97	31590
880.097	29318
880.224	27766
880.351	26712
880.478	25765
880.605	25046
880.732	24772
880.859	24798
880.986	24384
881.112	24205
881.239	24064
881.366	23870
881.493	23832
881.619	23687
881.746	23889
881.872	23961
881.999	23984
882.125	23885
882.252	24060
882.378	24076
882.505	24125
882.631	23977
882.757	23752
882.883	24072
883.01	23870
883.136	23786
883.262	23691
883.388	23642
883.514	23863
883.64	23855
883.766	23840
883.892	23756
884.018	23547
884.143	23760
884.269	23817
884.395	23623
884.52	23623
884.646	23600
884.772	23471
884.897	23562
885.023	23505
885.148	23509
885.274	23448
885.399	23436
885.524	23288
885.65	23197
885.775	23033
885.9	22930
886.025	22892
886.15	22767
886.275	22424
886.4	22318
886.525	22238
886.65	22116
886.775	21994
886.9	21979
887.025	22059
887.149	21625
887.274	21580
887.399	21332
887.523	21237
887.648	21104
887.773	20914
887.897	21085
888.021	20933
888.146	20872
888.27	20804
888.395	20971
888.519	20686
888.643	20583
888.767	20613
888.891	20518
889.015	20374
889.139	20351
889.263	20370
889.387	20309
889.511	20385
889.635	20248
889.759	20164
889.883	20202
890.006	20062
890.13	20096
890.254	20012
890.377	19906
890.501	19757
890.624	19616
890.748	19689
890.871	19590
890.995	19426
891.118	19339
891.241	19388
891.364	19438
891.488	19537
891.611	19289
891.734	19270
891.857	19320
891.98	19244
892.103	19190
892.226	19312
892.349	19114
892.471	18913
892.594	19099
892.717	19015
892.839	18973
892.962	18993
893.085	18973
893.207	18939
893.33	18901
893.452	18852
893.575	18970
893.697	18753
893.819	18943
893.941	18943
894.064	18886
894.186	18726
894.308	18665
894.43	18665
894.552	18856
894.674	18677
894.796	18486
894.918	18486
895.04	18639
895.161	18582
895.283	18635
895.405	18464
895.526	18570
895.648	18574
895.769	18578
895.891	18582
896.012	18521
896.134	18532
896.255	18418
896.376	18498
896.498	18471
896.619	18486
896.74	18574
896.861	18525
896.982	18734
897.103	18791
897.224	18585
897.345	18608
897.466	18692
897.587	18642
897.708	18715
897.828	18551
897.949	18559
898.07	18437
898.19	18582
898.311	18719
898.431	18547
898.552	18608
898.672	18627
898.792	18700
898.913	18639
899.033	18525
899.153	18399
899.273	18357
899.393	18418
899.513	18479
899.633	18445
899.753	18506
899.873	18330
899.993	18467
900.113	18285
900.232	18369
900.352	18346
900.472	18262
900.591	18239
900.711	18251
900.83	18224
900.95	18323
901.069	18311
901.189	18091
901.308	17863
901.427	17764
901.546	17760
901.665	17745
901.784	17775
901.904	17547
902.023	17440
902.141	17326
902.26	17337
902.379	17277
902.498	17296
902.617	17117
902.735	17258
902.854	17216
902.973	17121
903.091	16911
903.21	16980
903.328	16786
903.446	16805
903.565	16618
903.683	16618
903.801	16527
903.919	16523
904.038	16474
904.156	16394
904.274	16459
904.392	16363
904.51	16322
904.627	16352
904.745	16489
904.863	16341
904.981	16131
905.098	16040
905.216	16101
905.334	16021
905.451	16109
905.569	16112
905.686	15899
905.803	16002
905.921	15793
906.038	15884
906.155	15709
906.272	15625
906.389	15652
906.506	15428
906.623	15519
906.74	15526
906.857	15397
906.974	15359
907.091	15618
907.208	15663
907.324	15564
907.441	15473
907.557	15230
907.674	15287
907.79	15093
907.907	15279
908.023	15344
908.139	15275
908.256	15176
908.372	15013
908.488	15150
908.604	14967
908.72	14918
908.836	14868
908.952	14921
909.068	14891
909.184	14971
909.3	14956
909.415	14906
909.531	14918
909.647	14720
909.762	14610
909.878	14545
909.993	14663
910.108	14621
910.224	14560
910.339	14621
910.454	14583
910.57	14549
910.685	14381
910.8	14682
910.915	14743
911.03	14438
911.145	14343
911.259	14362
911.374	14271
911.489	14214
911.604	14164
911.718	14016
911.833	14050
911.947	13955
912.062	13788
912.176	14039
912.291	13921
912.405	13989
912.519	14191
912.633	14259
912.748	14069
912.862	13989
912.976	13868
913.09	13685
913.204	13822
913.318	13807
913.431	13978
913.545	13928
913.659	14043
913.772	13723
913.886	13689
914	13765
914.113	13780
914.226	13864
914.34	13742
914.453	13632
914.566	13700
914.68	13624
914.793	13605
914.906	13369
915.019	13384
915.132	13266
915.245	13460
915.358	13377
915.47	13388
915.583	13464
915.696	13468
915.809	13575
915.921	13514
916.034	13327
916.146	13274
916.259	13259
916.371	13445
916.483	13400
916.595	13343
916.708	13244
916.82	13339
916.932	13251
917.044	13232
917.156	13304
917.268	13137
917.38	13156
917.491	13019
917.603	13156
917.715	13156
917.826	13198
917.938	13129
918.049	12981
918.161	12970
918.272	13137
918.384	13122
918.495	13038
918.606	12840
918.717	12905
918.828	12878
918.939	12871
919.05	12772
919.161	12840
919.272	12684
919.383	12711
919.494	13008
919.604	12977
919.715	12989
919.826	12795
919.936	12726
920.047	12901
920.157	12783
920.267	13031
920.378	12772
920.488	12795
920.598	12916
920.708	13175
920.818	12859
920.928	12928
921.038	13095
921.148	12996
921.258	12764
921.368	12696
921.477	12540
921.587	12509
921.697	12498
921.806	12570
921.916	12486
922.025	12330
922.134	12308
922.244	12167
922.353	12281
922.462	12091
922.571	12019
922.68	11923
922.789	11942
922.898	11863
923.007	11813
923.116	11935
923.224	11832
923.333	11794
923.442	11756
923.55	11684
923.659	11745
923.767	11752
923.876	11710
923.984	11821
924.092	11634
924.201	11710
924.309	11699
924.417	11672
924.525	11638
924.633	11592
924.741	12593
924.849	11395
924.956	11543
925.064	11395
925.172	11395
925.279	11410
925.387	11452
925.494	11467
925.602	11608
925.709	11455
925.816	11334
925.924	11402
926.031	11467
926.138	11406
926.245	11448
926.352	11242
926.459	11398
926.566	11429
926.673	11315
926.779	11197
926.886	11166
926.993	11109
927.099	11098
927.206	10942
927.312	10961
927.419	11022
927.525	11090
927.631	11010
927.737	10854
927.843	10957
927.95	10755
928.056	10824
928.162	10843
928.267	10911
928.373	11455
928.479	11045
928.585	10683
928.69	10866
928.796	10904
928.901	10782
929.007	10618
929.112	10763
929.218	10694
929.323	10672
929.428	10630
929.533	10729
929.638	10493
929.743	10535
929.848	10752
929.953	10546
930.058	10459
930.163	10398
930.267	10405
930.372	10504
930.477	10310
930.581	10538
930.685	10390
930.79	10242
930.894	10265
930.998	10291
931.103	10341
931.207	10032
931.311	10017
931.415	9903
931.519	9713
931.623	9660
