Data from test_V78500241_3026.txt Node
Date: Fri Mar 25 14:54:47 CST 2022
User: usil
Spectrometer: V785-0024
Trigger mode: 0
Integration Time (sec): 4.000000E-1
Scans to average: 1
Nonlinearity correction enabled: false
Boxcar width: 0
Storing dark spectrum: false
XAxis mode: Wavelengths
Number of Pixels in Spectrum: 1024
>>>>>Begin Spectral Data<<<<<
801.071	22032
801.214	22002
801.356	21698
801.499	21679
801.641	21496
801.783	21450
801.926	21439
802.068	21374
802.211	21306
802.353	21184
802.496	21077
802.638	20937
802.78	20933
802.923	20872
803.065	20682
803.208	20701
803.35	20880
803.492	20807
803.635	20925
803.777	20838
803.919	20857
804.061	21081
804.204	20788
804.346	20754
804.488	20689
804.63	20796
804.773	20746
804.915	20750
805.057	20735
805.199	20644
805.341	20785
805.483	20861
805.626	20823
805.768	20640
805.91	20705
806.052	20655
806.194	20602
806.336	20921
806.478	20697
806.62	20678
806.762	20785
806.904	20815
807.046	21089
807.188	21058
807.33	20994
807.472	21055
807.614	21039
807.756	20933
807.898	20937
808.04	20872
808.182	20754
808.324	20735
808.465	20838
808.607	20963
808.749	21100
808.891	21233
809.033	21112
809.174	21173
809.316	21074
809.458	21150
809.6	21024
809.741	21093
809.883	21150
810.025	21192
810.166	21211
810.308	21157
810.45	21165
810.591	21032
810.733	20925
810.875	20845
811.016	20788
811.158	20834
811.299	20899
811.441	20925
811.582	20952
811.724	20811
811.865	20842
812.007	20769
812.148	20758
812.29	20914
812.431	21108
812.573	21180
812.714	21264
812.855	21252
812.997	21466
813.138	21614
813.279	21291
813.421	21348
813.562	21188
813.703	21081
813.845	20971
813.986	20720
814.127	20594
814.268	20412
814.41	20408
814.551	20518
814.692	20480
814.833	20240
814.974	20290
815.115	20450
815.256	20214
815.397	20343
815.539	20176
815.68	20069
815.821	20107
815.962	20103
816.103	20134
816.244	19875
816.385	19811
816.526	19871
816.666	19757
816.807	19499
816.948	19765
817.089	19594
817.23	19655
817.371	19704
817.512	19582
817.653	19548
817.793	19407
817.934	19350
818.075	19594
818.216	19476
818.356	19506
818.497	19308
818.638	19152
818.778	19206
818.919	19156
819.06	19278
819.2	19346
819.341	19464
819.481	19350
819.622	19487
819.762	19685
819.903	19651
820.043	19518
820.184	19567
820.324	19514
820.465	19597
820.605	19491
820.746	19506
820.886	19331
821.026	19499
821.167	19563
821.307	19590
821.447	19403
821.588	19270
821.728	19190
821.868	19084
822.008	18848
822.149	18973
822.289	18791
822.429	18627
822.569	18627
822.709	18502
822.849	18445
822.99	18414
823.13	18403
823.27	18433
823.41	18247
823.55	18114
823.69	18273
823.83	18266
823.97	18114
824.11	18072
824.25	18015
824.389	17897
824.529	17935
824.669	17935
824.809	18140
824.949	18049
825.089	18060
825.228	17927
825.368	17786
825.508	17863
825.648	17794
825.787	17733
825.927	17767
826.067	17676
826.206	17714
826.346	17786
826.485	17840
826.625	17665
826.765	17771
826.904	17722
827.044	17562
827.183	17452
827.323	17448
827.462	17459
827.601	17417
827.741	17387
827.88	17455
828.02	17261
828.159	17360
828.298	17482
828.437	17463
828.577	17334
828.716	17448
828.855	17341
828.994	17098
829.134	17166
829.273	17212
829.412	17132
829.551	17045
829.69	17121
829.829	17216
829.968	17220
830.107	17216
830.246	17105
830.385	17109
830.524	17083
830.663	17025
830.802	16839
830.941	16847
831.08	16752
831.219	16805
831.357	16946
831.496	16934
831.635	16809
831.774	16698
831.913	16611
832.051	16569
832.19	16634
832.329	16664
832.467	16504
832.606	16344
832.744	16424
832.883	16440
833.022	16474
833.16	16519
833.299	16470
833.437	16459
833.576	16424
833.714	16538
833.852	16500
833.991	16512
834.129	16569
834.267	16519
834.406	16596
834.544	16527
834.682	16558
834.821	16508
834.959	16683
835.097	16405
835.235	16656
835.373	16500
835.511	16519
835.65	16394
835.788	16363
835.926	16344
836.064	16299
836.202	16242
836.34	16474
836.478	16478
836.615	16398
836.753	16405
836.891	16459
837.029	16398
837.167	16325
837.305	16428
837.443	16287
837.58	16162
837.718	16333
837.856	16230
837.993	16265
838.131	16303
838.269	16204
838.406	16291
838.544	16162
838.681	16082
838.819	15968
838.956	15781
839.094	15720
839.231	15876
839.369	15949
839.506	16246
839.643	16010
839.781	15831
839.918	15793
840.055	15865
840.193	15907
840.33	15865
840.467	15736
840.604	15915
840.742	16044
840.879	15705
841.016	15595
841.153	15652
841.29	15861
841.427	15838
841.564	15846
841.701	15774
841.838	15713
841.975	15739
842.112	15652
842.249	15603
842.385	15500
842.522	15724
842.659	15637
842.796	15526
842.933	15564
843.069	15488
843.206	15568
843.343	15663
843.479	15591
843.616	15660
843.752	15389
843.889	15420
844.025	15450
844.162	15230
844.298	15431
844.435	15462
844.571	15313
844.708	15454
844.844	15572
844.98	15477
845.117	15382
845.253	15332
845.389	15313
845.525	15233
845.661	15321
845.798	15135
845.934	15165
846.07	15154
846.206	15123
846.342	15272
846.478	15226
846.614	14952
846.75	14933
846.886	14845
847.022	15013
847.158	14937
847.294	14883
847.429	15001
847.565	14868
847.701	15203
847.837	14663
847.972	14773
848.108	14750
848.244	14765
848.379	14648
848.515	14530
848.65	14590
848.786	14473
848.921	14613
849.057	14682
849.192	14670
849.328	14583
849.463	14556
849.598	14564
849.734	14469
849.869	14412
850.004	14400
850.14	14442
850.275	14324
850.41	14248
850.545	14244
850.68	14259
850.815	14393
850.95	14275
851.085	14530
851.22	14377
851.355	14385
851.49	14214
851.625	14275
851.76	14347
851.895	14168
852.03	14115
852.165	14248
852.299	14183
852.434	14431
852.569	14317
852.703	14180
852.838	14511
852.973	14473
853.107	14522
853.242	14252
853.376	14176
853.511	14092
853.645	14142
853.78	14339
853.914	14252
854.048	14092
854.183	14157
854.317	14119
854.451	14317
854.585	14168
854.72	14138
854.854	14267
854.988	14103
855.122	14180
855.256	14005
855.39	14176
855.524	14240
855.658	14256
855.792	14123
855.926	14183
856.06	14233
856.194	14294
856.327	14206
856.461	14096
856.595	14103
856.729	14172
856.862	14358
856.996	14256
857.13	14237
857.263	14320
857.397	14248
857.53	14126
857.664	14172
857.797	14298
857.931	14347
858.064	14237
858.197	14248
858.331	14168
858.464	14153
858.597	14092
858.731	14062
858.864	14263
858.997	14111
859.13	14218
859.263	14176
859.396	14199
859.529	14218
859.662	14176
859.795	14168
859.928	14271
860.061	14362
860.194	14286
860.327	14180
860.46	14210
860.592	14240
860.725	14320
860.858	14263
860.99	14195
861.123	14039
861.256	14153
861.388	14142
861.521	14887
861.653	14134
861.786	13997
861.918	14123
862.05	14142
862.183	14069
862.315	14077
862.447	14271
862.58	14168
862.712	14027
862.844	13955
862.976	14020
863.108	13917
863.24	14358
863.372	13879
863.504	13936
863.636	13989
863.768	14039
863.9	13944
864.032	13909
864.164	13959
864.296	13963
864.428	14001
864.559	14058
864.691	13913
864.823	14065
864.954	14012
865.086	13967
865.217	13955
865.349	13947
865.48	13959
865.612	13898
865.743	14130
865.875	13940
866.006	13906
866.137	14035
866.269	13852
866.4	13921
866.531	13928
866.662	13875
866.793	13887
866.924	13890
867.055	13898
867.186	13967
867.317	13860
867.448	13845
867.579	13890
867.71	13723
867.841	13811
867.972	13887
868.103	13936
868.233	14054
868.364	13913
868.495	13989
868.625	14092
868.756	14282
868.886	14138
869.017	14145
869.147	14267
869.278	14320
869.408	14229
869.539	14229
869.669	14275
869.799	14248
869.929	14328
870.06	14355
870.19	14518
870.32	14507
870.45	14469
870.58	14541
870.71	14682
870.84	14697
870.97	14705
871.1	14590
871.23	14746
871.36	14807
871.489	14625
871.619	14811
871.749	14883
871.879	14838
872.008	14872
872.138	14819
872.267	14785
872.397	14663
872.526	14636
872.656	14640
872.785	14594
872.915	14777
873.044	14906
873.173	14849
873.303	14876
873.432	14899
873.561	15017
873.69	14880
873.819	14868
873.948	14872
874.077	14864
874.206	14792
874.335	14868
874.464	15055
874.593	15135
874.722	15032
874.851	15207
874.979	15142
875.108	15192
875.237	15066
875.365	15017
875.494	15108
875.623	15135
875.751	15066
875.88	15131
876.008	15348
876.136	15435
876.265	15568
876.393	15804
876.521	15637
876.65	15720
876.778	15530
876.906	15519
877.034	15580
877.162	15606
877.29	15534
877.418	15637
877.546	15656
877.674	15466
877.802	15568
877.93	15511
878.058	15454
878.185	15466
878.313	15504
878.441	15477
878.568	15351
878.696	15538
878.824	15561
878.951	15633
879.079	15739
879.206	15892
879.333	15679
879.461	15610
879.588	15713
879.715	15751
879.842	15835
879.97	15671
880.097	15412
880.224	15378
880.351	15477
880.478	15428
880.605	15401
880.732	15469
880.859	15553
880.986	15378
881.112	15454
881.239	15237
881.366	15157
881.493	15112
881.619	15066
881.746	15112
881.872	15108
881.999	15020
882.125	15036
882.252	15173
882.378	14998
882.505	15207
882.631	15047
882.757	14902
882.883	15005
883.01	14880
883.136	14773
883.262	14823
883.388	14632
883.514	14960
883.64	14902
883.766	14800
883.892	14689
884.018	14785
884.143	14804
884.269	14998
884.395	14689
884.52	14674
884.646	14587
884.772	14602
884.897	14590
885.023	14587
885.148	14720
885.274	14667
885.399	14716
885.524	14610
885.65	14670
885.775	14640
885.9	14632
886.025	14689
886.15	14720
886.275	14564
886.4	14480
886.525	14545
886.65	14549
886.775	14537
886.9	14712
887.025	14876
887.149	14648
887.274	14438
887.399	14381
887.523	14362
887.648	14381
887.773	14343
887.897	14442
888.021	14514
888.146	14366
888.27	14465
888.395	14571
888.519	14495
888.643	14579
888.767	14454
888.891	14343
889.015	14275
889.139	14320
889.263	14229
889.387	14415
889.511	14549
889.635	14442
889.759	14214
889.883	14218
890.006	14259
890.13	14454
890.254	14221
890.377	14347
890.501	14100
890.624	14119
890.748	14119
890.871	14065
890.995	13917
891.118	14046
891.241	13993
891.364	14039
891.488	14126
891.611	13963
891.734	13970
891.857	14084
891.98	14027
892.103	14046
892.226	13997
892.349	13928
892.471	13784
892.594	13890
892.717	14058
892.839	14001
892.962	14016
893.085	14069
893.207	13989
893.33	13902
893.452	13868
893.575	14005
893.697	13959
893.819	14180
893.941	14172
894.064	14077
894.186	14012
894.308	13917
894.43	14130
894.552	14142
894.674	14103
894.796	13970
894.918	14012
895.04	13936
895.161	14123
895.283	14134
895.405	14069
895.526	14100
895.648	14111
895.769	14115
895.891	14161
896.012	14157
896.134	14183
896.255	14210
896.376	14096
896.498	14130
896.619	14195
896.74	14149
896.861	14290
896.982	14590
897.103	14659
897.224	14389
897.345	14442
897.466	14278
897.587	14381
897.708	14621
897.828	14530
897.949	14412
898.07	14320
898.19	14446
898.311	14663
898.431	14465
898.552	14571
898.672	14629
898.792	14549
898.913	14579
899.033	14457
899.153	14370
899.273	14282
899.393	14317
899.513	14450
899.633	14412
899.753	14450
899.873	14374
899.993	14381
900.113	14358
900.232	14457
900.352	14393
900.472	14343
900.591	14195
900.711	14290
900.83	14172
900.95	14370
901.069	14385
901.189	14191
901.308	14008
901.427	13879
901.546	13970
901.665	13944
901.784	13993
901.904	13814
902.023	13803
902.141	13567
902.26	13620
902.379	13518
902.498	13483
902.617	13491
902.735	13483
902.854	13563
902.973	13457
903.091	13190
903.21	13285
903.328	13263
903.446	13118
903.565	13129
903.683	13137
903.801	12935
903.919	13019
904.038	13065
904.156	12947
904.274	12981
904.392	12966
904.51	12859
904.627	12897
904.745	12905
904.863	12939
904.981	12745
905.098	12532
905.216	12604
905.334	12627
905.451	12585
905.569	12604
905.686	12620
905.803	12623
905.921	12426
906.038	12547
906.155	12422
906.272	12262
906.389	12281
906.506	12117
906.623	12235
906.74	12205
906.857	12098
906.974	12068
907.091	12277
907.208	12247
907.324	12197
907.441	12049
907.557	11954
907.674	11942
907.79	11851
907.907	11980
908.023	11893
908.139	11912
908.256	11798
908.372	11840
908.488	11847
908.604	11783
908.72	11642
908.836	11642
908.952	11657
909.068	11745
909.184	11764
909.3	11718
909.415	11828
909.531	11707
909.647	11429
909.762	11429
909.878	11402
909.993	11467
910.108	11455
910.224	11414
910.339	11391
910.454	11345
910.57	11326
910.685	11223
910.8	11566
910.915	11455
911.03	11296
911.145	11143
911.259	11212
911.374	11102
911.489	11124
911.604	11052
911.718	10930
911.833	10873
911.947	10759
912.062	10763
912.176	10877
912.291	10934
912.405	10919
912.519	11060
912.633	11117
912.748	10957
912.862	10980
912.976	10820
913.09	10694
913.204	10729
913.318	10774
913.431	10919
913.545	10828
913.659	10908
913.772	10736
913.886	10630
914	10622
914.113	10831
914.226	10733
914.34	10748
914.453	10653
914.566	10755
914.68	10626
914.793	10637
914.906	10436
915.019	10394
915.132	10310
915.245	10447
915.358	10447
915.47	10424
915.583	10447
915.696	10421
915.809	10603
915.921	10554
916.034	10455
916.146	10394
916.259	10405
916.371	10470
916.483	10462
916.595	10280
916.708	10344
916.82	10341
916.932	10363
917.044	10318
917.156	10303
917.268	10272
917.38	10306
917.491	10253
917.603	10238
917.715	10333
917.826	10341
917.938	10188
918.049	10173
918.161	10215
918.272	10466
918.384	10371
918.495	10227
918.606	10086
918.717	10112
918.828	10147
918.939	10131
919.05	10067
919.161	10101
919.272	9972
919.383	10025
919.494	10223
919.604	10356
919.715	10204
919.826	10090
919.936	10116
920.047	10188
920.157	10097
920.267	10394
920.378	10230
920.488	10120
920.598	10295
920.708	10531
920.818	10417
920.928	10352
921.038	10538
921.148	10531
921.258	10238
921.368	10124
921.477	10048
921.587	9956
921.697	9903
921.806	10059
921.916	9884
922.025	9747
922.134	9732
922.244	9686
922.353	9793
922.462	9629
922.571	9511
922.68	9416
922.789	9405
922.898	9378
923.007	9355
923.116	9450
923.224	9462
923.333	9416
923.442	9245
923.55	9275
923.659	9291
923.767	9306
923.876	9321
923.984	9351
924.092	9226
924.201	9253
924.309	9233
924.417	9283
924.525	9188
924.633	9195
924.741	10143
924.849	9135
924.956	9222
925.064	9058
925.172	9009
925.279	9028
925.387	9085
925.494	9097
925.602	9218
925.709	9138
925.816	9024
925.924	9062
926.031	9112
926.138	9081
926.245	9173
926.352	9097
926.459	9089
926.566	9093
926.673	9047
926.779	8990
926.886	8838
926.993	8842
927.099	8811
927.206	8762
927.312	8712
927.419	8785
927.525	8815
927.631	8899
927.737	8655
927.843	8613
927.95	8602
928.056	8682
928.162	8663
928.267	8746
928.373	9283
928.479	8834
928.585	8522
928.69	8697
928.796	8644
928.901	8602
929.007	8480
929.112	8686
929.218	8545
929.323	8476
929.428	8549
929.533	8590
929.638	8419
929.743	8434
929.848	8617
929.953	8503
930.058	8385
930.163	8240
930.267	8320
930.372	8381
930.477	8202
930.581	8499
930.685	8366
930.79	8218
930.894	8244
930.998	8172
931.103	8393
931.207	8016
931.311	7925
931.415	7894
931.519	7734
931.623	7689
