Data from test_V78500241_1659.txt Node
Date: Fri Mar 25 14:45:15 CST 2022
User: usil
Spectrometer: V785-0024
Trigger mode: 0
Integration Time (sec): 4.000000E-1
Scans to average: 1
Nonlinearity correction enabled: false
Boxcar width: 0
Storing dark spectrum: false
XAxis mode: Wavelengths
Number of Pixels in Spectrum: 1024
>>>>>Begin Spectral Data<<<<<
801.071	22215
801.214	22078
801.356	21945
801.499	21895
801.641	21652
801.783	21481
801.926	21701
802.068	21538
802.211	21538
802.353	21412
802.496	21169
802.638	21211
802.78	21024
802.923	21123
803.065	20948
803.208	20887
803.35	21013
803.492	20944
803.635	21154
803.777	20925
803.919	21062
804.061	21252
804.204	21013
804.346	20963
804.488	20895
804.63	20883
804.773	20773
804.915	20944
805.057	21089
805.199	20933
805.341	21020
805.483	21081
805.626	21127
805.768	20937
805.91	20994
806.052	21024
806.194	20929
806.336	21058
806.478	20857
806.62	20979
806.762	21047
806.904	21138
807.046	21336
807.188	21287
807.33	21298
807.472	21245
807.614	21020
807.756	21127
807.898	21123
808.04	21001
808.182	21005
808.324	21207
808.465	21131
808.607	21157
808.749	21332
808.891	21500
809.033	21572
809.174	21435
809.316	21359
809.458	21332
809.6	21302
809.741	21317
809.883	21412
810.025	21416
810.166	21416
810.308	21443
810.45	21488
810.591	21378
810.733	21146
810.875	21199
811.016	20952
811.158	21081
811.299	21005
811.441	21211
811.582	21203
811.724	21165
811.865	21070
812.007	21104
812.148	21055
812.29	21100
812.431	21264
812.573	21386
812.714	21553
812.855	21542
812.997	21641
813.138	21819
813.279	21675
813.421	21561
813.562	21545
813.703	21359
813.845	21230
813.986	21055
814.127	20853
814.268	20762
814.41	20663
814.551	20594
814.692	20609
814.833	20667
814.974	20670
815.115	20530
815.256	20541
815.397	20408
815.539	20328
815.68	20275
815.821	20278
815.962	20336
816.103	20301
816.244	20244
816.385	20115
816.526	20134
816.666	19940
816.807	19818
816.948	19750
817.089	19940
817.23	19833
817.371	19795
817.512	19772
817.653	19731
817.793	19727
817.934	19761
818.075	19734
818.216	19791
818.356	19559
818.497	19620
818.638	19327
818.778	19403
818.919	19362
819.06	19483
819.2	19571
819.341	19784
819.481	19582
819.622	19772
819.762	19947
819.903	19902
820.043	19837
820.184	19632
820.324	19742
820.465	19719
820.605	19742
820.746	19700
820.886	19548
821.026	19651
821.167	19594
821.307	19723
821.447	19628
821.588	19491
821.728	19285
821.868	19304
822.008	19118
822.149	19137
822.289	19122
822.429	18939
822.569	18802
822.709	18821
822.849	18631
822.99	18681
823.13	18601
823.27	18570
823.41	18410
823.55	18456
823.69	18426
823.83	18399
823.97	18224
824.11	18270
824.25	18197
824.389	18163
824.529	18323
824.669	18254
824.809	18342
824.949	18228
825.089	18327
825.228	18220
825.368	18091
825.508	18087
825.648	17969
825.787	18076
825.927	18064
826.067	18019
826.206	17893
826.346	17984
826.485	18034
826.625	17866
826.765	18148
826.904	17984
827.044	17714
827.183	17805
827.323	17615
827.462	17638
827.601	17718
827.741	17661
827.88	17733
828.02	17528
828.159	17630
828.298	17611
828.437	17627
828.577	17627
828.716	17809
828.855	17680
828.994	17425
829.134	17387
829.273	17463
829.412	17459
829.551	17379
829.69	17387
829.829	17444
829.968	17505
830.107	17501
830.246	17406
830.385	17383
830.524	17246
830.663	17189
830.802	17083
830.941	16991
831.08	17064
831.219	17056
831.357	17151
831.496	17193
831.635	16968
831.774	16953
831.913	16885
832.051	16835
832.19	16862
832.329	16869
832.467	16839
832.606	16694
832.744	16691
832.883	16725
833.022	16622
833.16	16675
833.299	16733
833.437	16793
833.576	16774
833.714	16782
833.852	16744
833.991	16801
834.129	16862
834.267	16858
834.406	16767
834.544	16869
834.682	16771
834.821	16748
834.959	16892
835.097	16706
835.235	16911
835.373	16782
835.511	16710
835.65	16702
835.788	16759
835.926	16546
836.064	16470
836.202	16569
836.34	16645
836.478	16706
836.615	16622
836.753	16649
836.891	16694
837.029	16687
837.167	16599
837.305	16538
837.443	16603
837.58	16497
837.718	16527
837.856	16516
837.993	16474
838.131	16489
838.269	16360
838.406	16405
838.544	16379
838.681	16154
838.819	16196
838.956	16059
839.094	16090
839.231	16071
839.369	16234
839.506	16459
839.643	16341
839.781	16021
839.918	15987
840.055	15994
840.193	16036
840.33	15968
840.467	16097
840.604	16086
840.742	16265
840.879	15926
841.016	15987
841.153	15922
841.29	16234
841.427	16147
841.564	16135
841.701	16143
841.838	15968
841.975	15941
842.112	15972
842.249	15854
842.385	15846
842.522	16078
842.659	15838
842.796	15800
842.933	15857
843.069	15854
843.206	15888
843.343	15953
843.479	15857
843.616	15819
843.752	15690
843.889	15618
844.025	15865
844.162	15724
844.298	15804
844.435	15724
844.571	15557
844.708	15747
844.844	15728
844.98	15701
845.117	15679
845.253	15580
845.389	15568
845.525	15519
845.661	15473
845.798	15458
845.934	15542
846.07	15405
846.206	15439
846.342	15561
846.478	15477
846.614	15332
846.75	15192
846.886	15222
847.022	15294
847.158	15237
847.294	15344
847.429	15199
847.565	15135
847.701	15450
847.837	14990
847.972	14823
848.108	15013
848.244	14891
848.379	14788
848.515	14750
848.65	14769
848.786	14807
848.921	14792
849.057	14853
849.192	14880
849.328	14830
849.463	14880
849.598	14678
849.734	14735
849.869	14686
850.004	14564
850.14	14617
850.275	14583
850.41	14495
850.545	14507
850.68	14564
850.815	14560
850.95	14568
851.085	14811
851.22	14708
851.355	14629
851.49	14541
851.625	14537
851.76	14518
851.895	14533
852.03	14537
852.165	14579
852.299	14674
852.434	14731
852.569	14674
852.703	14560
852.838	14659
852.973	14708
853.107	14758
853.242	14571
853.376	14457
853.511	14343
853.645	14347
853.78	14537
853.914	14381
854.048	14385
854.183	14347
854.317	14396
854.451	14556
854.585	14381
854.72	14465
854.854	14476
854.988	14301
855.122	14419
855.256	14313
855.39	14377
855.524	14545
855.658	14419
855.792	14480
855.926	14473
856.06	14587
856.194	14488
856.327	14423
856.461	14347
856.595	14370
856.729	14370
856.862	14629
856.996	14476
857.13	14533
857.263	14606
857.397	14575
857.53	14450
857.664	14469
857.797	14594
857.931	14606
858.064	14492
858.197	14575
858.331	14381
858.464	14339
858.597	14320
858.731	14488
858.864	14400
858.997	14415
859.13	14476
859.263	14507
859.396	14476
859.529	14374
859.662	14408
859.795	14393
859.928	14488
860.061	14636
860.194	14587
860.327	14423
860.46	14408
860.592	14514
860.725	14568
860.858	14564
860.99	14431
861.123	14320
861.256	14267
861.388	14518
861.521	14929
861.653	14336
861.786	14267
861.918	14336
862.05	14431
862.183	14396
862.315	14415
862.447	14446
862.58	14366
862.712	14187
862.844	14157
862.976	14282
863.108	14206
863.24	14712
863.372	14157
863.504	14183
863.636	14172
863.768	14298
863.9	14195
864.032	14119
864.164	14145
864.296	14214
864.428	14256
864.559	14294
864.691	14339
864.823	14275
864.954	14195
865.086	14290
865.217	14210
865.349	14081
865.48	14157
865.612	14237
865.743	14191
865.875	14187
866.006	14123
866.137	14218
866.269	14202
866.4	14218
866.531	14164
866.662	14161
866.793	14172
866.924	14168
867.055	14157
867.186	14130
867.317	14202
867.448	14046
867.579	14138
867.71	14183
867.841	14050
867.972	14252
868.103	14218
868.233	14107
868.364	14225
868.495	14278
868.625	14343
868.756	14549
868.886	14336
869.017	14396
869.147	14579
869.278	14583
869.408	14434
869.539	14377
869.669	14450
869.799	14404
869.929	14545
870.06	14492
870.19	14701
870.32	14686
870.45	14708
870.58	14689
870.71	14956
870.84	14921
870.97	14876
871.1	14788
871.23	15001
871.36	15043
871.489	14906
871.619	14956
871.749	14979
871.879	15055
872.008	15104
872.138	15104
872.267	14872
872.397	14807
872.526	14845
872.656	14857
872.785	14963
872.915	15013
873.044	15173
873.173	15013
873.303	15055
873.432	15188
873.561	15176
873.69	15055
873.819	15062
873.948	15138
874.077	15051
874.206	14967
874.335	15150
874.464	15230
874.593	15302
874.722	15408
874.851	15557
874.979	15405
875.108	15443
875.237	15389
875.365	15310
875.494	15272
875.623	15439
875.751	15397
875.88	15431
876.008	15488
876.136	15603
876.265	15873
876.393	15953
876.521	15827
876.65	15880
876.778	15892
876.906	15751
877.034	15774
877.162	15880
877.29	15682
877.418	15759
877.546	15812
877.674	15846
877.802	15842
877.93	15762
878.058	15751
878.185	15717
878.313	15755
878.441	15759
878.568	15713
878.696	15705
878.824	15892
878.951	15899
879.079	15991
879.206	16181
879.333	15934
879.461	15857
879.588	15956
879.715	15979
879.842	16143
879.97	15895
880.097	15724
880.224	15633
880.351	15675
880.478	15736
880.605	15603
880.732	15580
880.859	15926
880.986	15709
881.112	15625
881.239	15469
881.366	15386
881.493	15291
881.619	15264
881.746	15298
881.872	15351
881.999	15325
882.125	15260
882.252	15386
882.378	15412
882.505	15447
882.631	15199
882.757	15070
882.883	15157
883.01	15062
883.136	15055
883.262	15066
883.388	15066
883.514	15039
883.64	15211
883.766	15074
883.892	14956
884.018	14963
884.143	15135
884.269	15222
884.395	14937
884.52	14804
884.646	14876
884.772	14807
884.897	14788
885.023	14781
885.148	14944
885.274	15097
885.399	14853
885.524	14804
885.65	14724
885.775	14807
885.9	14811
886.025	15081
886.15	14880
886.275	14758
886.4	14773
886.525	14849
886.65	14785
886.775	14785
886.9	14941
887.025	14967
887.149	14773
887.274	14697
887.399	14655
887.523	14659
887.648	14549
887.773	14670
887.897	14716
888.021	14697
888.146	14533
888.27	14804
888.395	14857
888.519	14689
888.643	14834
888.767	14705
888.891	14602
889.015	14526
889.139	14514
889.263	14469
889.387	14617
889.511	14769
889.635	14693
889.759	14431
889.883	14503
890.006	14522
890.13	14583
890.254	14423
890.377	14522
890.501	14244
890.624	14320
890.748	14282
890.871	14282
890.995	14199
891.118	14161
891.241	14191
891.364	14191
891.488	14427
891.611	14199
891.734	14366
891.857	14233
891.98	14244
892.103	14396
892.226	14275
892.349	14195
892.471	13959
892.594	14225
892.717	14161
892.839	14206
892.962	14256
893.085	14256
893.207	14206
893.33	14115
893.452	14210
893.575	14244
893.697	14187
893.819	14423
893.941	14374
894.064	14412
894.186	14187
894.308	14176
894.43	14332
894.552	14415
894.674	14374
894.796	14187
894.918	14191
895.04	14225
895.161	14408
895.283	14252
895.405	14263
895.526	14328
895.648	14298
895.769	14442
895.891	14450
896.012	14450
896.134	14396
896.255	14404
896.376	14305
896.498	14278
896.619	14530
896.74	14431
896.861	14427
896.982	14678
897.103	14773
897.224	14682
897.345	14575
897.466	14571
897.587	14693
897.708	14705
897.828	14743
897.949	14571
898.07	14499
898.19	14583
898.311	14720
898.431	14598
898.552	14720
898.672	14823
898.792	14834
898.913	14712
899.033	14629
899.153	14579
899.273	14488
899.393	14556
899.513	14659
899.633	14560
899.753	14708
899.873	14575
899.993	14705
900.113	14579
900.232	14575
900.352	14450
900.472	14518
900.591	14427
900.711	14511
900.83	14454
900.95	14511
901.069	14511
901.189	14480
901.308	14172
901.427	14126
901.546	14119
901.665	14199
901.784	14111
901.904	13944
902.023	13902
902.141	13738
902.26	13586
902.379	13818
902.498	13670
902.617	13639
902.735	13738
902.854	13750
902.973	13666
903.091	13365
903.21	13491
903.328	13411
903.446	13320
903.565	13304
903.683	13293
903.801	13213
903.919	13217
904.038	13266
904.156	13012
904.274	13133
904.392	13149
904.51	13038
904.627	13091
904.745	13099
904.863	13114
904.981	12867
905.098	12829
905.216	12802
905.334	12852
905.451	12738
905.569	12829
905.686	12848
905.803	12783
905.921	12722
906.038	12753
906.155	12604
906.272	12528
906.389	12582
906.506	12467
906.623	12323
906.74	12414
906.857	12334
906.974	12327
907.091	12509
907.208	12433
907.324	12376
907.441	12266
907.557	12083
907.674	12114
907.79	12098
907.907	12030
908.023	12178
908.139	12155
908.256	12117
908.372	12106
908.488	12041
908.604	11965
908.72	11942
908.836	11874
908.952	11843
909.068	11939
909.184	11988
909.3	11939
909.415	11977
909.531	11870
909.647	11703
909.762	11596
909.878	11638
909.993	11680
910.108	11646
910.224	11672
910.339	11695
910.454	11501
910.57	11539
910.685	11467
910.8	11634
910.915	11707
911.03	11512
911.145	11353
911.259	11402
911.374	11345
911.489	11265
911.604	11349
911.718	11113
911.833	11151
911.947	11014
912.062	10946
912.176	11105
912.291	11132
912.405	11117
912.519	11250
912.633	11223
912.748	11246
912.862	11060
912.976	11048
913.09	10877
913.204	10881
913.318	11067
913.431	11132
913.545	11090
913.659	11067
913.772	10991
913.886	10858
914	10835
914.113	11025
914.226	11048
914.34	10812
914.453	10801
914.566	11014
914.68	10778
914.793	10866
914.906	10641
915.019	10611
915.132	10504
915.245	10546
915.358	10630
915.47	10710
915.583	10603
915.696	10759
915.809	10725
915.921	10885
916.034	10592
916.146	10588
916.259	10618
916.371	10569
916.483	10607
916.595	10554
916.708	10588
916.82	10607
916.932	10561
917.044	10538
917.156	10474
917.268	10363
917.38	10474
917.491	10337
917.603	10436
917.715	10508
917.826	10550
917.938	10348
918.049	10322
918.161	10428
918.272	10694
918.384	10485
918.495	10470
918.606	10356
918.717	10360
918.828	10356
918.939	10344
919.05	10295
919.161	10375
919.272	10086
919.383	10219
919.494	10379
919.604	10607
919.715	10394
919.826	10249
919.936	10280
920.047	10348
920.157	10314
920.267	10573
920.378	10402
920.488	10280
920.598	10493
920.708	10656
920.818	10565
920.928	10565
921.038	10710
921.148	10653
921.258	10363
921.368	10238
921.477	10200
921.587	10219
921.697	10040
921.806	10219
921.916	10002
922.025	9987
922.134	9949
922.244	9846
922.353	9941
922.462	9819
922.571	9728
922.68	9534
922.789	9511
922.898	9580
923.007	9545
923.116	9606
923.224	9584
923.333	9564
923.442	9428
923.55	9485
923.659	9504
923.767	9462
923.876	9454
923.984	9572
924.092	9477
924.201	9488
924.309	9462
924.417	9462
924.525	9389
924.633	9428
924.741	10135
924.849	9249
924.956	9424
925.064	9218
925.172	9188
925.279	9150
925.387	9169
925.494	9241
925.602	9382
925.709	9355
925.816	9169
925.924	9245
926.031	9249
926.138	9275
926.245	9287
926.352	9184
926.459	9272
926.566	9321
926.673	9146
926.779	9051
926.886	9051
926.993	8975
927.099	8944
927.206	8834
927.312	8872
927.419	8921
927.525	8948
927.631	8982
927.737	8845
927.843	8887
927.95	8716
928.056	8769
928.162	8914
928.267	8838
928.373	9408
928.479	8887
928.585	8712
928.69	8796
928.796	8857
928.901	8766
929.007	8606
929.112	8746
929.218	8705
929.323	8686
929.428	8743
929.533	8819
929.638	8590
929.743	8625
929.848	8727
929.953	8625
930.058	8541
930.163	8427
930.267	8389
930.372	8594
930.477	8412
930.581	8693
930.685	8503
930.79	8400
930.894	8450
930.998	8385
931.103	8492
931.207	8180
931.311	8107
931.415	8073
931.519	7833
931.623	7883
