Data from test_V78500241_2402.txt Node
Date: Fri Mar 25 14:50:26 CST 2022
User: usil
Spectrometer: V785-0024
Trigger mode: 0
Integration Time (sec): 4.000000E-1
Scans to average: 1
Nonlinearity correction enabled: false
Boxcar width: 0
Storing dark spectrum: false
XAxis mode: Wavelengths
Number of Pixels in Spectrum: 1024
>>>>>Begin Spectral Data<<<<<
801.071	22143
801.214	22029
801.356	21793
801.499	21663
801.641	21663
801.783	21591
801.926	21530
802.068	21435
802.211	21279
802.353	21321
802.496	21051
802.638	21089
802.78	20975
802.923	20864
803.065	20754
803.208	20826
803.35	20979
803.492	21013
803.635	20982
803.777	20960
803.919	20887
804.061	21135
804.204	20937
804.346	20906
804.488	20636
804.63	20883
804.773	20686
804.915	20838
805.057	20842
805.199	20777
805.341	20800
805.483	20895
805.626	20880
805.768	20785
805.91	20826
806.052	20872
806.194	20613
806.336	20914
806.478	20773
806.62	20769
806.762	20864
806.904	20910
807.046	21127
807.188	21119
807.33	20963
807.472	21043
807.614	20906
807.756	21024
807.898	20857
808.04	20731
808.182	20861
808.324	20800
808.465	21017
808.607	21009
808.749	21218
808.891	21340
809.033	21321
809.174	21260
809.316	21199
809.458	21184
809.6	21123
809.741	21138
809.883	21245
810.025	21367
810.166	21332
810.308	21279
810.45	21123
810.591	21070
810.733	20902
810.875	20971
811.016	20811
811.158	20834
811.299	20929
811.441	20998
811.582	21005
811.724	20921
811.865	20864
812.007	20796
812.148	20902
812.29	21047
812.431	20963
812.573	21256
812.714	21389
812.855	21348
812.997	21557
813.138	21660
813.279	21568
813.421	21435
813.562	21389
813.703	21157
813.845	21093
813.986	20861
814.127	20644
814.268	20522
814.41	20495
814.551	20438
814.692	20533
814.833	20362
814.974	20415
815.115	20473
815.256	20187
815.397	20290
815.539	20199
815.68	20183
815.821	20240
815.962	20206
816.103	20172
816.244	19925
816.385	19959
816.526	19959
816.666	19632
816.807	19506
816.948	19731
817.089	19719
817.23	19578
817.371	19582
817.512	19590
817.653	19620
817.793	19540
817.934	19571
818.075	19525
818.216	19540
818.356	19537
818.497	19426
818.638	19289
818.778	19312
818.919	19278
819.06	19384
819.2	19396
819.341	19514
819.481	19457
819.622	19552
819.762	19700
819.903	19723
820.043	19639
820.184	19544
820.324	19586
820.465	19647
820.605	19578
820.746	19552
820.886	19480
821.026	19483
821.167	19552
821.307	19742
821.447	19506
821.588	19346
821.728	19206
821.868	19126
822.008	19046
822.149	18962
822.289	18859
822.429	18734
822.569	18665
822.709	18658
822.849	18513
822.99	18452
823.13	18475
823.27	18403
823.41	18273
823.55	18136
823.69	18262
823.83	18239
823.97	18140
824.11	17992
824.25	17939
824.389	18083
824.529	18034
824.669	18057
824.809	18003
824.949	18053
825.089	18110
825.228	17988
825.368	17790
825.508	17748
825.648	17863
825.787	17904
825.927	17821
826.067	17745
826.206	17695
826.346	17813
826.485	17714
826.625	17790
826.765	17897
826.904	17771
827.044	17551
827.183	17642
827.323	17501
827.462	17646
827.601	17562
827.741	17551
827.88	17532
828.02	17280
828.159	17417
828.298	17520
828.437	17547
828.577	17490
828.716	17619
828.855	17436
828.994	17284
829.134	17212
829.273	17379
829.412	17212
829.551	17109
829.69	17227
829.829	17292
829.968	17288
830.107	17307
830.246	17254
830.385	17166
830.524	17018
830.663	17071
830.802	17064
830.941	16961
831.08	16869
831.219	16892
831.357	16953
831.496	17143
831.635	16873
831.774	16850
831.913	16687
832.051	16740
832.19	16596
832.329	16664
832.467	16538
832.606	16523
832.744	16592
832.883	16527
833.022	16542
833.16	16611
833.299	16611
833.437	16634
833.576	16607
833.714	16538
833.852	16599
833.991	16577
834.129	16660
834.267	16637
834.406	16592
834.544	16561
834.682	16596
834.821	16580
834.959	16752
835.097	16561
835.235	16721
835.373	16664
835.511	16580
835.65	16489
835.788	16489
835.926	16489
836.064	16303
836.202	16394
836.34	16561
836.478	16519
836.615	16485
836.753	16428
836.891	16512
837.029	16493
837.167	16424
837.305	16382
837.443	16379
837.58	16470
837.718	16382
837.856	16379
837.993	16226
838.131	16318
838.269	16276
838.406	16295
838.544	16177
838.681	16162
838.819	16051
838.956	15831
839.094	15941
839.231	15876
839.369	15991
839.506	16242
839.643	16135
839.781	15960
839.918	15869
840.055	15892
840.193	15926
840.33	15842
840.467	15880
840.604	15930
840.742	16181
840.879	15717
841.016	15759
841.153	15812
841.29	15987
841.427	15884
841.564	15861
841.701	15922
841.838	15835
841.975	15823
842.112	15759
842.249	15739
842.385	15698
842.522	15793
842.659	15709
842.796	15686
842.933	15759
843.069	15709
843.206	15694
843.343	15785
843.479	15713
843.616	15720
843.752	15447
843.889	15458
844.025	15610
844.162	15389
844.298	15591
844.435	15526
844.571	15424
844.708	15564
844.844	15698
844.98	15576
845.117	15469
845.253	15469
845.389	15355
845.525	15367
845.661	15374
845.798	15264
845.934	15275
846.07	15245
846.206	15344
846.342	15386
846.478	15230
846.614	15032
846.75	14975
846.886	14933
847.022	15093
847.158	15036
847.294	15005
847.429	14998
847.565	15028
847.701	15245
847.837	14720
847.972	14701
848.108	14823
848.244	14925
848.379	14648
848.515	14552
848.65	14610
848.786	14640
848.921	14488
849.057	14746
849.192	14663
849.328	14663
849.463	14678
849.598	14625
849.734	14579
849.869	14499
850.004	14522
850.14	14423
850.275	14355
850.41	14233
850.545	14370
850.68	14404
850.815	14377
850.95	14465
851.085	14511
851.22	14530
851.355	14366
851.49	14438
851.625	14488
851.76	14339
851.895	14191
852.03	14366
852.165	14419
852.299	14343
852.434	14442
852.569	14347
852.703	14446
852.838	14526
852.973	14549
853.107	14522
853.242	14362
853.376	14275
853.511	14271
853.645	14199
853.78	14328
853.914	14214
854.048	14240
854.183	14301
854.317	14214
854.451	14450
854.585	14248
854.72	14248
854.854	14313
854.988	14240
855.122	14282
855.256	14202
855.39	14259
855.524	14415
855.658	14366
855.792	14259
855.926	14263
856.06	14267
856.194	14313
856.327	14355
856.461	14206
856.595	14183
856.729	14237
856.862	14427
856.996	14298
857.13	14362
857.263	14381
857.397	14374
857.53	14229
857.664	14377
857.797	14275
857.931	14522
858.064	14225
858.197	14408
858.331	14202
858.464	14286
858.597	14153
858.731	14225
858.864	14218
858.997	14199
859.13	14206
859.263	14336
859.396	14351
859.529	14259
859.662	14237
859.795	14218
859.928	14259
860.061	14374
860.194	14427
860.327	14317
860.46	14142
860.592	14374
860.725	14366
860.858	14434
860.99	14195
861.123	14199
861.256	14290
861.388	14259
861.521	14800
861.653	14145
861.786	14115
861.918	14134
862.05	14180
862.183	14210
862.315	14313
862.447	14347
862.58	14256
862.712	14050
862.844	13986
862.976	14069
863.108	13986
863.24	14408
863.372	14031
863.504	14027
863.636	14005
863.768	14180
863.9	14157
864.032	13936
864.164	14062
864.296	14130
864.428	14168
864.559	14195
864.691	14039
864.823	14199
864.954	14142
865.086	14016
865.217	14008
865.349	14016
865.48	13974
865.612	14084
865.743	14202
865.875	14050
866.006	14016
866.137	14046
866.269	14073
866.4	14012
866.531	13982
866.662	13909
866.793	13986
866.924	13963
867.055	14035
867.186	14005
867.317	13978
867.448	13936
867.579	13997
867.71	13936
867.841	13967
867.972	14046
868.103	14092
868.233	13993
868.364	14024
868.495	14058
868.625	14210
868.756	14339
868.886	14271
869.017	14233
869.147	14377
869.278	14438
869.408	14298
869.539	14252
869.669	14461
869.799	14240
869.929	14438
870.06	14400
870.19	14568
870.32	14579
870.45	14621
870.58	14632
870.71	14731
870.84	14864
870.97	14659
871.1	14610
871.23	14857
871.36	14838
871.489	14773
871.619	14864
871.749	14937
871.879	14849
872.008	14899
872.138	14857
872.267	14891
872.397	14720
872.526	14590
872.656	14769
872.785	14712
872.915	14823
873.044	15005
873.173	14891
873.303	14914
873.432	14967
873.561	15020
873.69	14941
873.819	14941
873.948	14914
874.077	14910
874.206	14914
874.335	14998
874.464	15081
874.593	15184
874.722	15241
874.851	15355
874.979	15268
875.108	15332
875.237	15135
875.365	15165
875.494	15226
875.623	15313
875.751	15252
875.88	15203
876.008	15321
876.136	15401
876.265	15618
876.393	15842
876.521	15755
876.65	15717
876.778	15679
876.906	15625
877.034	15644
877.162	15587
877.29	15545
877.418	15610
877.546	15698
877.674	15606
877.802	15709
877.93	15663
878.058	15648
878.185	15576
878.313	15671
878.441	15671
878.568	15488
878.696	15557
878.824	15732
878.951	15584
879.079	15823
879.206	15979
879.333	15892
879.461	15660
879.588	15812
879.715	15911
879.842	15922
879.97	15682
880.097	15492
880.224	15511
880.351	15587
880.478	15462
880.605	15401
880.732	15416
880.859	15793
880.986	15424
881.112	15488
881.239	15466
881.366	15370
881.493	15214
881.619	15138
881.746	15264
881.872	15104
881.999	15154
882.125	15047
882.252	15104
882.378	15203
882.505	15275
882.631	15214
882.757	14994
882.883	15024
883.01	14982
883.136	14921
883.262	14834
883.388	14838
883.514	15017
883.64	14971
883.766	14906
883.892	14792
884.018	14807
884.143	14986
884.269	14956
884.395	14731
884.52	14739
884.646	14762
884.772	14701
884.897	14564
885.023	14762
885.148	14769
885.274	14792
885.399	14727
885.524	14708
885.65	14716
885.775	14750
885.9	14655
886.025	14735
886.15	14689
886.275	14640
886.4	14610
886.525	14659
886.65	14697
886.775	14594
886.9	14819
887.025	14910
887.149	14625
887.274	14499
887.399	14503
887.523	14503
887.648	14511
887.773	14423
887.897	14541
888.021	14571
888.146	14473
888.27	14587
888.395	14655
888.519	14583
888.643	14579
888.767	14564
888.891	14469
889.015	14324
889.139	14404
889.263	14328
889.387	14473
889.511	14621
889.635	14530
889.759	14347
889.883	14415
890.006	14400
890.13	14575
890.254	14358
890.377	14275
890.501	14126
890.624	14138
890.748	14309
890.871	14050
890.995	14027
891.118	14073
891.241	14008
891.364	14069
891.488	14202
891.611	14073
891.734	14096
891.857	14119
891.98	14050
892.103	14130
892.226	14069
892.349	14145
892.471	13997
892.594	14035
892.717	14107
892.839	14077
892.962	14077
893.085	14096
893.207	14081
893.33	14039
893.452	14012
893.575	14168
893.697	14069
893.819	14259
893.941	14317
894.064	14206
894.186	14058
894.308	14027
894.43	14138
894.552	14305
894.674	14221
894.796	14050
894.918	14039
895.04	14062
895.161	14263
895.283	14225
895.405	14077
895.526	14134
895.648	14081
895.769	14252
895.891	14176
896.012	14313
896.134	14259
896.255	14240
896.376	14149
896.498	14202
896.619	14275
896.74	14309
896.861	14370
896.982	14571
897.103	14731
897.224	14533
897.345	14526
897.466	14503
897.587	14545
897.708	14716
897.828	14579
897.949	14541
898.07	14366
898.19	14495
898.311	14678
898.431	14526
898.552	14514
898.672	14651
898.792	14621
898.913	14659
899.033	14648
899.153	14434
899.273	14336
899.393	14465
899.513	14549
899.633	14454
899.753	14450
899.873	14423
899.993	14541
900.113	14492
900.232	14415
900.352	14408
900.472	14434
900.591	14278
900.711	14427
900.83	14259
900.95	14514
901.069	14404
901.189	14294
901.308	14111
901.427	14027
901.546	13993
901.665	14096
901.784	13894
901.904	13989
902.023	13822
902.141	13628
902.26	13582
902.379	13719
902.498	13521
902.617	13616
902.735	13590
902.854	13590
902.973	13605
903.091	13324
903.21	13377
903.328	13346
903.446	13240
903.565	13187
903.683	13194
903.801	13076
903.919	13072
904.038	13069
904.156	12916
904.274	13042
904.392	12996
904.51	12890
904.627	13031
904.745	12981
904.863	12970
904.981	12722
905.098	12734
905.216	12639
905.334	12650
905.451	12623
905.569	12612
905.686	12650
905.803	12658
905.921	12414
906.038	12559
906.155	12388
906.272	12410
906.389	12437
906.506	12270
906.623	12372
906.74	12262
906.857	12117
906.974	12220
907.091	12308
907.208	12292
907.324	12182
907.441	12095
907.557	11874
907.674	11988
907.79	11927
907.907	11904
908.023	11939
908.139	12057
908.256	11958
908.372	11893
908.488	11874
908.604	11802
908.72	11668
908.836	11691
908.952	11714
909.068	11653
909.184	11927
909.3	11764
909.415	11794
909.531	11688
909.647	11490
909.762	11501
909.878	11467
909.993	11539
910.108	11398
910.224	11493
910.339	11539
910.454	11452
910.57	11356
910.685	11368
910.8	11581
910.915	11592
911.03	11368
911.145	11189
911.259	11178
911.374	11246
911.489	11159
911.604	11105
911.718	10911
911.833	10908
911.947	10877
912.062	10820
912.176	10919
912.291	10908
912.405	10858
912.519	11086
912.633	11220
912.748	11071
912.862	10980
912.976	10881
913.09	10710
913.204	10793
913.318	10782
913.431	10927
913.545	10965
913.659	10934
913.772	10881
913.886	10854
914	10717
914.113	10809
914.226	10892
914.34	10915
914.453	10672
914.566	10854
914.68	10675
914.793	10717
914.906	10481
915.019	10405
915.132	10512
915.245	10504
915.358	10512
915.47	10432
915.583	10497
915.696	10531
915.809	10577
915.921	10672
916.034	10500
916.146	10436
916.259	10421
916.371	10493
916.483	10531
916.595	10447
916.708	10489
916.82	10436
916.932	10394
917.044	10394
917.156	10413
917.268	10325
917.38	10352
917.491	10325
917.603	10322
917.715	10512
917.826	10504
917.938	10344
918.049	10200
918.161	10398
918.272	10474
918.384	10500
918.495	10280
918.606	10303
918.717	10086
918.828	10257
918.939	10314
919.05	10147
919.161	10219
919.272	10025
919.383	10044
919.494	10272
919.604	10409
919.715	10242
919.826	10154
919.936	10227
920.047	10318
920.157	10322
920.267	10360
920.378	10303
920.488	10238
920.598	10440
920.708	10637
920.818	10478
920.928	10512
921.038	10622
921.148	10615
921.258	10246
921.368	10306
921.477	10055
921.587	10093
921.697	9998
921.806	10040
921.916	9972
922.025	9846
922.134	9838
922.244	9736
922.353	9785
922.462	9644
922.571	9663
922.68	9469
922.789	9530
922.898	9496
923.007	9344
923.116	9549
923.224	9485
923.333	9466
923.442	9416
923.55	9370
923.659	9332
923.767	9523
923.876	9321
923.984	9408
924.092	9294
924.201	9344
924.309	9249
924.417	9401
924.525	9336
924.633	9302
924.741	10188
924.849	9104
924.956	9249
925.064	9146
925.172	9074
925.279	9100
925.387	9154
925.494	9203
925.602	9340
925.709	9298
925.816	9131
925.924	9207
926.031	9127
926.138	9165
926.245	9211
926.352	9074
926.459	9211
926.566	9253
926.673	9051
926.779	9051
926.886	8948
926.993	8857
927.099	8883
927.206	8773
927.312	8868
927.419	8845
927.525	8819
927.631	8902
927.737	8739
927.843	8781
927.95	8716
928.056	8743
928.162	8845
928.267	8769
928.373	9405
928.479	8864
928.585	8583
928.69	8743
928.796	8796
928.901	8610
929.007	8545
929.112	8659
929.218	8724
929.323	8530
929.428	8571
929.533	8708
929.638	8530
929.743	8522
929.848	8640
929.953	8526
930.058	8419
930.163	8339
930.267	8374
930.372	8484
930.477	8248
930.581	8488
930.685	8393
930.79	8267
930.894	8351
930.998	8309
931.103	8400
931.207	8103
931.311	8077
931.415	7959
931.519	7826
931.623	7788
