Data from test_V78500241_3324.txt Node
Date: Fri Mar 25 14:56:51 CST 2022
User: usil
Spectrometer: V785-0024
Trigger mode: 0
Integration Time (sec): 4.000000E-1
Scans to average: 1
Nonlinearity correction enabled: false
Boxcar width: 0
Storing dark spectrum: false
XAxis mode: Wavelengths
Number of Pixels in Spectrum: 1024
>>>>>Begin Spectral Data<<<<<
801.071	22040
801.214	21816
801.356	21526
801.499	21515
801.641	21370
801.783	21226
801.926	21386
802.068	21264
802.211	21116
802.353	21066
802.496	20895
802.638	20765
802.78	20762
802.923	20712
803.065	20651
803.208	20644
803.35	20648
803.492	20731
803.635	20849
803.777	20575
803.919	20750
804.061	21036
804.204	20716
804.346	20526
804.488	20579
804.63	20625
804.773	20473
804.915	20552
805.057	20594
805.199	20514
805.341	20503
805.483	20651
805.626	20530
805.768	20503
805.91	20579
806.052	20674
806.194	20511
806.336	20716
806.478	20598
806.62	20438
806.762	20579
806.904	20655
807.046	21146
807.188	20823
807.33	20876
807.472	20910
807.614	20849
807.756	20792
807.898	20575
808.04	20602
808.182	20689
808.324	20640
808.465	20739
808.607	20853
808.749	20842
808.891	20967
809.033	21032
809.174	20952
809.316	20796
809.458	20788
809.6	20701
809.741	20948
809.883	20883
810.025	21058
810.166	21096
810.308	20994
810.45	21024
810.591	20918
810.733	20735
810.875	20674
811.016	20590
811.158	20560
811.299	20701
811.441	20788
811.582	20788
811.724	20583
811.865	20583
812.007	20663
812.148	20655
812.29	20731
812.431	20739
812.573	20971
812.714	20933
812.855	21127
812.997	21150
813.138	21439
813.279	21169
813.421	21214
813.562	21123
813.703	20857
813.845	20754
813.986	20423
814.127	20324
814.268	20248
814.41	20259
814.551	20183
814.692	20282
814.833	20039
814.974	20172
815.115	20149
815.256	20145
815.397	19978
815.539	20122
815.68	19917
815.821	19917
815.962	19982
816.103	19928
816.244	19799
816.385	19651
816.526	19666
816.666	19373
816.807	19415
816.948	19457
817.089	19434
817.23	19381
817.371	19263
817.512	19358
817.653	19316
817.793	19255
817.934	19278
818.075	19392
818.216	19480
818.356	19297
818.497	19187
818.638	19088
818.778	19004
818.919	19046
819.06	18989
819.2	19240
819.341	19213
819.481	19251
819.622	19441
819.762	19559
819.903	19369
820.043	19358
820.184	19259
820.324	19266
820.465	19392
820.605	19354
820.746	19388
820.886	19141
821.026	19263
821.167	19179
821.307	19301
821.447	19217
821.588	19027
821.728	18985
821.868	18806
822.008	18669
822.149	18642
822.289	18738
822.429	18490
822.569	18296
822.709	18403
822.849	18190
822.99	18186
823.13	18270
823.27	18114
823.41	17996
823.55	17969
823.69	18053
823.83	17996
823.97	17904
824.11	17790
824.25	17794
824.389	17764
824.529	17790
824.669	17771
824.809	17866
824.949	17942
825.089	17847
825.228	17722
825.368	17551
825.508	17512
825.648	17581
825.787	17589
825.927	17604
826.067	17596
826.206	17433
826.346	17535
826.485	17608
826.625	17585
826.765	17691
826.904	17657
827.044	17364
827.183	17197
827.323	17269
827.462	17292
827.601	17242
827.741	17181
827.88	17269
828.02	17098
828.159	17258
828.298	17212
828.437	17334
828.577	17254
828.716	17395
828.855	17223
828.994	17083
829.134	17071
829.273	17071
829.412	16999
829.551	16976
829.69	17052
829.829	17029
829.968	16987
830.107	17071
830.246	17029
830.385	16987
830.524	16816
830.663	16774
830.802	16778
830.941	16645
831.08	16546
831.219	16721
831.357	16774
831.496	16942
831.635	16649
831.774	16592
831.913	16504
832.051	16417
832.19	16356
832.329	16485
832.467	16443
832.606	16257
832.744	16181
832.883	16333
833.022	16139
833.16	16325
833.299	16318
833.437	16356
833.576	16440
833.714	16379
833.852	16405
833.991	16424
834.129	16447
834.267	16474
834.406	16462
834.544	16451
834.682	16440
834.821	16348
834.959	16508
835.097	16394
835.235	16455
835.373	16497
835.511	16394
835.65	16386
835.788	16303
835.926	16265
836.064	16029
836.202	16120
836.34	16352
836.478	16424
836.615	16303
836.753	16284
836.891	16382
837.029	16356
837.167	16211
837.305	16265
837.443	16219
837.58	16181
837.718	16257
837.856	16200
837.993	16158
838.131	16272
838.269	16204
838.406	16200
838.544	16086
838.681	15975
838.819	15892
838.956	15736
839.094	15705
839.231	15705
839.369	15895
839.506	16207
839.643	15960
839.781	15770
839.918	15663
840.055	15766
840.193	15759
840.33	15728
840.467	15724
840.604	15797
840.742	15975
840.879	15572
841.016	15675
841.153	15614
841.29	15857
841.427	15778
841.564	15739
841.701	15770
841.838	15701
841.975	15625
842.112	15652
842.249	15603
842.385	15469
842.522	15797
842.659	15507
842.796	15473
842.933	15572
843.069	15428
843.206	15466
843.343	15660
843.479	15469
843.616	15435
843.752	15302
843.889	15256
844.025	15496
844.162	15313
844.298	15431
844.435	15317
844.571	15313
844.708	15439
844.844	15416
844.98	15545
845.117	15443
845.253	15279
845.389	15199
845.525	15150
845.661	15203
845.798	15051
845.934	15154
846.07	15108
846.206	15104
846.342	15279
846.478	15055
846.614	14956
846.75	14796
846.886	14849
847.022	15089
847.158	14906
847.294	14906
847.429	14887
847.565	14880
847.701	15058
847.837	14629
847.972	14537
848.108	14811
848.244	14746
848.379	14488
848.515	14495
848.65	14575
848.786	14434
848.921	14469
849.057	14556
849.192	14716
849.328	14526
849.463	14514
849.598	14389
849.734	14419
849.869	14393
850.004	14282
850.14	14320
850.275	14275
850.41	14259
850.545	14240
850.68	14248
850.815	14218
850.95	14290
851.085	14366
851.22	14358
851.355	14305
851.49	14233
851.625	14332
851.76	14237
851.895	14176
852.03	14100
852.165	14214
852.299	14298
852.434	14298
852.569	14240
852.703	14233
852.838	14374
852.973	14355
853.107	14374
853.242	14282
853.376	14126
853.511	14100
853.645	14058
853.78	14195
853.914	14123
854.048	14145
854.183	14180
854.317	14214
854.451	14381
854.585	14092
854.72	14111
854.854	14286
854.988	14111
855.122	14138
855.256	14050
855.39	14100
855.524	14210
855.658	14168
855.792	14073
855.926	14202
856.06	14214
856.194	14248
856.327	14183
856.461	14058
856.595	14081
856.729	14092
856.862	14221
856.996	14191
857.13	14130
857.263	14233
857.397	14267
857.53	14218
857.664	14161
857.797	14248
857.931	14256
858.064	14183
858.197	14267
858.331	14145
858.464	14088
858.597	14027
858.731	14172
858.864	14073
858.997	14096
859.13	14142
859.263	14172
859.396	14237
859.529	14092
859.662	14130
859.795	14107
859.928	14107
860.061	14305
860.194	14317
860.327	14221
860.46	14134
860.592	14240
860.725	14256
860.858	14244
860.99	14149
861.123	14096
861.256	14039
861.388	14214
861.521	14933
861.653	13970
861.786	13959
861.918	14035
862.05	14069
862.183	14107
862.315	14157
862.447	14069
862.58	14115
862.712	13944
862.844	13856
862.976	13944
863.108	13921
863.24	14324
863.372	13860
863.504	13921
863.636	13894
863.768	13974
863.9	13898
864.032	13788
864.164	13864
864.296	13986
864.428	14020
864.559	14008
864.691	13909
864.823	13940
864.954	13921
865.086	13940
865.217	13887
865.349	13849
865.48	14012
865.612	13871
865.743	14096
865.875	13898
866.006	13959
866.137	13970
866.269	13967
866.4	13921
866.531	13841
866.662	13940
866.793	13887
866.924	13898
867.055	13974
867.186	13883
867.317	13898
867.448	13822
867.579	13765
867.71	13883
867.841	13826
867.972	14001
868.103	13887
868.233	13890
868.364	13917
868.495	14001
868.625	14107
868.756	14438
868.886	14008
869.017	14130
869.147	14176
869.278	14290
869.408	14199
869.539	14100
869.669	14183
869.799	14225
869.929	14286
870.06	14237
870.19	14446
870.32	14454
870.45	14556
870.58	14598
870.71	14705
870.84	14651
870.97	14499
871.1	14457
871.23	14731
871.36	14785
871.489	14632
871.619	14705
871.749	14754
871.879	14777
872.008	14895
872.138	14788
872.267	14754
872.397	14636
872.526	14629
872.656	14655
872.785	14587
872.915	14773
873.044	14914
873.173	14750
873.303	14853
873.432	14861
873.561	14933
873.69	14800
873.819	14731
873.948	14872
874.077	14781
874.206	14792
874.335	14864
874.464	14895
874.593	14963
874.722	15093
874.851	15138
874.979	15161
875.108	15203
875.237	15123
875.365	15024
875.494	15142
875.623	15192
875.751	15043
875.88	15245
876.008	15226
876.136	15469
876.265	15538
876.393	15705
876.521	15637
876.65	15644
876.778	15591
876.906	15507
877.034	15428
877.162	15526
877.29	15549
877.418	15481
877.546	15591
877.674	15500
877.802	15504
877.93	15523
878.058	15450
878.185	15481
878.313	15443
878.441	15481
878.568	15317
878.696	15477
878.824	15591
878.951	15629
879.079	15705
879.206	15808
879.333	15766
879.461	15488
879.588	15667
879.715	15739
879.842	15899
879.97	15595
880.097	15408
880.224	15515
880.351	15466
880.478	15378
880.605	15252
880.732	15439
880.859	15595
880.986	15431
881.112	15405
881.239	15329
881.366	15237
881.493	15116
881.619	15119
881.746	15138
881.872	15028
881.999	14899
882.125	15005
882.252	15043
882.378	15100
882.505	15249
882.631	15058
882.757	14925
882.883	14891
883.01	14914
883.136	14834
883.262	14788
883.388	14663
883.514	14804
883.64	14971
883.766	14815
883.892	14804
884.018	14758
884.143	14891
884.269	14872
884.395	14606
884.52	14503
884.646	14537
884.772	14579
884.897	14415
885.023	14674
885.148	14670
885.274	14743
885.399	14682
885.524	14617
885.65	14655
885.775	14613
885.9	14648
886.025	14735
886.15	14629
886.275	14514
886.4	14434
886.525	14598
886.65	14621
886.775	14484
886.9	14640
887.025	14796
887.149	14522
887.274	14473
887.399	14434
887.523	14305
887.648	14290
887.773	14347
887.897	14518
888.021	14381
888.146	14389
888.27	14499
888.395	14594
888.519	14488
888.643	14507
888.767	14575
888.891	14286
889.015	14267
889.139	14377
889.263	14267
889.387	14275
889.511	14434
889.635	14492
889.759	14275
889.883	14240
890.006	14278
890.13	14484
890.254	14229
890.377	14290
890.501	14134
890.624	13997
890.748	14149
890.871	14069
890.995	13978
891.118	13818
891.241	13978
891.364	13974
891.488	14199
891.611	13947
891.734	13913
891.857	14065
891.98	13986
892.103	14073
892.226	14050
892.349	14012
892.471	13845
892.594	14001
892.717	14062
892.839	14012
892.962	13986
893.085	14134
893.207	13944
893.33	13887
893.452	13944
893.575	14005
893.697	13928
893.819	14161
893.941	14153
894.064	14107
894.186	13970
894.308	13974
894.43	14073
894.552	14161
894.674	14123
894.796	13940
894.918	14058
895.04	14031
895.161	14161
895.283	14111
895.405	14123
895.526	14138
895.648	14039
895.769	14088
895.891	14206
896.012	14187
896.134	14172
896.255	14149
896.376	14172
896.498	14119
896.619	14199
896.74	14191
896.861	14248
896.982	14560
897.103	14644
897.224	14434
897.345	14419
897.466	14305
897.587	14419
897.708	14537
897.828	14480
897.949	14358
898.07	14309
898.19	14271
898.311	14480
898.431	14385
898.552	14533
898.672	14613
898.792	14674
898.913	14518
899.033	14434
899.153	14393
899.273	14286
899.393	14332
899.513	14385
899.633	14362
899.753	14408
899.873	14339
899.993	14404
900.113	14404
900.232	14480
900.352	14358
900.472	14263
900.591	14180
900.711	14248
900.83	14157
900.95	14317
901.069	14381
901.189	14191
901.308	13982
901.427	13879
901.546	13864
901.665	13951
901.784	13936
901.904	13708
902.023	13723
902.141	13445
902.26	13449
902.379	13529
902.498	13438
902.617	13506
902.735	13506
902.854	13460
902.973	13426
903.091	13126
903.21	13213
903.328	13129
903.446	13091
903.565	13057
903.683	13065
903.801	12924
903.919	12977
904.038	13103
904.156	12871
904.274	12863
904.392	12844
904.51	12810
904.627	12909
904.745	12958
904.863	12951
904.981	12658
905.098	12540
905.216	12597
905.334	12608
905.451	12525
905.569	12452
905.686	12528
905.803	12620
905.921	12403
906.038	12502
906.155	12467
906.272	12319
906.389	12323
906.506	12152
906.623	12083
906.74	12197
906.857	12068
906.974	12053
907.091	12228
907.208	12319
907.324	12163
907.441	12121
907.557	11916
907.674	11927
907.79	11840
907.907	11859
908.023	11939
908.139	11916
908.256	11863
908.372	11828
908.488	11748
908.604	11634
908.72	11596
908.836	11634
908.952	11573
909.068	11802
909.184	11771
909.3	11657
909.415	11710
909.531	11638
909.647	11440
909.762	11372
909.878	11471
909.993	11562
910.108	11433
910.224	11376
910.339	11444
910.454	11307
910.57	11269
910.685	11250
910.8	11547
910.915	11410
911.03	11288
911.145	11201
911.259	11140
911.374	11098
911.489	11117
911.604	10991
911.718	10930
911.833	10850
911.947	10854
912.062	10691
912.176	10850
912.291	10877
912.405	10927
912.519	11037
912.633	11117
912.748	10949
912.862	10927
912.976	10820
913.09	10599
913.204	10774
913.318	10812
913.431	10877
913.545	10850
913.659	10869
913.772	10805
913.886	10714
914	10710
914.113	10733
914.226	10824
914.34	10774
914.453	10577
914.566	10679
914.68	10641
914.793	10611
914.906	10440
915.019	10367
915.132	10284
915.245	10405
915.358	10360
915.47	10402
915.583	10440
915.696	10394
915.809	10535
915.921	10603
916.034	10402
916.146	10363
916.259	10421
916.371	10459
916.483	10440
916.595	10310
916.708	10341
916.82	10268
916.932	10344
917.044	10325
917.156	10375
917.268	10268
917.38	10223
917.491	10211
917.603	10238
917.715	10341
917.826	10352
917.938	10215
918.049	10097
918.161	10291
918.272	10363
918.384	10356
918.495	10200
918.606	10143
918.717	10040
918.828	10154
918.939	10196
919.05	10017
919.161	10078
919.272	9941
919.383	9994
919.494	10177
919.604	10325
919.715	10234
919.826	10131
919.936	10112
920.047	10219
920.157	10055
920.267	10337
920.378	10147
920.488	10158
920.598	10318
920.708	10523
920.818	10341
920.928	10341
921.038	10500
921.148	10394
921.258	10154
921.368	10112
921.477	10032
921.587	10029
921.697	9915
921.806	10036
921.916	9915
922.025	9720
922.134	9743
922.244	9648
922.353	9720
922.462	9538
922.571	9545
922.68	9416
922.789	9408
922.898	9416
923.007	9393
923.116	9469
923.224	9416
923.333	9382
923.442	9222
923.55	9233
923.659	9253
923.767	9374
923.876	9226
923.984	9401
924.092	9184
924.201	9317
924.309	9272
924.417	9325
924.525	9249
924.633	9245
924.741	10154
924.849	9036
924.956	9203
925.064	9119
925.172	9001
925.279	9013
925.387	8986
925.494	9032
925.602	9230
925.709	9142
925.816	9032
925.924	9211
926.031	9089
926.138	9062
926.245	9100
926.352	8952
926.459	9051
926.566	9214
926.673	8960
926.779	8948
926.886	8883
926.993	8819
927.099	8785
927.206	8716
927.312	8735
927.419	8819
927.525	8815
927.631	8895
927.737	8640
927.843	8716
927.95	8560
928.056	8648
928.162	8670
928.267	8735
928.373	9401
928.479	8750
928.585	8541
928.69	8655
928.796	8769
928.901	8545
929.007	8427
929.112	8583
929.218	8530
929.323	8446
929.428	8450
929.533	8701
929.638	8374
929.743	8450
929.848	8533
929.953	8511
930.058	8431
930.163	8145
930.267	8256
930.372	8343
930.477	8183
930.581	8484
930.685	8381
930.79	8218
930.894	8256
930.998	8214
931.103	8370
931.207	8043
931.311	7913
931.415	7883
931.519	7769
931.623	7731
