Data from test_V78500241_3631.txt Node
Date: Fri Mar 25 14:59:00 CST 2022
User: usil
Spectrometer: V785-0024
Trigger mode: 0
Integration Time (sec): 4.000000E-1
Scans to average: 1
Nonlinearity correction enabled: false
Boxcar width: 0
Storing dark spectrum: false
XAxis mode: Wavelengths
Number of Pixels in Spectrum: 1024
>>>>>Begin Spectral Data<<<<<
801.071	21850
801.214	21884
801.356	21618
801.499	21488
801.641	21279
801.783	21325
801.926	21218
802.068	21260
802.211	21199
802.353	20941
802.496	20906
802.638	20674
802.78	20602
802.923	20727
803.065	20476
803.208	20499
803.35	20651
803.492	20659
803.635	20693
803.777	20629
803.919	20602
804.061	20914
804.204	20758
804.346	20454
804.488	20393
804.63	20503
804.773	20431
804.915	20541
805.057	20507
805.199	20324
805.341	20511
805.483	20454
805.626	20640
805.768	20499
805.91	20564
806.052	20499
806.194	20400
806.336	20602
806.478	20423
806.62	20385
806.762	20632
806.904	20712
807.046	20887
807.188	20792
807.33	20861
807.472	20880
807.614	20773
807.756	20796
807.898	20450
808.04	20495
808.182	20503
808.324	20522
808.465	20503
808.607	20716
808.749	20796
808.891	20823
809.033	20979
809.174	20697
809.316	20758
809.458	20891
809.6	20872
809.741	20864
809.883	20815
810.025	20929
810.166	20941
810.308	21032
810.45	20845
810.591	20914
810.733	20663
810.875	20640
811.016	20488
811.158	20480
811.299	20674
811.441	20689
811.582	20693
811.724	20396
811.865	20613
812.007	20461
812.148	20499
812.29	20590
812.431	20880
812.573	20845
812.714	20956
812.855	21135
812.997	21256
813.138	21389
813.279	21161
813.421	21051
813.562	21070
813.703	20857
813.845	20826
813.986	20450
814.127	20351
814.268	20168
814.41	20183
814.551	20233
814.692	20267
814.833	20084
814.974	19993
815.115	20164
815.256	19944
815.397	19993
815.539	19951
815.68	19928
815.821	19795
815.962	19909
816.103	19708
816.244	19639
816.385	19620
816.526	19609
816.666	19377
816.807	19209
816.948	19335
817.089	19415
817.23	19240
817.371	19274
817.512	19244
817.653	19263
817.793	19133
817.934	19247
818.075	19266
818.216	19316
818.356	19304
818.497	19061
818.638	18894
818.778	18939
818.919	18935
819.06	18970
819.2	19118
819.341	19198
819.481	19232
819.622	19365
819.762	19499
819.903	19411
820.043	19327
820.184	19301
820.324	19255
820.465	19369
820.605	19312
820.746	19285
820.886	19099
821.026	19263
821.167	19202
821.307	19324
821.447	19145
821.588	19023
821.728	19034
821.868	18589
822.008	18684
822.149	18681
822.289	18681
822.429	18418
822.569	18456
822.709	18380
822.849	18174
822.99	18114
823.13	18087
823.27	18114
823.41	17965
823.55	17863
823.69	18110
823.83	17969
823.97	17961
824.11	17741
824.25	17733
824.389	17745
824.529	17840
824.669	17851
824.809	17828
824.949	17775
825.089	17714
825.228	17855
825.368	17490
825.508	17505
825.648	17486
825.787	17509
825.927	17539
826.067	17467
826.206	17459
826.346	17600
826.485	17554
826.625	17455
826.765	17535
826.904	17562
827.044	17364
827.183	17307
827.323	17132
827.462	17337
827.601	17296
827.741	17223
827.88	17330
828.02	17022
828.159	17136
828.298	17159
828.437	17334
828.577	17216
828.716	17288
828.855	17181
828.994	16946
829.134	16949
829.273	16980
829.412	16949
829.551	16934
829.69	16900
829.829	16980
829.968	17105
830.107	17014
830.246	16968
830.385	16904
830.524	16984
830.663	16755
830.802	16672
830.941	16596
831.08	16596
831.219	16588
831.357	16683
831.496	16869
831.635	16592
831.774	16481
831.913	16455
832.051	16310
832.19	16440
832.329	16466
832.467	16356
832.606	16223
832.744	16276
832.883	16344
833.022	16238
833.16	16356
833.299	16329
833.437	16375
833.576	16390
833.714	16379
833.852	16428
833.991	16303
834.129	16455
834.267	16329
834.406	16382
834.544	16390
834.682	16474
834.821	16348
834.959	16554
835.097	16257
835.235	16542
835.373	16360
835.511	16341
835.65	16325
835.788	16295
835.926	16097
836.064	16013
836.202	16131
836.34	16318
836.478	16382
836.615	16314
836.753	16325
836.891	16405
837.029	16322
837.167	16341
837.305	16280
837.443	16185
837.58	16116
837.718	16143
837.856	16116
837.993	16086
838.131	16071
838.269	15979
838.406	16055
838.544	16029
838.681	15766
838.819	15857
838.956	15637
839.094	15671
839.231	15789
839.369	15823
839.506	16124
839.643	15846
839.781	15774
839.918	15625
840.055	15709
840.193	15686
840.33	15671
840.467	15694
840.604	15679
840.742	15888
840.879	15557
841.016	15690
841.153	15572
841.29	15911
841.427	15732
841.564	15835
841.701	15564
841.838	15622
841.975	15580
842.112	15599
842.249	15538
842.385	15431
842.522	15644
842.659	15511
842.796	15435
842.933	15447
843.069	15401
843.206	15359
843.343	15576
843.479	15435
843.616	15542
843.752	15359
843.889	15329
844.025	15458
844.162	15272
844.298	15302
844.435	15256
844.571	15294
844.708	15382
844.844	15443
844.98	15431
845.117	15298
845.253	15268
845.389	15233
845.525	15222
845.661	15123
845.798	14963
845.934	15066
846.07	15043
846.206	15100
846.342	15222
846.478	15116
846.614	14967
846.75	14792
846.886	14830
847.022	14933
847.158	14864
847.294	14853
847.429	14876
847.565	14830
847.701	15039
847.837	14613
847.972	14537
848.108	14659
848.244	14693
848.379	14590
848.515	14431
848.65	14431
848.786	14545
848.921	14545
849.057	14594
849.192	14648
849.328	14450
849.463	14457
849.598	14492
849.734	14336
849.869	14400
850.004	14294
850.14	14328
850.275	14305
850.41	14221
850.545	14134
850.68	14214
850.815	14142
850.95	14183
851.085	14301
851.22	14290
851.355	14218
851.49	14172
851.625	14259
851.76	14187
851.895	14115
852.03	14069
852.165	14172
852.299	14256
852.434	14393
852.569	14282
852.703	14267
852.838	14415
852.973	14362
853.107	14473
853.242	14107
853.376	14065
853.511	13970
853.645	14035
853.78	14225
853.914	14081
854.048	14130
854.183	14039
854.317	14130
854.451	14202
854.585	14027
854.72	13997
854.854	14111
854.988	13986
855.122	14161
855.256	13997
855.39	13993
855.524	14248
855.658	14069
855.792	14100
855.926	14142
856.06	14183
856.194	14130
856.327	14054
856.461	14054
856.595	14027
856.729	14092
856.862	14168
856.996	14119
857.13	14096
857.263	14256
857.397	14221
857.53	14100
857.664	14123
857.797	14180
857.931	14176
858.064	14119
858.197	14214
858.331	14092
858.464	14107
858.597	13936
858.731	14027
858.864	14111
858.997	14088
859.13	14168
859.263	14161
859.396	14153
859.529	14100
859.662	14024
859.795	14096
859.928	14119
860.061	14267
860.194	14278
860.327	14119
860.46	14027
860.592	14248
860.725	14271
860.858	14248
860.99	14069
861.123	13986
861.256	14024
861.388	14031
861.521	14944
861.653	14005
861.786	13906
861.918	13936
862.05	14062
862.183	14069
862.315	14111
862.447	14142
862.58	14073
862.712	13837
862.844	13906
862.976	13963
863.108	13906
863.24	14313
863.372	13811
863.504	13833
863.636	13967
863.768	13909
863.9	13925
864.032	13837
864.164	13822
864.296	13940
864.428	14020
864.559	13940
864.691	14008
864.823	14016
864.954	13925
865.086	13925
865.217	13883
865.349	13784
865.48	13970
865.612	13883
865.743	13925
865.875	13982
866.006	13803
866.137	13902
866.269	13795
866.4	13868
866.531	13852
866.662	13925
866.793	13799
866.924	13734
867.055	13822
867.186	13860
867.317	13849
867.448	13803
867.579	13818
867.71	13769
867.841	13822
867.972	13856
868.103	13925
868.233	13856
868.364	13822
868.495	14027
868.625	14138
868.756	14218
868.886	13951
869.017	14058
869.147	14157
869.278	14275
869.408	14180
869.539	14214
869.669	14161
869.799	14142
869.929	14168
870.06	14229
870.19	14484
870.32	14374
870.45	14541
870.58	14518
870.71	14648
870.84	14613
870.97	14427
871.1	14503
871.23	14792
871.36	14819
871.489	14686
871.619	14636
871.749	14727
871.879	14765
872.008	14792
872.138	14777
872.267	14735
872.397	14526
872.526	14518
872.656	14598
872.785	14579
872.915	14693
873.044	14861
873.173	14796
873.303	14777
873.432	14788
873.561	14880
873.69	14815
873.819	14724
873.948	14853
874.077	14773
874.206	14796
874.335	14876
874.464	14864
874.593	15146
874.722	15169
874.851	15146
874.979	15119
875.108	15089
875.237	15036
875.365	15116
875.494	14948
875.623	15195
875.751	15047
875.88	15146
876.008	15260
876.136	15321
876.265	15469
876.393	15675
876.521	15656
876.65	15614
876.778	15469
876.906	15511
877.034	15416
877.162	15500
877.29	15447
877.418	15610
877.546	15572
877.674	15523
877.802	15500
877.93	15481
878.058	15408
878.185	15485
878.313	15507
878.441	15416
878.568	15382
878.696	15405
878.824	15656
878.951	15553
879.079	15690
879.206	15804
879.333	15781
879.461	15534
879.588	15511
879.715	15660
879.842	15785
879.97	15622
880.097	15329
880.224	15218
880.351	15348
880.478	15447
880.605	15367
880.732	15363
880.859	15595
880.986	15359
881.112	15374
881.239	15211
881.366	15165
881.493	15005
881.619	15085
881.746	14986
881.872	14963
881.999	14982
882.125	14990
882.252	15066
882.378	15188
882.505	15150
882.631	14982
882.757	14933
882.883	14956
883.01	14880
883.136	14819
883.262	14777
883.388	14602
883.514	14941
883.64	14982
883.766	14834
883.892	14655
884.018	14689
884.143	14887
884.269	14849
884.395	14545
884.52	14549
884.646	14568
884.772	14499
884.897	14469
885.023	14541
885.148	14682
885.274	14773
885.399	14598
885.524	14568
885.65	14613
885.775	14514
885.9	14590
886.025	14625
886.15	14674
886.275	14495
886.4	14499
886.525	14503
886.65	14568
886.775	14507
886.9	14667
887.025	14765
887.149	14590
887.274	14484
887.399	14419
887.523	14465
887.648	14328
887.773	14244
887.897	14454
888.021	14431
888.146	14412
888.27	14446
888.395	14492
888.519	14488
888.643	14431
888.767	14434
888.891	14286
889.015	14199
889.139	14278
889.263	14199
889.387	14358
889.511	14339
889.635	14393
889.759	14263
889.883	14294
890.006	14286
890.13	14442
890.254	14195
890.377	14233
890.501	14077
890.624	14031
890.748	14088
890.871	13932
890.995	13947
891.118	13913
891.241	13951
891.364	13997
891.488	14065
891.611	13982
891.734	13955
891.857	13974
891.98	13890
892.103	14031
892.226	13986
892.349	13955
892.471	13852
892.594	13936
892.717	13974
892.839	13894
892.962	13906
893.085	14084
893.207	13967
893.33	13841
893.452	13906
893.575	13982
893.697	13982
893.819	14100
893.941	14134
894.064	14054
894.186	13967
894.308	13959
894.43	14092
894.552	14240
894.674	14043
894.796	13925
894.918	13944
895.04	13955
895.161	14096
895.283	14031
895.405	13932
895.526	14115
895.648	13967
895.769	14115
895.891	14054
896.012	14164
896.134	14130
896.255	14073
896.376	13997
896.498	14157
896.619	14240
896.74	14050
896.861	14252
896.982	14522
897.103	14621
897.224	14446
897.345	14377
897.466	14248
897.587	14339
897.708	14545
897.828	14476
897.949	14415
898.07	14275
898.19	14305
898.311	14636
898.431	14446
898.552	14450
898.672	14571
898.792	14518
898.913	14492
899.033	14404
899.153	14271
899.273	14206
899.393	14267
899.513	14339
899.633	14221
899.753	14233
899.873	14290
899.993	14370
900.113	14282
900.232	14271
900.352	14237
900.472	14183
900.591	14134
900.711	14225
900.83	14149
900.95	14282
901.069	14210
901.189	14062
901.308	13959
901.427	13879
901.546	13860
901.665	13921
901.784	13814
901.904	13715
902.023	13655
902.141	13544
902.26	13403
902.379	13460
902.498	13464
902.617	13400
902.735	13438
902.854	13415
902.973	13354
903.091	13228
903.21	13168
903.328	13160
903.446	13069
903.565	13012
903.683	13088
903.801	12935
903.919	12966
904.038	12996
904.156	12776
904.274	12935
904.392	12837
904.51	12726
904.627	12844
904.745	12863
904.863	12897
904.981	12646
905.098	12570
905.216	12585
905.334	12574
905.451	12517
905.569	12486
905.686	12665
905.803	12547
905.921	12346
906.038	12464
906.155	12296
906.272	12205
906.389	12201
906.506	12182
906.623	12114
906.74	12144
906.857	11992
906.974	12022
907.091	12129
907.208	12308
907.324	12175
907.441	12026
907.557	11859
907.674	11851
907.79	11836
907.907	11863
908.023	11855
908.139	11817
908.256	11794
908.372	11790
908.488	11741
908.604	11668
908.72	11619
908.836	11665
908.952	11604
909.068	11604
909.184	11741
909.3	11600
909.415	11710
909.531	11688
909.647	11429
909.762	11414
909.878	11395
909.993	11414
910.108	11398
910.224	11261
910.339	11360
910.454	11299
910.57	11258
910.685	11208
910.8	11452
910.915	11425
911.03	11204
911.145	11147
911.259	11052
911.374	11071
911.489	11029
911.604	10972
911.718	10828
911.833	10980
911.947	10782
912.062	10698
912.176	10927
912.291	10915
912.405	10835
912.519	11037
912.633	11098
912.748	10904
912.862	10930
912.976	10790
913.09	10660
913.204	10660
913.318	10771
913.431	10915
913.545	10831
913.659	10824
913.772	10736
913.886	10679
914	10641
914.113	10736
914.226	10725
914.34	10744
914.453	10558
914.566	10740
914.68	10580
914.793	10599
914.906	10428
915.019	10329
915.132	10314
915.245	10329
915.358	10375
915.47	10394
915.583	10417
915.696	10443
915.809	10508
915.921	10580
916.034	10348
916.146	10382
916.259	10268
916.371	10417
916.483	10394
916.595	10227
916.708	10318
916.82	10344
916.932	10246
917.044	10325
917.156	10303
917.268	10188
917.38	10265
917.491	10147
917.603	10169
917.715	10337
917.826	10386
917.938	10219
918.049	10032
918.161	10219
918.272	10341
918.384	10379
918.495	10234
918.606	10086
918.717	10059
918.828	10124
918.939	10040
919.05	9983
919.161	10150
919.272	9880
919.383	9956
919.494	10223
919.604	10337
919.715	10101
919.826	10013
919.936	10055
920.047	10196
920.157	10150
920.267	10371
920.378	10131
920.488	10128
920.598	10360
920.708	10390
920.818	10325
920.928	10291
921.038	10466
921.148	10390
921.258	10173
921.368	10120
921.477	10002
921.587	9941
921.697	9842
921.806	9983
921.916	9816
922.025	9648
922.134	9785
922.244	9629
922.353	9656
922.462	9492
922.571	9496
922.68	9359
922.789	9382
922.898	9397
923.007	9424
923.116	9397
923.224	9416
923.333	9378
923.442	9272
923.55	9268
923.659	9336
923.767	9332
923.876	9195
923.984	9401
924.092	9207
924.201	9230
924.309	9321
924.417	9214
924.525	9218
924.633	9218
924.741	10013
924.849	9036
924.956	9176
925.064	9112
925.172	9001
925.279	9032
925.387	8960
925.494	8986
925.602	9135
925.709	9089
925.816	9024
925.924	8986
926.031	9108
926.138	9062
926.245	9013
926.352	8925
926.459	9074
926.566	9176
926.673	8979
926.779	8929
926.886	8948
926.993	8727
927.099	8739
927.206	8651
927.312	8697
927.419	8762
927.525	8785
927.631	8796
927.737	8689
927.843	8670
927.95	8571
928.056	8644
928.162	8602
928.267	8610
928.373	9211
928.479	8750
928.585	8533
928.69	8610
928.796	8670
928.901	8488
929.007	8408
929.112	8602
929.218	8499
929.323	8533
929.428	8431
929.533	8617
929.638	8389
929.743	8431
929.848	8507
929.953	8499
930.058	8309
930.163	8221
930.267	8317
930.372	8355
930.477	8199
930.581	8446
930.685	8320
930.79	8168
930.894	8195
930.998	8202
931.103	8301
931.207	7982
931.311	7909
931.415	7856
931.519	7677
931.623	7674
