Data from test_V78500241_257.txt Node
Date: Fri Mar 25 14:35:30 CST 2022
User: usil
Spectrometer: V785-0024
Trigger mode: 0
Integration Time (sec): 4.000000E-1
Scans to average: 1
Nonlinearity correction enabled: false
Boxcar width: 0
Storing dark spectrum: false
XAxis mode: Wavelengths
Number of Pixels in Spectrum: 1024
>>>>>Begin Spectral Data<<<<<
801.071	27424
801.214	27477
801.356	27138
801.499	26971
801.641	26899
801.783	26792
801.926	26910
802.068	26807
802.211	26746
802.353	26644
802.496	26629
802.638	26571
802.78	26473
802.923	26355
803.065	26309
803.208	26233
803.35	26431
803.492	26503
803.635	26533
803.777	26408
803.919	26598
804.061	26693
804.204	26461
804.346	26381
804.488	26259
804.63	26412
804.773	26259
804.915	26404
805.057	26450
805.199	26419
805.341	26461
805.483	26526
805.626	26385
805.768	26256
805.91	26480
806.052	26522
806.194	26450
806.336	26663
806.478	26450
806.62	26286
806.762	26499
806.904	26568
807.046	26979
807.188	26861
807.33	26864
807.472	26975
807.614	26708
807.756	26754
807.898	26769
808.04	26636
808.182	26796
808.324	26743
808.465	26796
808.607	27116
808.749	27051
808.891	27077
809.033	27298
809.174	27401
809.316	27241
809.458	27096
809.6	27024
809.741	27085
809.883	27127
810.025	27161
810.166	27233
810.308	27180
810.45	27096
810.591	27199
810.733	26880
810.875	26921
811.016	26750
811.158	26773
811.299	26948
811.441	26921
811.582	26792
811.724	26644
811.865	26731
812.007	26830
812.148	26682
812.29	26811
812.431	26967
812.573	27013
812.714	27123
812.855	27367
812.997	27363
813.138	27500
813.279	27488
813.421	27233
813.562	27348
813.703	27131
813.845	26975
813.986	26640
814.127	26556
814.268	26385
814.41	26431
814.551	26396
814.692	26488
814.833	26305
814.974	26385
815.115	26431
815.256	26130
815.397	26240
815.539	26157
815.68	26100
815.821	26027
815.962	26134
816.103	26164
816.244	25913
816.385	25871
816.526	25742
816.666	25643
816.807	25506
816.948	25609
817.089	25651
817.23	25635
817.371	25578
817.512	25624
817.653	25514
817.793	25514
817.934	25403
818.075	25438
818.216	25457
818.356	25343
818.497	25377
818.638	25175
818.778	25194
818.919	25346
819.06	25251
819.2	25320
819.341	25411
819.481	25346
819.622	25540
819.762	25712
819.903	25689
820.043	25506
820.184	25476
820.324	25556
820.465	25537
820.605	25434
820.746	25362
820.886	25343
821.026	25537
821.167	25403
821.307	25525
821.447	25445
821.588	25217
821.728	25179
821.868	24909
822.008	24897
822.149	24871
822.289	24764
822.429	24620
822.569	24494
822.709	24620
822.849	24353
822.99	24224
823.13	24155
823.27	24144
823.41	24152
823.55	23935
823.69	24129
823.83	24030
823.97	24038
824.11	23859
824.25	23893
824.389	23847
824.529	23809
824.669	23775
824.809	24117
824.949	23786
825.089	23843
825.228	23946
825.368	23627
825.508	23531
825.648	23802
825.787	23665
825.927	23524
826.067	23573
826.206	23547
826.346	23646
826.485	23551
826.625	23611
826.765	23676
826.904	23718
827.044	23406
827.183	23341
827.323	23341
827.462	23311
827.601	23288
827.741	23185
827.88	23318
828.02	23261
828.159	23280
828.298	23334
828.437	23261
828.577	23250
828.716	23433
828.855	23178
828.994	22942
829.134	23029
829.273	22984
829.412	22999
829.551	22828
829.69	22942
829.829	23025
829.968	23014
830.107	22919
830.246	22942
830.385	22889
830.524	22675
830.663	22721
830.802	22637
830.941	22615
831.08	22546
831.219	22622
831.357	22630
831.496	22831
831.635	22546
831.774	22413
831.913	22466
832.051	22314
832.19	22352
832.329	22314
832.467	22128
832.606	22090
832.744	22120
832.883	22303
833.022	22177
833.16	22219
833.299	22276
833.437	22223
833.576	22230
833.714	22261
833.852	22147
833.991	22272
834.129	22287
834.267	22306
834.406	22158
834.544	22329
834.682	22128
834.821	22215
834.959	22318
835.097	22139
835.235	22204
835.373	22196
835.511	22226
835.65	22109
835.788	22124
835.926	21770
836.064	21831
836.202	21884
836.34	22002
836.478	22090
836.615	22090
836.753	22044
836.891	22192
837.029	21983
837.167	22036
837.305	21964
837.443	21823
837.58	21846
837.718	21907
837.856	21827
837.993	21892
838.131	21869
838.269	21698
838.406	21789
838.544	21671
838.681	21496
838.819	21458
838.956	21310
839.094	21294
839.231	21363
839.369	21431
839.506	21675
839.643	21447
839.781	21302
839.918	21260
840.055	21321
840.193	21272
840.33	21195
840.467	21173
840.604	21093
840.742	21405
840.879	21199
841.016	21195
841.153	21100
841.29	21279
841.427	21195
841.564	21214
841.701	21043
841.838	21165
841.975	21123
842.112	21214
842.249	20921
842.385	20830
842.522	21154
842.659	20963
842.796	20937
842.933	20868
843.069	20933
843.206	20804
843.343	20872
843.479	20845
843.616	20975
843.752	20640
843.889	20655
844.025	20925
844.162	20655
844.298	20788
844.435	20838
844.571	20579
844.708	20659
844.844	20781
844.98	20743
845.117	20754
845.253	20777
845.389	20644
845.525	20640
845.661	20625
845.798	20613
845.934	20686
846.07	20708
846.206	20712
846.342	20712
846.478	20454
846.614	20389
846.75	20134
846.886	20161
847.022	20172
847.158	20130
847.294	20122
847.429	20233
847.565	20142
847.701	20271
847.837	19875
847.972	19746
848.108	19917
848.244	19947
848.379	19715
848.515	19723
848.65	19719
848.786	19628
848.921	19670
849.057	19708
849.192	19746
849.328	19791
849.463	19769
849.598	19685
849.734	19518
849.869	19563
850.004	19468
850.14	19548
850.275	19449
850.41	19392
850.545	19407
850.68	19434
850.815	19464
850.95	19491
851.085	19556
851.22	19426
851.355	19434
851.49	19362
851.625	19415
851.76	19339
851.895	19232
852.03	19350
852.165	19362
852.299	19472
852.434	19590
852.569	19384
852.703	19381
852.838	19510
852.973	19544
853.107	19556
853.242	19343
853.376	19282
853.511	19103
853.645	19221
853.78	19464
853.914	19240
854.048	19114
854.183	19168
854.317	19289
854.451	19381
854.585	19198
854.72	19190
854.854	19263
854.988	19198
855.122	19221
855.256	19129
855.39	19297
855.524	19183
855.658	19225
855.792	19251
855.926	19164
856.06	19282
856.194	19354
856.327	19255
856.461	19114
856.595	19213
856.729	19171
856.862	19331
856.996	19301
857.13	19274
857.263	19312
857.397	19190
857.53	19301
857.664	19316
857.797	19225
857.931	19304
858.064	19179
858.197	19350
858.331	19141
858.464	19057
858.597	19114
858.731	19236
858.864	19160
858.997	19107
859.13	19122
859.263	19091
859.396	19247
859.529	19099
859.662	19141
859.795	19080
859.928	19156
860.061	19110
860.194	19217
860.327	19209
860.46	19118
860.592	19225
860.725	19209
860.858	19190
860.99	19194
861.123	19034
861.256	19008
861.388	19095
861.521	19655
861.653	19015
861.786	18932
861.918	19103
862.05	19168
862.183	19148
862.315	19175
862.447	19202
862.58	19168
862.712	18897
862.844	18920
862.976	19023
863.108	18886
863.24	19168
863.372	18829
863.504	18650
863.636	18840
863.768	18905
863.9	18894
864.032	18779
864.164	18772
864.296	18920
864.428	18871
864.559	18859
864.691	18905
864.823	18871
864.954	18852
865.086	18753
865.217	18844
865.349	18673
865.48	18833
865.612	18825
865.743	18989
865.875	18620
866.006	18669
866.137	18806
866.269	18795
866.4	18825
866.531	18783
866.662	18684
866.793	18703
866.924	18745
867.055	18760
867.186	18673
867.317	18635
867.448	18661
867.579	18684
867.71	18517
867.841	18642
867.972	18833
868.103	18700
868.233	18722
868.364	18776
868.495	18886
868.625	18985
868.756	19004
868.886	18802
869.017	18905
869.147	19057
869.278	18901
869.408	18932
869.539	18932
869.669	18973
869.799	18973
869.929	19004
870.06	19046
870.19	19228
870.32	19202
870.45	19266
870.58	19240
870.71	19495
870.84	19388
870.97	19449
871.1	19365
871.23	19419
871.36	19575
871.489	19419
871.619	19392
871.749	19502
871.879	19643
872.008	19609
872.138	19552
872.267	19586
872.397	19430
872.526	19369
872.656	19373
872.785	19343
872.915	19552
873.044	19597
873.173	19601
873.303	19616
873.432	19609
873.561	19609
873.69	19540
873.819	19518
873.948	19712
874.077	19521
874.206	19620
874.335	19571
874.464	19662
874.593	19769
874.722	19719
874.851	19845
874.979	19871
875.108	19955
875.237	19826
875.365	19822
875.494	19871
875.623	19982
875.751	19757
875.88	19875
876.008	19982
876.136	20259
876.265	20233
876.393	20347
876.521	20309
876.65	20313
876.778	20328
876.906	20218
877.034	20191
877.162	20278
877.29	20214
877.418	20263
877.546	20278
877.674	20256
877.802	20267
877.93	20309
878.058	20240
878.185	20119
878.313	20172
878.441	20180
878.568	20191
878.696	20077
878.824	20244
878.951	20328
879.079	20454
879.206	20705
879.333	20511
879.461	20362
879.588	20507
879.715	20587
879.842	20598
879.97	20393
880.097	20107
880.224	20191
880.351	20275
880.478	20046
880.605	19978
880.732	20119
880.859	20267
880.986	20122
881.112	20126
881.239	20092
881.366	19955
881.493	19807
881.619	19753
881.746	19803
881.872	19883
881.999	19696
882.125	19742
882.252	19753
882.378	19689
882.505	19822
882.631	19670
882.757	19460
882.883	19441
883.01	19571
883.136	19411
883.262	19434
883.388	19232
883.514	19483
883.64	19396
883.766	19411
883.892	19168
884.018	19285
884.143	19373
884.269	19567
884.395	19308
884.52	19095
884.646	19088
884.772	19004
884.897	18970
885.023	19225
885.148	19297
885.274	19324
885.399	19194
885.524	19080
885.65	19274
885.775	19171
885.9	19198
886.025	19217
886.15	19164
886.275	19099
886.4	18985
886.525	19031
886.65	18962
886.775	19061
886.9	19164
887.025	19301
887.149	19126
887.274	18954
887.399	18859
887.523	18909
887.648	18817
887.773	18817
887.897	18905
888.021	18878
888.146	18943
888.27	18977
888.395	18844
888.519	18859
888.643	18795
888.767	18882
888.891	18871
889.015	18719
889.139	18650
889.263	18654
889.387	18783
889.511	18844
889.635	18798
889.759	18715
889.883	18585
890.006	18654
890.13	18749
890.254	18601
890.377	18521
890.501	18506
890.624	18452
890.748	18483
890.871	18254
890.995	18224
891.118	18228
891.241	18254
891.364	18315
891.488	18391
891.611	18346
891.734	18224
891.857	18292
891.98	18327
892.103	18315
892.226	18209
892.349	18285
892.471	17965
892.594	18239
892.717	18174
892.839	18235
892.962	18186
893.085	18251
893.207	18194
893.33	18030
893.452	18213
893.575	18251
893.697	18285
893.819	18388
893.941	18418
894.064	18380
894.186	18121
894.308	18057
894.43	18304
894.552	18350
894.674	18251
894.796	18060
894.918	18270
895.04	18281
895.161	18239
895.283	18315
895.405	18106
895.526	18076
895.648	18182
895.769	18117
895.891	18369
896.012	18304
896.134	18327
896.255	18285
896.376	18262
896.498	18243
896.619	18384
896.74	18220
896.861	18391
896.982	18544
897.103	18707
897.224	18563
897.345	18563
897.466	18357
897.587	18471
897.708	18760
897.828	18623
897.949	18388
898.07	18228
898.19	18448
898.311	18582
898.431	18464
898.552	18471
898.672	18479
898.792	18601
898.913	18486
899.033	18399
899.153	18190
899.273	18300
899.393	18251
899.513	18182
899.633	18228
899.753	18251
899.873	18125
899.993	18296
900.113	18205
900.232	18258
900.352	18235
900.472	18243
900.591	17984
900.711	18140
900.83	18068
900.95	18125
901.069	18224
901.189	18015
901.308	17741
901.427	17707
901.546	17649
901.665	17710
901.784	17672
901.904	17596
902.023	17433
902.141	17212
902.26	17254
902.379	17303
902.498	17166
902.617	17121
902.735	17227
902.854	17189
902.973	17124
903.091	16854
903.21	16809
903.328	16847
903.446	16847
903.565	16683
903.683	16824
903.801	16546
903.919	16641
904.038	16668
904.156	16474
904.274	16512
904.392	16580
904.51	16519
904.627	16474
904.745	16561
904.863	16516
904.981	16226
905.098	16162
905.216	16200
905.334	16192
905.451	16166
905.569	16071
905.686	16200
905.803	16032
905.921	15926
906.038	16124
906.155	16032
906.272	15831
906.389	15907
906.506	15732
906.623	15679
906.74	15686
906.857	15557
906.974	15538
907.091	15694
907.208	15747
907.324	15770
907.441	15542
907.557	15401
907.674	15450
907.79	15344
907.907	15370
908.023	15386
908.139	15310
908.256	15374
908.372	15207
908.488	15226
908.604	15100
908.72	15131
908.836	15150
908.952	15043
909.068	15077
909.184	15154
909.3	15043
909.415	15169
909.531	15039
909.647	14929
909.762	14872
909.878	14739
909.993	14788
910.108	14754
910.224	14697
910.339	14861
910.454	14610
910.57	14594
910.685	14678
910.8	14720
910.915	14693
911.03	14579
911.145	14457
911.259	14385
911.374	14457
911.489	14389
911.604	14263
911.718	14115
911.833	14183
911.947	14077
912.062	14043
912.176	14123
912.291	14153
912.405	14172
912.519	14305
912.633	14271
912.748	14267
912.862	14180
912.976	14001
913.09	13890
913.204	13906
913.318	14016
913.431	14039
913.545	14031
913.659	14058
913.772	13970
913.886	13841
914	13814
914.113	13936
914.226	13955
914.34	13917
914.453	13674
914.566	13879
914.68	13753
914.793	13689
914.906	13647
915.019	13445
915.132	13407
915.245	13556
915.358	13419
915.47	13537
915.583	13422
915.696	13514
915.809	13662
915.921	13540
916.034	13480
916.146	13343
916.259	13331
916.371	13464
916.483	13445
916.595	13369
916.708	13350
916.82	13350
916.932	13270
917.044	13266
917.156	13171
917.268	13202
917.38	13183
917.491	13160
917.603	13175
917.715	13225
917.826	13213
917.938	13137
918.049	12989
918.161	13187
918.272	13320
918.384	13190
918.495	13114
918.606	12996
918.717	12882
918.828	13069
918.939	12970
919.05	12897
919.161	12916
919.272	12726
919.383	12829
919.494	12996
919.604	13107
919.715	12981
919.826	12779
919.936	12878
920.047	13031
920.157	12901
920.267	13019
920.378	12958
920.488	12867
920.598	13050
920.708	13251
920.818	13019
920.928	13061
921.038	13228
921.148	13183
921.258	12901
921.368	12764
921.477	12703
921.587	12707
921.697	12525
921.806	12669
921.916	12570
922.025	12498
922.134	12323
922.244	12304
922.353	12334
922.462	12190
922.571	12117
922.68	12022
922.789	12045
922.898	11984
923.007	11958
923.116	12019
923.224	12011
923.333	11901
923.442	11847
923.55	11824
923.659	11786
923.767	11893
923.876	11824
923.984	11927
924.092	11817
924.201	11802
924.309	11783
924.417	11783
924.525	11741
924.633	11710
924.741	12563
924.849	11528
924.956	11718
925.064	11516
925.172	11459
925.279	11455
925.387	11600
925.494	11524
925.602	11619
925.709	11486
925.816	11414
925.924	11448
926.031	11516
926.138	11551
926.245	11562
926.352	11417
926.459	11505
926.566	11570
926.673	11497
926.779	11311
926.886	11254
926.993	11086
927.099	11140
927.206	11048
927.312	11045
927.419	11189
927.525	11098
927.631	11094
927.737	10972
927.843	11029
927.95	10892
928.056	10915
928.162	10957
928.267	10987
928.373	11516
928.479	11052
928.585	10793
928.69	10946
928.796	10938
928.901	10843
929.007	10698
929.112	10881
929.218	10767
929.323	10740
929.428	10736
929.533	10809
929.638	10622
929.743	10748
929.848	10660
929.953	10630
930.058	10577
930.163	10382
930.267	10459
930.372	10531
930.477	10344
930.581	10660
930.685	10447
930.79	10371
930.894	10303
930.998	10360
931.103	10436
931.207	10006
931.311	10032
931.415	9956
931.519	9755
931.623	9732
