Data from test_V78500241_2039.txt Node
Date: Fri Mar 25 14:47:54 CST 2022
User: usil
Spectrometer: V785-0024
Trigger mode: 0
Integration Time (sec): 4.000000E-1
Scans to average: 1
Nonlinearity correction enabled: false
Boxcar width: 0
Storing dark spectrum: false
XAxis mode: Wavelengths
Number of Pixels in Spectrum: 1024
>>>>>Begin Spectral Data<<<<<
801.071	22181
801.214	22029
801.356	21679
801.499	21553
801.641	21462
801.783	21370
801.926	21424
802.068	21393
802.211	21313
802.353	21245
802.496	20941
802.638	21024
802.78	20887
802.923	21043
803.065	20838
803.208	20746
803.35	20925
803.492	20823
803.635	20902
803.777	20804
803.919	20887
804.061	21154
804.204	20800
804.346	20746
804.488	20708
804.63	20659
804.773	20670
804.915	20674
805.057	20819
805.199	20640
805.341	20693
805.483	20830
805.626	20716
805.768	20727
805.91	20781
806.052	20693
806.194	20693
806.336	20872
806.478	20739
806.62	20750
806.762	20842
806.904	20830
807.046	21077
807.188	21131
807.33	21043
807.472	21055
807.614	20914
807.756	20998
807.898	20906
808.04	20731
808.182	20746
808.324	20895
808.465	20921
808.607	20929
808.749	21169
808.891	21192
809.033	21256
809.174	21256
809.316	20975
809.458	21066
809.6	21074
809.741	21249
809.883	21070
810.025	21260
810.166	21302
810.308	21252
810.45	21241
810.591	21195
810.733	20971
810.875	20929
811.016	20743
811.158	20762
811.299	20971
811.441	21093
811.582	21062
811.724	20845
811.865	20727
812.007	20804
812.148	20876
812.29	20941
812.431	20971
812.573	21226
812.714	21272
812.855	21302
812.997	21443
813.138	21671
813.279	21412
813.421	21393
813.562	21245
813.703	21108
813.845	20998
813.986	20708
814.127	20522
814.268	20518
814.41	20503
814.551	20385
814.692	20454
814.833	20343
814.974	20385
815.115	20396
815.256	20278
815.397	20275
815.539	20275
815.68	20096
815.821	20157
815.962	20107
816.103	20164
816.244	19894
816.385	19898
816.526	19864
816.666	19849
816.807	19628
816.948	19643
817.089	19700
817.23	19590
817.371	19540
817.512	19502
817.653	19544
817.793	19571
817.934	19468
818.075	19700
818.216	19586
818.356	19499
818.497	19346
818.638	19202
818.778	19339
818.919	19209
819.06	19202
819.2	19426
819.341	19403
819.481	19464
819.622	19537
819.762	19814
819.903	19624
820.043	19609
820.184	19499
820.324	19567
820.465	19548
820.605	19594
820.746	19514
820.886	19365
821.026	19514
821.167	19563
821.307	19544
821.447	19422
821.588	19327
821.728	19240
821.868	19042
822.008	18844
822.149	18973
822.289	18924
822.429	18578
822.569	18601
822.709	18635
822.849	18494
822.99	18414
823.13	18429
823.27	18353
823.41	18247
823.55	18159
823.69	18323
823.83	18273
823.97	18171
824.11	17984
824.25	18034
824.389	17950
824.529	18076
824.669	18026
824.809	18049
824.949	18095
825.089	18083
825.228	18026
825.368	17790
825.508	17870
825.648	17863
825.787	17817
825.927	17851
826.067	17722
826.206	17710
826.346	17824
826.485	17874
826.625	17809
826.765	17760
826.904	17783
827.044	17589
827.183	17501
827.323	17554
827.462	17562
827.601	17376
827.741	17478
827.88	17566
828.02	17554
828.159	17395
828.298	17455
828.437	17528
828.577	17623
828.716	17630
828.855	17596
828.994	17239
829.134	17277
829.273	17299
829.412	17326
829.551	17128
829.69	17292
829.829	17246
829.968	17448
830.107	17368
830.246	17334
830.385	17200
830.524	17200
830.663	17022
830.802	17033
830.941	16980
831.08	16862
831.219	16889
831.357	16949
831.496	17033
831.635	16900
831.774	16748
831.913	16831
832.051	16660
832.19	16630
832.329	16774
832.467	16706
832.606	16504
832.744	16538
832.883	16512
833.022	16611
833.16	16508
833.299	16668
833.437	16626
833.576	16641
833.714	16717
833.852	16653
833.991	16702
834.129	16831
834.267	16733
834.406	16687
834.544	16615
834.682	16675
834.821	16592
834.959	16755
835.097	16561
835.235	16691
835.373	16698
835.511	16694
835.65	16535
835.788	16592
835.926	16409
836.064	16424
836.202	16409
836.34	16664
836.478	16630
836.615	16630
836.753	16519
836.891	16767
837.029	16565
837.167	16516
837.305	16554
837.443	16455
837.58	16284
837.718	16588
837.856	16413
837.993	16386
838.131	16512
838.269	16341
838.406	16424
838.544	16268
838.681	16116
838.819	16150
838.956	16059
839.094	15998
839.231	16105
839.369	16181
839.506	16405
839.643	16390
839.781	15991
839.918	15937
840.055	15994
840.193	15934
840.33	15975
840.467	15964
840.604	16013
840.742	16173
840.879	15793
841.016	15922
841.153	15975
841.29	16082
841.427	16025
841.564	15983
841.701	15972
841.838	15991
841.975	15865
842.112	15930
842.249	15812
842.385	15819
842.522	15842
842.659	15804
842.796	15759
842.933	15762
843.069	15709
843.206	15762
843.343	15823
843.479	15728
843.616	15816
843.752	15485
843.889	15614
844.025	15755
844.162	15599
844.298	15675
844.435	15564
844.571	15477
844.708	15549
844.844	15732
844.98	15667
845.117	15564
845.253	15519
845.389	15485
845.525	15477
845.661	15500
845.798	15310
845.934	15416
846.07	15252
846.206	15359
846.342	15435
846.478	15363
846.614	15180
846.75	15138
846.886	15142
847.022	15192
847.158	15097
847.294	15119
847.429	15131
847.565	15093
847.701	15370
847.837	14887
847.972	14880
848.108	14880
848.244	14990
848.379	14754
848.515	14663
848.65	14651
848.786	14746
848.921	14705
849.057	14857
849.192	14811
849.328	14807
849.463	14746
849.598	14720
849.734	14632
849.869	14579
850.004	14590
850.14	14419
850.275	14556
850.41	14408
850.545	14396
850.68	14446
850.815	14511
850.95	14431
851.085	14625
851.22	14560
851.355	14537
851.49	14484
851.625	14518
851.76	14389
851.895	14431
852.03	14332
852.165	14492
852.299	14450
852.434	14488
852.569	14511
852.703	14427
852.838	14610
852.973	14670
853.107	14556
853.242	14457
853.376	14358
853.511	14202
853.645	14320
853.78	14575
853.914	14339
854.048	14305
854.183	14332
854.317	14389
854.451	14587
854.585	14278
854.72	14339
854.854	14408
854.988	14313
855.122	14282
855.256	14195
855.39	14385
855.524	14396
855.658	14488
855.792	14571
855.926	14374
856.06	14533
856.194	14450
856.327	14324
856.461	14275
856.595	14286
856.729	14309
856.862	14518
856.996	14450
857.13	14415
857.263	14450
857.397	14537
857.53	14370
857.664	14438
857.797	14454
857.931	14514
858.064	14454
858.197	14434
858.331	14336
858.464	14389
858.597	14263
858.731	14298
858.864	14358
858.997	14298
859.13	14514
859.263	14442
859.396	14343
859.529	14355
859.662	14290
859.795	14328
859.928	14358
860.061	14537
860.194	14564
860.327	14431
860.46	14294
860.592	14438
860.725	14522
860.858	14518
860.99	14374
861.123	14347
861.256	14229
861.388	14381
861.521	15077
861.653	14309
861.786	14195
861.918	14267
862.05	14237
862.183	14183
862.315	14336
862.447	14351
862.58	14263
862.712	14199
862.844	14073
862.976	14180
863.108	14176
863.24	14518
863.372	14176
863.504	14081
863.636	14084
863.768	14206
863.9	14126
864.032	14073
864.164	14065
864.296	14111
864.428	14252
864.559	14248
864.691	14202
864.823	14134
864.954	14134
865.086	14130
865.217	14062
865.349	14084
865.48	14062
865.612	14145
865.743	14237
865.875	14225
866.006	14058
866.137	14164
866.269	14100
866.4	14081
866.531	14096
866.662	14084
866.793	14077
866.924	14054
867.055	14176
867.186	14077
867.317	14077
867.448	14027
867.579	14024
867.71	14058
867.841	13982
867.972	14142
868.103	14100
868.233	14149
868.364	14134
868.495	14157
868.625	14298
868.756	14393
868.886	14320
869.017	14332
869.147	14499
869.278	14499
869.408	14514
869.539	14374
869.669	14518
869.799	14400
869.929	14454
870.06	14492
870.19	14693
870.32	14640
870.45	14693
870.58	14838
870.71	14826
870.84	14838
870.97	14727
871.1	14735
871.23	14876
871.36	15043
871.489	14796
871.619	14895
871.749	14944
871.879	15017
872.008	15058
872.138	14952
872.267	14883
872.397	14807
872.526	14883
872.656	14815
872.785	14708
872.915	14979
873.044	15062
873.173	15005
873.303	15047
873.432	15066
873.561	15077
873.69	14971
873.819	15001
873.948	15039
874.077	15085
874.206	15017
874.335	15043
874.464	15127
874.593	15268
874.722	15275
874.851	15344
874.979	15370
875.108	15340
875.237	15226
875.365	15233
875.494	15256
875.623	15359
875.751	15370
875.88	15359
876.008	15420
876.136	15610
876.265	15728
876.393	15915
876.521	15827
876.65	15781
876.778	15724
876.906	15732
877.034	15675
877.162	15728
877.29	15717
877.418	15778
877.546	15713
877.674	15671
877.802	15694
877.93	15739
878.058	15629
878.185	15641
878.313	15869
878.441	15766
878.568	15545
878.696	15614
878.824	15781
878.951	15838
879.079	15884
879.206	16120
879.333	15842
879.461	15778
879.588	15903
879.715	15926
879.842	16071
879.97	15770
880.097	15622
880.224	15507
880.351	15701
880.478	15625
880.605	15637
880.732	15519
880.859	15778
880.986	15698
881.112	15450
881.239	15492
881.366	15424
881.493	15310
881.619	15203
881.746	15249
881.872	15329
881.999	15199
882.125	15203
882.252	15275
882.378	15214
882.505	15405
882.631	15165
882.757	15036
882.883	15085
883.01	15070
883.136	15089
883.262	14902
883.388	14830
883.514	15275
883.64	15066
883.766	14990
883.892	14872
884.018	14906
884.143	15017
884.269	15093
884.395	14781
884.52	14579
884.646	14724
884.772	14678
884.897	14682
885.023	14682
885.148	14872
885.274	14960
885.399	14830
885.524	14830
885.65	14731
885.775	14792
885.9	14731
886.025	14807
886.15	14811
886.275	14701
886.4	14644
886.525	14689
886.65	14731
886.775	14670
886.9	14807
887.025	14994
887.149	14746
887.274	14613
887.399	14556
887.523	14522
887.648	14507
887.773	14526
887.897	14724
888.021	14571
888.146	14648
888.27	14602
888.395	14678
888.519	14674
888.643	14629
888.767	14629
888.891	14602
889.015	14511
889.139	14492
889.263	14446
889.387	14613
889.511	14708
889.635	14651
889.759	14377
889.883	14351
890.006	14389
890.13	14514
890.254	14374
890.377	14427
890.501	14305
890.624	14157
890.748	14313
890.871	14172
890.995	14103
891.118	14054
891.241	14187
891.364	14126
891.488	14206
891.611	14229
891.734	14168
891.857	14199
891.98	14168
892.103	14256
892.226	14134
892.349	14126
892.471	14035
892.594	14153
892.717	14111
892.839	14244
892.962	14145
893.085	14210
893.207	14130
893.33	14092
893.452	14043
893.575	14244
893.697	14126
893.819	14328
893.941	14412
894.064	14362
894.186	14183
894.308	14206
894.43	14218
894.552	14385
894.674	14271
894.796	14134
894.918	14229
895.04	14168
895.161	14374
895.283	14256
895.405	14199
895.526	14256
895.648	14256
895.769	14286
895.891	14278
896.012	14408
896.134	14290
896.255	14256
896.376	14355
896.498	14290
896.619	14366
896.74	14275
896.861	14400
896.982	14682
897.103	14853
897.224	14636
897.345	14434
897.466	14450
897.587	14541
897.708	14705
897.828	14621
897.949	14560
898.07	14469
898.19	14522
898.311	14739
898.431	14545
898.552	14663
898.672	14716
898.792	14804
898.913	14674
899.033	14537
899.153	14503
899.273	14446
899.393	14545
899.513	14438
899.633	14552
899.753	14514
899.873	14522
899.993	14571
900.113	14564
900.232	14552
900.352	14480
900.472	14507
900.591	14328
900.711	14473
900.83	14351
900.95	14431
901.069	14518
901.189	14336
901.308	14050
901.427	14027
901.546	14031
901.665	14062
901.784	14149
901.904	13845
902.023	13887
902.141	13727
902.26	13658
902.379	13772
902.498	13590
902.617	13506
902.735	13636
902.854	13632
902.973	13544
903.091	13320
903.21	13327
903.328	13259
903.446	13301
903.565	13266
903.683	13202
903.801	13122
903.919	13209
904.038	13217
904.156	12962
904.274	13076
904.392	12993
904.51	13000
904.627	13027
904.745	13038
904.863	13179
904.981	12867
905.098	12696
905.216	12749
905.334	12734
905.451	12730
905.569	12741
905.686	12798
905.803	12738
905.921	12525
906.038	12673
906.155	12532
906.272	12418
906.389	12471
906.506	12262
906.623	12262
906.74	12277
906.857	12209
906.974	12220
907.091	12399
907.208	12407
907.324	12315
907.441	12273
907.557	12095
907.674	12076
907.79	11958
907.907	12079
908.023	12053
908.139	12026
908.256	11965
908.372	11980
908.488	11923
908.604	11950
908.72	11798
908.836	11828
908.952	11805
909.068	11874
909.184	11939
909.3	11904
909.415	11897
909.531	11851
909.647	11653
909.762	11592
909.878	11512
909.993	11619
910.108	11600
910.224	11554
910.339	11710
910.454	11474
910.57	11440
910.685	11334
910.8	11661
910.915	11638
911.03	11490
911.145	11288
911.259	11436
911.374	11345
911.489	11174
911.604	11258
911.718	11155
911.833	11090
911.947	10972
912.062	10858
912.176	11014
912.291	11086
912.405	11064
912.519	11231
912.633	11296
912.748	11098
912.862	11029
912.976	11014
913.09	10801
913.204	10938
913.318	10889
913.431	10995
913.545	10995
913.659	11109
913.772	10942
913.886	10797
914	10763
914.113	10850
914.226	10953
914.34	10881
914.453	10771
914.566	10938
914.68	10752
914.793	10740
914.906	10588
915.019	10546
915.132	10493
915.245	10481
915.358	10618
915.47	10596
915.583	10516
915.696	10565
915.809	10687
915.921	10702
916.034	10542
916.146	10508
916.259	10421
916.371	10656
916.483	10653
916.595	10443
916.708	10519
916.82	10466
916.932	10466
917.044	10409
917.156	10462
917.268	10386
917.38	10409
917.491	10375
917.603	10440
917.715	10481
917.826	10493
917.938	10379
918.049	10306
918.161	10382
918.272	10508
918.384	10485
918.495	10405
918.606	10257
918.717	10287
918.828	10272
918.939	10402
919.05	10227
919.161	10242
919.272	10074
919.383	10086
919.494	10253
919.604	10523
919.715	10329
919.826	10188
919.936	10242
920.047	10360
920.157	10367
920.267	10455
920.378	10310
920.488	10386
920.598	10390
920.708	10660
920.818	10569
920.928	10493
921.038	10668
921.148	10664
921.258	10306
921.368	10238
921.477	10169
921.587	10177
921.697	10036
921.806	10139
921.916	10044
922.025	9960
922.134	9751
922.244	9812
922.353	9945
922.462	9698
922.571	9656
922.68	9511
922.789	9469
922.898	9553
923.007	9454
923.116	9511
923.224	9523
923.333	9473
923.442	9488
923.55	9435
923.659	9401
923.767	9504
923.876	9401
923.984	9488
924.092	9336
924.201	9405
924.309	9329
924.417	9348
924.525	9332
924.633	9279
924.741	10253
924.849	9157
924.956	9359
925.064	9199
925.172	9108
925.279	9089
925.387	9195
925.494	9203
925.602	9340
925.709	9241
925.816	9097
925.924	9169
926.031	9306
926.138	9165
926.245	9165
926.352	9089
926.459	9294
926.566	9275
926.673	9127
926.779	9017
926.886	9039
926.993	8891
927.099	8902
927.206	8895
927.312	8834
927.419	8914
927.525	8906
927.631	8952
927.737	8792
927.843	8804
927.95	8640
928.056	8739
928.162	8773
928.267	8823
928.373	9466
928.479	8838
928.585	8678
928.69	8777
928.796	8815
928.901	8720
929.007	8594
929.112	8708
929.218	8674
929.323	8602
929.428	8594
929.533	8739
929.638	8560
929.743	8613
929.848	8636
929.953	8564
930.058	8499
930.163	8412
930.267	8393
930.372	8511
930.477	8370
930.581	8640
930.685	8469
930.79	8320
930.894	8328
930.998	8263
931.103	8511
931.207	8111
931.311	8020
931.415	8012
931.519	7833
931.623	7814
