Data from test_V78500241_3384.txt Node
Date: Fri Mar 25 14:57:16 CST 2022
User: usil
Spectrometer: V785-0024
Trigger mode: 0
Integration Time (sec): 4.000000E-1
Scans to average: 1
Nonlinearity correction enabled: false
Boxcar width: 0
Storing dark spectrum: false
XAxis mode: Wavelengths
Number of Pixels in Spectrum: 1024
>>>>>Begin Spectral Data<<<<<
801.071	22013
801.214	21804
801.356	21534
801.499	21507
801.641	21302
801.783	21260
801.926	21332
802.068	21226
802.211	21085
802.353	21096
802.496	20902
802.638	20674
802.78	20735
802.923	20735
803.065	20587
803.208	20488
803.35	20708
803.492	20708
803.635	20765
803.777	20579
803.919	20777
804.061	21036
804.204	20758
804.346	20522
804.488	20526
804.63	20667
804.773	20465
804.915	20530
805.057	20594
805.199	20545
805.341	20575
805.483	20541
805.626	20473
805.768	20465
805.91	20560
806.052	20556
806.194	20454
806.336	20640
806.478	20492
806.62	20450
806.762	20545
806.904	20701
807.046	21001
807.188	20868
807.33	20883
807.472	20933
807.614	20823
807.756	20800
807.898	20571
808.04	20552
808.182	20617
808.324	20571
808.465	20575
808.607	20781
808.749	20811
808.891	21062
809.033	20986
809.174	20899
809.316	20864
809.458	20880
809.6	20697
809.741	20895
809.883	21005
810.025	21024
810.166	20986
810.308	21085
810.45	21039
810.591	20921
810.733	20735
810.875	20648
811.016	20598
811.158	20560
811.299	20651
811.441	20750
811.582	20796
811.724	20621
811.865	20590
812.007	20587
812.148	20632
812.29	20686
812.431	20785
812.573	20853
812.714	21017
812.855	21085
812.997	21294
813.138	21260
813.279	21226
813.421	21150
813.562	20963
813.703	20849
813.845	20895
813.986	20507
814.127	20328
814.268	20256
814.41	20069
814.551	20088
814.692	20176
814.833	20145
814.974	20172
815.115	20088
815.256	19978
815.397	19967
815.539	19974
815.68	19913
815.821	19940
815.962	19864
816.103	19826
816.244	19750
816.385	19639
816.526	19693
816.666	19483
816.807	19346
816.948	19457
817.089	19491
817.23	19411
817.371	19209
817.512	19198
817.653	19247
817.793	19198
817.934	19247
818.075	19301
818.216	19175
818.356	19369
818.497	19145
818.638	18954
818.778	18905
818.919	19031
819.06	19118
819.2	19099
819.341	19168
819.481	19156
819.622	19266
819.762	19502
819.903	19381
820.043	19228
820.184	19236
820.324	19362
820.465	19312
820.605	19270
820.746	19324
820.886	19221
821.026	19198
821.167	19225
821.307	19381
821.447	19244
821.588	19080
821.728	18954
821.868	18821
822.008	18734
822.149	18719
822.289	18620
822.429	18502
822.569	18395
822.709	18445
822.849	18228
822.99	18243
823.13	18140
823.27	18114
823.41	18030
823.55	17874
823.69	18045
823.83	18026
823.97	17908
824.11	17710
824.25	17695
824.389	17771
824.529	17874
824.669	17726
824.809	17889
824.949	17866
825.089	17817
825.228	17817
825.368	17528
825.508	17509
825.648	17532
825.787	17524
825.927	17539
826.067	17516
826.206	17543
826.346	17554
826.485	17547
826.625	17630
826.765	17726
826.904	17551
827.044	17296
827.183	17178
827.323	17269
827.462	17322
827.601	17250
827.741	17261
827.88	17277
828.02	17090
828.159	17181
828.298	17227
828.437	17220
828.577	17231
828.716	17273
828.855	17212
828.994	17086
829.134	17029
829.273	16900
829.412	17003
829.551	16961
829.69	16946
829.829	16987
829.968	17109
830.107	17037
830.246	16987
830.385	16908
830.524	16869
830.663	16729
830.802	16733
830.941	16744
831.08	16508
831.219	16729
831.357	16698
831.496	16828
831.635	16645
831.774	16615
831.913	16569
832.051	16356
832.19	16421
832.329	16455
832.467	16398
832.606	16272
832.744	16249
832.883	16272
833.022	16322
833.16	16329
833.299	16398
833.437	16398
833.576	16390
833.714	16348
833.852	16386
833.991	16478
834.129	16424
834.267	16413
834.406	16348
834.544	16371
834.682	16386
834.821	16382
834.959	16485
835.097	16314
835.235	16489
835.373	16481
835.511	16421
835.65	16261
835.788	16348
835.926	16223
836.064	16074
836.202	16086
836.34	16249
836.478	16478
836.615	16291
836.753	16333
836.891	16402
837.029	16272
837.167	16230
837.305	16181
837.443	16215
837.58	16120
837.718	16405
837.856	16131
837.993	16131
838.131	16105
838.269	16040
838.406	16082
838.544	16147
838.681	15869
838.819	15892
838.956	15797
839.094	15709
839.231	15724
839.369	15812
839.506	16188
839.643	16071
839.781	15713
839.918	15705
840.055	15774
840.193	15667
840.33	15736
840.467	15675
840.604	15762
840.742	15949
840.879	15591
841.016	15686
841.153	15667
841.29	15907
841.427	15755
841.564	15846
841.701	15804
841.838	15739
841.975	15652
842.112	15606
842.249	15599
842.385	15549
842.522	15629
842.659	15557
842.796	15557
842.933	15599
843.069	15488
843.206	15473
843.343	15545
843.479	15625
843.616	15477
843.752	15252
843.889	15355
844.025	15507
844.162	15237
844.298	15447
844.435	15214
844.571	15317
844.708	15336
844.844	15424
844.98	15561
845.117	15420
845.253	15310
845.389	15207
845.525	15230
845.661	15226
845.798	15066
845.934	15123
846.07	15043
846.206	15142
846.342	15237
846.478	15157
846.614	14960
846.75	14743
846.886	14895
847.022	14986
847.158	14941
847.294	14914
847.429	14891
847.565	14880
847.701	15195
847.837	14632
847.972	14606
848.108	14785
848.244	14735
848.379	14511
848.515	14427
848.65	14431
848.786	14450
848.921	14446
849.057	14610
849.192	14625
849.328	14450
849.463	14514
849.598	14495
849.734	14457
849.869	14446
850.004	14339
850.14	14442
850.275	14233
850.41	14145
850.545	14275
850.68	14298
850.815	14301
850.95	14240
851.085	14427
851.22	14286
851.355	14263
851.49	14214
851.625	14237
851.76	14195
851.895	14138
852.03	14202
852.165	14206
852.299	14267
852.434	14320
852.569	14294
852.703	14305
852.838	14309
852.973	14351
853.107	14320
853.242	14229
853.376	14081
853.511	14027
853.645	14096
853.78	14240
853.914	14119
854.048	14088
854.183	14199
854.317	14039
854.451	14339
854.585	14031
854.72	14142
854.854	14111
854.988	14073
855.122	14081
855.256	14062
855.39	14138
855.524	14267
855.658	14237
855.792	14115
855.926	14092
856.06	14210
856.194	14229
856.327	14050
856.461	14020
856.595	14130
856.729	14119
856.862	14278
856.996	14134
857.13	14191
857.263	14320
857.397	14218
857.53	14191
857.664	14225
857.797	14176
857.931	14305
858.064	14290
858.197	14214
858.331	14180
858.464	14123
858.597	13989
858.731	14123
858.864	14138
858.997	14111
859.13	14100
859.263	14126
859.396	14176
859.529	14157
859.662	14084
859.795	14134
859.928	14305
860.061	14301
860.194	14301
860.327	14103
860.46	14138
860.592	14248
860.725	14343
860.858	14244
860.99	14195
861.123	14134
861.256	14012
861.388	14123
861.521	14963
861.653	14039
861.786	14008
861.918	14035
862.05	14046
862.183	14077
862.315	14130
862.447	14252
862.58	13974
862.712	13974
862.844	13837
862.976	13940
863.108	13974
863.24	14366
863.372	13860
863.504	13860
863.636	13963
863.768	13986
863.9	13864
864.032	13921
864.164	13936
864.296	13986
864.428	14005
864.559	13947
864.691	14058
864.823	13989
864.954	13913
865.086	13928
865.217	13913
865.349	13868
865.48	13871
865.612	13868
865.743	14069
865.875	13890
866.006	13879
866.137	13940
866.269	13879
866.4	14001
866.531	13906
866.662	13883
866.793	13811
866.924	13818
867.055	13932
867.186	13894
867.317	13830
867.448	13826
867.579	13791
867.71	13772
867.841	13875
867.972	13807
868.103	13887
868.233	13951
868.364	13936
868.495	13959
868.625	14084
868.756	14233
868.886	14103
869.017	14195
869.147	14183
869.278	14301
869.408	14263
869.539	14119
869.669	14259
869.799	14218
869.929	14267
870.06	14149
870.19	14560
870.32	14511
870.45	14450
870.58	14526
870.71	14651
870.84	14644
870.97	14488
871.1	14556
871.23	14708
871.36	14777
871.489	14598
871.619	14659
871.749	14750
871.879	14826
872.008	14883
872.138	14758
872.267	14739
872.397	14602
872.526	14484
872.656	14632
872.785	14480
872.915	14765
873.044	14887
873.173	14727
873.303	14853
873.432	14864
873.561	14880
873.69	14750
873.819	14724
873.948	14941
874.077	14864
874.206	14849
874.335	14727
874.464	14910
874.593	15001
874.722	14982
874.851	15135
874.979	15127
875.108	15066
875.237	15093
875.365	15062
875.494	15142
875.623	15211
875.751	15024
875.88	15176
876.008	15310
876.136	15370
876.265	15637
876.393	15576
876.521	15625
876.65	15584
876.778	15610
876.906	15450
877.034	15428
877.162	15496
877.29	15386
877.418	15443
877.546	15580
877.674	15591
877.802	15538
877.93	15519
878.058	15564
878.185	15374
878.313	15564
878.441	15473
878.568	15420
878.696	15488
878.824	15561
878.951	15599
879.079	15686
879.206	15873
879.333	15549
879.461	15580
879.588	15720
879.715	15751
879.842	15774
879.97	15663
880.097	15348
880.224	15507
880.351	15302
880.478	15428
880.605	15454
880.732	15329
880.859	15663
880.986	15435
881.112	15504
881.239	15222
881.366	15211
881.493	15100
881.619	15013
881.746	15112
881.872	15032
881.999	15017
882.125	14994
882.252	15104
882.378	15135
882.505	15184
882.631	14994
882.757	14876
882.883	14952
883.01	14880
883.136	14777
883.262	14777
883.388	14655
883.514	14830
883.64	14842
883.766	14815
883.892	14830
884.018	14720
884.143	14883
884.269	15043
884.395	14613
884.52	14568
884.646	14556
884.772	14476
884.897	14404
885.023	14602
885.148	14670
885.274	14739
885.399	14785
885.524	14598
885.65	14541
885.775	14552
885.9	14511
886.025	14701
886.15	14602
886.275	14492
886.4	14480
886.525	14503
886.65	14442
886.775	14606
886.9	14659
887.025	14815
887.149	14613
887.274	14385
887.399	14351
887.523	14415
887.648	14366
887.773	14278
887.897	14415
888.021	14385
888.146	14438
888.27	14476
888.395	14564
888.519	14446
888.643	14438
888.767	14480
888.891	14206
889.015	14256
889.139	14320
889.263	14252
889.387	14434
889.511	14480
889.635	14423
889.759	14214
889.883	14218
890.006	14328
890.13	14431
890.254	14202
890.377	14244
890.501	14218
890.624	14183
890.748	14100
890.871	13932
890.995	13868
891.118	13932
891.241	13944
891.364	14024
891.488	14115
891.611	13974
891.734	13989
891.857	14084
891.98	13974
892.103	14012
892.226	13970
892.349	13940
892.471	13887
892.594	14012
892.717	13974
892.839	13940
892.962	13944
893.085	14065
893.207	14012
893.33	13902
893.452	13871
893.575	14008
893.697	14039
893.819	14176
893.941	14210
894.064	14157
894.186	13936
894.308	13959
894.43	14115
894.552	14172
894.674	14065
894.796	13947
894.918	14077
895.04	14016
895.161	14187
895.283	14180
895.405	14005
895.526	14031
895.648	14103
895.769	14153
895.891	14096
896.012	14237
896.134	14237
896.255	14248
896.376	14168
896.498	14248
896.619	14221
896.74	14103
896.861	14138
896.982	14533
897.103	14644
897.224	14442
897.345	14381
897.466	14347
897.587	14454
897.708	14629
897.828	14480
897.949	14351
898.07	14298
898.19	14412
898.311	14533
898.431	14404
898.552	14556
898.672	14640
898.792	14579
898.913	14636
899.033	14355
899.153	14313
899.273	14259
899.393	14408
899.513	14317
899.633	14328
899.753	14343
899.873	14271
899.993	14393
900.113	14400
900.232	14480
900.352	14339
900.472	14256
900.591	14145
900.711	14244
900.83	14153
900.95	14286
901.069	14301
901.189	14157
901.308	13944
901.427	13765
901.546	13849
901.665	13807
901.784	13944
901.904	13757
902.023	13662
902.141	13502
902.26	13445
902.379	13605
902.498	13521
902.617	13411
902.735	13548
902.854	13468
902.973	13369
903.091	13171
903.21	13270
903.328	13187
903.446	13122
903.565	13008
903.683	12928
903.801	12901
903.919	13042
904.038	12993
904.156	12798
904.274	12932
904.392	12852
904.51	12867
904.627	12787
904.745	13031
904.863	12894
904.981	12616
905.098	12555
905.216	12566
905.334	12521
905.451	12502
905.569	12490
905.686	12555
905.803	12498
905.921	12353
906.038	12456
906.155	12410
906.272	12258
906.389	12304
906.506	12235
906.623	12224
906.74	12163
906.857	12026
906.974	12076
907.091	12182
907.208	12213
907.324	12167
907.441	12064
907.557	11954
907.674	11847
907.79	11817
907.907	11851
908.023	11939
908.139	11863
908.256	11889
908.372	11847
908.488	11809
908.604	11703
908.72	11589
908.836	11707
908.952	11649
909.068	11653
909.184	11828
909.3	11726
909.415	11729
909.531	11714
909.647	11482
909.762	11387
909.878	11436
909.993	11414
910.108	11368
910.224	11440
910.339	11433
910.454	11356
910.57	11239
910.685	11258
910.8	11532
910.915	11459
911.03	11315
911.145	11151
911.259	11151
911.374	11102
911.489	11052
911.604	10930
911.718	10820
911.833	10885
911.947	10839
912.062	10698
912.176	10889
912.291	10889
912.405	10961
912.519	11109
912.633	11136
912.748	10911
912.862	10869
912.976	10740
913.09	10694
913.204	10725
913.318	10740
913.431	10854
913.545	10881
913.659	10854
913.772	10759
913.886	10675
914	10675
914.113	10801
914.226	10790
914.34	10706
914.453	10584
914.566	10706
914.68	10519
914.793	10622
914.906	10470
915.019	10348
915.132	10287
915.245	10413
915.358	10341
915.47	10432
915.583	10382
915.696	10394
915.809	10485
915.921	10538
916.034	10382
916.146	10402
916.259	10394
916.371	10417
916.483	10432
916.595	10314
916.708	10352
916.82	10382
916.932	10325
917.044	10329
917.156	10310
917.268	10196
917.38	10234
917.491	10158
917.603	10261
917.715	10344
917.826	10398
917.938	10204
918.049	10173
918.161	10287
918.272	10424
918.384	10325
918.495	10314
918.606	10124
918.717	10036
918.828	10135
918.939	10227
919.05	10063
919.161	10044
919.272	9945
919.383	9922
919.494	10185
919.604	10367
919.715	10181
919.826	10112
919.936	10105
920.047	10291
920.157	10185
920.267	10276
920.378	10227
920.488	10177
920.598	10405
920.708	10519
920.818	10310
920.928	10367
921.038	10455
921.148	10394
921.258	10215
921.368	10150
921.477	9987
921.587	9979
921.697	9808
921.806	10063
921.916	9854
922.025	9728
922.134	9690
922.244	9656
922.353	9728
922.462	9564
922.571	9458
922.68	9378
922.789	9393
922.898	9332
923.007	9298
923.116	9500
923.224	9348
923.333	9374
923.442	9249
923.55	9298
923.659	9310
923.767	9363
923.876	9211
923.984	9287
924.092	9188
924.201	9313
924.309	9268
924.417	9287
924.525	9173
924.633	9184
924.741	10154
924.849	9001
924.956	9123
925.064	9009
925.172	8941
925.279	9036
925.387	9066
925.494	9013
925.602	9241
925.709	9138
925.816	9005
925.924	9020
926.031	9169
926.138	9020
926.245	9108
926.352	8944
926.459	9055
926.566	9199
926.673	9104
926.779	8910
926.886	8914
926.993	8811
927.099	8773
927.206	8667
927.312	8617
927.419	8785
927.525	8826
927.631	8762
927.737	8739
927.843	8621
927.95	8587
928.056	8651
928.162	8655
928.267	8659
928.373	9302
928.479	8735
928.585	8507
928.69	8670
928.796	8788
928.901	8530
929.007	8408
929.112	8625
929.218	8556
929.323	8484
929.428	8431
929.533	8617
929.638	8465
929.743	8442
929.848	8514
929.953	8404
930.058	8385
930.163	8237
930.267	8271
930.372	8366
930.477	8199
930.581	8488
930.685	8290
930.79	8145
930.894	8180
930.998	8123
931.103	8309
931.207	8050
931.311	7871
931.415	7852
931.519	7719
931.623	7757
