Data from test_V78500241_863.txt Node
Date: Fri Mar 25 14:39:43 CST 2022
User: usil
Spectrometer: V785-0024
Trigger mode: 0
Integration Time (sec): 4.000000E-1
Scans to average: 1
Nonlinearity correction enabled: false
Boxcar width: 0
Storing dark spectrum: false
XAxis mode: Wavelengths
Number of Pixels in Spectrum: 1024
>>>>>Begin Spectral Data<<<<<
801.071	25708
801.214	25689
801.356	25403
801.499	25434
801.641	25164
801.783	25000
801.926	25228
802.068	24890
802.211	24894
802.353	24970
802.496	24688
802.638	24498
802.78	24517
802.923	24357
803.065	24376
803.208	24448
803.35	24486
803.492	24498
803.635	24730
803.777	24627
803.919	24540
804.061	24791
804.204	24661
804.346	24528
804.488	24464
804.63	24483
804.773	24410
804.915	24612
805.057	24821
805.199	24544
805.341	24700
805.483	24924
805.626	24768
805.768	24924
805.91	24825
806.052	24905
806.194	24989
806.336	25331
806.478	25091
806.62	25202
806.762	25426
806.904	25616
807.046	26054
807.188	25970
807.33	26267
807.472	26571
807.614	26819
807.756	26998
807.898	27644
808.04	28234
808.182	29094
808.324	30247
808.465	31635
808.607	33077
808.749	34386
808.891	35345
809.033	35372
809.174	34215
809.316	33096
809.458	31586
809.6	29954
809.741	29014
809.883	28082
810.025	27572
810.166	27169
810.308	26823
810.45	26423
810.591	26096
810.733	25841
810.875	25582
811.016	25468
811.158	25331
811.299	25373
811.441	25346
811.582	25293
811.724	25293
811.865	25160
812.007	24962
812.148	25122
812.29	25187
812.431	25198
812.573	25240
812.714	25312
812.855	25502
812.997	25434
813.138	25708
813.279	25548
813.421	25274
813.562	25259
813.703	25069
813.845	24920
813.986	24540
814.127	24517
814.268	24289
814.41	24289
814.551	24376
814.692	24407
814.833	24281
814.974	24292
815.115	24251
815.256	24087
815.397	24102
815.539	24053
815.68	23996
815.821	23950
815.962	23988
816.103	23817
816.244	23615
816.385	23752
816.526	23657
816.666	23398
816.807	23261
816.948	23414
817.089	23315
817.23	23391
817.371	23280
817.512	23296
817.653	23265
817.793	23109
817.934	23174
818.075	23280
818.216	23162
818.356	23223
818.497	23064
818.638	22984
818.778	22987
818.919	23052
819.06	22965
819.2	23117
819.341	23064
819.481	23044
819.622	23204
819.762	23372
819.903	23410
820.043	23356
820.184	23250
820.324	23140
820.465	23216
820.605	23155
820.746	23143
820.886	22957
821.026	23025
821.167	23067
821.307	23151
821.447	23075
821.588	22892
821.728	22862
821.868	22607
822.008	22440
822.149	22489
822.289	22356
822.429	22211
822.569	22192
822.709	22112
822.849	21949
822.99	21903
823.13	21846
823.27	21880
823.41	21800
823.55	21576
823.69	21732
823.83	21736
823.97	21606
824.11	21370
824.25	21408
824.389	21504
824.529	21450
824.669	21454
824.809	21618
824.949	21580
825.089	21545
825.228	21530
825.368	21256
825.508	21275
825.648	21348
825.787	21313
825.927	21359
826.067	21104
826.206	21230
826.346	21176
826.485	21249
826.625	21275
826.765	21268
826.904	21298
827.044	21077
827.183	20990
827.323	20910
827.462	20982
827.601	20895
827.741	20872
827.88	20857
828.02	20899
828.159	20830
828.298	20925
828.437	20895
828.577	20838
828.716	21203
828.855	20762
828.994	20579
829.134	20701
829.273	20602
829.412	20541
829.551	20629
829.69	20682
829.829	20499
829.968	20701
830.107	20602
830.246	20545
830.385	20503
830.524	20434
830.663	20438
830.802	20343
830.941	20149
831.08	20142
831.219	20263
831.357	20195
831.496	20358
831.635	20229
831.774	20130
831.913	20111
832.051	20035
832.19	20031
832.329	20039
832.467	19963
832.606	19925
832.744	19925
832.883	19951
833.022	20012
833.16	20062
833.299	20115
833.437	20126
833.576	20183
833.714	20259
833.852	20381
833.991	20317
834.129	20385
834.267	20640
834.406	20400
834.544	20347
834.682	20256
834.821	20126
834.959	20343
835.097	20081
835.235	20210
835.373	20069
835.511	20073
835.65	19894
835.788	19719
835.926	19685
836.064	19525
836.202	19556
836.34	19860
836.478	19807
836.615	19601
836.753	19681
836.891	19803
837.029	19712
837.167	19666
837.305	19639
837.443	19655
837.58	19506
837.718	19476
837.856	19510
837.993	19445
838.131	19476
838.269	19578
838.406	19438
838.544	19400
838.681	19171
838.819	19202
838.956	19069
839.094	19004
839.231	19190
839.369	19175
839.506	19449
839.643	19293
839.781	19042
839.918	18928
840.055	19004
840.193	18913
840.33	18913
840.467	18973
840.604	19046
840.742	19259
840.879	18791
841.016	18859
841.153	18856
841.29	19091
841.427	19027
841.564	18977
841.701	19019
841.838	18840
841.975	18875
842.112	18833
842.249	18681
842.385	18719
842.522	18913
842.659	18722
842.796	18753
842.933	18673
843.069	18749
843.206	18814
843.343	18779
843.479	18798
843.616	18791
843.752	18589
843.889	18528
844.025	18833
844.162	18631
844.298	18798
844.435	18711
844.571	18764
844.708	19266
844.844	19266
844.98	19354
845.117	19624
845.253	19902
845.389	20564
845.525	22078
845.661	24224
845.798	27329
845.934	29627
846.07	30574
846.206	30152
846.342	28504
846.478	25392
846.614	22736
846.75	20861
846.886	19944
847.022	19514
847.158	18932
847.294	18612
847.429	18475
847.565	18308
847.701	18525
847.837	17912
847.972	17958
848.108	18098
848.244	17897
848.379	17760
848.515	17600
848.65	17718
848.786	17570
848.921	17699
849.057	17821
849.192	17752
849.328	17661
849.463	17596
849.598	17478
849.734	17486
849.869	17440
850.004	17448
850.14	17341
850.275	17395
850.41	17330
850.545	17284
850.68	17299
850.815	17318
850.95	17372
851.085	17528
851.22	17345
851.355	17364
851.49	17242
851.625	17265
851.76	17284
851.895	17269
852.03	17220
852.165	17254
852.299	17474
852.434	17463
852.569	17383
852.703	17414
852.838	17398
852.973	17520
853.107	17459
853.242	17330
853.376	17273
853.511	17269
853.645	17277
853.78	17349
853.914	17345
854.048	17322
854.183	17258
854.317	17334
854.451	17532
854.585	17330
854.72	17334
854.854	17334
854.988	17269
855.122	17345
855.256	17193
855.39	17288
855.524	17368
855.658	17254
855.792	17246
855.926	17220
856.06	17265
856.194	17212
856.327	17254
856.461	17098
856.595	17071
856.729	17155
856.862	17269
856.996	17265
857.13	17121
857.263	17349
857.397	17299
857.53	17147
857.664	17246
857.797	17235
857.931	17235
858.064	17162
858.197	17212
858.331	17086
858.464	16999
858.597	17006
858.731	17132
858.864	17037
858.997	17098
859.13	17094
859.263	17045
859.396	17212
859.529	17124
859.662	17075
859.795	17025
859.928	17060
860.061	17200
860.194	17220
860.327	17102
860.46	16938
860.592	17204
860.725	17216
860.858	17261
860.99	17067
861.123	16896
861.256	16961
861.388	17185
861.521	17748
861.653	16904
861.786	16889
861.918	16877
862.05	16976
862.183	17060
862.315	17159
862.447	17143
862.58	16949
862.712	16915
862.844	16767
862.976	16869
863.108	16885
863.24	17109
863.372	16767
863.504	16809
863.636	16786
863.768	16873
863.9	16850
864.032	16710
864.164	16831
864.296	16839
864.428	16831
864.559	16831
864.691	16866
864.823	16869
864.954	16816
865.086	16717
865.217	16744
865.349	16641
865.48	16790
865.612	16778
865.743	16820
865.875	16759
866.006	16752
866.137	16755
866.269	16698
866.4	16694
866.531	16713
866.662	16736
866.793	16656
866.924	16679
867.055	16797
867.186	16740
867.317	16675
867.448	16691
867.579	16645
867.71	16565
867.841	16622
867.972	16691
868.103	16702
868.233	16721
868.364	16740
868.495	16843
868.625	16961
868.756	16968
868.886	16850
869.017	16942
869.147	17045
869.278	17121
869.408	16938
869.539	16991
869.669	17052
869.799	16968
869.929	17113
870.06	17124
870.19	17322
870.32	17242
870.45	17402
870.58	17398
870.71	17452
870.84	17509
870.97	17341
871.1	17387
871.23	17497
871.36	17547
871.489	17395
871.619	17482
871.749	17520
871.879	17627
872.008	17752
872.138	17680
872.267	17615
872.397	17433
872.526	17448
872.656	17421
872.785	17444
872.915	17630
873.044	17764
873.173	17741
873.303	17760
873.432	17630
873.561	17855
873.69	17680
873.819	17710
873.948	17767
874.077	17767
874.206	17821
874.335	17767
874.464	17969
874.593	18072
874.722	18060
874.851	18136
874.979	18102
875.108	18121
875.237	18125
875.365	18133
875.494	18110
875.623	18239
875.751	18110
875.88	18247
876.008	18353
876.136	18403
876.265	18738
876.393	18821
876.521	18745
876.65	18886
876.778	18821
876.906	18783
877.034	18791
877.162	18859
877.29	18802
877.418	18905
877.546	18951
877.674	18954
877.802	19031
877.93	19088
878.058	19148
878.185	19171
878.313	19384
878.441	19582
878.568	19540
878.696	19772
878.824	20271
878.951	20777
879.079	21447
879.206	22607
879.333	23303
879.461	24038
879.588	24475
879.715	24669
879.842	24330
879.97	23223
880.097	22299
880.224	21485
880.351	20963
880.478	20606
880.605	20355
880.732	20134
880.859	20286
880.986	20084
881.112	20020
881.239	19845
881.366	19738
881.493	19776
881.619	19628
881.746	19590
881.872	19647
881.999	19651
882.125	19552
882.252	19753
882.378	19696
882.505	19803
882.631	19628
882.757	19578
882.883	19575
883.01	19449
883.136	19460
883.262	19457
883.388	19426
883.514	19472
883.64	19502
883.766	19464
883.892	19327
884.018	19255
884.143	19392
884.269	19525
884.395	19126
884.52	19110
884.646	19133
884.772	19213
884.897	19099
885.023	19145
885.148	19213
885.274	19179
885.399	19160
885.524	18985
885.65	19034
885.775	18973
885.9	18840
886.025	18897
886.15	18878
886.275	18669
886.4	18589
886.525	18696
886.65	18604
886.775	18433
886.9	18555
887.025	18627
887.149	18380
887.274	18133
887.399	18007
887.523	18117
887.648	18007
887.773	17904
887.897	17992
888.021	18034
888.146	17889
888.27	17950
888.395	18068
888.519	17840
888.643	17870
888.767	17935
888.891	17627
889.015	17665
889.139	17604
889.263	17547
889.387	17665
889.511	17771
889.635	17619
889.759	17535
889.883	17471
890.006	17493
890.13	17581
890.254	17315
890.377	17402
890.501	17254
890.624	17330
890.748	17337
890.871	17155
890.995	16999
891.118	16984
891.241	16995
891.364	17045
891.488	17117
891.611	17105
891.734	17010
891.857	17083
891.98	16968
892.103	16949
892.226	16843
892.349	16854
892.471	16759
892.594	16873
892.717	16930
892.839	16759
892.962	16801
893.085	16835
893.207	16843
893.33	16672
893.452	16596
893.575	16725
893.697	16675
893.819	16873
893.941	16896
894.064	16896
894.186	16637
894.308	16691
894.43	16698
894.552	16881
894.674	16816
894.796	16615
894.918	16573
895.04	16573
895.161	16733
895.283	16744
895.405	16584
895.526	16653
895.648	16740
895.769	16820
895.891	16698
896.012	16801
896.134	16812
896.255	16729
896.376	16672
896.498	16687
896.619	16687
896.74	16656
896.861	16877
896.982	16934
897.103	17174
897.224	16961
897.345	16949
897.466	16824
897.587	17052
897.708	17052
897.828	16995
897.949	17029
898.07	16805
898.19	16965
898.311	17029
898.431	16953
898.552	16953
898.672	17037
898.792	17033
898.913	17045
899.033	16961
899.153	16797
899.273	16717
899.393	16763
899.513	16847
899.633	16797
899.753	16873
899.873	16824
899.993	16900
900.113	16759
900.232	16873
900.352	16706
900.472	16820
900.591	16599
900.711	16717
900.83	16599
900.95	16824
901.069	16649
901.189	16588
901.308	16451
901.427	16318
901.546	16249
901.665	16291
901.784	16268
901.904	16143
902.023	16029
902.141	15854
902.26	15797
902.379	15835
902.498	15671
902.617	15747
902.735	15827
902.854	15728
902.973	15732
903.091	15435
903.21	15462
903.328	15462
903.446	15374
903.565	15287
903.683	15310
903.801	15123
903.919	15233
904.038	15222
904.156	15104
904.274	15222
904.392	14925
904.51	15020
904.627	14872
904.745	15104
904.863	15047
904.981	14750
905.098	14674
905.216	14765
905.334	14807
905.451	14613
905.569	14632
905.686	14762
905.803	14701
905.921	14454
906.038	14469
906.155	14362
906.272	14374
906.389	14442
906.506	14195
906.623	14237
906.74	14157
906.857	14172
906.974	14050
907.091	14221
907.208	14389
907.324	14172
907.441	14126
907.557	13925
907.674	13986
907.79	13852
907.907	13887
908.023	13947
908.139	13993
908.256	13890
908.372	13807
908.488	13803
908.604	13719
908.72	13594
908.836	13620
908.952	13597
909.068	13605
909.184	13746
909.3	13647
909.415	13746
909.531	13666
909.647	13415
909.762	13331
909.878	13373
909.993	13403
910.108	13324
910.224	13388
910.339	13373
910.454	13301
910.57	13247
910.685	13244
910.8	13259
910.915	13312
911.03	13168
911.145	13133
911.259	13122
911.374	13046
911.489	13046
911.604	12890
911.718	12859
911.833	12821
911.947	12677
912.062	12578
912.176	12719
912.291	12753
912.405	12787
912.519	12871
912.633	13000
912.748	12764
912.862	12692
912.976	12692
913.09	12521
913.204	12544
913.318	12578
913.431	12745
913.545	12703
913.659	12692
913.772	12578
913.886	12483
914	12327
914.113	12525
914.226	12559
914.34	12620
914.453	12452
914.566	12475
914.68	12410
914.793	12357
914.906	12216
915.019	12186
915.132	11999
915.245	12167
915.358	12216
915.47	12197
915.583	12220
915.696	12201
915.809	12380
915.921	12410
916.034	12216
916.146	12064
916.259	12197
916.371	12232
916.483	12220
916.595	12125
916.708	12129
916.82	12136
916.932	12068
917.044	12057
917.156	12057
917.268	11992
917.38	11965
917.491	11965
917.603	11942
917.715	12057
917.826	12034
917.938	12045
918.049	11859
918.161	11927
918.272	12038
918.384	12072
918.495	11999
918.606	11798
918.717	11718
918.828	11771
918.939	11733
919.05	11718
919.161	11748
919.272	11619
919.383	11596
919.494	11741
919.604	12003
919.715	11695
919.826	11676
919.936	11737
920.047	11786
920.157	11699
920.267	11935
920.378	11847
920.488	11672
920.598	11885
920.708	12068
920.818	11992
920.928	11916
921.038	12117
921.148	11992
921.258	11767
921.368	11688
921.477	11623
921.587	11512
921.697	11387
921.806	11562
921.916	11402
922.025	11303
922.134	11265
922.244	11189
922.353	11265
922.462	11136
922.571	11025
922.68	10953
922.789	11018
922.898	10927
923.007	10820
923.116	10930
923.224	10892
923.333	10923
923.442	10763
923.55	10797
923.659	10714
923.767	10835
923.876	10698
923.984	10774
924.092	10630
924.201	10759
924.309	10759
924.417	10767
924.525	10607
924.633	10641
924.741	11532
924.849	10546
924.956	10679
925.064	10474
925.172	10421
925.279	10489
925.387	10550
925.494	10405
925.602	10565
925.709	10516
925.816	10402
925.924	10424
926.031	10478
926.138	10417
926.245	10634
926.352	10363
926.459	10535
926.566	10493
926.673	10344
926.779	10257
926.886	10265
926.993	10207
927.099	10128
927.206	10124
927.312	10105
927.419	10173
927.525	10215
927.631	10200
927.737	10044
927.843	10025
927.95	9899
928.056	9949
928.162	10093
928.267	10036
928.373	10603
928.479	10032
928.585	9835
928.69	10082
928.796	10021
928.901	9816
929.007	9743
929.112	9895
929.218	9888
929.323	9793
929.428	9819
929.533	9911
929.638	9652
929.743	9778
929.848	9823
929.953	9671
930.058	9656
930.163	9523
930.267	9542
930.372	9675
930.477	9507
930.581	9675
930.685	9557
930.79	9450
930.894	9454
930.998	9462
931.103	9587
931.207	9218
931.311	9188
931.415	9097
931.519	8838
931.623	8872
