Data from test_V78500241_753.txt Node
Date: Fri Mar 25 14:38:57 CST 2022
User: usil
Spectrometer: V785-0024
Trigger mode: 0
Integration Time (sec): 4.000000E-1
Scans to average: 1
Nonlinearity correction enabled: false
Boxcar width: 0
Storing dark spectrum: false
XAxis mode: Wavelengths
Number of Pixels in Spectrum: 1024
>>>>>Begin Spectral Data<<<<<
801.071	27089
801.214	26864
801.356	26613
801.499	26587
801.641	26309
801.783	26355
801.926	26320
802.068	26313
802.211	26107
802.353	26191
802.496	25936
802.638	25963
802.78	25784
802.923	25909
803.065	25662
803.208	25685
803.35	25852
803.492	25997
803.635	26027
803.777	25822
803.919	25989
804.061	26286
804.204	26142
804.346	26062
804.488	25894
804.63	26119
804.773	26062
804.915	26176
805.057	26271
805.199	26313
805.341	26404
805.483	26568
805.626	26632
805.768	26701
805.91	26712
806.052	26754
806.194	26918
806.336	27302
806.478	27386
806.62	27386
806.762	27774
806.904	28295
807.046	28858
807.188	29029
807.33	29528
807.472	30140
807.614	30703
807.756	31750
807.898	32651
808.04	34333
808.182	36353
808.324	38937
808.465	41977
808.607	45416
808.749	48258
808.891	50058
809.033	50316
809.174	48658
809.316	45545
809.458	42072
809.6	38739
809.741	35965
809.883	33633
810.025	32336
810.166	30928
810.308	30273
810.45	29554
810.591	29094
810.733	28516
810.875	28185
811.016	27728
811.158	27553
811.299	27526
811.441	27427
811.582	27291
811.724	27001
811.865	26952
812.007	26792
812.148	26670
812.29	26724
812.431	26853
812.573	26914
812.714	26868
812.855	26895
812.997	27005
813.138	27085
813.279	26883
813.421	26670
813.562	26632
813.703	26461
813.845	26278
813.986	25974
814.127	25715
814.268	25700
814.41	25674
814.551	25552
814.692	25662
814.833	25464
814.974	25415
815.115	25316
815.256	25381
815.397	25263
815.539	25206
815.68	25057
815.821	25004
815.962	25114
816.103	24932
816.244	24897
816.385	24783
816.526	24764
816.666	24654
816.807	24391
816.948	24448
817.089	24513
817.23	24464
817.371	24372
817.512	24350
817.653	24380
817.793	24346
817.934	24361
818.075	24292
818.216	24228
818.356	24342
818.497	24186
818.638	24091
818.778	23984
818.919	23942
819.06	23992
819.2	24106
819.341	24152
819.481	24155
819.622	24380
819.762	24342
819.903	24456
820.043	24289
820.184	24186
820.324	24178
820.465	24224
820.605	24117
820.746	24114
820.886	24095
821.026	23908
821.167	24034
821.307	24018
821.447	24057
821.588	23859
821.728	23710
821.868	23528
822.008	23482
822.149	23254
822.289	23387
822.429	23166
822.569	23090
822.709	23029
822.849	22824
822.99	22839
823.13	22771
823.27	22706
823.41	22733
823.55	22584
823.69	22626
823.83	22596
823.97	22577
824.11	22474
824.25	22367
824.389	22493
824.529	22371
824.669	22341
824.809	22447
824.949	22417
825.089	22379
825.228	22299
825.368	22185
825.508	22150
825.648	22097
825.787	22246
825.927	22215
826.067	22131
826.206	22055
826.346	22143
826.485	22204
826.625	22196
826.765	22097
826.904	22135
827.044	21899
827.183	21876
827.323	21838
827.462	21793
827.601	21850
827.741	21766
827.88	21854
828.02	21728
828.159	21804
828.298	21804
828.437	21808
828.577	21747
828.716	21816
828.855	21606
828.994	21698
829.134	21561
829.273	21587
829.412	21424
829.551	21416
829.69	21496
829.829	21431
829.968	21488
830.107	21572
830.246	21473
830.385	21435
830.524	21363
830.663	21268
830.802	21203
830.941	21077
831.08	20990
831.219	21093
831.357	21241
831.496	21344
831.635	21135
831.774	21051
831.913	21039
832.051	20800
832.19	20971
832.329	21119
832.467	20899
832.606	20899
832.744	21062
832.883	20979
833.022	21089
833.16	21275
833.299	21431
833.437	21557
833.576	21603
833.714	21732
833.852	21899
833.991	21983
834.129	22147
834.267	22135
834.406	22032
834.544	22090
834.682	21846
834.821	21854
834.959	21827
835.097	21435
835.235	21435
835.373	21283
835.511	21123
835.65	21039
835.788	20899
835.926	20750
836.064	20606
836.202	20606
836.34	20842
836.478	20845
836.615	20746
836.753	20750
836.891	20632
837.029	20594
837.167	20571
837.305	20663
837.443	20488
837.58	20560
837.718	20625
837.856	20465
837.993	20400
838.131	20454
838.269	20275
838.406	20328
838.544	20313
838.681	20020
838.819	20088
838.956	19993
839.094	19940
839.231	20005
839.369	20073
839.506	20267
839.643	20065
839.781	19940
839.918	19856
840.055	19921
840.193	19833
840.33	19765
840.467	19967
840.604	19814
840.742	20145
840.879	19753
841.016	19772
841.153	19894
841.29	19906
841.427	19742
841.564	19807
841.701	19791
841.838	19822
841.975	19811
842.112	19757
842.249	19761
842.385	19677
842.522	19947
842.659	19734
842.796	19677
842.933	19742
843.069	19715
843.206	19833
843.343	19833
843.479	19830
843.616	20001
843.752	19803
843.889	19818
844.025	19955
844.162	19822
844.298	20088
844.435	20172
844.571	20317
844.708	20655
844.844	21100
844.98	21561
845.117	22086
845.253	23071
845.389	24958
845.525	28774
845.661	34717
845.798	41543
845.934	46717
846.07	48673
846.206	47067
846.342	42365
846.478	35482
846.614	29360
846.75	25605
846.886	23258
847.022	22017
847.158	20914
847.294	20431
847.429	20062
847.565	19833
847.701	19902
847.837	19278
847.972	19137
848.108	19304
848.244	19194
848.379	18928
848.515	18913
848.65	18791
848.786	18878
848.921	18757
849.057	18821
849.192	18779
849.328	18673
849.463	18570
849.598	18635
849.734	18544
849.869	18509
850.004	18456
850.14	18407
850.275	18403
850.41	18117
850.545	18308
850.68	18292
850.815	18304
850.95	18391
851.085	18506
851.22	18357
851.355	18292
851.49	18327
851.625	18239
851.76	18239
851.895	18251
852.03	18285
852.165	18395
852.299	18380
852.434	18479
852.569	18441
852.703	18319
852.838	18513
852.973	18521
853.107	18582
853.242	18391
853.376	18410
853.511	18243
853.645	18338
853.78	18506
853.914	18456
854.048	18536
854.183	18585
854.317	18642
854.451	18817
854.585	18646
854.72	18696
854.854	18608
854.988	18410
855.122	18338
855.256	18410
855.39	18323
855.524	18506
855.658	18376
855.792	18319
855.926	18220
856.06	18315
856.194	18365
856.327	18182
856.461	18167
856.595	18148
856.729	18239
856.862	18258
856.996	18136
857.13	18289
857.263	18254
857.397	18182
857.53	18121
857.664	18232
857.797	18091
857.931	18258
858.064	18235
858.197	18091
858.331	18076
858.464	18034
858.597	17885
858.731	17988
858.864	17961
858.997	17885
859.13	17980
859.263	18034
859.396	18038
859.529	17977
859.662	18045
859.795	17942
859.928	18003
860.061	18106
860.194	18171
860.327	17954
860.46	17973
860.592	18076
860.725	18060
860.858	17961
860.99	18026
861.123	17851
861.256	17931
861.388	17843
861.521	18749
861.653	17828
861.786	17847
861.918	17775
862.05	17870
862.183	17942
862.315	18034
862.447	18003
862.58	17824
862.712	17767
862.844	17604
862.976	17809
863.108	17767
863.24	18079
863.372	17551
863.504	17585
863.636	17687
863.768	17661
863.9	17668
864.032	17630
864.164	17657
864.296	17672
864.428	17760
864.559	17847
864.691	17703
864.823	17707
864.954	17646
865.086	17516
865.217	17619
865.349	17558
865.48	17646
865.612	17524
865.743	17710
865.875	17585
866.006	17623
866.137	17687
866.269	17649
866.4	17520
866.531	17505
866.662	17592
866.793	17512
866.924	17471
867.055	17589
867.186	17554
867.317	17455
867.448	17448
867.579	17520
867.71	17406
867.841	17452
867.972	17509
868.103	17471
868.233	17573
868.364	17634
868.495	17676
868.625	17668
868.756	17882
868.886	17794
869.017	17832
869.147	18060
869.278	17885
869.408	17942
869.539	17771
869.669	17935
869.799	17927
869.929	17908
870.06	18026
870.19	18232
870.32	18060
870.45	18220
870.58	18254
870.71	18388
870.84	18410
870.97	18205
871.1	18243
871.23	18422
871.36	18479
871.489	18452
871.619	18410
871.749	18528
871.879	18525
872.008	18540
872.138	18604
872.267	18547
872.397	18479
872.526	18513
872.656	18467
872.785	18509
872.915	18601
873.044	18817
873.173	18631
873.303	18829
873.432	18745
873.561	18901
873.69	18844
873.819	18939
873.948	18901
874.077	18844
874.206	18848
874.335	19008
874.464	19046
874.593	19206
874.722	19175
874.851	19312
874.979	19350
875.108	19426
875.237	19327
875.365	19304
875.494	19407
875.623	19476
875.751	19613
875.88	19556
876.008	19765
876.136	19871
876.265	20161
876.393	20218
876.521	20294
876.65	20267
876.778	20370
876.906	20389
877.034	20336
877.162	20511
877.29	20507
877.418	20746
877.546	20731
877.674	20952
877.802	21028
877.93	21157
878.058	21199
878.185	21500
878.313	21789
878.441	22112
878.568	22363
878.696	22930
878.824	23893
878.951	25031
879.079	26533
879.206	28588
879.333	30696
879.461	32446
879.588	33644
879.715	33614
879.842	32720
879.97	30935
880.097	28618
880.224	27024
880.351	25761
880.478	24837
880.605	24311
880.732	23931
880.859	23859
880.986	23551
881.112	23349
881.239	23132
881.366	23200
881.493	23048
881.619	22896
881.746	22915
881.872	23117
881.999	23052
882.125	23113
882.252	23261
882.378	23094
882.505	23337
882.631	23185
882.757	23044
882.883	23094
883.01	23037
883.136	23025
883.262	22866
883.388	22824
883.514	22949
883.64	23044
883.766	22862
883.892	22759
884.018	22847
884.143	23044
884.269	22968
884.395	22869
884.52	22706
884.646	22786
884.772	22698
884.897	22599
885.023	22877
885.148	22854
885.274	22717
885.399	22691
885.524	22523
885.65	22462
885.775	22341
885.9	22078
886.025	22093
886.15	21945
886.275	21679
886.4	21492
886.525	21389
886.65	21142
886.775	21062
886.9	21135
887.025	21127
887.149	20762
887.274	20526
887.399	20347
887.523	20301
887.648	20305
887.773	20103
887.897	20282
888.021	20065
888.146	20012
888.27	20081
888.395	19963
888.519	19860
888.643	19776
888.767	19788
888.891	19613
889.015	19464
889.139	19556
889.263	19407
889.387	19491
889.511	19472
889.635	19537
889.759	19168
889.883	19278
890.006	19339
890.13	19259
890.254	19076
890.377	19164
890.501	18798
890.624	18791
890.748	18837
890.871	18688
890.995	18574
891.118	18528
891.241	18585
891.364	18570
891.488	18620
891.611	18528
891.734	18471
891.857	18521
891.98	18319
892.103	18376
892.226	18304
892.349	18300
892.471	18117
892.594	18102
892.717	18235
892.839	18136
892.962	18140
893.085	18235
893.207	17973
893.33	17866
893.452	17931
893.575	18148
893.697	17992
893.819	18121
893.941	18091
894.064	17904
894.186	17794
894.308	17840
894.43	17889
894.552	17904
894.674	17920
894.796	17657
894.918	17714
895.04	17745
895.161	17672
895.283	17733
895.405	17642
895.526	17779
895.648	17570
895.769	17714
895.891	17672
896.012	17687
896.134	17649
896.255	17741
896.376	17646
896.498	17634
896.619	17642
896.74	17615
896.861	17733
896.982	17927
897.103	17999
897.224	17889
897.345	17912
897.466	17726
897.587	17752
897.708	17847
897.828	17764
897.949	17707
898.07	17714
898.19	17684
898.311	17863
898.431	17783
898.552	17851
898.672	17893
898.792	17885
898.913	17904
899.033	17714
899.153	17570
899.273	17535
899.393	17551
899.513	17600
899.633	17615
899.753	17600
899.873	17611
899.993	17657
900.113	17573
900.232	17596
900.352	17459
900.472	17376
900.591	17288
900.711	17512
900.83	17280
900.95	17478
901.069	17493
901.189	17261
901.308	17022
901.427	16934
901.546	17003
901.665	17045
901.784	16873
901.904	16801
902.023	16687
902.141	16493
902.26	16440
902.379	16497
902.498	16451
902.617	16382
902.735	16417
902.854	16329
902.973	16219
903.091	16105
903.21	16010
903.328	16010
903.446	15854
903.565	15831
903.683	15861
903.801	15774
903.919	15774
904.038	15724
904.156	15690
904.274	15770
904.392	15485
904.51	15591
904.627	15587
904.745	15667
904.863	15641
904.981	15367
905.098	15351
905.216	15249
905.334	15321
905.451	15268
905.569	15272
905.686	15218
905.803	15214
905.921	15028
906.038	15085
906.155	14979
906.272	14910
906.389	14990
906.506	14735
906.623	14826
906.74	14727
906.857	14579
906.974	14682
907.091	14906
907.208	14838
907.324	14708
907.441	14606
907.557	14450
907.674	14514
907.79	14358
907.907	14396
908.023	14461
908.139	14457
908.256	14423
908.372	14389
908.488	14377
908.604	14324
908.72	14248
908.836	14298
908.952	14210
909.068	14290
909.184	14282
909.3	14202
909.415	14153
909.531	14180
909.647	13906
909.762	13940
909.878	13860
909.993	13921
910.108	13849
910.224	13807
910.339	13982
910.454	13841
910.57	13795
910.685	13666
910.8	13963
910.915	13894
911.03	13803
911.145	13647
911.259	13685
911.374	13540
911.489	13578
911.604	13476
911.718	13411
911.833	13464
911.947	13122
912.062	13183
912.176	13308
912.291	13331
912.405	13304
912.519	13514
912.633	13575
912.748	13316
912.862	13304
912.976	13137
913.09	13156
913.204	13110
913.318	13065
913.431	13263
913.545	13293
913.659	13221
913.772	13050
913.886	13046
914	12970
914.113	13088
914.226	13187
914.34	13122
914.453	12947
914.566	13088
914.68	12954
914.793	12894
914.906	12749
915.019	12749
915.132	12601
915.245	12715
915.358	12688
915.47	12738
915.583	12726
915.696	12848
915.809	12795
915.921	12894
916.034	12730
916.146	12776
916.259	12741
916.371	12829
916.483	12764
916.595	12795
916.708	12696
916.82	12753
916.932	12612
917.044	12642
917.156	12589
917.268	12589
917.38	12639
917.491	12517
917.603	12578
917.715	12532
917.826	12566
917.938	12445
918.049	12380
918.161	12452
918.272	12616
918.384	12521
918.495	12426
918.606	12270
918.717	12277
918.828	12300
918.939	12365
919.05	12232
919.161	12213
919.272	12057
919.383	12060
919.494	12239
919.604	12422
919.715	12201
919.826	12152
919.936	12205
920.047	12323
920.157	12216
920.267	12429
920.378	12201
920.488	12251
920.598	12467
920.708	12585
920.818	12361
920.928	12433
921.038	12467
921.148	12604
921.258	12197
921.368	12121
921.477	11973
921.587	12015
921.697	11851
921.806	11980
921.916	11916
922.025	11722
922.134	11714
922.244	11642
922.353	11722
922.462	11608
922.571	11486
922.68	11360
922.789	11284
922.898	11334
923.007	11292
923.116	11391
923.224	11356
923.333	11235
923.442	11250
923.55	11178
923.659	11227
923.767	11296
923.876	11121
923.984	11242
924.092	11124
924.201	11201
924.309	11124
924.417	11250
924.525	11121
924.633	11132
924.741	11904
924.849	10801
924.956	11071
925.064	10862
925.172	10847
925.279	10847
925.387	10984
925.494	10858
925.602	10968
925.709	10946
925.816	10858
925.924	10847
926.031	10938
926.138	10816
926.245	10911
926.352	10721
926.459	10965
926.566	10946
926.673	10786
926.779	10694
926.886	10725
926.993	10512
927.099	10569
927.206	10485
927.312	10478
927.419	10459
927.525	10485
927.631	10573
927.737	10489
927.843	10398
927.95	10295
928.056	10341
928.162	10466
928.267	10542
928.373	11090
928.479	10519
928.585	10306
928.69	10314
928.796	10462
928.901	10329
929.007	10166
929.112	10219
929.218	10211
929.323	10139
929.428	10158
929.533	10284
929.638	10128
929.743	10143
929.848	10249
929.953	10200
930.058	9998
930.163	9850
930.267	9907
930.372	10006
930.477	9861
930.581	10120
930.685	9941
930.79	9873
930.894	9831
930.998	9671
931.103	9930
931.207	9576
931.311	9458
931.415	9416
931.519	9332
931.623	9260
