Data from test_V78500241_1730.txt Node
Date: Fri Mar 25 14:45:45 CST 2022
User: usil
Spectrometer: V785-0024
Trigger mode: 0
Integration Time (sec): 4.000000E-1
Scans to average: 1
Nonlinearity correction enabled: false
Boxcar width: 0
Storing dark spectrum: false
XAxis mode: Wavelengths
Number of Pixels in Spectrum: 1024
>>>>>Begin Spectral Data<<<<<
801.071	22291
801.214	22181
801.356	21949
801.499	21717
801.641	21637
801.783	21599
801.926	21679
802.068	21511
802.211	21504
802.353	21405
802.496	21176
802.638	21039
802.78	21131
802.923	21074
803.065	21017
803.208	20842
803.35	20944
803.492	21055
803.635	21009
803.777	20861
803.919	21070
804.061	21313
804.204	21036
804.346	20902
804.488	20876
804.63	20952
804.773	20800
804.915	20883
805.057	20921
805.199	20769
805.341	20910
805.483	20956
805.626	21005
805.768	20895
805.91	20887
806.052	21005
806.194	20811
806.336	20998
806.478	20861
806.62	20963
806.762	20975
806.904	20998
807.046	21211
807.188	21135
807.33	21294
807.472	21173
807.614	20979
807.756	21192
807.898	21001
808.04	20887
808.182	20944
808.324	20937
808.465	20979
808.607	21287
808.749	21218
808.891	21416
809.033	21420
809.174	21428
809.316	21348
809.458	21313
809.6	21237
809.741	21214
809.883	21397
810.025	21416
810.166	21564
810.308	21378
810.45	21287
810.591	21336
810.733	21237
810.875	21184
811.016	20902
811.158	20998
811.299	21058
811.441	21089
811.582	21089
811.724	21009
811.865	20990
812.007	21001
812.148	20998
812.29	21173
812.431	21074
812.573	21287
812.714	21447
812.855	21519
812.997	21553
813.138	21778
813.279	21713
813.421	21458
813.562	21443
813.703	21279
813.845	21287
813.986	20948
814.127	20686
814.268	20530
814.41	20602
814.551	20571
814.692	20625
814.833	20518
814.974	20526
815.115	20389
815.256	20492
815.397	20461
815.539	20473
815.68	20400
815.821	20233
815.962	20389
816.103	20305
816.244	20111
816.385	20020
816.526	20001
816.666	19913
816.807	19685
816.948	19852
817.089	19883
817.23	19738
817.371	19685
817.512	19822
817.653	19597
817.793	19761
817.934	19529
818.075	19811
818.216	19715
818.356	19666
818.497	19601
818.638	19381
818.778	19457
818.919	19525
819.06	19537
819.2	19506
819.341	19628
819.481	19529
819.622	19712
819.762	19932
819.903	19963
820.043	19818
820.184	19590
820.324	19681
820.465	19833
820.605	19681
820.746	19769
820.886	19491
821.026	19685
821.167	19696
821.307	19715
821.447	19620
821.588	19563
821.728	19369
821.868	19304
822.008	19103
822.149	19152
822.289	19084
822.429	18859
822.569	18791
822.709	18833
822.849	18574
822.99	18574
823.13	18620
823.27	18559
823.41	18490
823.55	18338
823.69	18338
823.83	18235
823.97	18350
824.11	18338
824.25	18178
824.389	18186
824.529	18194
824.669	18178
824.809	18201
824.949	18289
825.089	18247
825.228	18216
825.368	17916
825.508	18041
825.648	18003
825.787	18076
825.927	17992
826.067	17847
826.206	17912
826.346	18015
826.485	17950
826.625	17889
826.765	18171
826.904	17980
827.044	17718
827.183	17665
827.323	17646
827.462	17665
827.601	17589
827.741	17646
827.88	17695
828.02	17596
828.159	17627
828.298	17596
828.437	17722
828.577	17623
828.716	17805
828.855	17581
828.994	17486
829.134	17398
829.273	17379
829.412	17353
829.551	17288
829.69	17311
829.829	17372
829.968	17368
830.107	17414
830.246	17395
830.385	17372
830.524	17277
830.663	17143
830.802	17105
830.941	17090
831.08	16995
831.219	17022
831.357	17045
831.496	17220
831.635	16965
831.774	17071
831.913	16896
832.051	16717
832.19	16725
832.329	16831
832.467	16717
832.606	16660
832.744	16554
832.883	16641
833.022	16641
833.16	16710
833.299	16694
833.437	16885
833.576	16687
833.714	16740
833.852	16755
833.991	16752
834.129	16805
834.267	16839
834.406	16683
834.544	16801
834.682	16797
834.821	16729
834.959	16923
835.097	16679
835.235	16774
835.373	16805
835.511	16736
835.65	16630
835.788	16607
835.926	16428
836.064	16538
836.202	16402
836.34	16622
836.478	16744
836.615	16622
836.753	16649
836.891	16748
837.029	16641
837.167	16558
837.305	16615
837.443	16535
837.58	16504
837.718	16558
837.856	16527
837.993	16451
838.131	16558
838.269	16356
838.406	16417
838.544	16287
838.681	16238
838.819	16097
838.956	15972
839.094	16025
839.231	16101
839.369	16219
839.506	16459
839.643	16303
839.781	16082
839.918	16040
840.055	16086
840.193	16116
840.33	15941
840.467	16173
840.604	15979
840.742	16261
840.879	15888
841.016	15983
841.153	15873
841.29	16147
841.427	16051
841.564	16105
841.701	16074
841.838	16105
841.975	15987
842.112	15945
842.249	15899
842.385	15819
842.522	16036
842.659	15800
842.796	15838
842.933	15793
843.069	15831
843.206	15641
843.343	15998
843.479	15873
843.616	15869
843.752	15686
843.889	15587
844.025	15736
844.162	15644
844.298	15766
844.435	15549
844.571	15656
844.708	15682
844.844	15812
844.98	15789
845.117	15713
845.253	15542
845.389	15492
845.525	15515
845.661	15542
845.798	15515
845.934	15492
846.07	15405
846.206	15538
846.342	15549
846.478	15428
846.614	15325
846.75	15108
846.886	15188
847.022	15272
847.158	15218
847.294	15214
847.429	15184
847.565	15150
847.701	15435
847.837	14902
847.972	14925
848.108	15005
848.244	15017
848.379	14842
848.515	14864
848.65	14765
848.786	14826
848.921	14716
849.057	14849
849.192	14872
849.328	14857
849.463	14880
849.598	14819
849.734	14705
849.869	14678
850.004	14579
850.14	14499
850.275	14621
850.41	14366
850.545	14484
850.68	14541
850.815	14587
850.95	14514
851.085	14716
851.22	14594
851.355	14602
851.49	14537
851.625	14492
851.76	14499
851.895	14514
852.03	14427
852.165	14492
852.299	14705
852.434	14587
852.569	14514
852.703	14613
852.838	14587
852.973	14762
853.107	14724
853.242	14503
853.376	14412
853.511	14358
853.645	14305
853.78	14670
853.914	14450
854.048	14339
854.183	14320
854.317	14442
854.451	14533
854.585	14381
854.72	14343
854.854	14419
854.988	14374
855.122	14396
855.256	14339
855.39	14492
855.524	14457
855.658	14545
855.792	14434
855.926	14545
856.06	14598
856.194	14545
856.327	14412
856.461	14412
856.595	14396
856.729	14358
856.862	14526
856.996	14427
857.13	14552
857.263	14617
857.397	14583
857.53	14438
857.664	14419
857.797	14632
857.931	14617
858.064	14499
858.197	14503
858.331	14400
858.464	14427
858.597	14305
858.731	14313
858.864	14446
858.997	14374
859.13	14507
859.263	14454
859.396	14465
859.529	14381
859.662	14408
859.795	14495
859.928	14427
860.061	14526
860.194	14682
860.327	14457
860.46	14404
860.592	14446
860.725	14598
860.858	14575
860.99	14389
861.123	14351
861.256	14358
861.388	14423
861.521	15157
861.653	14313
861.786	14286
861.918	14339
862.05	14355
862.183	14366
862.315	14400
862.447	14469
862.58	14389
862.712	14176
862.844	14168
862.976	14317
863.108	14180
863.24	14526
863.372	14237
863.504	14183
863.636	14149
863.768	14275
863.9	14206
864.032	14180
864.164	14168
864.296	14233
864.428	14294
864.559	14320
864.691	14313
864.823	14145
864.954	14229
865.086	14221
865.217	14237
865.349	14084
865.48	14157
865.612	14202
865.743	14309
865.875	14123
866.006	14107
866.137	14233
866.269	14199
866.4	14199
866.531	14259
866.662	14054
866.793	14130
866.924	14027
867.055	14180
867.186	14172
867.317	14073
867.448	14088
867.579	14065
867.71	14069
867.841	14077
867.972	14142
868.103	14199
868.233	14202
868.364	14157
868.495	14301
868.625	14427
868.756	14533
868.886	14298
869.017	14320
869.147	14556
869.278	14526
869.408	14495
869.539	14381
869.669	14431
869.799	14495
869.929	14492
870.06	14473
870.19	14769
870.32	14754
870.45	14796
870.58	14823
870.71	14982
870.84	15074
870.97	14876
871.1	14842
871.23	15020
871.36	14963
871.489	14918
871.619	14979
871.749	15070
871.879	15161
872.008	15058
872.138	15188
872.267	15135
872.397	14941
872.526	14872
872.656	14819
872.785	14811
872.915	15009
873.044	15195
873.173	15058
873.303	15032
873.432	15150
873.561	15230
873.69	15089
873.819	15135
873.948	15154
874.077	15116
874.206	15047
874.335	15043
874.464	15291
874.593	15450
874.722	15443
874.851	15473
874.979	15466
875.108	15523
875.237	15336
875.365	15374
875.494	15439
875.623	15496
875.751	15431
875.88	15405
876.008	15614
876.136	15591
876.265	15800
876.393	16029
876.521	15899
876.65	15987
876.778	15911
876.906	15880
877.034	15751
877.162	15812
877.29	15728
877.418	15842
877.546	15854
877.674	15747
877.802	15797
877.93	15838
878.058	15869
878.185	15800
878.313	15808
878.441	15789
878.568	15599
878.696	15743
878.824	15770
878.951	15876
879.079	16036
879.206	16154
879.333	16101
879.461	15816
879.588	16029
879.715	16040
879.842	16162
879.97	15930
880.097	15774
880.224	15542
880.351	15720
880.478	15827
880.605	15648
880.732	15720
880.859	15865
880.986	15778
881.112	15679
881.239	15603
881.366	15557
881.493	15420
881.619	15294
881.746	15336
881.872	15291
881.999	15401
882.125	15268
882.252	15447
882.378	15435
882.505	15504
882.631	15306
882.757	15199
882.883	15180
883.01	15146
883.136	15123
883.262	15066
883.388	15089
883.514	15252
883.64	15123
883.766	15142
883.892	15043
884.018	15013
884.143	15195
884.269	15310
884.395	14975
884.52	14876
884.646	14826
884.772	14861
884.897	14868
885.023	14887
885.148	15062
885.274	15028
885.399	14982
885.524	14853
885.65	14952
885.775	14891
885.9	14819
886.025	14902
886.15	14937
886.275	14796
886.4	14769
886.525	14933
886.65	14682
886.775	14842
886.9	14956
887.025	15104
887.149	14807
887.274	14762
887.399	14644
887.523	14606
887.648	14689
887.773	14549
887.897	14716
888.021	14724
888.146	14686
888.27	14826
888.395	14796
888.519	14739
888.643	14644
888.767	14743
888.891	14545
889.015	14541
889.139	14587
889.263	14457
889.387	14617
889.511	14682
889.635	14678
889.759	14503
889.883	14385
890.006	14636
890.13	14571
890.254	14442
890.377	14522
890.501	14343
890.624	14362
890.748	14332
890.871	14244
890.995	14275
891.118	14191
891.241	14206
891.364	14248
891.488	14328
891.611	14233
891.734	14191
891.857	14370
891.98	14275
892.103	14355
892.226	14187
892.349	14218
892.471	14183
892.594	14187
892.717	14282
892.839	14229
892.962	14301
893.085	14343
893.207	14294
893.33	14100
893.452	14214
893.575	14366
893.697	14191
893.819	14511
893.941	14480
894.064	14358
894.186	14233
894.308	14161
894.43	14381
894.552	14404
894.674	14408
894.796	14191
894.918	14240
895.04	14324
895.161	14427
895.283	14461
895.405	14278
895.526	14362
895.648	14431
895.769	14438
895.891	14393
896.012	14431
896.134	14400
896.255	14484
896.376	14317
896.498	14423
896.619	14480
896.74	14484
896.861	14358
896.982	14750
897.103	14864
897.224	14830
897.345	14648
897.466	14495
897.587	14705
897.708	14804
897.828	14746
897.949	14708
898.07	14590
898.19	14621
898.311	14876
898.431	14674
898.552	14754
898.672	14769
898.792	14857
898.913	14762
899.033	14632
899.153	14530
899.273	14450
899.393	14514
899.513	14667
899.633	14606
899.753	14636
899.873	14590
899.993	14701
900.113	14724
900.232	14724
900.352	14571
900.472	14495
900.591	14469
900.711	14522
900.83	14492
900.95	14541
901.069	14640
901.189	14358
901.308	14115
901.427	14100
901.546	14187
901.665	14240
901.784	14111
901.904	14092
902.023	13898
902.141	13761
902.26	13734
902.379	13791
902.498	13636
902.617	13689
902.735	13738
902.854	13757
902.973	13628
903.091	13411
903.21	13480
903.328	13403
903.446	13320
903.565	13297
903.683	13304
903.801	13228
903.919	13247
904.038	13263
904.156	13088
904.274	13183
904.392	13057
904.51	13057
904.627	13183
904.745	13152
904.863	13175
904.981	12905
905.098	12772
905.216	12795
905.334	12798
905.451	12810
905.569	12730
905.686	12924
905.803	12837
905.921	12730
906.038	12760
906.155	12593
906.272	12517
906.389	12475
906.506	12448
906.623	12403
906.74	12452
906.857	12205
906.974	12247
907.091	12448
907.208	12509
907.324	12464
907.441	12334
907.557	12155
907.674	12110
907.79	12057
907.907	12148
908.023	12175
908.139	12152
908.256	12140
908.372	12083
908.488	12015
908.604	11813
908.72	11821
908.836	11889
908.952	11901
909.068	11916
909.184	11908
909.3	11954
909.415	11920
909.531	11897
909.647	11627
909.762	11718
909.878	11558
909.993	11672
910.108	11646
910.224	11623
910.339	11642
910.454	11501
910.57	11535
910.685	11387
910.8	11798
910.915	11581
911.03	11573
911.145	11387
911.259	11307
911.374	11337
911.489	11284
911.604	11322
911.718	11113
911.833	11147
911.947	11121
912.062	10923
912.176	11079
912.291	11045
912.405	11124
912.519	11307
912.633	11296
912.748	11201
912.862	11079
912.976	10938
913.09	10904
913.204	10900
913.318	10873
913.431	11037
913.545	11147
913.659	11109
913.772	10999
913.886	10828
914	10843
914.113	10904
914.226	10957
914.34	10892
914.453	10831
914.566	10934
914.68	10797
914.793	10782
914.906	10664
915.019	10554
915.132	10493
915.245	10615
915.358	10615
915.47	10634
915.583	10622
915.696	10599
915.809	10755
915.921	10733
916.034	10607
916.146	10512
916.259	10500
916.371	10630
916.483	10634
916.595	10500
916.708	10645
916.82	10592
916.932	10580
917.044	10504
917.156	10443
917.268	10379
917.38	10386
917.491	10363
917.603	10470
917.715	10512
917.826	10493
917.938	10470
918.049	10276
918.161	10424
918.272	10565
918.384	10500
918.495	10478
918.606	10322
918.717	10227
918.828	10371
918.939	10455
919.05	10242
919.161	10280
919.272	10059
919.383	10166
919.494	10382
919.604	10565
919.715	10333
919.826	10265
919.936	10318
920.047	10356
920.157	10390
920.267	10451
920.378	10272
920.488	10329
920.598	10584
920.708	10626
920.818	10508
920.928	10504
921.038	10653
921.148	10622
921.258	10333
921.368	10295
921.477	10135
921.587	10124
921.697	10071
921.806	10177
921.916	10173
922.025	9949
922.134	9888
922.244	9747
922.353	9949
922.462	9682
922.571	9705
922.68	9648
922.789	9549
922.898	9580
923.007	9488
923.116	9606
923.224	9549
923.333	9545
923.442	9401
923.55	9519
923.659	9500
923.767	9526
923.876	9370
923.984	9507
924.092	9412
924.201	9408
924.309	9435
924.417	9431
924.525	9329
924.633	9332
924.741	10314
924.849	9154
924.956	9382
925.064	9188
925.172	9074
925.279	9199
925.387	9272
925.494	9157
925.602	9401
925.709	9336
925.816	9146
925.924	9253
926.031	9283
926.138	9157
926.245	9207
926.352	9138
926.459	9222
926.566	9249
926.673	9230
926.779	9066
926.886	9089
926.993	8952
927.099	8967
927.206	8914
927.312	8910
927.419	8933
927.525	8967
927.631	9017
927.737	8925
927.843	8880
927.95	8746
928.056	8792
928.162	8861
928.267	8842
928.373	9473
928.479	8937
928.585	8655
928.69	8838
928.796	8880
928.901	8762
929.007	8549
929.112	8727
929.218	8754
929.323	8655
929.428	8568
929.533	8739
929.638	8583
929.743	8602
929.848	8648
929.953	8598
930.058	8503
930.163	8377
930.267	8374
930.372	8610
930.477	8358
930.581	8686
930.685	8434
930.79	8317
930.894	8419
930.998	8317
931.103	8488
931.207	8130
931.311	8088
931.415	8001
931.519	7902
931.623	7795
