Data from test_V78500241_2138.txt Node
Date: Fri Mar 25 14:48:35 CST 2022
User: usil
Spectrometer: V785-0024
Trigger mode: 0
Integration Time (sec): 4.000000E-1
Scans to average: 1
Nonlinearity correction enabled: false
Boxcar width: 0
Storing dark spectrum: false
XAxis mode: Wavelengths
Number of Pixels in Spectrum: 1024
>>>>>Begin Spectral Data<<<<<
801.071	22173
801.214	22112
801.356	21892
801.499	21694
801.641	21450
801.783	21599
801.926	21572
802.068	21599
802.211	21370
802.353	21306
802.496	21096
802.638	20941
802.78	21142
802.923	20925
803.065	20800
803.208	20868
803.35	20891
803.492	21009
803.635	21009
803.777	20868
803.919	20895
804.061	21359
804.204	20918
804.346	20743
804.488	20842
804.63	20861
804.773	20746
804.915	20902
805.057	20982
805.199	20746
805.341	20834
805.483	20925
805.626	20887
805.768	20750
805.91	20819
806.052	20910
806.194	20693
806.336	21024
806.478	20762
806.62	20777
806.762	20967
806.904	20956
807.046	21230
807.188	21142
807.33	21127
807.472	21214
807.614	21036
807.756	21051
807.898	20967
808.04	20883
808.182	20971
808.324	20902
808.465	20941
808.607	21142
808.749	21203
808.891	21386
809.033	21447
809.174	21230
809.316	21062
809.458	21230
809.6	21287
809.741	21237
809.883	21325
810.025	21359
810.166	21279
810.308	21370
810.45	21329
810.591	21275
810.733	21176
810.875	21085
811.016	20807
811.158	20902
811.299	21058
811.441	21119
811.582	21081
811.724	21062
811.865	20811
812.007	20986
812.148	20956
812.29	21039
812.431	21203
812.573	21351
812.714	21401
812.855	21523
812.997	21633
813.138	21633
813.279	21637
813.421	21420
813.562	21329
813.703	21279
813.845	21192
813.986	20967
814.127	20750
814.268	20655
814.41	20632
814.551	20495
814.692	20686
814.833	20469
814.974	20427
815.115	20522
815.256	20404
815.397	20533
815.539	20309
815.68	20324
815.821	20263
815.962	20412
816.103	20263
816.244	20145
816.385	20054
816.526	19970
816.666	19753
816.807	19696
816.948	19875
817.089	19708
817.23	19704
817.371	19750
817.512	19674
817.653	19795
817.793	19624
817.934	19635
818.075	19761
818.216	19609
818.356	19635
818.497	19449
818.638	19266
818.778	19365
818.919	19403
819.06	19362
819.2	19662
819.341	19544
819.481	19495
819.622	19727
819.762	19986
819.903	19852
820.043	19674
820.184	19689
820.324	19571
820.465	19670
820.605	19632
820.746	19677
820.886	19571
821.026	19567
821.167	19632
821.307	19780
821.447	19620
821.588	19396
821.728	19350
821.868	19160
822.008	19088
822.149	19103
822.289	19012
822.429	18833
822.569	18719
822.709	18658
822.849	18528
822.99	18627
823.13	18509
823.27	18544
823.41	18308
823.55	18403
823.69	18388
823.83	18365
823.97	18258
824.11	18129
824.25	18030
824.389	18121
824.529	18216
824.669	18144
824.809	18186
824.949	18209
825.089	18330
825.228	18152
825.368	17942
825.508	18076
825.648	18011
825.787	18030
825.927	17969
826.067	17809
826.206	17939
826.346	17790
826.485	17965
826.625	17961
826.765	17999
826.904	17984
827.044	17718
827.183	17722
827.323	17566
827.462	17752
827.601	17592
827.741	17600
827.88	17562
828.02	17364
828.159	17585
828.298	17695
828.437	17619
828.577	17493
828.716	17783
828.855	17512
828.994	17303
829.134	17334
829.273	17288
829.412	17296
829.551	17258
829.69	17383
829.829	17277
829.968	17421
830.107	17360
830.246	17341
830.385	17326
830.524	17284
830.663	17109
830.802	17071
830.941	17033
831.08	16911
831.219	17105
831.357	17045
831.496	17143
831.635	17010
831.774	16850
831.913	16877
832.051	16812
832.19	16793
832.329	16721
832.467	16710
832.606	16615
832.744	16649
832.883	16641
833.022	16516
833.16	16512
833.299	16748
833.437	16740
833.576	16694
833.714	16664
833.852	16744
833.991	16835
834.129	16683
834.267	16782
834.406	16653
834.544	16778
834.682	16793
834.821	16713
834.959	16869
835.097	16618
835.235	16717
835.373	16717
835.511	16672
835.65	16637
835.788	16637
835.926	16402
836.064	16470
836.202	16474
836.34	16687
836.478	16717
836.615	16645
836.753	16733
836.891	16702
837.029	16706
837.167	16672
837.305	16500
837.443	16580
837.58	16588
837.718	16554
837.856	16470
837.993	16322
838.131	16436
838.269	16398
838.406	16436
838.544	16367
838.681	16207
838.819	16120
838.956	16086
839.094	15998
839.231	16067
839.369	16211
839.506	16409
839.643	16333
839.781	16032
839.918	16036
840.055	16017
840.193	15968
840.33	15941
840.467	15998
840.604	16051
840.742	16185
840.879	15873
841.016	15876
841.153	15854
841.29	16246
841.427	16063
841.564	16044
841.701	16013
841.838	15968
841.975	15907
842.112	15991
842.249	15857
842.385	15774
842.522	16059
842.659	15755
842.796	15713
842.933	15789
843.069	15823
843.206	15781
843.343	15854
843.479	15781
843.616	15850
843.752	15701
843.889	15511
844.025	15705
844.162	15496
844.298	15656
844.435	15568
844.571	15549
844.708	15652
844.844	15762
844.98	15717
845.117	15694
845.253	15663
845.389	15511
845.525	15599
845.661	15450
845.798	15348
845.934	15447
846.07	15363
846.206	15382
846.342	15557
846.478	15401
846.614	15233
846.75	15154
846.886	15146
847.022	15260
847.158	15135
847.294	15188
847.429	15108
847.565	15123
847.701	15401
847.837	14887
847.972	14868
848.108	15001
848.244	14902
848.379	14868
848.515	14800
848.65	14727
848.786	14830
848.921	14785
849.057	14838
849.192	14861
849.328	14746
849.463	14834
849.598	14743
849.734	14610
849.869	14667
850.004	14552
850.14	14594
850.275	14545
850.41	14514
850.545	14461
850.68	14465
850.815	14583
850.95	14495
851.085	14689
851.22	14602
851.355	14488
851.49	14442
851.625	14377
851.76	14442
851.895	14366
852.03	14366
852.165	14545
852.299	14522
852.434	14640
852.569	14594
852.703	14594
852.838	14594
852.973	14644
853.107	14617
853.242	14488
853.376	14408
853.511	14400
853.645	14301
853.78	14511
853.914	14423
854.048	14381
854.183	14400
854.317	14320
854.451	14457
854.585	14377
854.72	14381
854.854	14476
854.988	14362
855.122	14233
855.256	14301
855.39	14404
855.524	14412
855.658	14434
855.792	14450
855.926	14530
856.06	14457
856.194	14499
856.327	14404
856.461	14389
856.595	14351
856.729	14404
856.862	14419
856.996	14408
857.13	14511
857.263	14454
857.397	14568
857.53	14396
857.664	14362
857.797	14431
857.931	14503
858.064	14427
858.197	14511
858.331	14317
858.464	14381
858.597	14259
858.731	14347
858.864	14351
858.997	14339
859.13	14423
859.263	14404
859.396	14556
859.529	14320
859.662	14412
859.795	14267
859.928	14412
860.061	14590
860.194	14533
860.327	14415
860.46	14305
860.592	14484
860.725	14522
860.858	14461
860.99	14404
861.123	14278
861.256	14404
861.388	14408
861.521	14998
861.653	14237
861.786	14180
861.918	14244
862.05	14294
862.183	14358
862.315	14366
862.447	14495
862.58	14290
862.712	14111
862.844	14176
862.976	14263
863.108	14221
863.24	14587
863.372	14069
863.504	14142
863.636	14149
863.768	14229
863.9	14172
864.032	14142
864.164	14077
864.296	14168
864.428	14298
864.559	14336
864.691	14202
864.823	14286
864.954	14229
865.086	14286
865.217	14145
865.349	14119
865.48	14134
865.612	14233
865.743	14381
865.875	14153
866.006	14103
866.137	14161
866.269	14187
866.4	14183
866.531	14115
866.662	14107
866.793	13978
866.924	14103
867.055	14142
867.186	14172
867.317	14058
867.448	14039
867.579	14081
867.71	14088
867.841	14043
867.972	14187
868.103	14233
868.233	14183
868.364	14202
868.495	14183
868.625	14317
868.756	14533
868.886	14377
869.017	14393
869.147	14499
869.278	14522
869.408	14423
869.539	14431
869.669	14522
869.799	14469
869.929	14473
870.06	14374
870.19	14750
870.32	14701
870.45	14758
870.58	14849
870.71	14941
870.84	14899
870.97	14807
871.1	14667
871.23	14876
871.36	15093
871.489	14895
871.619	14933
871.749	15055
871.879	15104
872.008	15131
872.138	14979
872.267	15032
872.397	14864
872.526	14819
872.656	14807
872.785	14804
872.915	15036
873.044	15161
873.173	15017
873.303	15085
873.432	15066
873.561	15097
873.69	15032
873.819	14994
873.948	15176
874.077	15119
874.206	15085
874.335	15055
874.464	15207
874.593	15359
874.722	15279
874.851	15370
874.979	15302
875.108	15367
875.237	15332
875.365	15287
875.494	15386
875.623	15443
875.751	15294
875.88	15355
876.008	15405
876.136	15633
876.265	15762
876.393	15873
876.521	15835
876.65	15823
876.778	15804
876.906	15667
877.034	15660
877.162	15766
877.29	15682
877.418	15850
877.546	15747
877.674	15781
877.802	15869
877.93	15747
878.058	15682
878.185	15686
878.313	15812
878.441	15690
878.568	15679
878.696	15641
878.824	15873
878.951	15846
879.079	15903
879.206	16051
879.333	15907
879.461	15774
879.588	15876
879.715	16013
879.842	16097
879.97	15838
880.097	15641
880.224	15686
880.351	15686
880.478	15720
880.605	15496
880.732	15686
880.859	15869
880.986	15724
881.112	15724
881.239	15671
881.366	15542
881.493	15370
881.619	15203
881.746	15260
881.872	15298
881.999	15378
882.125	15294
882.252	15298
882.378	15348
882.505	15424
882.631	15249
882.757	15089
882.883	15100
883.01	15112
883.136	15005
883.262	15013
883.388	14990
883.514	15108
883.64	15119
883.766	14960
883.892	14963
884.018	14929
884.143	15055
884.269	15169
884.395	14880
884.52	14708
884.646	14754
884.772	14762
884.897	14693
885.023	14811
885.148	14990
885.274	15039
885.399	14883
885.524	14762
885.65	14811
885.775	14861
885.9	14834
886.025	14971
886.15	14933
886.275	14750
886.4	14674
886.525	14762
886.65	14800
886.775	14735
886.9	14967
887.025	14925
887.149	14807
887.274	14686
887.399	14579
887.523	14594
887.648	14537
887.773	14583
887.897	14720
888.021	14682
888.146	14602
888.27	14720
888.395	14727
888.519	14724
888.643	14689
888.767	14720
888.891	14583
889.015	14442
889.139	14526
889.263	14442
889.387	14629
889.511	14667
889.635	14537
889.759	14537
889.883	14473
890.006	14438
890.13	14602
890.254	14454
890.377	14488
890.501	14282
890.624	14256
890.748	14381
890.871	14267
890.995	14142
891.118	14088
891.241	14233
891.364	14225
891.488	14237
891.611	14195
891.734	14210
891.857	14256
891.98	14320
892.103	14191
892.226	14267
892.349	14081
892.471	14065
892.594	14202
892.717	14256
892.839	14218
892.962	14267
893.085	14263
893.207	14153
893.33	14149
893.452	14187
893.575	14320
893.697	14183
893.819	14351
893.941	14351
894.064	14347
894.186	14202
894.308	14195
894.43	14218
894.552	14385
894.674	14408
894.796	14161
894.918	14225
895.04	14176
895.161	14301
895.283	14320
895.405	14248
895.526	14294
895.648	14301
895.769	14259
895.891	14237
896.012	14427
896.134	14339
896.255	14328
896.376	14336
896.498	14412
896.619	14282
896.74	14393
896.861	14442
896.982	14579
897.103	14785
897.224	14571
897.345	14606
897.466	14476
897.587	14610
897.708	14743
897.828	14693
897.949	14541
898.07	14571
898.19	14625
898.311	14731
898.431	14587
898.552	14716
898.672	14861
898.792	14765
898.913	14735
899.033	14659
899.153	14537
899.273	14499
899.393	14503
899.513	14610
899.633	14507
899.753	14579
899.873	14522
899.993	14590
900.113	14606
900.232	14659
900.352	14610
900.472	14454
900.591	14427
900.711	14438
900.83	14328
900.95	14412
901.069	14564
901.189	14431
901.308	14168
901.427	14058
901.546	14073
901.665	14134
901.784	14092
901.904	14024
902.023	13818
902.141	13655
902.26	13681
902.379	13731
902.498	13658
902.617	13651
902.735	13746
902.854	13677
902.973	13700
903.091	13422
903.21	13430
903.328	13392
903.446	13244
903.565	13179
903.683	13160
903.801	13171
903.919	13213
904.038	13217
904.156	13019
904.274	13103
904.392	13126
904.51	12954
904.627	13084
904.745	13069
904.863	13084
904.981	12886
905.098	12711
905.216	12779
905.334	12810
905.451	12791
905.569	12760
905.686	12875
905.803	12719
905.921	12631
906.038	12631
906.155	12620
906.272	12460
906.389	12528
906.506	12369
906.623	12235
906.74	12380
906.857	12140
906.974	12235
907.091	12410
907.208	12448
907.324	12418
907.441	12232
907.557	12057
907.674	12087
907.79	11965
907.907	12026
908.023	12136
908.139	12030
908.256	12045
908.372	11980
908.488	12049
908.604	11836
908.72	11798
908.836	11855
908.952	11840
909.068	11802
909.184	11965
909.3	11859
909.415	11870
909.531	11836
909.647	11589
909.762	11573
909.878	11562
909.993	11577
910.108	11585
910.224	11543
910.339	11528
910.454	11520
910.57	11444
910.685	11372
910.8	11653
910.915	11589
911.03	11459
911.145	11315
911.259	11299
911.374	11277
911.489	11189
911.604	11132
911.718	11025
911.833	10987
911.947	10942
912.062	10790
912.176	10976
912.291	11029
912.405	11098
912.519	11280
912.633	11216
912.748	11162
912.862	11060
912.976	10980
913.09	10831
913.204	10896
913.318	10995
913.431	11094
913.545	11037
913.659	11014
913.772	10938
913.886	10801
914	10767
914.113	10835
914.226	10942
914.34	10934
914.453	10748
914.566	10908
914.68	10774
914.793	10790
914.906	10561
915.019	10542
915.132	10451
915.245	10550
915.358	10634
915.47	10660
915.583	10603
915.696	10645
915.809	10649
915.921	10660
916.034	10637
916.146	10523
916.259	10531
916.371	10523
916.483	10584
916.595	10565
916.708	10470
916.82	10531
916.932	10413
917.044	10497
917.156	10455
917.268	10299
917.38	10375
917.491	10356
917.603	10405
917.715	10440
917.826	10516
917.938	10386
918.049	10192
918.161	10405
918.272	10523
918.384	10504
918.495	10360
918.606	10276
918.717	10207
918.828	10337
918.939	10337
919.05	10154
919.161	10196
919.272	10093
919.383	10147
919.494	10329
919.604	10546
919.715	10299
919.826	10173
919.936	10272
920.047	10348
920.157	10303
920.267	10470
920.378	10303
920.488	10211
920.598	10447
920.708	10611
920.818	10421
920.928	10493
921.038	10668
921.148	10573
921.258	10337
921.368	10211
921.477	10188
921.587	10105
921.697	10029
921.806	10166
921.916	9998
922.025	9850
922.134	9861
922.244	9797
922.353	9797
922.462	9759
922.571	9656
922.68	9580
922.789	9576
922.898	9496
923.007	9488
923.116	9584
923.224	9496
923.333	9481
923.442	9462
923.55	9370
923.659	9435
923.767	9462
923.876	9332
923.984	9488
924.092	9336
924.201	9386
924.309	9382
924.417	9431
924.525	9340
924.633	9344
924.741	10261
924.849	9165
924.956	9332
925.064	9192
925.172	9127
925.279	9176
925.387	9211
925.494	9188
925.602	9367
925.709	9272
925.816	9116
925.924	9165
926.031	9249
926.138	9199
926.245	9211
926.352	9108
926.459	9222
926.566	9222
926.673	9138
926.779	9024
926.886	8982
926.993	8895
927.099	8853
927.206	8933
927.312	8956
927.419	9001
927.525	8876
927.631	8910
927.737	8834
927.843	8762
927.95	8667
928.056	8823
928.162	8815
928.267	8834
928.373	9340
928.479	8914
928.585	8674
928.69	8762
928.796	8883
928.901	8735
929.007	8556
929.112	8712
929.218	8716
929.323	8583
929.428	8594
929.533	8777
929.638	8526
929.743	8575
929.848	8697
929.953	8594
930.058	8465
930.163	8438
930.267	8408
930.372	8579
930.477	8366
930.581	8610
930.685	8408
930.79	8275
930.894	8309
930.998	8313
931.103	8473
931.207	8103
931.311	8016
931.415	8001
931.519	7849
931.623	7852
