Data from test_V78500241_1221.txt Node
Date: Fri Mar 25 14:42:13 CST 2022
User: usil
Spectrometer: V785-0024
Trigger mode: 0
Integration Time (sec): 4.000000E-1
Scans to average: 1
Nonlinearity correction enabled: false
Boxcar width: 0
Storing dark spectrum: false
XAxis mode: Wavelengths
Number of Pixels in Spectrum: 1024
>>>>>Begin Spectral Data<<<<<
801.071	22333
801.214	22295
801.356	22070
801.499	21953
801.641	21728
801.783	21656
801.926	21774
802.068	21622
802.211	21576
802.353	21469
802.496	21321
802.638	21233
802.78	21249
802.923	21195
803.065	21127
803.208	21013
803.35	21074
803.492	21085
803.635	21180
803.777	21116
803.919	21081
804.061	21466
804.204	21039
804.346	21184
804.488	20956
804.63	21089
804.773	20960
804.915	20925
805.057	21165
805.199	20861
805.341	21116
805.483	21051
805.626	21081
805.768	20937
805.91	20952
806.052	21005
806.194	20960
806.336	21150
806.478	21028
806.62	21005
806.762	21123
806.904	21336
807.046	21504
807.188	21344
807.33	21481
807.472	21405
807.614	21214
807.756	21370
807.898	21146
808.04	21093
808.182	21089
808.324	21100
808.465	21252
808.607	21408
808.749	21530
808.891	21564
809.033	21679
809.174	21576
809.316	21523
809.458	21553
809.6	21435
809.741	21504
809.883	21614
810.025	21587
810.166	21622
810.308	21637
810.45	21542
810.591	21473
810.733	21275
810.875	21359
811.016	21089
811.158	21108
811.299	21245
811.441	21332
811.582	21317
811.724	21203
811.865	21203
812.007	21252
812.148	21252
812.29	21214
812.431	21420
812.573	21542
812.714	21507
812.855	21755
812.997	21827
813.138	21960
813.279	21949
813.421	21762
813.562	21690
813.703	21492
813.845	21370
813.986	21062
814.127	21017
814.268	20716
814.41	20777
814.551	20864
814.692	20762
814.833	20659
814.974	20750
815.115	20762
815.256	20640
815.397	20625
815.539	20556
815.68	20571
815.821	20358
815.962	20476
816.103	20552
816.244	20358
816.385	20149
816.526	20252
816.666	20157
816.807	19967
816.948	19982
817.089	20005
817.23	19974
817.371	19955
817.512	19982
817.653	19788
817.793	19951
817.934	19894
818.075	20031
818.216	19970
818.356	19909
818.497	19761
818.638	19586
818.778	19624
818.919	19616
819.06	19681
819.2	19628
819.341	19799
819.481	19822
819.622	20027
819.762	20077
819.903	20096
820.043	20005
820.184	19974
820.324	19887
820.465	19963
820.605	19898
820.746	19917
820.886	19795
821.026	19822
821.167	19921
821.307	20020
821.447	19879
821.588	19715
821.728	19590
821.868	19567
822.008	19320
822.149	19354
822.289	19400
822.429	19000
822.569	19114
822.709	19019
822.849	18821
822.99	18837
823.13	18749
823.27	18719
823.41	18669
823.55	18566
823.69	18776
823.83	18681
823.97	18623
824.11	18555
824.25	18407
824.389	18376
824.529	18456
824.669	18471
824.809	18403
824.949	18502
825.089	18475
825.228	18429
825.368	18224
825.508	18216
825.648	18117
825.787	18270
825.927	18182
826.067	18205
826.206	18163
826.346	18311
826.485	18171
826.625	18197
826.765	18251
826.904	18251
827.044	17874
827.183	17939
827.323	17866
827.462	17977
827.601	17939
827.741	17866
827.88	17897
828.02	17699
828.159	17802
828.298	17984
828.437	17950
828.577	17828
828.716	18060
828.855	17832
828.994	17684
829.134	17627
829.273	17771
829.412	17623
829.551	17611
829.69	17653
829.829	17665
829.968	17794
830.107	17680
830.246	17592
830.385	17600
830.524	17684
830.663	17490
830.802	17334
830.941	17288
831.08	17242
831.219	17383
831.357	17372
831.496	17501
831.635	17296
831.774	17197
831.913	17239
832.051	17109
832.19	17079
832.329	17113
832.467	16942
832.606	16976
832.744	16919
832.883	16968
833.022	16930
833.16	16976
833.299	16984
833.437	17079
833.576	17124
833.714	16927
833.852	17105
833.991	17132
834.129	17109
834.267	17098
834.406	17029
834.544	17090
834.682	17029
834.821	16961
834.959	17200
835.097	16968
835.235	17060
835.373	17090
835.511	16991
835.65	16869
835.788	17086
835.926	16820
836.064	16717
836.202	16752
836.34	16961
836.478	17079
836.615	16908
836.753	16965
836.891	17010
837.029	16942
837.167	16850
837.305	16877
837.443	16934
837.58	16786
837.718	16858
837.856	16771
837.993	16790
838.131	16763
838.269	16725
838.406	16675
838.544	16691
838.681	16440
838.819	16440
838.956	16352
839.094	16360
839.231	16382
839.369	16413
839.506	16733
839.643	16687
839.781	16390
839.918	16272
840.055	16424
840.193	16360
840.33	16344
840.467	16428
840.604	16348
840.742	16596
840.879	16192
841.016	16211
841.153	16337
841.29	16398
841.427	16318
841.564	16363
841.701	16268
841.838	16291
841.975	16185
842.112	16211
842.249	16139
842.385	16067
842.522	16291
842.659	16101
842.796	16116
842.933	16109
843.069	16082
843.206	16147
843.343	16234
843.479	16188
843.616	16086
843.752	16055
843.889	15907
844.025	16067
844.162	15895
844.298	16082
844.435	15975
844.571	15922
844.708	15960
844.844	16040
844.98	16040
845.117	15983
845.253	15915
845.389	15915
845.525	15865
845.661	15937
845.798	15736
845.934	15739
846.07	15682
846.206	15759
846.342	16040
846.478	15759
846.614	15641
846.75	15454
846.886	15507
847.022	15587
847.158	15462
847.294	15519
847.429	15447
847.565	15428
847.701	15656
847.837	15233
847.972	15214
848.108	15313
848.244	15294
848.379	15195
848.515	15116
848.65	15138
848.786	15081
848.921	15176
849.057	15119
849.192	15192
849.328	15203
849.463	15146
849.598	15055
849.734	15100
849.869	15100
850.004	14830
850.14	14975
850.275	14868
850.41	14800
850.545	14807
850.68	14849
850.815	14880
850.95	14845
851.085	15066
851.22	15055
851.355	14815
851.49	14792
851.625	14834
851.76	14861
851.895	14815
852.03	14746
852.165	14933
852.299	14842
852.434	14982
852.569	14872
852.703	14906
852.838	14891
852.973	15024
853.107	14937
853.242	14864
853.376	14735
853.511	14621
853.645	14701
853.78	14842
853.914	14663
854.048	14659
854.183	14701
854.317	14743
854.451	14925
854.585	14800
854.72	14743
854.854	14826
854.988	14712
855.122	14716
855.256	14587
855.39	14636
855.524	14823
855.658	14716
855.792	14746
855.926	14823
856.06	14762
856.194	14777
856.327	14739
856.461	14655
856.595	14667
856.729	14689
856.862	14788
856.996	14819
857.13	14678
857.263	14785
857.397	14853
857.53	14708
857.664	14735
857.797	14785
857.931	14834
858.064	14819
858.197	14842
858.331	14670
858.464	14686
858.597	14625
858.731	14667
858.864	14724
858.997	14678
859.13	14731
859.263	14731
859.396	14724
859.529	14765
859.662	14705
859.795	14674
859.928	14708
860.061	14902
860.194	14971
860.327	14914
860.46	14739
860.592	14857
860.725	14777
860.858	14830
860.99	14640
861.123	14667
861.256	14590
861.388	14606
861.521	15481
861.653	14579
861.786	14533
861.918	14575
862.05	14682
862.183	14705
862.315	14758
862.447	14712
862.58	14758
862.712	14511
862.844	14454
862.976	14503
863.108	14556
863.24	14941
863.372	14396
863.504	14434
863.636	14427
863.768	14530
863.9	14488
864.032	14579
864.164	14507
864.296	14488
864.428	14564
864.559	14583
864.691	14636
864.823	14625
864.954	14480
865.086	14583
865.217	14434
865.349	14476
865.48	14434
865.612	14473
865.743	14651
865.875	14454
866.006	14518
866.137	14480
866.269	14488
866.4	14533
866.531	14408
866.662	14362
866.793	14389
866.924	14400
867.055	14412
867.186	14366
867.317	14343
867.448	14317
867.579	14370
867.71	14324
867.841	14332
867.972	14400
868.103	14389
868.233	14507
868.364	14412
868.495	14552
868.625	14758
868.756	14716
868.886	14606
869.017	14735
869.147	14891
869.278	14883
869.408	14739
869.539	14750
869.669	14807
869.799	14720
869.929	14785
870.06	14830
870.19	15024
870.32	15047
870.45	15032
870.58	15047
870.71	15252
870.84	15055
870.97	15036
871.1	15089
871.23	15302
871.36	15252
871.489	15268
871.619	15287
871.749	15313
871.879	15370
872.008	15348
872.138	15260
872.267	15374
872.397	15131
872.526	15184
872.656	15066
872.785	15131
872.915	15359
873.044	15412
873.173	15249
873.303	15344
873.432	15408
873.561	15428
873.69	15348
873.819	15332
873.948	15447
874.077	15401
874.206	15245
874.335	15321
874.464	15496
874.593	15705
874.722	15564
874.851	15720
874.979	15724
875.108	15660
875.237	15644
875.365	15660
875.494	15629
875.623	15778
875.751	15606
875.88	15759
876.008	15774
876.136	15778
876.265	16116
876.393	16112
876.521	16116
876.65	16226
876.778	16067
876.906	16048
877.034	16040
877.162	16032
877.29	16109
877.418	16124
877.546	16120
877.674	16120
877.802	16063
877.93	16211
878.058	16025
878.185	16021
878.313	16025
878.441	16048
878.568	16025
878.696	16063
878.824	16143
878.951	16223
879.079	16238
879.206	16432
879.333	16253
879.461	16173
879.588	16272
879.715	16409
879.842	16493
879.97	16188
880.097	15945
880.224	15937
880.351	16013
880.478	16044
880.605	15960
880.732	15869
880.859	16177
880.986	15956
881.112	15968
881.239	15774
881.366	15823
881.493	15705
881.619	15679
881.746	15519
881.872	15424
881.999	15587
882.125	15584
882.252	15595
882.378	15576
882.505	15747
882.631	15496
882.757	15458
882.883	15629
883.01	15370
883.136	15359
883.262	15230
883.388	15245
883.514	15386
883.64	15469
883.766	15412
883.892	15233
884.018	15275
884.143	15382
884.269	15458
884.395	15184
884.52	15154
884.646	15138
884.772	15055
884.897	15070
885.023	15089
885.148	15256
885.274	15264
885.399	15275
885.524	15169
885.65	15157
885.775	15188
885.9	15100
886.025	15264
886.15	15138
886.275	15127
886.4	14998
886.525	15100
886.65	15093
886.775	14998
886.9	15275
887.025	15397
887.149	15226
887.274	14960
887.399	14952
887.523	14895
887.648	14948
887.773	14811
887.897	15085
888.021	15028
888.146	14857
888.27	14979
888.395	15093
888.519	15043
888.643	14990
888.767	14971
888.891	14857
889.015	14937
889.139	14880
889.263	14842
889.387	14887
889.511	14952
889.635	14998
889.759	14777
889.883	14800
890.006	14861
890.13	14864
890.254	14754
890.377	14697
890.501	14560
890.624	14541
890.748	14689
890.871	14526
890.995	14438
891.118	14400
891.241	14530
891.364	14465
891.488	14613
891.611	14484
891.734	14530
891.857	14480
891.98	14484
892.103	14621
892.226	14556
892.349	14480
892.471	14339
892.594	14484
892.717	14560
892.839	14358
892.962	14499
893.085	14522
893.207	14518
893.33	14404
893.452	14400
893.575	14419
893.697	14473
893.819	14682
893.941	14636
894.064	14610
894.186	14450
894.308	14374
894.43	14659
894.552	14594
894.674	14697
894.796	14511
894.918	14537
895.04	14514
895.161	14629
895.283	14617
895.405	14530
895.526	14598
895.648	14503
895.769	14579
895.891	14663
896.012	14720
896.134	14693
896.255	14655
896.376	14625
896.498	14579
896.619	14686
896.74	14594
896.861	14746
896.982	14910
897.103	15135
897.224	14868
897.345	14857
897.466	14887
897.587	14906
897.708	15032
897.828	14914
897.949	14746
898.07	14754
898.19	14899
898.311	15001
898.431	14880
898.552	14967
898.672	15081
898.792	15058
898.913	14998
899.033	14880
899.153	14842
899.273	14678
899.393	14952
899.513	14864
899.633	14781
899.753	14941
899.873	14853
899.993	14800
900.113	14921
900.232	14838
900.352	14853
900.472	14727
900.591	14590
900.711	14678
900.83	14610
900.95	14781
901.069	14781
901.189	14602
901.308	14438
901.427	14313
901.546	14385
901.665	14385
901.784	14457
901.904	14233
902.023	14084
902.141	14039
902.26	13856
902.379	14001
902.498	13955
902.617	13856
902.735	13883
902.854	13894
902.973	13925
903.091	13616
903.21	13559
903.328	13700
903.446	13582
903.565	13415
903.683	13438
903.801	13491
903.919	13487
904.038	13449
904.156	13285
904.274	13312
904.392	13274
904.51	13327
904.627	13289
904.745	13289
904.863	13343
904.981	13076
905.098	12962
905.216	13023
905.334	12970
905.451	12932
905.569	12920
905.686	12989
905.803	13012
905.921	12905
906.038	12894
906.155	12787
906.272	12741
906.389	12722
906.506	12536
906.623	12578
906.74	12566
906.857	12464
906.974	12506
907.091	12677
907.208	12703
907.324	12608
907.441	12521
907.557	12327
907.674	12311
907.79	12194
907.907	12300
908.023	12361
908.139	12311
908.256	12220
908.372	12311
908.488	12251
908.604	12110
908.72	12079
908.836	12053
908.952	12003
909.068	12159
909.184	12190
909.3	12106
909.415	12110
909.531	12064
909.647	11908
909.762	11840
909.878	11843
909.993	11821
910.108	11847
910.224	11851
910.339	11939
910.454	11722
910.57	11661
910.685	11581
910.8	11935
910.915	11923
911.03	11760
911.145	11547
911.259	11444
911.374	11543
911.489	11467
911.604	11433
911.718	11246
911.833	11341
911.947	11231
912.062	11128
912.176	11299
912.291	11307
912.405	11273
912.519	11433
912.633	11452
912.748	11322
912.862	11337
912.976	11113
913.09	11037
913.204	11197
913.318	11174
913.431	11216
913.545	11189
913.659	11254
913.772	11170
913.886	11090
914	11064
914.113	11204
914.226	11193
914.34	11166
914.453	11029
914.566	11079
914.68	11029
914.793	10942
914.906	10858
915.019	10797
915.132	10660
915.245	10691
915.358	10786
915.47	10759
915.583	10812
915.696	10881
915.809	10858
915.921	10869
916.034	10733
916.146	10717
916.259	10717
916.371	10763
916.483	10736
916.595	10660
916.708	10687
916.82	10721
916.932	10694
917.044	10664
917.156	10687
917.268	10561
917.38	10615
917.491	10645
917.603	10531
917.715	10702
917.826	10702
917.938	10504
918.049	10497
918.161	10550
918.272	10729
918.384	10717
918.495	10683
918.606	10493
918.717	10341
918.828	10417
918.939	10478
919.05	10356
919.161	10481
919.272	10318
919.383	10344
919.494	10485
919.604	10767
919.715	10481
919.826	10451
919.936	10500
920.047	10516
920.157	10516
920.267	10687
920.378	10516
920.488	10436
920.598	10679
920.708	10904
920.818	10691
920.928	10649
921.038	10850
921.148	10831
921.258	10546
921.368	10341
921.477	10242
921.587	10318
921.697	10177
921.806	10394
921.916	10280
922.025	10086
922.134	9960
922.244	10017
922.353	10090
922.462	9960
922.571	9785
922.68	9740
922.789	9660
922.898	9690
923.007	9641
923.116	9698
923.224	9701
923.333	9743
923.442	9622
923.55	9568
923.659	9519
923.767	9690
923.876	9519
923.984	9686
924.092	9591
924.201	9572
924.309	9606
924.417	9530
924.525	9530
924.633	9561
924.741	10341
924.849	9393
924.956	9587
925.064	9294
925.172	9332
925.279	9397
925.387	9336
925.494	9321
925.602	9439
925.709	9439
925.816	9279
925.924	9378
926.031	9435
926.138	9382
926.245	9253
926.352	9230
926.459	9393
926.566	9496
926.673	9275
926.779	9180
926.886	9188
926.993	9104
927.099	9119
927.206	8979
927.312	9028
927.419	9116
927.525	9085
927.631	9157
927.737	9058
927.843	8956
927.95	8910
928.056	8914
928.162	8944
928.267	8960
928.373	9614
928.479	9009
928.585	8838
928.69	8910
928.796	8994
928.901	8902
929.007	8750
929.112	8842
929.218	8838
929.323	8785
929.428	8750
929.533	8895
929.638	8720
929.743	8773
929.848	8769
929.953	8659
930.058	8651
930.163	8457
930.267	8476
930.372	8659
930.477	8495
930.581	8701
930.685	8621
930.79	8533
930.894	8518
930.998	8419
931.103	8617
931.207	8252
931.311	8240
931.415	8096
931.519	7986
931.623	7951
