Data from test_V78500241_1425.txt Node
Date: Fri Mar 25 14:43:38 CST 2022
User: usil
Spectrometer: V785-0024
Trigger mode: 0
Integration Time (sec): 4.000000E-1
Scans to average: 1
Nonlinearity correction enabled: false
Boxcar width: 0
Storing dark spectrum: false
XAxis mode: Wavelengths
Number of Pixels in Spectrum: 1024
>>>>>Begin Spectral Data<<<<<
801.071	22451
801.214	22382
801.356	22086
801.499	21998
801.641	21831
801.783	21793
801.926	21838
802.068	21743
802.211	21713
802.353	21663
802.496	21287
802.638	21287
802.78	21237
802.923	21192
803.065	21081
803.208	21123
803.35	21043
803.492	21184
803.635	21359
803.777	21100
803.919	21214
804.061	21500
804.204	21207
804.346	21112
804.488	21058
804.63	21100
804.773	20933
804.915	21043
805.057	21173
805.199	21043
805.341	21252
805.483	21135
805.626	21070
805.768	21039
805.91	21157
806.052	21032
806.194	20952
806.336	21211
806.478	21062
806.62	21032
806.762	21085
806.904	21226
807.046	21389
807.188	21435
807.33	21435
807.472	21473
807.614	21325
807.756	21485
807.898	21222
808.04	21184
808.182	21275
808.324	21268
808.465	21344
808.607	21603
808.749	21698
808.891	21739
809.033	21774
809.174	21800
809.316	21526
809.458	21679
809.6	21481
809.741	21618
809.883	21724
810.025	21698
810.166	21667
810.308	21500
810.45	21625
810.591	21610
810.733	21291
810.875	21287
811.016	21245
811.158	21138
811.299	21199
811.441	21386
811.582	21332
811.724	21291
811.865	21298
812.007	21173
812.148	21230
812.29	21249
812.431	21329
812.573	21545
812.714	21690
812.855	21838
812.997	21800
813.138	21922
813.279	21778
813.421	21709
813.562	21667
813.703	21496
813.845	21401
813.986	21081
814.127	20891
814.268	20887
814.41	20785
814.551	20777
814.692	20804
814.833	20785
814.974	20800
815.115	20712
815.256	20556
815.397	20571
815.539	20644
815.68	20549
815.821	20533
815.962	20450
816.103	20495
816.244	20305
816.385	20206
816.526	20290
816.666	20126
816.807	19970
816.948	20058
817.089	20122
817.23	19993
817.371	19963
817.512	19856
817.653	19860
817.793	19845
817.934	19837
818.075	19864
818.216	19894
818.356	19906
818.497	19738
818.638	19571
818.778	19628
818.919	19643
819.06	19632
819.2	19704
819.341	19830
819.481	19765
819.622	19898
819.762	20195
819.903	20039
820.043	19913
820.184	19864
820.324	19967
820.465	20084
820.605	19944
820.746	19902
820.886	19746
821.026	19909
821.167	19841
821.307	19917
821.447	19898
821.588	19742
821.728	19502
821.868	19392
822.008	19266
822.149	19183
822.289	19225
822.429	19156
822.569	18958
822.709	19027
822.849	18894
822.99	18821
823.13	18817
823.27	18741
823.41	18559
823.55	18528
823.69	18681
823.83	18623
823.97	18475
824.11	18285
824.25	18365
824.389	18410
824.529	18391
824.669	18292
824.809	18384
824.949	18471
825.089	18494
825.228	18490
825.368	18239
825.508	18129
825.648	18117
825.787	18194
825.927	18254
826.067	18152
826.206	18190
826.346	18159
826.485	18197
826.625	18106
826.765	18266
826.904	18235
827.044	17931
827.183	17847
827.323	17866
827.462	17855
827.601	17790
827.741	17885
827.88	17802
828.02	17710
828.159	17786
828.298	17851
828.437	17931
828.577	17805
828.716	17973
828.855	17855
828.994	17707
829.134	17649
829.273	17585
829.412	17619
829.551	17623
829.69	17619
829.829	17615
829.968	17623
830.107	17710
830.246	17661
830.385	17516
830.524	17543
830.663	17315
830.802	17334
830.941	17212
831.08	17254
831.219	17231
831.357	17261
831.496	17452
831.635	17193
831.774	17231
831.913	17094
832.051	17029
832.19	16942
832.329	17102
832.467	16824
832.606	16957
832.744	16782
832.883	16896
833.022	16881
833.16	16896
833.299	17048
833.437	16949
833.576	16953
833.714	16896
833.852	16946
833.991	16984
834.129	16968
834.267	16976
834.406	16976
834.544	16980
834.682	16999
834.821	17014
834.959	17090
835.097	16820
835.235	16953
835.373	16919
835.511	16908
835.65	16957
835.788	16877
835.926	16816
836.064	16622
836.202	16740
836.34	16915
836.478	16991
836.615	16774
836.753	16850
836.891	16919
837.029	16885
837.167	16759
837.305	16869
837.443	16778
837.58	16668
837.718	16809
837.856	16637
837.993	16713
838.131	16710
838.269	16588
838.406	16645
838.544	16538
838.681	16462
838.819	16447
838.956	16238
839.094	16211
839.231	16299
839.369	16405
839.506	16637
839.643	16470
839.781	16219
839.918	16295
840.055	16356
840.193	16276
840.33	16200
840.467	16169
840.604	16295
840.742	16424
840.879	16067
841.016	16116
841.153	16261
841.29	16371
841.427	16242
841.564	16341
841.701	16249
841.838	16147
841.975	16196
842.112	16188
842.249	16067
842.385	15994
842.522	16188
842.659	15964
842.796	16021
842.933	15983
843.069	16120
843.206	15968
843.343	16059
843.479	16116
843.616	16036
843.752	15732
843.889	15785
844.025	15956
844.162	15774
844.298	15892
844.435	15743
844.571	15778
844.708	15945
844.844	16040
844.98	15968
845.117	15895
845.253	15770
845.389	15785
845.525	15930
845.661	15865
845.798	15888
845.934	15895
846.07	15915
846.206	15998
846.342	15922
846.478	15774
846.614	15572
846.75	15389
846.886	15355
847.022	15447
847.158	15458
847.294	15431
847.429	15462
847.565	15401
847.701	15690
847.837	15131
847.972	15123
848.108	15237
848.244	15211
848.379	15116
848.515	14979
848.65	14971
848.786	14963
848.921	15001
849.057	15085
849.192	15055
849.328	15051
849.463	15070
849.598	15028
849.734	14845
849.869	14868
850.004	14838
850.14	14800
850.275	14811
850.41	14701
850.545	14750
850.68	14765
850.815	14758
850.95	14727
851.085	14842
851.22	14861
851.355	14655
851.49	14686
851.625	14712
851.76	14727
851.895	14629
852.03	14674
852.165	14708
852.299	14777
852.434	14811
852.569	14716
852.703	14769
852.838	14811
852.973	14880
853.107	14994
853.242	14731
853.376	14560
853.511	14511
853.645	14678
853.78	14701
853.914	14651
854.048	14541
854.183	14602
854.317	14590
854.451	14705
854.585	14518
854.72	14598
854.854	14629
854.988	14526
855.122	14651
855.256	14454
855.39	14571
855.524	14644
855.658	14743
855.792	14678
855.926	14686
856.06	14606
856.194	14746
856.327	14568
856.461	14568
856.595	14533
856.729	14651
856.862	14682
856.996	14602
857.13	14720
857.263	14693
857.397	14731
857.53	14693
857.664	14731
857.797	14693
857.931	14705
858.064	14716
858.197	14613
858.331	14678
858.464	14606
858.597	14621
858.731	14644
858.864	14571
858.997	14579
859.13	14488
859.263	14720
859.396	14708
859.529	14613
859.662	14636
859.795	14636
859.928	14678
860.061	14746
860.194	14826
860.327	14663
860.46	14659
860.592	14708
860.725	14804
860.858	14689
860.99	14632
861.123	14678
861.256	14507
861.388	14636
861.521	15367
861.653	14476
861.786	14396
861.918	14473
862.05	14530
862.183	14560
862.315	14598
862.447	14621
862.58	14499
862.712	14442
862.844	14313
862.976	14549
863.108	14427
863.24	14944
863.372	14320
863.504	14362
863.636	14423
863.768	14385
863.9	14332
864.032	14339
864.164	14404
864.296	14408
864.428	14507
864.559	14419
864.691	14511
864.823	14465
864.954	14370
865.086	14396
865.217	14389
865.349	14396
865.48	14431
865.612	14328
865.743	14552
865.875	14320
866.006	14290
866.137	14389
866.269	14339
866.4	14298
866.531	14320
866.662	14408
866.793	14393
866.924	14237
867.055	14412
867.186	14339
867.317	14305
867.448	14229
867.579	14343
867.71	14393
867.841	14263
867.972	14339
868.103	14271
868.233	14415
868.364	14450
868.495	14434
868.625	14663
868.756	14556
868.886	14434
869.017	14644
869.147	14777
869.278	14727
869.408	14689
869.539	14686
869.669	14743
869.799	14651
869.929	14792
870.06	14716
870.19	14963
870.32	14990
870.45	14910
870.58	14994
870.71	15135
870.84	15058
870.97	15039
871.1	15123
871.23	15264
871.36	15218
871.489	15055
871.619	15131
871.749	15199
871.879	15180
872.008	15325
872.138	15325
872.267	15230
872.397	15123
872.526	15070
872.656	14986
872.785	15077
872.915	15230
873.044	15294
873.173	15207
873.303	15367
873.432	15256
873.561	15302
873.69	15363
873.819	15283
873.948	15294
874.077	15207
874.206	15199
874.335	15298
874.464	15389
874.593	15534
874.722	15545
874.851	15534
874.979	15530
875.108	15606
875.237	15507
875.365	15450
875.494	15549
875.623	15595
875.751	15564
875.88	15553
876.008	15637
876.136	15774
876.265	16017
876.393	16086
876.521	16124
876.65	16021
876.778	16071
876.906	15953
877.034	16002
877.162	15953
877.29	15907
877.418	16055
877.546	15960
877.674	15953
877.802	15994
877.93	16055
878.058	15968
878.185	15895
878.313	15926
878.441	16044
878.568	15873
878.696	16002
878.824	16021
878.951	16105
879.079	16268
879.206	16360
879.333	16291
879.461	16139
879.588	16036
879.715	16348
879.842	16436
879.97	16188
880.097	15911
880.224	15922
880.351	15854
880.478	15816
880.605	15888
880.732	15876
880.859	16185
880.986	15884
881.112	15842
881.239	15717
881.366	15637
881.493	15561
881.619	15595
881.746	15564
881.872	15504
881.999	15458
882.125	15534
882.252	15595
882.378	15504
882.505	15694
882.631	15454
882.757	15283
882.883	15382
883.01	15310
883.136	15340
883.262	15142
883.388	15161
883.514	15306
883.64	15351
883.766	15340
883.892	15180
884.018	15157
884.143	15302
884.269	15382
884.395	15085
884.52	15009
884.646	14986
884.772	14925
884.897	14956
885.023	15055
885.148	15169
885.274	15218
885.399	15165
885.524	15100
885.65	15093
885.775	15013
885.9	15058
886.025	15184
886.15	15154
886.275	14948
886.4	14868
886.525	14994
886.65	15009
886.775	14982
886.9	15176
887.025	15226
887.149	14963
887.274	14895
887.399	14811
887.523	14861
887.648	14868
887.773	14693
887.897	15001
888.021	15017
888.146	14910
888.27	14914
888.395	14963
888.519	14952
888.643	14937
888.767	14929
888.891	14765
889.015	14648
889.139	14705
889.263	14701
889.387	14796
889.511	14914
889.635	14842
889.759	14720
889.883	14682
890.006	14762
890.13	14785
890.254	14541
890.377	14697
890.501	14415
890.624	14465
890.748	14632
890.871	14415
890.995	14317
891.118	14347
891.241	14404
891.364	14412
891.488	14454
891.611	14415
891.734	14473
891.857	14465
891.98	14362
892.103	14404
892.226	14457
892.349	14404
892.471	14195
892.594	14469
892.717	14434
892.839	14355
892.962	14419
893.085	14415
893.207	14358
893.33	14332
893.452	14271
893.575	14431
893.697	14244
893.819	14568
893.941	14594
894.064	14530
894.186	14370
894.308	14263
894.43	14461
894.552	14556
894.674	14533
894.796	14400
894.918	14438
895.04	14366
895.161	14636
895.283	14579
895.405	14541
895.526	14518
895.648	14473
895.769	14495
895.891	14583
896.012	14598
896.134	14590
896.255	14541
896.376	14522
896.498	14507
896.619	14522
896.74	14590
896.861	14636
896.982	14845
897.103	15020
897.224	14788
897.345	14792
897.466	14724
897.587	14823
897.708	14933
897.828	14899
897.949	14750
898.07	14663
898.19	14716
898.311	14918
898.431	14792
898.552	15017
898.672	14990
898.792	14887
898.913	14864
899.033	14823
899.153	14800
899.273	14678
899.393	14750
899.513	14735
899.633	14777
899.753	14826
899.873	14655
899.993	14845
900.113	14765
900.232	14667
900.352	14746
900.472	14678
900.591	14549
900.711	14693
900.83	14564
900.95	14735
901.069	14651
901.189	14530
901.308	14336
901.427	14191
901.546	14324
901.665	14377
901.784	14290
901.904	14134
902.023	14172
902.141	13986
902.26	13879
902.379	13864
902.498	13849
902.617	13856
902.735	13833
902.854	13769
902.973	13712
903.091	13609
903.21	13518
903.328	13620
903.446	13552
903.565	13392
903.683	13331
903.801	13236
903.919	13362
904.038	13388
904.156	13179
904.274	13278
904.392	13179
904.51	13263
904.627	13187
904.745	13289
904.863	13274
904.981	13091
905.098	12875
905.216	12886
905.334	12875
905.451	12905
905.569	12856
905.686	12920
905.803	12894
905.921	12764
906.038	12814
906.155	12795
906.272	12616
906.389	12631
906.506	12525
906.623	12429
906.74	12517
906.857	12361
906.974	12410
907.091	12563
907.208	12646
907.324	12517
907.441	12369
907.557	12266
907.674	12277
907.79	12239
907.907	12133
908.023	12216
908.139	12201
908.256	12190
908.372	12186
908.488	12068
908.604	12045
908.72	11927
908.836	11996
908.952	11954
909.068	11950
909.184	11954
909.3	11965
909.415	12038
909.531	12034
909.647	11756
909.762	11786
909.878	11733
909.993	11809
910.108	11699
910.224	11726
910.339	11836
910.454	11707
910.57	11573
910.685	11505
910.8	11870
910.915	11771
911.03	11581
911.145	11417
911.259	11455
911.374	11425
911.489	11356
911.604	11277
911.718	11208
911.833	11258
911.947	11025
912.062	11014
912.176	11174
912.291	11273
912.405	11239
912.519	11318
912.633	11383
912.748	11284
912.862	11227
912.976	11022
913.09	10961
913.204	11010
913.318	11060
913.431	11159
913.545	11181
913.659	11204
913.772	11067
913.886	11003
914	10877
914.113	11048
914.226	11086
914.34	11041
914.453	10881
914.566	11018
914.68	10953
914.793	10854
914.906	10649
915.019	10687
915.132	10607
915.245	10744
915.358	10767
915.47	10744
915.583	10679
915.696	10691
915.809	10839
915.921	10877
916.034	10714
916.146	10687
916.259	10607
916.371	10694
916.483	10714
916.595	10573
916.708	10668
916.82	10675
916.932	10565
917.044	10653
917.156	10603
917.268	10478
917.38	10489
917.491	10462
917.603	10489
917.715	10717
917.826	10577
917.938	10569
918.049	10424
918.161	10535
918.272	10641
918.384	10550
918.495	10508
918.606	10398
918.717	10295
918.828	10375
918.939	10322
919.05	10310
919.161	10344
919.272	10162
919.383	10188
919.494	10481
919.604	10626
919.715	10466
919.826	10284
919.936	10382
920.047	10500
920.157	10398
920.267	10584
920.378	10424
920.488	10318
920.598	10596
920.708	10694
920.818	10577
920.928	10603
921.038	10755
921.148	10721
921.258	10455
921.368	10352
921.477	10173
921.587	10211
921.697	10082
921.806	10303
921.916	10109
922.025	9960
922.134	9964
922.244	9876
922.353	10010
922.462	9915
922.571	9842
922.68	9679
922.789	9656
922.898	9682
923.007	9595
923.116	9694
923.224	9667
923.333	9572
923.442	9553
923.55	9450
923.659	9610
923.767	9656
923.876	9557
923.984	9656
924.092	9523
924.201	9553
924.309	9561
924.417	9466
924.525	9431
924.633	9462
924.741	10481
924.849	9363
924.956	9492
925.064	9332
925.172	9272
925.279	9264
925.387	9321
925.494	9431
925.602	9466
925.709	9389
925.816	9256
925.924	9268
926.031	9386
926.138	9370
926.245	9447
926.352	9291
926.459	9389
926.566	9332
926.673	9310
926.779	9165
926.886	9176
926.993	9062
927.099	9066
927.206	9039
927.312	9036
927.419	9055
927.525	9070
927.631	9039
927.737	8986
927.843	8963
927.95	8830
928.056	8895
928.162	8944
928.267	9005
928.373	9625
928.479	9070
928.585	8758
928.69	8956
928.796	8933
928.901	8853
929.007	8670
929.112	8891
929.218	8800
929.323	8792
929.428	8773
929.533	8880
929.638	8663
929.743	8739
929.848	8758
929.953	8705
930.058	8625
930.163	8465
930.267	8518
930.372	8667
930.477	8484
930.581	8708
930.685	8682
930.79	8480
930.894	8530
930.998	8454
931.103	8526
931.207	8267
931.311	8229
931.415	8161
931.519	7947
931.623	7898
