Data from test_V78500241_3061.txt Node
Date: Fri Mar 25 14:55:01 CST 2022
User: usil
Spectrometer: V785-0024
Trigger mode: 0
Integration Time (sec): 4.000000E-1
Scans to average: 1
Nonlinearity correction enabled: false
Boxcar width: 0
Storing dark spectrum: false
XAxis mode: Wavelengths
Number of Pixels in Spectrum: 1024
>>>>>Begin Spectral Data<<<<<
801.071	22036
801.214	22044
801.356	21762
801.499	21500
801.641	21477
801.783	21481
801.926	21591
802.068	21332
802.211	21313
802.353	21218
802.496	21020
802.638	20933
802.78	20994
802.923	20876
803.065	20743
803.208	20819
803.35	20792
803.492	20823
803.635	20941
803.777	20762
803.919	20785
804.061	21077
804.204	20777
804.346	20788
804.488	20701
804.63	20773
804.773	20746
804.915	20800
805.057	20826
805.199	20670
805.341	20811
805.483	20834
805.626	20788
805.768	20785
805.91	20678
806.052	20663
806.194	20518
806.336	20906
806.478	20651
806.62	20689
806.762	20701
806.904	20876
807.046	21039
807.188	21028
807.33	21032
807.472	21058
807.614	20990
807.756	20910
807.898	20819
808.04	20720
808.182	20750
808.324	20842
808.465	20826
808.607	20986
808.749	21032
808.891	21207
809.033	21260
809.174	21127
809.316	21085
809.458	21051
809.6	21047
809.741	21256
809.883	21150
810.025	21226
810.166	21272
810.308	21195
810.45	21233
810.591	21055
810.733	20971
810.875	20876
811.016	20823
811.158	20750
811.299	20941
811.441	20918
811.582	21043
811.724	20872
811.865	20807
812.007	20838
812.148	20906
812.29	20982
812.431	21058
812.573	21218
812.714	21355
812.855	21370
812.997	21492
813.138	21732
813.279	21469
813.421	21340
813.562	21245
813.703	20944
813.845	21051
813.986	20807
814.127	20564
814.268	20465
814.41	20419
814.551	20431
814.692	20480
814.833	20286
814.974	20412
815.115	20358
815.256	20225
815.397	20347
815.539	20153
815.68	20214
815.821	20107
815.962	20161
816.103	20138
816.244	20027
816.385	19841
816.526	19830
816.666	19693
816.807	19575
816.948	19647
817.089	19613
817.23	19594
817.371	19491
817.512	19422
817.653	19533
817.793	19472
817.934	19506
818.075	19502
818.216	19476
818.356	19396
818.497	19403
818.638	19183
818.778	19213
818.919	19209
819.06	19202
819.2	19327
819.341	19388
819.481	19464
819.622	19567
819.762	19757
819.903	19647
820.043	19605
820.184	19430
820.324	19362
820.465	19525
820.605	19575
820.746	19468
820.886	19441
821.026	19426
821.167	19495
821.307	19518
821.447	19407
821.588	19266
821.728	19175
821.868	19133
822.008	18875
822.149	18894
822.289	18897
822.429	18669
822.569	18654
822.709	18566
822.849	18285
822.99	18319
823.13	18433
823.27	18391
823.41	18174
823.55	18171
823.69	18266
823.83	18277
823.97	18125
824.11	18038
824.25	17939
824.389	17980
824.529	18064
824.669	17893
824.809	18155
824.949	17980
825.089	18030
825.228	17942
825.368	17821
825.508	17661
825.648	17752
825.787	17798
825.927	17863
826.067	17771
826.206	17714
826.346	17703
826.485	17741
826.625	17707
826.765	17805
826.904	17733
827.044	17562
827.183	17577
827.323	17433
827.462	17509
827.601	17509
827.741	17376
827.88	17410
828.02	17254
828.159	17360
828.298	17463
828.437	17535
828.577	17383
828.716	17524
828.855	17334
828.994	17117
829.134	17197
829.273	17204
829.412	17075
829.551	17117
829.69	17105
829.829	17242
829.968	17239
830.107	17239
830.246	17140
830.385	17105
830.524	17045
830.663	17037
830.802	16984
830.941	16767
831.08	16824
831.219	16885
831.357	16896
831.496	17014
831.635	16805
831.774	16599
831.913	16698
832.051	16550
832.19	16546
832.329	16558
832.467	16451
832.606	16363
832.744	16447
832.883	16485
833.022	16382
833.16	16459
833.299	16512
833.437	16538
833.576	16504
833.714	16466
833.852	16531
833.991	16565
834.129	16622
834.267	16554
834.406	16394
834.544	16558
834.682	16607
834.821	16462
834.959	16641
835.097	16481
835.235	16599
835.373	16569
835.511	16607
835.65	16367
835.788	16402
835.926	16200
836.064	16166
836.202	16257
836.34	16512
836.478	16432
836.615	16413
836.753	16375
836.891	16474
837.029	16451
837.167	16348
837.305	16386
837.443	16318
837.58	16299
837.718	16280
837.856	16341
837.993	16272
838.131	16223
838.269	16284
838.406	16188
838.544	16120
838.681	15975
838.819	16093
838.956	15842
839.094	15884
839.231	15888
839.369	15907
839.506	16181
839.643	16059
839.781	15759
839.918	15789
840.055	15827
840.193	15869
840.33	15766
840.467	15819
840.604	15842
840.742	16116
840.879	15793
841.016	15743
841.153	15667
841.29	15903
841.427	15903
841.564	16017
841.701	15762
841.838	15698
841.975	15713
842.112	15766
842.249	15637
842.385	15644
842.522	15785
842.659	15641
842.796	15576
842.933	15564
843.069	15568
843.206	15397
843.343	15606
843.479	15576
843.616	15507
843.752	15336
843.889	15363
844.025	15504
844.162	15329
844.298	15534
844.435	15412
844.571	15447
844.708	15359
844.844	15477
844.98	15580
845.117	15523
845.253	15386
845.389	15256
845.525	15222
845.661	15146
845.798	15214
845.934	15180
846.07	15165
846.206	15237
846.342	15355
846.478	15150
846.614	14960
846.75	14921
846.886	14956
847.022	15032
847.158	14979
847.294	14994
847.429	15104
847.565	14910
847.701	15222
847.837	14716
847.972	14644
848.108	14678
848.244	14712
848.379	14610
848.515	14552
848.65	14541
848.786	14518
848.921	14602
849.057	14556
849.192	14682
849.328	14579
849.463	14598
849.598	14655
849.734	14461
849.869	14355
850.004	14358
850.14	14259
850.275	14374
850.41	14252
850.545	14282
850.68	14286
850.815	14423
850.95	14267
851.085	14522
851.22	14370
851.355	14374
851.49	14294
851.625	14313
851.76	14275
851.895	14240
852.03	14225
852.165	14252
852.299	14370
852.434	14309
852.569	14389
852.703	14271
852.838	14393
852.973	14298
853.107	14396
853.242	14195
853.376	14206
853.511	14062
853.645	14084
853.78	14317
853.914	14221
854.048	14161
854.183	14123
854.317	14168
854.451	14385
854.585	14134
854.72	14138
854.854	14221
854.988	14138
855.122	14115
855.256	14115
855.39	14195
855.524	14244
855.658	14240
855.792	14199
855.926	14252
856.06	14271
856.194	14263
856.327	14210
856.461	14138
856.595	14195
856.729	14138
856.862	14396
856.996	14168
857.13	14301
857.263	14358
857.397	14336
857.53	14237
857.664	14320
857.797	14214
857.931	14377
858.064	14252
858.197	14336
858.331	14183
858.464	14237
858.597	14142
858.731	14187
858.864	14172
858.997	14229
859.13	14252
859.263	14275
859.396	14366
859.529	14149
859.662	14191
859.795	14145
859.928	14187
860.061	14377
860.194	14358
860.327	14259
860.46	14244
860.592	14408
860.725	14366
860.858	14317
860.99	14252
861.123	14138
861.256	14126
861.388	14199
861.521	14956
861.653	14123
861.786	14054
861.918	14081
862.05	14126
862.183	14237
862.315	14180
862.447	14229
862.58	14164
862.712	13970
862.844	13925
862.976	14024
863.108	14027
863.24	14324
863.372	13967
863.504	14039
863.636	13982
863.768	14043
863.9	13974
864.032	13913
864.164	13986
864.296	13959
864.428	14092
864.559	14161
864.691	14046
864.823	14058
864.954	14035
865.086	14046
865.217	13906
865.349	13917
865.48	13940
865.612	13913
865.743	14103
865.875	13978
866.006	14046
866.137	13932
866.269	13989
866.4	13967
866.531	13974
866.662	13826
866.793	13868
866.924	13955
867.055	14012
867.186	13917
867.317	13887
867.448	13875
867.579	13955
867.71	13936
867.841	13818
867.972	13967
868.103	13875
868.233	14005
868.364	14016
868.495	14130
868.625	14149
868.756	14267
868.886	14088
869.017	14130
869.147	14381
869.278	14290
869.408	14187
869.539	14214
869.669	14294
869.799	14271
869.929	14355
870.06	14358
870.19	14590
870.32	14434
870.45	14488
870.58	14629
870.71	14731
870.84	14705
870.97	14579
871.1	14606
871.23	14876
871.36	14731
871.489	14720
871.619	14823
871.749	14811
871.879	14929
872.008	14883
872.138	14819
872.267	14781
872.397	14735
872.526	14727
872.656	14632
872.785	14640
872.915	14872
873.044	14918
873.173	14872
873.303	14880
873.432	14948
873.561	14994
873.69	14838
873.819	14819
873.948	14998
874.077	14895
874.206	14944
874.335	14823
874.464	15036
874.593	15135
874.722	15165
874.851	15222
874.979	15256
875.108	15249
875.237	15142
875.365	15218
875.494	15074
875.623	15272
875.751	15085
875.88	15138
876.008	15370
876.136	15450
876.265	15652
876.393	15717
876.521	15637
876.65	15610
876.778	15633
876.906	15507
877.034	15584
877.162	15584
877.29	15447
877.418	15656
877.546	15534
877.674	15728
877.802	15732
877.93	15584
878.058	15511
878.185	15515
878.313	15526
878.441	15580
878.568	15351
878.696	15637
878.824	15648
878.951	15663
879.079	15835
879.206	15880
879.333	15743
879.461	15682
879.588	15732
879.715	15804
879.842	15911
879.97	15644
880.097	15386
880.224	15526
880.351	15443
880.478	15481
880.605	15386
880.732	15359
880.859	15679
880.986	15466
881.112	15564
881.239	15344
881.366	15207
881.493	15222
881.619	15055
881.746	15135
881.872	15051
881.999	15180
882.125	15100
882.252	15192
882.378	15165
882.505	15287
882.631	14990
882.757	14876
882.883	14990
883.01	14914
883.136	14918
883.262	14864
883.388	14792
883.514	15009
883.64	14998
883.766	14849
883.892	14697
884.018	14792
884.143	14906
884.269	15116
884.395	14632
884.52	14598
884.646	14663
884.772	14682
884.897	14431
885.023	14663
885.148	14705
885.274	14777
885.399	14670
885.524	14621
885.65	14663
885.775	14636
885.9	14571
886.025	14731
886.15	14716
886.275	14533
886.4	14522
886.525	14625
886.65	14457
886.775	14564
886.9	14716
887.025	14872
887.149	14587
887.274	14484
887.399	14446
887.523	14457
887.648	14438
887.773	14347
887.897	14541
888.021	14537
888.146	14442
888.27	14514
888.395	14571
888.519	14518
888.643	14537
888.767	14602
888.891	14347
889.015	14362
889.139	14366
889.263	14256
889.387	14427
889.511	14564
889.635	14377
889.759	14256
889.883	14317
890.006	14275
890.13	14370
890.254	14336
890.377	14252
890.501	14035
890.624	14149
890.748	14256
890.871	14100
890.995	14054
891.118	13925
891.241	13967
891.364	14005
891.488	14073
891.611	14062
891.734	13970
891.857	14081
891.98	14100
892.103	14149
892.226	14016
892.349	13978
892.471	13898
892.594	14001
892.717	13997
892.839	13986
892.962	14058
893.085	14062
893.207	13978
893.33	13947
893.452	14005
893.575	14050
893.697	13997
893.819	14221
893.941	14195
894.064	14309
894.186	13944
894.308	13959
894.43	14153
894.552	14176
894.674	14180
894.796	14065
894.918	14103
895.04	14081
895.161	14237
895.283	14100
895.405	14081
895.526	14054
895.648	14077
895.769	14256
895.891	14180
896.012	14248
896.134	14267
896.255	14164
896.376	14183
896.498	14282
896.619	14187
896.74	14225
896.861	14313
896.982	14484
897.103	14712
897.224	14518
897.345	14450
897.466	14412
897.587	14495
897.708	14545
897.828	14480
897.949	14484
898.07	14294
898.19	14476
898.311	14571
898.431	14415
898.552	14602
898.672	14678
898.792	14667
898.913	14651
899.033	14507
899.153	14457
899.273	14377
899.393	14438
899.513	14393
899.633	14446
899.753	14499
899.873	14404
899.993	14469
900.113	14393
900.232	14412
900.352	14400
900.472	14328
900.591	14252
900.711	14263
900.83	14267
900.95	14419
901.069	14434
901.189	14225
901.308	14031
901.427	13986
901.546	13978
901.665	13989
901.784	13993
901.904	13845
902.023	13826
902.141	13582
902.26	13533
902.379	13655
902.498	13480
902.617	13354
902.735	13552
902.854	13548
902.973	13396
903.091	13362
903.21	13343
903.328	13266
903.446	13103
903.565	13114
903.683	13114
903.801	12947
903.919	13110
904.038	13080
904.156	13004
904.274	13057
904.392	12977
904.51	12837
904.627	12901
904.745	12935
904.863	13042
904.981	12779
905.098	12673
905.216	12646
905.334	12601
905.451	12715
905.569	12612
905.686	12700
905.803	12566
905.921	12414
906.038	12509
906.155	12475
906.272	12330
906.389	12285
906.506	12114
906.623	12220
906.74	12167
906.857	12121
906.974	12072
907.091	12235
907.208	12376
907.324	12304
907.441	12159
907.557	12007
907.674	11923
907.79	11889
907.907	11954
908.023	11912
908.139	11889
908.256	11901
908.372	11863
908.488	11870
908.604	11665
908.72	11737
908.836	11703
908.952	11630
909.068	11684
909.184	11684
909.3	11699
909.415	11771
909.531	11737
909.647	11482
909.762	11467
909.878	11455
909.993	11414
910.108	11444
910.224	11433
910.339	11425
910.454	11436
910.57	11269
910.685	11261
910.8	11520
910.915	11490
911.03	11364
911.145	11166
911.259	11128
911.374	11124
911.489	11170
911.604	11079
911.718	10915
911.833	10919
911.947	10908
912.062	10820
912.176	10938
912.291	10923
912.405	10911
912.519	11071
912.633	11048
912.748	11056
912.862	10980
912.976	10771
913.09	10733
913.204	10740
913.318	10759
913.431	10885
913.545	10911
913.659	10934
913.772	10797
913.886	10675
914	10573
914.113	10809
914.226	10858
914.34	10831
914.453	10599
914.566	10736
914.68	10637
914.793	10565
914.906	10455
915.019	10409
915.132	10360
915.245	10295
915.358	10481
915.47	10519
915.583	10360
915.696	10432
915.809	10607
915.921	10668
916.034	10451
916.146	10436
916.259	10379
916.371	10478
916.483	10409
916.595	10261
916.708	10424
916.82	10417
916.932	10398
917.044	10424
917.156	10325
917.268	10196
917.38	10299
917.491	10181
917.603	10322
917.715	10375
917.826	10322
917.938	10284
918.049	10158
918.161	10147
918.272	10371
918.384	10428
918.495	10253
918.606	10234
918.717	10071
918.828	10204
918.939	10219
919.05	10067
919.161	10131
919.272	9956
919.383	10029
919.494	10166
919.604	10405
919.715	10192
919.826	10082
919.936	10128
920.047	10246
920.157	10227
920.267	10310
920.378	10185
920.488	10131
920.598	10337
920.708	10508
920.818	10352
920.928	10325
921.038	10565
921.148	10478
921.258	10173
921.368	10120
921.477	10036
921.587	9941
921.697	9899
921.806	10025
921.916	9888
922.025	9698
922.134	9823
922.244	9740
922.353	9789
922.462	9644
922.571	9507
922.68	9393
922.789	9367
922.898	9454
923.007	9416
923.116	9428
923.224	9382
923.333	9416
923.442	9329
923.55	9233
923.659	9275
923.767	9332
923.876	9260
923.984	9378
924.092	9233
924.201	9287
924.309	9317
924.417	9313
924.525	9264
924.633	9230
924.741	10219
924.849	9066
924.956	9272
925.064	9097
925.172	8933
925.279	9081
925.387	9138
925.494	9089
925.602	9211
925.709	9184
925.816	9013
925.924	9089
926.031	9222
926.138	9127
926.245	9131
926.352	8986
926.459	9116
926.566	9165
926.673	9020
926.779	8902
926.886	8895
926.993	8842
927.099	8807
927.206	8804
927.312	8716
927.419	8868
927.525	8800
927.631	8819
927.737	8708
927.843	8667
927.95	8606
928.056	8682
928.162	8708
928.267	8777
928.373	9218
928.479	8785
928.585	8552
928.69	8701
928.796	8750
928.901	8598
929.007	8484
929.112	8617
929.218	8560
929.323	8503
929.428	8537
929.533	8617
929.638	8488
929.743	8476
929.848	8636
929.953	8469
930.058	8332
930.163	8298
930.267	8362
930.372	8415
930.477	8294
930.581	8526
930.685	8320
930.79	8183
930.894	8294
930.998	8225
931.103	8393
931.207	8062
931.311	7986
931.415	7890
931.519	7734
931.623	7776
