Data from test_V78500241_3471.txt Node
Date: Fri Mar 25 14:57:53 CST 2022
User: usil
Spectrometer: V785-0024
Trigger mode: 0
Integration Time (sec): 4.000000E-1
Scans to average: 1
Nonlinearity correction enabled: false
Boxcar width: 0
Storing dark spectrum: false
XAxis mode: Wavelengths
Number of Pixels in Spectrum: 1024
>>>>>Begin Spectral Data<<<<<
801.071	21922
801.214	21857
801.356	21557
801.499	21408
801.641	21176
801.783	21291
801.926	21306
802.068	21317
802.211	21161
802.353	20971
802.496	20834
802.638	20720
802.78	20625
802.923	20560
803.065	20446
803.208	20518
803.35	20667
803.492	20716
803.635	20686
803.777	20579
803.919	20609
804.061	20933
804.204	20678
804.346	20602
804.488	20461
804.63	20537
804.773	20355
804.915	20587
805.057	20594
805.199	20454
805.341	20488
805.483	20621
805.626	20526
805.768	20408
805.91	20492
806.052	20465
806.194	20488
806.336	20609
806.478	20473
806.62	20484
806.762	20682
806.904	20522
807.046	20933
807.188	20834
807.33	20731
807.472	20872
807.614	20769
807.756	20765
807.898	20606
808.04	20484
808.182	20514
808.324	20602
808.465	20518
808.607	20788
808.749	20830
808.891	20986
809.033	21013
809.174	20914
809.316	20800
809.458	20804
809.6	20857
809.741	20921
809.883	20876
810.025	21001
810.166	20994
810.308	20998
810.45	20864
810.591	20826
810.733	20697
810.875	20579
811.016	20438
811.158	20556
811.299	20625
811.441	20792
811.582	20777
811.724	20541
811.865	20469
812.007	20575
812.148	20724
812.29	20609
812.431	20883
812.573	20918
812.714	20967
812.855	21123
812.997	21138
813.138	21287
813.279	21298
813.421	21036
813.562	21058
813.703	20921
813.845	20716
813.986	20358
814.127	20408
814.268	20164
814.41	20267
814.551	20111
814.692	20214
814.833	20172
814.974	20195
815.115	20187
815.256	19982
815.397	19936
815.539	19986
815.68	19925
815.821	19875
815.962	19955
816.103	19852
816.244	19746
816.385	19597
816.526	19502
816.666	19487
816.807	19312
816.948	19316
817.089	19464
817.23	19350
817.371	19270
817.512	19160
817.653	19221
817.793	19148
817.934	19179
818.075	19259
818.216	19228
818.356	19297
818.497	19042
818.638	19065
818.778	18993
818.919	18981
819.06	18943
819.2	19107
819.341	19179
819.481	19091
819.622	19377
819.762	19468
819.903	19346
820.043	19362
820.184	19194
820.324	19263
820.465	19346
820.605	19278
820.746	19217
820.886	19168
821.026	19152
821.167	19175
821.307	19263
821.447	19194
821.588	19133
821.728	18920
821.868	18692
822.008	18528
822.149	18703
822.289	18582
822.429	18346
822.569	18414
822.709	18289
822.849	18262
822.99	18106
823.13	18121
823.27	18163
823.41	17977
823.55	17939
823.69	17969
823.83	18019
823.97	17935
824.11	17794
824.25	17600
824.389	17733
824.529	17851
824.669	17817
824.809	17798
824.949	17646
825.089	17756
825.228	17760
825.368	17608
825.508	17509
825.648	17535
825.787	17592
825.927	17532
826.067	17444
826.206	17452
826.346	17512
826.485	17611
826.625	17520
826.765	17551
826.904	17596
827.044	17414
827.183	17235
827.323	17159
827.462	17307
827.601	17193
827.741	17155
827.88	17166
828.02	17064
828.159	17178
828.298	17216
828.437	17345
828.577	17159
828.716	17402
828.855	17197
828.994	16938
829.134	17048
829.273	16999
829.412	16831
829.551	16965
829.69	16911
829.829	17029
829.968	17094
830.107	17010
830.246	17109
830.385	16828
830.524	16896
830.663	16824
830.802	16767
830.941	16554
831.08	16580
831.219	16717
831.357	16740
831.496	16953
831.635	16527
831.774	16542
831.913	16516
832.051	16417
832.19	16348
832.329	16497
832.467	16500
832.606	16105
832.744	16234
832.883	16242
833.022	16329
833.16	16295
833.299	16333
833.437	16314
833.576	16348
833.714	16375
833.852	16371
833.991	16344
834.129	16394
834.267	16390
834.406	16394
834.544	16409
834.682	16337
834.821	16322
834.959	16607
835.097	16306
835.235	16531
835.373	16394
835.511	16436
835.65	16234
835.788	16291
835.926	16074
836.064	16139
836.202	16101
836.34	16363
836.478	16405
836.615	16287
836.753	16238
836.891	16379
837.029	16230
837.167	16177
837.305	16253
837.443	16204
837.58	16128
837.718	16238
837.856	16055
837.993	16097
838.131	16185
838.269	16154
838.406	16158
838.544	16021
838.681	15918
838.819	15816
838.956	15743
839.094	15747
839.231	15827
839.369	15934
839.506	16120
839.643	15934
839.781	15759
839.918	15584
840.055	15709
840.193	15785
840.33	15625
840.467	15724
840.604	15732
840.742	15975
840.879	15663
841.016	15618
841.153	15603
841.29	15800
841.427	15724
841.564	15728
841.701	15766
841.838	15724
841.975	15549
842.112	15690
842.249	15553
842.385	15458
842.522	15599
842.659	15511
842.796	15526
842.933	15466
843.069	15450
843.206	15416
843.343	15523
843.479	15458
843.616	15576
843.752	15313
843.889	15310
844.025	15466
844.162	15249
844.298	15313
844.435	15317
844.571	15192
844.708	15287
844.844	15492
844.98	15412
845.117	15492
845.253	15329
845.389	15169
845.525	15268
845.661	15218
845.798	15009
845.934	15070
846.07	15036
846.206	15036
846.342	15199
846.478	15055
846.614	14880
846.75	14868
846.886	14868
847.022	14963
847.158	14857
847.294	14849
847.429	14864
847.565	14834
847.701	15093
847.837	14617
847.972	14488
848.108	14781
848.244	14693
848.379	14556
848.515	14518
848.65	14511
848.786	14438
848.921	14503
849.057	14610
849.192	14476
849.328	14556
849.463	14434
849.598	14480
849.734	14427
849.869	14351
850.004	14286
850.14	14278
850.275	14259
850.41	14084
850.545	14084
850.68	14244
850.815	14305
850.95	14164
851.085	14396
851.22	14339
851.355	14347
851.49	14195
851.625	14206
851.76	14145
851.895	14084
852.03	14164
852.165	14214
852.299	14290
852.434	14370
852.569	14214
852.703	14191
852.838	14267
852.973	14313
853.107	14290
853.242	14286
853.376	14084
853.511	13986
853.645	14073
853.78	14199
853.914	14111
854.048	14157
854.183	14031
854.317	14069
854.451	14244
854.585	14107
854.72	14054
854.854	14180
854.988	14043
855.122	14062
855.256	13925
855.39	14084
855.524	14153
855.658	14187
855.792	14096
855.926	14153
856.06	14229
856.194	14286
856.327	14164
856.461	14054
856.595	14020
856.729	14084
856.862	14176
856.996	14123
857.13	14210
857.263	14183
857.397	14229
857.53	14157
857.664	14138
857.797	14248
857.931	14324
858.064	14142
858.197	14161
858.331	14050
858.464	14088
858.597	13974
858.731	14103
858.864	14183
858.997	14103
859.13	14088
859.263	14123
859.396	14202
859.529	14138
859.662	14035
859.795	14081
859.928	14221
860.061	14278
860.194	14294
860.327	14126
860.46	14005
860.592	14248
860.725	14214
860.858	14187
860.99	14161
861.123	13989
861.256	14069
861.388	14069
861.521	14864
861.653	14039
861.786	13925
861.918	13982
862.05	13963
862.183	14119
862.315	14077
862.447	14191
862.58	14005
862.712	13947
862.844	13913
862.976	14001
863.108	13902
863.24	14339
863.372	13795
863.504	13955
863.636	13883
863.768	13951
863.9	13944
864.032	13837
864.164	13864
864.296	14001
864.428	14035
864.559	14046
864.691	13947
864.823	13951
864.954	13963
865.086	13967
865.217	13879
865.349	13845
865.48	13803
865.612	13940
865.743	14065
865.875	13917
866.006	13845
866.137	13940
866.269	13871
866.4	13818
866.531	13871
866.662	13833
866.793	13746
866.924	13849
867.055	13830
867.186	13837
867.317	13875
867.448	13696
867.579	13803
867.71	13807
867.841	13753
867.972	13837
868.103	13833
868.233	13921
868.364	13875
868.495	14065
868.625	14096
868.756	14240
868.886	14134
869.017	14027
869.147	14248
869.278	14248
869.408	14126
869.539	14123
869.669	14195
869.799	14180
869.929	14172
870.06	14313
870.19	14465
870.32	14385
870.45	14545
870.58	14545
870.71	14610
870.84	14640
870.97	14518
871.1	14606
871.23	14693
871.36	14773
871.489	14674
871.619	14655
871.749	14689
871.879	14796
872.008	14815
872.138	14735
872.267	14678
872.397	14564
872.526	14564
872.656	14393
872.785	14590
872.915	14765
873.044	14804
873.173	14788
873.303	14712
873.432	14823
873.561	14880
873.69	14804
873.819	14773
873.948	14815
874.077	14754
874.206	14743
874.335	14765
874.464	15001
874.593	15108
874.722	14990
874.851	15180
874.979	15085
875.108	15165
875.237	15036
875.365	15051
875.494	15074
875.623	15211
875.751	15036
875.88	15226
876.008	15146
876.136	15382
876.265	15431
876.393	15656
876.521	15694
876.65	15625
876.778	15481
876.906	15523
877.034	15408
877.162	15477
877.29	15378
877.418	15568
877.546	15523
877.674	15641
877.802	15618
877.93	15447
878.058	15519
878.185	15481
878.313	15538
878.441	15428
878.568	15344
878.696	15473
878.824	15580
878.951	15549
879.079	15747
879.206	15739
879.333	15686
879.461	15526
879.588	15599
879.715	15789
879.842	15770
879.97	15606
880.097	15412
880.224	15340
880.351	15469
880.478	15332
880.605	15389
880.732	15298
880.859	15584
880.986	15397
881.112	15485
881.239	15226
881.366	15241
881.493	15146
881.619	14979
881.746	15005
881.872	15077
881.999	14963
882.125	14914
882.252	15024
882.378	15104
882.505	15188
882.631	14975
882.757	14811
882.883	14857
883.01	14876
883.136	14735
883.262	14648
883.388	14594
883.514	14880
883.64	14914
883.766	14686
883.892	14541
884.018	14648
884.143	14842
884.269	14914
884.395	14663
884.52	14549
884.646	14537
884.772	14419
884.897	14419
885.023	14541
885.148	14621
885.274	14773
885.399	14689
885.524	14575
885.65	14556
885.775	14629
885.9	14514
886.025	14629
886.15	14648
886.275	14537
886.4	14454
886.525	14511
886.65	14393
886.775	14507
886.9	14636
887.025	14857
887.149	14583
887.274	14358
887.399	14332
887.523	14476
887.648	14286
887.773	14248
887.897	14450
888.021	14465
888.146	14309
888.27	14450
888.395	14526
888.519	14457
888.643	14362
888.767	14450
888.891	14374
889.015	14252
889.139	14362
889.263	14191
889.387	14282
889.511	14431
889.635	14419
889.759	14153
889.883	14282
890.006	14290
890.13	14370
890.254	14176
890.377	14244
890.501	14115
890.624	14012
890.748	14142
890.871	13978
890.995	13868
891.118	13814
891.241	14046
891.364	13936
891.488	14058
891.611	13921
891.734	13928
891.857	13993
891.98	14001
892.103	14043
892.226	13940
892.349	13993
892.471	13807
892.594	13864
892.717	14046
892.839	13925
892.962	13890
893.085	14081
893.207	13955
893.33	13879
893.452	13906
893.575	13993
893.697	13932
893.819	14240
893.941	14187
894.064	14062
894.186	14043
894.308	13898
894.43	14035
894.552	14142
894.674	14172
894.796	13986
894.918	14024
895.04	14058
895.161	14035
895.283	14134
895.405	13967
895.526	14050
895.648	14054
895.769	14084
895.891	14183
896.012	14290
896.134	14100
896.255	14096
896.376	14027
896.498	14100
896.619	14176
896.74	14202
896.861	14138
896.982	14530
897.103	14701
897.224	14408
897.345	14454
897.466	14370
897.587	14381
897.708	14564
897.828	14533
897.949	14358
898.07	14278
898.19	14339
898.311	14530
898.431	14484
898.552	14412
898.672	14598
898.792	14522
898.913	14556
899.033	14461
899.153	14298
899.273	14324
899.393	14305
899.513	14377
899.633	14385
899.753	14358
899.873	14263
899.993	14404
900.113	14362
900.232	14465
900.352	14309
900.472	14313
900.591	14119
900.711	14202
900.83	14229
900.95	14298
901.069	14309
901.189	14111
901.308	13894
901.427	13814
901.546	13913
901.665	13951
901.784	13898
901.904	13742
902.023	13636
902.141	13571
902.26	13514
902.379	13491
902.498	13422
902.617	13365
902.735	13441
902.854	13400
902.973	13282
903.091	13133
903.21	13289
903.328	13152
903.446	13213
903.565	12928
903.683	13076
903.801	12970
903.919	13046
904.038	13000
904.156	12840
904.274	12859
904.392	12817
904.51	12821
904.627	12772
904.745	12859
904.863	13004
904.981	12639
905.098	12433
905.216	12555
905.334	12544
905.451	12494
905.569	12483
905.686	12555
905.803	12585
905.921	12346
906.038	12467
906.155	12327
906.272	12273
906.389	12289
906.506	12148
906.623	12205
906.74	12045
906.857	12049
906.974	11992
907.091	12197
907.208	12186
907.324	12121
907.441	12049
907.557	11893
907.674	11893
907.79	11843
907.907	11897
908.023	11912
908.139	11817
908.256	11821
908.372	11851
908.488	11802
908.604	11676
908.72	11611
908.836	11688
908.952	11665
909.068	11676
909.184	11680
909.3	11600
909.415	11760
909.531	11695
909.647	11471
909.762	11425
909.878	11379
909.993	11467
910.108	11433
910.224	11410
910.339	11414
910.454	11315
910.57	11315
910.685	11216
910.8	11497
910.915	11486
911.03	11288
911.145	11223
911.259	11109
911.374	11075
911.489	11022
911.604	10995
911.718	10896
911.833	10896
911.947	10755
912.062	10725
912.176	10809
912.291	10896
912.405	10812
912.519	11056
912.633	11033
912.748	10885
912.862	10927
912.976	10790
913.09	10622
913.204	10710
913.318	10755
913.431	10896
913.545	10835
913.659	10793
913.772	10755
913.886	10675
914	10611
914.113	10702
914.226	10778
914.34	10805
914.453	10569
914.566	10679
914.68	10611
914.793	10577
914.906	10333
915.019	10390
915.132	10280
915.245	10363
915.358	10386
915.47	10481
915.583	10440
915.696	10402
915.809	10569
915.921	10519
916.034	10432
916.146	10299
916.259	10200
916.371	10466
916.483	10329
916.595	10295
916.708	10379
916.82	10329
916.932	10291
917.044	10306
917.156	10246
917.268	10173
917.38	10219
917.491	10200
917.603	10211
917.715	10272
917.826	10249
917.938	10242
918.049	10044
918.161	10207
918.272	10329
918.384	10360
918.495	10230
918.606	10101
918.717	10036
918.828	10173
918.939	10109
919.05	10025
919.161	10090
919.272	9903
919.383	9979
919.494	10166
919.604	10322
919.715	10101
919.826	10063
919.936	10150
920.047	10253
920.157	10109
920.267	10299
920.378	10204
920.488	10093
920.598	10306
920.708	10421
920.818	10394
920.928	10341
921.038	10394
921.148	10455
921.258	10131
921.368	10082
921.477	9991
921.587	9964
921.697	9827
921.806	10059
921.916	9873
922.025	9755
922.134	9682
922.244	9705
922.353	9743
922.462	9534
922.571	9515
922.68	9370
922.789	9332
922.898	9355
923.007	9348
923.116	9447
923.224	9389
923.333	9412
923.442	9211
923.55	9245
923.659	9264
923.767	9313
923.876	9150
923.984	9329
924.092	9203
924.201	9287
924.309	9226
924.417	9310
924.525	9230
924.633	9135
924.741	10040
924.849	9039
924.956	9294
925.064	8986
925.172	8990
925.279	8952
925.387	9036
925.494	9131
925.602	9157
925.709	9127
925.816	8918
925.924	9074
926.031	9142
926.138	9013
926.245	9127
926.352	8963
926.459	9135
926.566	9154
926.673	8979
926.779	8899
926.886	8910
926.993	8739
927.099	8659
927.206	8716
927.312	8708
927.419	8788
927.525	8754
927.631	8815
927.737	8674
927.843	8678
927.95	8587
928.056	8594
928.162	8594
928.267	8686
928.373	9256
928.479	8788
928.585	8526
928.69	8617
928.796	8788
928.901	8610
929.007	8389
929.112	8598
929.218	8530
929.323	8469
929.428	8530
929.533	8568
929.638	8370
929.743	8434
929.848	8583
929.953	8400
930.058	8408
930.163	8256
930.267	8286
930.372	8389
930.477	8267
930.581	8438
930.685	8358
930.79	8164
930.894	8229
930.998	8172
931.103	8298
931.207	8012
931.311	7868
931.415	7837
931.519	7704
931.623	7677
