Data from test_V78500241_514.txt Node
Date: Fri Mar 25 14:37:17 CST 2022
User: usil
Spectrometer: V785-0024
Trigger mode: 0
Integration Time (sec): 4.000000E-1
Scans to average: 1
Nonlinearity correction enabled: false
Boxcar width: 0
Storing dark spectrum: false
XAxis mode: Wavelengths
Number of Pixels in Spectrum: 1024
>>>>>Begin Spectral Data<<<<<
801.071	27005
801.214	26933
801.356	26682
801.499	26560
801.641	26465
801.783	26533
801.926	26457
802.068	26206
802.211	26244
802.353	26153
802.496	25970
802.638	26054
802.78	25989
802.923	25811
803.065	25719
803.208	25913
803.35	25807
803.492	25989
803.635	25986
803.777	25890
803.919	25898
804.061	26263
804.204	26027
804.346	25826
804.488	25780
804.63	25818
804.773	25712
804.915	25852
805.057	26024
805.199	25959
805.341	25921
805.483	26016
805.626	26001
805.768	25940
805.91	25917
806.052	25890
806.194	25959
806.336	26332
806.478	26065
806.62	26077
806.762	26195
806.904	26473
807.046	26773
807.188	26533
807.33	26705
807.472	26842
807.614	26705
807.756	26781
807.898	26990
808.04	27138
808.182	27310
808.324	27785
808.465	28291
808.607	28774
808.749	29246
808.891	29562
809.033	29699
809.174	29216
809.316	28862
809.458	28306
809.6	28017
809.741	27534
809.883	27332
810.025	27321
810.166	27214
810.308	27009
810.45	26849
810.591	26697
810.733	26644
810.875	26514
811.016	26320
811.158	26343
811.299	26366
811.441	26568
811.582	26400
811.724	26267
811.865	26309
812.007	26358
812.148	26339
812.29	26282
812.431	26453
812.573	26484
812.714	26651
812.855	26606
812.997	26746
813.138	26910
813.279	26689
813.421	26773
813.562	26571
813.703	26541
813.845	26415
813.986	26126
814.127	25845
814.268	25700
814.41	25803
814.551	25689
814.692	25928
814.833	25677
814.974	25712
815.115	25769
815.256	25533
815.397	25635
815.539	25506
815.68	25434
815.821	25339
815.962	25502
816.103	25354
816.244	25240
816.385	25072
816.526	25088
816.666	24932
816.807	24829
816.948	24833
817.089	24981
817.23	24741
817.371	24768
817.512	24810
817.653	24798
817.793	24749
817.934	24779
818.075	24669
818.216	24734
818.356	24749
818.497	24544
818.638	24414
818.778	24475
818.919	24486
819.06	24452
819.2	24551
819.341	24677
819.481	24692
819.622	24939
819.762	24943
819.903	24852
820.043	24817
820.184	24795
820.324	24817
820.465	24817
820.605	24852
820.746	24722
820.886	24639
821.026	24570
821.167	24673
821.307	24650
821.447	24650
821.588	24486
821.728	24334
821.868	24273
822.008	23988
822.149	24007
822.289	23988
822.429	23767
822.569	23585
822.709	23745
822.849	23493
822.99	23528
823.13	23562
823.27	23376
823.41	23440
823.55	23212
823.69	23326
823.83	23383
823.97	23181
824.11	23113
824.25	23010
824.389	23037
824.529	23090
824.669	23086
824.809	23117
824.949	23208
825.089	23117
825.228	23014
825.368	22889
825.508	22930
825.648	22923
825.787	22790
825.927	22885
826.067	22824
826.206	22835
826.346	22934
826.485	22862
826.625	22900
826.765	22881
826.904	22957
827.044	22630
827.183	22596
827.323	22497
827.462	22630
827.601	22478
827.741	22565
827.88	22557
828.02	22428
828.159	22325
828.298	22577
828.437	22542
828.577	22390
828.716	22588
828.855	22485
828.994	22173
829.134	22306
829.273	22303
829.412	22242
829.551	22112
829.69	22116
829.829	22303
829.968	22265
830.107	22234
830.246	22192
830.385	22090
830.524	22139
830.663	21930
830.802	21808
830.941	21686
831.08	21629
831.219	21880
831.357	21857
831.496	22021
831.635	21739
831.774	21751
831.913	21603
832.051	21431
832.19	21580
832.329	21633
832.467	21458
832.606	21370
832.744	21378
832.883	21504
833.022	21294
833.16	21500
833.299	21561
833.437	21431
833.576	21667
833.714	21542
833.852	21622
833.991	21660
834.129	21656
834.267	21686
834.406	21492
834.544	21492
834.682	21534
834.821	21389
834.959	21732
835.097	21473
835.235	21511
835.373	21401
835.511	21450
835.65	21370
835.788	21336
835.926	21104
836.064	21150
836.202	21043
836.34	21226
836.478	21405
836.615	21298
836.753	21321
836.891	21313
837.029	21245
837.167	21184
837.305	21226
837.443	21142
837.58	21131
837.718	21154
837.856	21176
837.993	20921
838.131	21062
838.269	21043
838.406	21005
838.544	20868
838.681	20739
838.819	20651
838.956	20518
839.094	20476
839.231	20705
839.369	20739
839.506	20899
839.643	20826
839.781	20579
839.918	20446
840.055	20419
840.193	20495
840.33	20568
840.467	20587
840.604	20518
840.742	20826
840.879	20282
841.016	20347
841.153	20381
841.29	20590
841.427	20484
841.564	20549
841.701	20396
841.838	20366
841.975	20339
842.112	20320
842.249	20278
842.385	20172
842.522	20298
842.659	20259
842.796	20153
842.933	20229
843.069	20180
843.206	20107
843.343	20233
843.479	20229
843.616	20176
843.752	20062
843.889	19982
844.025	20126
844.162	20012
844.298	20100
844.435	20005
844.571	19883
844.708	20092
844.844	20229
844.98	20286
845.117	20366
845.253	20332
845.389	20644
845.525	21001
845.661	21610
845.798	22367
845.934	23288
846.07	23516
846.206	23402
846.342	22991
846.478	21987
846.614	20929
846.75	20286
846.886	19947
847.022	19921
847.158	19719
847.294	19639
847.429	19495
847.565	19529
847.701	19712
847.837	19206
847.972	19206
848.108	19259
848.244	19247
848.379	19206
848.515	18943
848.65	18947
848.786	18935
848.921	19046
849.057	18973
849.192	19004
849.328	18954
849.463	18924
849.598	18932
849.734	18920
849.869	18901
850.004	18798
850.14	18757
850.275	18711
850.41	18544
850.545	18658
850.68	18703
850.815	18821
850.95	18673
851.085	18909
851.22	18779
851.355	18673
851.49	18730
851.625	18627
851.76	18681
851.895	18521
852.03	18582
852.165	18654
852.299	18582
852.434	18768
852.569	18673
852.703	18776
852.838	18707
852.973	18875
853.107	18852
853.242	18532
853.376	18585
853.511	18460
853.645	18540
853.78	18673
853.914	18654
854.048	18612
854.183	18521
854.317	18574
854.451	18779
854.585	18574
854.72	18601
854.854	18555
854.988	18483
855.122	18544
855.256	18464
855.39	18506
855.524	18544
855.658	18517
855.792	18502
855.926	18525
856.06	18566
856.194	18517
856.327	18414
856.461	18376
856.595	18445
856.729	18456
856.862	18635
856.996	18490
857.13	18525
857.263	18623
857.397	18551
857.53	18509
857.664	18559
857.797	18464
857.931	18544
858.064	18506
858.197	18665
858.331	18445
858.464	18475
858.597	18376
858.731	18452
858.864	18441
858.997	18437
859.13	18467
859.263	18475
859.396	18578
859.529	18399
859.662	18353
859.795	18448
859.928	18498
860.061	18578
860.194	18631
860.327	18391
860.46	18437
860.592	18551
860.725	18532
860.858	18475
860.99	18380
861.123	18319
861.256	18365
861.388	18365
861.521	19221
861.653	18289
861.786	18270
861.918	18304
862.05	18346
862.183	18391
862.315	18452
862.447	18528
862.58	18513
862.712	18247
862.844	18186
862.976	18308
863.108	18182
863.24	18646
863.372	18098
863.504	18171
863.636	18194
863.768	18224
863.9	18064
864.032	18064
864.164	18091
864.296	18205
864.428	18330
864.559	18266
864.691	18121
864.823	18152
864.954	18125
865.086	18311
865.217	18140
865.349	18076
865.48	18060
865.612	18049
865.743	18163
865.875	18144
866.006	18041
866.137	18171
866.269	18049
866.4	18129
866.531	17946
866.662	17950
866.793	18060
866.924	18068
867.055	17980
867.186	18003
867.317	17946
867.448	17939
867.579	18072
867.71	17878
867.841	17916
867.972	17999
868.103	18022
868.233	17901
868.364	18015
868.495	18022
868.625	18254
868.756	18399
868.886	18247
869.017	18216
869.147	18350
869.278	18311
869.408	18171
869.539	18270
869.669	18311
869.799	18270
869.929	18372
870.06	18353
870.19	18616
870.32	18410
870.45	18623
870.58	18692
870.71	18658
870.84	18772
870.97	18639
871.1	18612
871.23	18886
871.36	18966
871.489	18772
871.619	18833
871.749	18817
871.879	18928
872.008	18913
872.138	18848
872.267	18844
872.397	18627
872.526	18692
872.656	18684
872.785	18757
872.915	18882
873.044	18954
873.173	18920
873.303	18993
873.432	18951
873.561	18897
873.69	19015
873.819	18939
873.948	18989
874.077	18977
874.206	18981
874.335	18882
874.464	19076
874.593	19225
874.722	19228
874.851	19206
874.979	19118
875.108	19335
875.237	19148
875.365	19168
875.494	19274
875.623	19343
875.751	19312
875.88	19362
876.008	19400
876.136	19556
876.265	19658
876.393	19807
876.521	19841
876.65	19890
876.778	19799
876.906	19734
877.034	19639
877.162	19742
877.29	19772
877.418	19712
877.546	19807
877.674	19746
877.802	19738
877.93	19811
878.058	19788
878.185	19753
878.313	19814
878.441	19917
878.568	19830
878.696	20016
878.824	20172
878.951	20358
879.079	20697
879.206	20986
879.333	21226
879.461	21344
879.588	21511
879.715	21701
879.842	21557
879.97	21093
880.097	20609
880.224	20381
880.351	20294
880.478	20233
880.605	19989
880.732	20024
880.859	20149
880.986	20115
881.112	20001
881.239	19879
881.366	19769
881.493	19609
881.619	19666
881.746	19567
881.872	19597
881.999	19533
882.125	19533
882.252	19628
882.378	19571
882.505	19734
882.631	19548
882.757	19422
882.883	19476
883.01	19419
883.136	19339
883.262	19213
883.388	19381
883.514	19354
883.64	19430
883.766	19354
883.892	19141
884.018	19118
884.143	19278
884.269	19384
884.395	19190
884.52	19072
884.646	19050
884.772	18897
884.897	18798
885.023	19012
885.148	19179
885.274	19118
885.399	19008
885.524	18989
885.65	19023
885.775	19038
885.9	18894
886.025	19126
886.15	18966
886.275	18703
886.4	18802
886.525	18806
886.65	18700
886.775	18772
886.9	18962
887.025	19057
887.149	18711
887.274	18665
887.399	18551
887.523	18544
887.648	18486
887.773	18384
887.897	18513
888.021	18452
888.146	18407
888.27	18525
888.395	18582
888.519	18521
888.643	18517
888.767	18429
888.891	18403
889.015	18243
889.139	18338
889.263	18213
889.387	18365
889.511	18391
889.635	18338
889.759	18182
889.883	18228
890.006	18228
890.13	18319
890.254	18091
890.377	18125
890.501	18068
890.624	17939
890.748	18060
890.871	17840
890.995	17748
891.118	17794
891.241	17908
891.364	17767
891.488	17859
891.611	17836
891.734	17748
891.857	17817
891.98	17794
892.103	18026
892.226	17912
892.349	17729
892.471	17581
892.594	17680
892.717	17798
892.839	17653
892.962	17775
893.085	17748
893.207	17699
893.33	17512
893.452	17585
893.575	17733
893.697	17623
893.819	17882
893.941	17916
894.064	17832
894.186	17615
894.308	17535
894.43	17722
894.552	17794
894.674	17760
894.796	17619
894.918	17623
895.04	17691
895.161	17805
895.283	17764
895.405	17752
895.526	17741
895.648	17646
895.769	17684
895.891	17767
896.012	17790
896.134	17752
896.255	17661
896.376	17657
896.498	17790
896.619	17722
896.74	17737
896.861	17893
896.982	18205
897.103	18239
897.224	18045
897.345	17920
897.466	17901
897.587	17999
897.708	18060
897.828	17980
897.949	18030
898.07	17855
898.19	17927
898.311	18098
898.431	17946
898.552	17904
898.672	18053
898.792	18022
898.913	17977
899.033	17836
899.153	17874
899.273	17691
899.393	17756
899.513	17726
899.633	17771
899.753	17737
899.873	17649
899.993	17748
900.113	17718
900.232	17676
900.352	17657
900.472	17638
900.591	17535
900.711	17611
900.83	17558
900.95	17745
901.069	17695
901.189	17524
901.308	17440
901.427	17143
901.546	17254
901.665	17296
901.784	17208
901.904	17071
902.023	16915
902.141	16668
902.26	16809
902.379	16801
902.498	16706
902.617	16630
902.735	16759
902.854	16721
902.973	16504
903.091	16443
903.21	16500
903.328	16352
903.446	16310
903.565	16303
903.683	16280
903.801	16051
903.919	16166
904.038	16234
904.156	15964
904.274	16093
904.392	16071
904.51	15857
904.627	15911
904.745	15953
904.863	16051
904.981	15808
905.098	15606
905.216	15625
905.334	15587
905.451	15618
905.569	15572
905.686	15614
905.803	15656
905.921	15458
906.038	15500
906.155	15515
906.272	15405
906.389	15306
906.506	15176
906.623	15268
906.74	15119
906.857	15055
906.974	15070
907.091	15222
907.208	15294
907.324	15222
907.441	15055
907.557	14887
907.674	14868
907.79	14830
907.907	14857
908.023	14899
908.139	14990
908.256	14823
908.372	14746
908.488	14727
908.604	14610
908.72	14556
908.836	14579
908.952	14480
909.068	14503
909.184	14640
909.3	14541
909.415	14648
909.531	14518
909.647	14450
909.762	14431
909.878	14221
909.993	14313
910.108	14267
910.224	14282
910.339	14218
910.454	14176
910.57	14077
910.685	14107
910.8	14362
910.915	14221
911.03	14153
911.145	13871
911.259	13967
911.374	13944
911.489	13807
911.604	13704
911.718	13658
911.833	13658
911.947	13506
912.062	13449
912.176	13658
912.291	13651
912.405	13597
912.519	13883
912.633	13791
912.748	13620
912.862	13597
912.976	13483
913.09	13362
913.204	13468
913.318	13521
913.431	13677
913.545	13658
913.659	13525
913.772	13506
913.886	13247
914	13282
914.113	13457
914.226	13365
914.34	13453
914.453	13240
914.566	13297
914.68	13274
914.793	13225
914.906	13027
915.019	13015
915.132	12954
915.245	12977
915.358	12951
915.47	13015
915.583	13069
915.696	13091
915.809	13110
915.921	13183
916.034	12924
916.146	12795
916.259	12916
916.371	13038
916.483	12985
916.595	12871
916.708	12878
916.82	12962
916.932	12886
917.044	12821
917.156	12802
917.268	12703
917.38	12715
917.491	12783
917.603	12738
917.715	12814
917.826	12848
917.938	12631
918.049	12677
918.161	12658
918.272	12802
918.384	12833
918.495	12722
918.606	12509
918.717	12414
918.828	12597
918.939	12563
919.05	12479
919.161	12483
919.272	12235
919.383	12296
919.494	12513
919.604	12726
919.715	12521
919.826	12388
919.936	12540
920.047	12532
920.157	12490
920.267	12673
920.378	12532
920.488	12494
920.598	12707
920.708	12837
920.818	12757
920.928	12654
921.038	12749
921.148	12753
921.258	12479
921.368	12448
921.477	12300
921.587	12281
921.697	12232
921.806	12285
921.916	12163
922.025	11984
922.134	11950
922.244	11855
922.353	11882
922.462	11821
922.571	11748
922.68	11577
922.789	11649
922.898	11638
923.007	11623
923.116	11634
923.224	11509
923.333	11604
923.442	11440
923.55	11383
923.659	11425
923.767	11573
923.876	11417
923.984	11501
924.092	11360
924.201	11421
924.309	11334
924.417	11383
924.525	11322
924.633	11410
924.741	12091
924.849	11159
924.956	11349
925.064	11128
925.172	11067
925.279	11117
925.387	11181
925.494	11117
925.602	11239
925.709	11212
925.816	10999
925.924	11132
926.031	11208
926.138	11010
926.245	11212
926.352	11018
926.459	11181
926.566	11174
926.673	11014
926.779	10965
926.886	10862
926.993	10702
927.099	10725
927.206	10778
927.312	10733
927.419	10839
927.525	10752
927.631	10809
927.737	10694
927.843	10573
927.95	10546
928.056	10641
928.162	10668
928.267	10618
928.373	11147
928.479	10672
928.585	10531
928.69	10573
928.796	10634
928.901	10497
929.007	10398
929.112	10443
929.218	10421
929.323	10352
929.428	10344
929.533	10470
929.638	10230
929.743	10284
929.848	10405
929.953	10303
930.058	10234
930.163	10063
930.267	10051
930.372	10287
930.477	10002
930.581	10371
930.685	10158
930.79	10025
930.894	10086
930.998	9991
931.103	10124
931.207	9751
931.311	9663
931.415	9652
931.519	9374
931.623	9473
