Data from test_V78500241_2113.txt Node
Date: Fri Mar 25 14:48:25 CST 2022
User: usil
Spectrometer: V785-0024
Trigger mode: 0
Integration Time (sec): 4.000000E-1
Scans to average: 1
Nonlinearity correction enabled: false
Boxcar width: 0
Storing dark spectrum: false
XAxis mode: Wavelengths
Number of Pixels in Spectrum: 1024
>>>>>Begin Spectral Data<<<<<
801.071	22017
801.214	21876
801.356	21732
801.499	21759
801.641	21530
801.783	21355
801.926	21412
802.068	21405
802.211	21363
802.353	21279
802.496	21119
802.638	20986
802.78	20971
802.923	20880
803.065	20826
803.208	20796
803.35	20724
803.492	20994
803.635	20906
803.777	20857
803.919	20910
804.061	21207
804.204	20914
804.346	20777
804.488	20602
804.63	20811
804.773	20579
804.915	20777
805.057	20948
805.199	20792
805.341	20800
805.483	20830
805.626	20830
805.768	20800
805.91	20716
806.052	20663
806.194	20689
806.336	21028
806.478	20724
806.62	20708
806.762	20804
806.904	20895
807.046	21108
807.188	21036
807.33	21017
807.472	21032
807.614	20918
807.756	21005
807.898	20899
808.04	20872
808.182	20735
808.324	20876
808.465	20830
808.607	20990
808.749	21222
808.891	21283
809.033	21313
809.174	21298
809.316	21119
809.458	21135
809.6	21028
809.741	21093
809.883	21184
810.025	21272
810.166	21283
810.308	21211
810.45	21211
810.591	21135
810.733	21055
810.875	20948
811.016	20861
811.158	20632
811.299	21009
811.441	21146
811.582	20960
811.724	20773
811.865	20910
812.007	20777
812.148	20826
812.29	20864
812.431	20956
812.573	21211
812.714	21306
812.855	21260
812.997	21488
813.138	21599
813.279	21549
813.421	21447
813.562	21367
813.703	21142
813.845	20971
813.986	20750
814.127	20526
814.268	20579
814.41	20358
814.551	20461
814.692	20507
814.833	20294
814.974	20499
815.115	20393
815.256	20278
815.397	20271
815.539	20259
815.68	20301
815.821	20176
815.962	20172
816.103	20096
816.244	20008
816.385	19871
816.526	19868
816.666	19780
816.807	19605
816.948	19655
817.089	19791
817.23	19693
817.371	19571
817.512	19578
817.653	19624
817.793	19559
817.934	19567
818.075	19620
818.216	19499
818.356	19544
818.497	19373
818.638	19202
818.778	19198
818.919	19190
819.06	19285
819.2	19422
819.341	19426
819.481	19571
819.622	19601
819.762	19932
819.903	19624
820.043	19624
820.184	19624
820.324	19563
820.465	19620
820.605	19548
820.746	19578
820.886	19483
821.026	19529
821.167	19499
821.307	19441
821.447	19468
821.588	19346
821.728	19278
821.868	19126
822.008	18882
822.149	18916
822.289	18947
822.429	18642
822.569	18589
822.709	18741
822.849	18490
822.99	18422
823.13	18494
823.27	18555
823.41	18289
823.55	18197
823.69	18346
823.83	18239
823.97	18155
824.11	17996
824.25	18106
824.389	18087
824.529	18064
824.669	18068
824.809	18072
824.949	18091
825.089	18163
825.228	17988
825.368	17874
825.508	17745
825.648	17866
825.787	17775
825.927	17901
826.067	17779
826.206	17786
826.346	17866
826.485	17843
826.625	17882
826.765	17912
826.904	17817
827.044	17528
827.183	17509
827.323	17463
827.462	17562
827.601	17474
827.741	17478
827.88	17615
828.02	17383
828.159	17505
828.298	17608
828.437	17680
828.577	17455
828.716	17570
828.855	17459
828.994	17250
829.134	17216
829.273	17349
829.412	17212
829.551	17132
829.69	17265
829.829	17208
829.968	17356
830.107	17273
830.246	17326
830.385	17189
830.524	17185
830.663	17052
830.802	16968
830.941	16820
831.08	16843
831.219	16995
831.357	16896
831.496	17071
831.635	16968
831.774	16885
831.913	16687
832.051	16626
832.19	16725
832.329	16653
832.467	16618
832.606	16535
832.744	16622
832.883	16580
833.022	16546
833.16	16683
833.299	16660
833.437	16649
833.576	16645
833.714	16447
833.852	16675
833.991	16645
834.129	16634
834.267	16691
834.406	16451
834.544	16755
834.682	16577
834.821	16588
834.959	16748
835.097	16607
835.235	16736
835.373	16649
835.511	16641
835.65	16535
835.788	16455
835.926	16398
836.064	16367
836.202	16329
836.34	16527
836.478	16588
836.615	16535
836.753	16569
836.891	16523
837.029	16550
837.167	16493
837.305	16455
837.443	16485
837.58	16379
837.718	16421
837.856	16314
837.993	16428
838.131	16451
838.269	16390
838.406	16314
838.544	16230
838.681	16181
838.819	16071
838.956	15873
839.094	15937
839.231	15930
839.369	16048
839.506	16284
839.643	16158
839.781	15949
839.918	15854
840.055	15998
840.193	15937
840.33	15861
840.467	15964
840.604	16013
840.742	16154
840.879	15895
841.016	15831
841.153	15930
841.29	16082
841.427	15960
841.564	15991
841.701	15960
841.838	15903
841.975	15876
842.112	15838
842.249	15800
842.385	15709
842.522	15937
842.659	15759
842.796	15720
842.933	15762
843.069	15637
843.206	15675
843.343	15873
843.479	15808
843.616	15728
843.752	15511
843.889	15466
844.025	15694
844.162	15485
844.298	15576
844.435	15538
844.571	15496
844.708	15572
844.844	15698
844.98	15629
845.117	15553
845.253	15526
845.389	15420
845.525	15435
845.661	15363
845.798	15306
845.934	15321
846.07	15317
846.206	15431
846.342	15572
846.478	15401
846.614	15085
846.75	15066
846.886	15070
847.022	15199
847.158	15062
847.294	15074
847.429	15112
847.565	14986
847.701	15298
847.837	14777
847.972	14811
848.108	14864
848.244	14876
848.379	14735
848.515	14716
848.65	14701
848.786	14613
848.921	14693
849.057	14712
849.192	14868
849.328	14644
849.463	14705
849.598	14693
849.734	14625
849.869	14480
850.004	14438
850.14	14522
850.275	14438
850.41	14370
850.545	14393
850.68	14328
850.815	14450
850.95	14484
851.085	14674
851.22	14545
851.355	14408
851.49	14415
851.625	14362
851.76	14434
851.895	14431
852.03	14278
852.165	14469
852.299	14537
852.434	14450
852.569	14556
852.703	14492
852.838	14484
852.973	14583
853.107	14560
853.242	14385
853.376	14309
853.511	14237
853.645	14294
853.78	14419
853.914	14381
854.048	14256
854.183	14385
854.317	14286
854.451	14450
854.585	14385
854.72	14237
854.854	14389
854.988	14206
855.122	14275
855.256	14180
855.39	14351
855.524	14431
855.658	14332
855.792	14336
855.926	14320
856.06	14377
856.194	14473
856.327	14263
856.461	14233
856.595	14252
856.729	14271
856.862	14400
856.996	14400
857.13	14339
857.263	14434
857.397	14419
857.53	14381
857.664	14339
857.797	14347
857.931	14412
858.064	14385
858.197	14415
858.331	14278
858.464	14286
858.597	14142
858.731	14328
858.864	14237
858.997	14275
859.13	14339
859.263	14396
859.396	14503
859.529	14298
859.662	14370
859.795	14225
859.928	14358
860.061	14446
860.194	14492
860.327	14343
860.46	14263
860.592	14404
860.725	14377
860.858	14389
860.99	14336
861.123	14259
861.256	14225
861.388	14374
861.521	14937
861.653	14248
861.786	14126
861.918	14153
862.05	14191
862.183	14309
862.315	14336
862.447	14294
862.58	14195
862.712	14157
862.844	14065
862.976	14149
863.108	14107
863.24	14339
863.372	14054
863.504	14103
863.636	14077
863.768	14077
863.9	14138
864.032	14100
864.164	14164
864.296	14115
864.428	14237
864.559	14206
864.691	14145
864.823	14123
864.954	14176
865.086	14100
865.217	14153
865.349	14050
865.48	14115
865.612	14153
865.743	14259
865.875	14103
866.006	14001
866.137	14050
866.269	14035
866.4	13997
866.531	14050
866.662	14039
866.793	13940
866.924	14031
867.055	14046
867.186	14039
867.317	14050
867.448	13959
867.579	14062
867.71	13970
867.841	14005
867.972	14130
868.103	14084
868.233	14126
868.364	14046
868.495	14172
868.625	14351
868.756	14412
868.886	14252
869.017	14313
869.147	14374
869.278	14495
869.408	14267
869.539	14332
869.669	14412
869.799	14358
869.929	14446
870.06	14442
870.19	14693
870.32	14625
870.45	14697
870.58	14819
870.71	14731
870.84	14842
870.97	14674
871.1	14667
871.23	14986
871.36	14921
871.489	14796
871.619	14982
871.749	14891
871.879	14838
872.008	15020
872.138	14944
872.267	14941
872.397	14777
872.526	14712
872.656	14731
872.785	14777
872.915	14910
873.044	15032
873.173	15028
873.303	15020
873.432	15024
873.561	15013
873.69	14994
873.819	15085
873.948	15039
874.077	15001
874.206	15093
874.335	14975
874.464	15195
874.593	15275
874.722	15199
874.851	15367
874.979	15306
875.108	15405
875.237	15306
875.365	15203
875.494	15283
875.623	15363
875.751	15245
875.88	15374
876.008	15530
876.136	15652
876.265	15724
876.393	15846
876.521	15857
876.65	15709
876.778	15705
876.906	15629
877.034	15652
877.162	15656
877.29	15549
877.418	15823
877.546	15762
877.674	15785
877.802	15663
877.93	15739
878.058	15561
878.185	15736
878.313	15720
878.441	15652
878.568	15485
878.696	15500
878.824	15755
878.951	15766
879.079	15865
879.206	15991
879.333	15884
879.461	15690
879.588	15861
879.715	15861
879.842	15994
879.97	15781
880.097	15595
880.224	15534
880.351	15549
880.478	15553
880.605	15549
880.732	15568
880.859	15808
880.986	15675
881.112	15625
881.239	15466
881.366	15332
881.493	15233
881.619	15245
881.746	15294
881.872	15275
881.999	15180
882.125	15074
882.252	15260
882.378	15283
882.505	15424
882.631	15157
882.757	15123
882.883	14990
883.01	15032
883.136	14963
883.262	14921
883.388	14975
883.514	15093
883.64	15097
883.766	15043
883.892	14792
884.018	14960
884.143	14944
884.269	15043
884.395	14758
884.52	14720
884.646	14777
884.772	14667
884.897	14659
885.023	14746
885.148	14830
885.274	14880
885.399	14853
885.524	14724
885.65	14788
885.775	14720
885.9	14705
886.025	14891
886.15	14769
886.275	14667
886.4	14712
886.525	14678
886.65	14587
886.775	14705
886.9	14857
887.025	15028
887.149	14792
887.274	14655
887.399	14530
887.523	14480
887.648	14522
887.773	14480
887.897	14613
888.021	14689
888.146	14511
888.27	14724
888.395	14621
888.519	14629
888.643	14648
888.767	14552
888.891	14473
889.015	14503
889.139	14404
889.263	14408
889.387	14560
889.511	14537
889.635	14541
889.759	14415
889.883	14385
890.006	14560
890.13	14552
890.254	14263
890.377	14339
890.501	14237
890.624	14237
890.748	14336
890.871	14103
890.995	14050
891.118	14016
891.241	14138
891.364	14164
891.488	14275
891.611	14062
891.734	14081
891.857	14123
891.98	14168
892.103	14305
892.226	14210
892.349	14164
892.471	13997
892.594	14123
892.717	14168
892.839	14016
892.962	14107
893.085	14199
893.207	14183
893.33	14062
893.452	13978
893.575	14187
893.697	14084
893.819	14221
893.941	14305
894.064	14271
894.186	14103
894.308	14062
894.43	14187
894.552	14313
894.674	14294
894.796	14039
894.918	14077
895.04	14153
895.161	14229
895.283	14240
895.405	14062
895.526	14103
895.648	14263
895.769	14286
895.891	14233
896.012	14229
896.134	14381
896.255	14313
896.376	14278
896.498	14332
896.619	14336
896.74	14267
896.861	14252
896.982	14644
897.103	14663
897.224	14610
897.345	14514
897.466	14423
897.587	14537
897.708	14735
897.828	14606
897.949	14541
898.07	14495
898.19	14473
898.311	14644
898.431	14552
898.552	14678
898.672	14697
898.792	14800
898.913	14670
899.033	14541
899.153	14484
899.273	14396
899.393	14541
899.513	14533
899.633	14427
899.753	14480
899.873	14564
899.993	14495
900.113	14480
900.232	14454
900.352	14511
900.472	14400
900.591	14237
900.711	14313
900.83	14366
900.95	14473
901.069	14446
901.189	14381
901.308	14081
901.427	13982
901.546	14084
901.665	14107
901.784	13963
901.904	14035
902.023	13871
902.141	13632
902.26	13628
902.379	13563
902.498	13613
902.617	13601
902.735	13670
902.854	13658
902.973	13518
903.091	13335
903.21	13274
903.328	13304
903.446	13247
903.565	13160
903.683	13194
903.801	13190
903.919	13129
904.038	13133
904.156	13031
904.274	13065
904.392	13038
904.51	12966
904.627	12993
904.745	13099
904.863	13057
904.981	12783
905.098	12669
905.216	12684
905.334	12730
905.451	12681
905.569	12700
905.686	12604
905.803	12627
905.921	12544
906.038	12673
906.155	12479
906.272	12471
906.389	12456
906.506	12323
906.623	12258
906.74	12182
906.857	12091
906.974	12194
907.091	12304
907.208	12418
907.324	12315
907.441	12167
907.557	12072
907.674	12030
907.79	11935
907.907	11920
908.023	12045
908.139	12057
908.256	11893
908.372	11954
908.488	11920
908.604	11786
908.72	11691
908.836	11676
908.952	11802
909.068	11821
909.184	11802
909.3	11798
909.415	11866
909.531	11897
909.647	11554
909.762	11566
909.878	11444
909.993	11573
910.108	11532
910.224	11562
910.339	11573
910.454	11440
910.57	11402
910.685	11391
910.8	11490
910.915	11543
911.03	11467
911.145	11250
911.259	11322
911.374	11269
911.489	11227
911.604	11109
911.718	11006
911.833	10987
911.947	10824
912.062	10873
912.176	10957
912.291	10953
912.405	10957
912.519	11239
912.633	11208
912.748	11022
912.862	10965
912.976	10866
913.09	10843
913.204	10900
913.318	10919
913.431	10976
913.545	10900
913.659	11075
913.772	10790
913.886	10793
914	10801
914.113	10850
914.226	10957
914.34	10889
914.453	10717
914.566	10820
914.68	10660
914.793	10641
914.906	10497
915.019	10466
915.132	10466
915.245	10466
915.358	10466
915.47	10615
915.583	10527
915.696	10558
915.809	10592
915.921	10603
916.034	10542
916.146	10485
916.259	10421
916.371	10504
916.483	10497
916.595	10489
916.708	10352
916.82	10421
916.932	10421
917.044	10409
917.156	10390
917.268	10325
917.38	10329
917.491	10398
917.603	10310
917.715	10443
917.826	10424
917.938	10386
918.049	10265
918.161	10394
918.272	10443
918.384	10474
918.495	10352
918.606	10284
918.717	10116
918.828	10181
918.939	10227
919.05	10154
919.161	10177
919.272	9998
919.383	10055
919.494	10230
919.604	10497
919.715	10227
919.826	10188
919.936	10219
920.047	10253
920.157	10284
920.267	10489
920.378	10291
920.488	10257
920.598	10405
920.708	10607
920.818	10394
920.928	10363
921.038	10698
921.148	10546
921.258	10295
921.368	10158
921.477	10105
921.587	10116
921.697	9975
921.806	10082
921.916	9892
922.025	9873
922.134	9778
922.244	9705
922.353	9800
922.462	9656
922.571	9625
922.68	9515
922.789	9370
922.898	9507
923.007	9443
923.116	9599
923.224	9526
923.333	9473
923.442	9450
923.55	9355
923.659	9424
923.767	9477
923.876	9348
923.984	9367
924.092	9283
924.201	9382
924.309	9340
924.417	9435
924.525	9313
924.633	9279
924.741	10211
924.849	9074
924.956	9302
925.064	9112
925.172	9119
925.279	9123
925.387	9233
925.494	9146
925.602	9283
925.709	9222
925.816	9154
925.924	9222
926.031	9294
926.138	9173
926.245	9226
926.352	9074
926.459	9226
926.566	9272
926.673	9157
926.779	9077
926.886	9039
926.993	8895
927.099	8906
927.206	8804
927.312	8804
927.419	8914
927.525	8910
927.631	8845
927.737	8815
927.843	8792
927.95	8632
928.056	8727
928.162	8819
928.267	8830
928.373	9336
928.479	8929
928.585	8663
928.69	8792
928.796	8849
928.901	8686
929.007	8598
929.112	8659
929.218	8659
929.323	8644
929.428	8549
929.533	8819
929.638	8507
929.743	8594
929.848	8670
929.953	8659
930.058	8568
930.163	8431
930.267	8377
930.372	8556
930.477	8343
930.581	8552
930.685	8488
930.79	8294
930.894	8332
930.998	8339
931.103	8412
931.207	8069
931.311	8050
931.415	8005
931.519	7784
931.623	7799
