Data from test_V78500241_2673.txt Node
Date: Fri Mar 25 14:52:19 CST 2022
User: usil
Spectrometer: V785-0024
Trigger mode: 0
Integration Time (sec): 4.000000E-1
Scans to average: 1
Nonlinearity correction enabled: false
Boxcar width: 0
Storing dark spectrum: false
XAxis mode: Wavelengths
Number of Pixels in Spectrum: 1024
>>>>>Begin Spectral Data<<<<<
801.071	21953
801.214	21968
801.356	21679
801.499	21583
801.641	21382
801.783	21332
801.926	21462
802.068	21291
802.211	21272
802.353	21108
802.496	20864
802.638	20838
802.78	20868
802.923	20796
803.065	20735
803.208	20590
803.35	20705
803.492	20811
803.635	20762
803.777	20712
803.919	20735
804.061	21146
804.204	20838
804.346	20640
804.488	20598
804.63	20659
804.773	20507
804.915	20701
805.057	20773
805.199	20514
805.341	20701
805.483	20819
805.626	20785
805.768	20693
805.91	20629
806.052	20617
806.194	20541
806.336	20773
806.478	20446
806.62	20526
806.762	20621
806.904	20765
807.046	21024
807.188	20868
807.33	20887
807.472	21001
807.614	20830
807.756	20902
807.898	20758
808.04	20579
808.182	20743
808.324	20644
808.465	20682
808.607	20845
808.749	20960
808.891	21036
809.033	21104
809.174	20963
809.316	20990
809.458	21051
809.6	21005
809.741	20998
809.883	21043
810.025	21157
810.166	21176
810.308	21138
810.45	21116
810.591	21009
810.733	20815
810.875	20731
811.016	20705
811.158	20602
811.299	20727
811.441	20906
811.582	20842
811.724	20750
811.865	20708
812.007	20705
812.148	20739
812.29	20788
812.431	20937
812.573	21116
812.714	21058
812.855	21184
812.997	21279
813.138	21386
813.279	21294
813.421	21070
813.562	21138
813.703	20952
813.845	20785
813.986	20526
814.127	20507
814.268	20336
814.41	20370
814.551	20320
814.692	20317
814.833	20206
814.974	20088
815.115	20237
815.256	20134
815.397	19993
815.539	20157
815.68	20081
815.821	20058
815.962	20062
816.103	19944
816.244	19974
816.385	19647
816.526	19864
816.666	19544
816.807	19419
816.948	19468
817.089	19575
817.23	19453
817.371	19358
817.512	19354
817.653	19457
817.793	19392
817.934	19453
818.075	19377
818.216	19392
818.356	19324
818.497	19263
818.638	19148
818.778	19031
818.919	19122
819.06	19141
819.2	19244
819.341	19274
819.481	19270
819.622	19453
819.762	19658
819.903	19487
820.043	19468
820.184	19430
820.324	19460
820.465	19449
820.605	19396
820.746	19445
820.886	19228
821.026	19335
821.167	19274
821.307	19449
821.447	19247
821.588	19327
821.728	19168
821.868	19031
822.008	18817
822.149	18920
822.289	18833
822.429	18547
822.569	18502
822.709	18479
822.849	18350
822.99	18361
823.13	18235
823.27	18228
823.41	18133
823.55	18163
823.69	18076
823.83	18197
823.97	18072
824.11	17920
824.25	17893
824.389	17916
824.529	17958
824.669	17908
824.809	18041
824.949	17950
825.089	18041
825.228	17882
825.368	17707
825.508	17665
825.648	17707
825.787	17745
825.927	17745
826.067	17600
826.206	17615
826.346	17752
826.485	17752
826.625	17684
826.765	17672
826.904	17638
827.044	17459
827.183	17387
827.323	17299
827.462	17440
827.601	17303
827.741	17315
827.88	17440
828.02	17159
828.159	17337
828.298	17337
828.437	17406
828.577	17330
828.716	17516
828.855	17277
828.994	17166
829.134	17159
829.273	17117
829.412	16999
829.551	16972
829.69	17181
829.829	17109
829.968	17220
830.107	17227
830.246	17105
830.385	17124
830.524	16987
830.663	16957
830.802	16904
830.941	16801
831.08	16725
831.219	16786
831.357	16923
831.496	16999
831.635	16717
831.774	16698
831.913	16672
832.051	16481
832.19	16580
832.329	16656
832.467	16428
832.606	16470
832.744	16466
832.883	16478
833.022	16367
833.16	16470
833.299	16508
833.437	16386
833.576	16527
833.714	16523
833.852	16531
833.991	16577
834.129	16599
834.267	16634
834.406	16516
834.544	16649
834.682	16569
834.821	16538
834.959	16736
835.097	16443
835.235	16577
835.373	16626
835.511	16637
835.65	16478
835.788	16535
835.926	16322
836.064	16268
836.202	16238
836.34	16516
836.478	16550
836.615	16390
836.753	16504
836.891	16542
837.029	16443
837.167	16508
837.305	16280
837.443	16284
837.58	16261
837.718	16390
837.856	16436
837.993	16246
838.131	16421
838.269	16261
838.406	16188
838.544	16200
838.681	16032
838.819	15998
838.956	15747
839.094	15850
839.231	15979
839.369	16101
839.506	16230
839.643	16097
839.781	15941
839.918	15793
840.055	15827
840.193	15869
840.33	15819
840.467	15831
840.604	15956
840.742	16101
840.879	15747
841.016	15739
841.153	15781
841.29	15903
841.427	15983
841.564	15884
841.701	16063
841.838	15876
841.975	15755
842.112	15663
842.249	15679
842.385	15675
842.522	15797
842.659	15584
842.796	15660
842.933	15709
843.069	15614
843.206	15606
843.343	15819
843.479	15755
843.616	15622
843.752	15481
843.889	15462
844.025	15663
844.162	15355
844.298	15545
844.435	15511
844.571	15458
844.708	15466
844.844	15603
844.98	15591
845.117	15606
845.253	15447
845.389	15336
845.525	15450
845.661	15302
845.798	15310
845.934	15313
846.07	15260
846.206	15329
846.342	15389
846.478	15275
846.614	14963
846.75	14998
846.886	14883
847.022	15119
847.158	15066
847.294	15001
847.429	15074
847.565	15036
847.701	15256
847.837	14788
847.972	14788
848.108	14830
848.244	14914
848.379	14594
848.515	14651
848.65	14667
848.786	14651
848.921	14610
849.057	14804
849.192	14727
849.328	14587
849.463	14598
849.598	14667
849.734	14488
849.869	14454
850.004	14355
850.14	14434
850.275	14362
850.41	14309
850.545	14343
850.68	14438
850.815	14393
850.95	14434
851.085	14583
851.22	14484
851.355	14377
851.49	14301
851.625	14370
851.76	14389
851.895	14271
852.03	14199
852.165	14282
852.299	14473
852.434	14442
852.569	14385
852.703	14415
852.838	14560
852.973	14530
853.107	14450
853.242	14358
853.376	14282
853.511	14153
853.645	14240
853.78	14434
853.914	14286
854.048	14157
854.183	14298
854.317	14275
854.451	14278
854.585	14263
854.72	14206
854.854	14305
854.988	14180
855.122	14259
855.256	14115
855.39	14176
855.524	14347
855.658	14267
855.792	14233
855.926	14244
856.06	14301
856.194	14290
856.327	14225
856.461	14138
856.595	14187
856.729	14244
856.862	14317
856.996	14328
857.13	14385
857.263	14438
857.397	14412
857.53	14271
857.664	14278
857.797	14305
857.931	14389
858.064	14294
858.197	14374
858.331	14233
858.464	14210
858.597	14187
858.731	14225
858.864	14210
858.997	14244
859.13	14362
859.263	14385
859.396	14305
859.529	14267
859.662	14218
859.795	14267
859.928	14324
860.061	14423
860.194	14408
860.327	14267
860.46	14275
860.592	14298
860.725	14389
860.858	14355
860.99	14202
861.123	14183
861.256	14199
861.388	14191
861.521	14811
861.653	14168
861.786	14001
861.918	14126
862.05	14191
862.183	14214
862.315	14263
862.447	14298
862.58	14176
862.712	14073
862.844	13932
862.976	14115
863.108	14054
863.24	14313
863.372	13963
863.504	14058
863.636	13974
863.768	14157
863.9	14073
864.032	14008
864.164	14005
864.296	14096
864.428	14115
864.559	14119
864.691	14111
864.823	14103
864.954	14126
865.086	14046
865.217	13993
865.349	13902
865.48	14050
865.612	13997
865.743	14153
865.875	14134
866.006	14020
866.137	14050
866.269	14031
866.4	14046
866.531	13982
866.662	13944
866.793	13936
866.924	13993
867.055	14054
867.186	14035
867.317	14020
867.448	13947
867.579	13932
867.71	13959
867.841	14046
867.972	14005
868.103	13982
868.233	14039
868.364	14039
868.495	14119
868.625	14237
868.756	14351
868.886	14237
869.017	14259
869.147	14396
869.278	14415
869.408	14259
869.539	14313
869.669	14377
869.799	14370
869.929	14423
870.06	14389
870.19	14541
870.32	14476
870.45	14610
870.58	14606
870.71	14807
870.84	14762
870.97	14648
871.1	14632
871.23	14944
871.36	14804
871.489	14804
871.619	14796
871.749	14823
871.879	14883
872.008	14960
872.138	14933
872.267	14857
872.397	14693
872.526	14739
872.656	14667
872.785	14731
872.915	14880
873.044	14975
873.173	14906
873.303	14891
873.432	14887
873.561	15062
873.69	14998
873.819	14899
873.948	14929
874.077	14914
874.206	14906
874.335	14906
874.464	15157
874.593	15165
874.722	15055
874.851	15207
874.979	15389
875.108	15268
875.237	15192
875.365	15112
875.494	15154
875.623	15363
875.751	15230
875.88	15363
876.008	15378
876.136	15454
876.265	15694
876.393	15797
876.521	15804
876.65	15686
876.778	15648
876.906	15542
877.034	15534
877.162	15660
877.29	15618
877.418	15732
877.546	15701
877.674	15686
877.802	15686
877.93	15644
878.058	15584
878.185	15511
878.313	15580
878.441	15724
878.568	15473
878.696	15625
878.824	15656
878.951	15709
879.079	15747
879.206	15975
879.333	15854
879.461	15732
879.588	15823
879.715	15819
879.842	15930
879.97	15701
880.097	15507
880.224	15473
880.351	15572
880.478	15637
880.605	15492
880.732	15477
880.859	15743
880.986	15473
881.112	15450
881.239	15351
881.366	15222
881.493	15146
881.619	15142
881.746	15131
881.872	15112
881.999	15150
882.125	15150
882.252	15264
882.378	15074
882.505	15321
882.631	15089
882.757	14960
882.883	15051
883.01	15024
883.136	14910
883.262	14872
883.388	14845
883.514	14937
883.64	14990
883.766	14925
883.892	14823
884.018	14823
884.143	14941
884.269	15066
884.395	14689
884.52	14644
884.646	14674
884.772	14575
884.897	14598
885.023	14670
885.148	14739
885.274	14823
885.399	14807
885.524	14735
885.65	14727
885.775	14693
885.9	14697
886.025	14819
886.15	14758
886.275	14602
886.4	14560
886.525	14644
886.65	14545
886.775	14606
886.9	14868
887.025	14891
887.149	14670
887.274	14454
887.399	14454
887.523	14476
887.648	14431
887.773	14461
887.897	14530
888.021	14606
888.146	14442
888.27	14629
888.395	14632
888.519	14526
888.643	14545
888.767	14541
888.891	14423
889.015	14377
889.139	14442
889.263	14381
889.387	14465
889.511	14629
889.635	14488
889.759	14351
889.883	14309
890.006	14381
890.13	14454
890.254	14385
890.377	14362
890.501	14195
890.624	14111
890.748	14286
890.871	14202
890.995	14058
891.118	14027
891.241	14111
891.364	14176
891.488	14183
891.611	14065
891.734	14046
891.857	14123
891.98	14142
892.103	14088
892.226	14187
892.349	14054
892.471	13959
892.594	14065
892.717	14119
892.839	14020
892.962	14096
893.085	14043
893.207	14054
893.33	13936
893.452	13978
893.575	14168
893.697	14130
893.819	14358
893.941	14305
894.064	14332
894.186	14043
894.308	13989
894.43	14218
894.552	14267
894.674	14202
894.796	14115
894.918	14157
895.04	14130
895.161	14199
895.283	14180
895.405	14130
895.526	14229
895.648	14119
895.769	14191
895.891	14206
896.012	14237
896.134	14358
896.255	14225
896.376	14183
896.498	14134
896.619	14301
896.74	14225
896.861	14347
896.982	14549
897.103	14735
897.224	14530
897.345	14427
897.466	14518
897.587	14533
897.708	14590
897.828	14583
897.949	14400
898.07	14362
898.19	14492
898.311	14594
898.431	14511
898.552	14625
898.672	14716
898.792	14640
898.913	14613
899.033	14450
899.153	14419
899.273	14358
899.393	14469
899.513	14419
899.633	14514
899.753	14526
899.873	14377
899.993	14480
900.113	14495
900.232	14503
900.352	14408
900.472	14374
900.591	14218
900.711	14320
900.83	14278
900.95	14412
901.069	14370
901.189	14275
901.308	14039
901.427	13925
901.546	13940
901.665	14031
901.784	14012
901.904	13921
902.023	13769
902.141	13666
902.26	13597
902.379	13590
902.498	13605
902.617	13487
902.735	13628
902.854	13525
902.973	13445
903.091	13266
903.21	13209
903.328	13278
903.446	13183
903.565	13118
903.683	13183
903.801	13023
903.919	13118
904.038	12985
904.156	12970
904.274	12928
904.392	12993
904.51	12962
904.627	12867
904.745	12985
904.863	12989
904.981	12791
905.098	12631
905.216	12574
905.334	12753
905.451	12635
905.569	12635
905.686	12612
905.803	12547
905.921	12486
906.038	12483
906.155	12536
906.272	12330
906.389	12479
906.506	12292
906.623	12289
906.74	12171
906.857	12053
906.974	12098
907.091	12232
907.208	12445
907.324	12205
907.441	12076
907.557	11992
907.674	11916
907.79	11961
907.907	11946
908.023	11946
908.139	11965
908.256	11965
908.372	11904
908.488	11935
908.604	11786
908.72	11729
908.836	11729
908.952	11726
909.068	11718
909.184	11809
909.3	11798
909.415	11832
909.531	11855
909.647	11558
909.762	11539
909.878	11425
909.993	11570
910.108	11448
910.224	11429
910.339	11486
910.454	11414
910.57	11414
910.685	11292
910.8	11596
910.915	11505
911.03	11368
911.145	11151
911.259	11216
911.374	11231
911.489	11113
911.604	11003
911.718	11014
911.833	11022
911.947	10869
912.062	10858
912.176	11003
912.291	10938
912.405	10991
912.519	11181
912.633	11162
912.748	11003
912.862	10934
912.976	10850
913.09	10721
913.204	10805
913.318	10828
913.431	10873
913.545	10930
913.659	10961
913.772	10778
913.886	10672
914	10691
914.113	10816
914.226	10919
914.34	10771
914.453	10615
914.566	10862
914.68	10580
914.793	10694
914.906	10481
915.019	10394
915.132	10341
915.245	10470
915.358	10424
915.47	10474
915.583	10523
915.696	10493
915.809	10538
915.921	10691
916.034	10451
916.146	10436
916.259	10428
916.371	10523
916.483	10550
916.595	10402
916.708	10409
916.82	10424
916.932	10398
917.044	10287
917.156	10314
917.268	10242
917.38	10337
917.491	10249
917.603	10310
917.715	10432
917.826	10360
917.938	10284
918.049	10192
918.161	10344
918.272	10375
918.384	10428
918.495	10272
918.606	10185
918.717	10158
918.828	10200
918.939	10242
919.05	10105
919.161	10139
919.272	9918
919.383	10147
919.494	10295
919.604	10325
919.715	10249
919.826	10105
919.936	10200
920.047	10314
920.157	10280
920.267	10455
920.378	10124
920.488	10150
920.598	10451
920.708	10428
920.818	10443
920.928	10390
921.038	10538
921.148	10538
921.258	10230
921.368	10150
921.477	10044
921.587	10051
921.697	9911
921.806	10017
921.916	9934
922.025	9713
922.134	9732
922.244	9720
922.353	9827
922.462	9557
922.571	9633
922.68	9481
922.789	9378
922.898	9416
923.007	9401
923.116	9420
923.224	9443
923.333	9447
923.442	9412
923.55	9393
923.659	9393
923.767	9420
923.876	9291
923.984	9397
924.092	9310
924.201	9298
924.309	9249
924.417	9348
924.525	9249
924.633	9211
924.741	10002
924.849	9100
924.956	9264
925.064	9089
925.172	9032
925.279	9070
925.387	9188
925.494	9123
925.602	9207
925.709	9127
925.816	9043
925.924	9123
926.031	9180
926.138	9142
926.245	9165
926.352	9005
926.459	9233
926.566	9214
926.673	8990
926.779	8956
926.886	8944
926.993	8864
927.099	8830
927.206	8766
927.312	8743
927.419	8838
927.525	8811
927.631	8956
927.737	8769
927.843	8727
927.95	8613
928.056	8712
928.162	8701
928.267	8762
928.373	9386
928.479	8838
928.585	8549
928.69	8720
928.796	8739
928.901	8613
929.007	8514
929.112	8640
929.218	8648
929.323	8552
929.428	8549
929.533	8602
929.638	8499
929.743	8530
929.848	8587
929.953	8514
930.058	8434
930.163	8263
930.267	8305
930.372	8412
930.477	8263
930.581	8526
930.685	8377
930.79	8202
930.894	8324
930.998	8336
931.103	8358
931.207	8035
931.311	7986
931.415	7921
931.519	7753
931.623	7792
