Data from test_V78500241_1413.txt Node
Date: Fri Mar 25 14:43:33 CST 2022
User: usil
Spectrometer: V785-0024
Trigger mode: 0
Integration Time (sec): 4.000000E-1
Scans to average: 1
Nonlinearity correction enabled: false
Boxcar width: 0
Storing dark spectrum: false
XAxis mode: Wavelengths
Number of Pixels in Spectrum: 1024
>>>>>Begin Spectral Data<<<<<
801.071	22405
801.214	22394
801.356	22181
801.499	22070
801.641	21827
801.783	21793
801.926	21892
802.068	21899
802.211	21660
802.353	21618
802.496	21332
802.638	21283
802.78	21245
802.923	21218
803.065	21157
803.208	21066
803.35	21180
803.492	21283
803.635	21298
803.777	21127
803.919	21211
804.061	21496
804.204	21165
804.346	21058
804.488	21028
804.63	21066
804.773	21104
804.915	21154
805.057	21207
805.199	21020
805.341	21173
805.483	21203
805.626	21142
805.768	21135
805.91	21085
806.052	21047
806.194	21005
806.336	21195
806.478	21017
806.62	21112
806.762	21039
806.904	21310
807.046	21412
807.188	21511
807.33	21485
807.472	21603
807.614	21340
807.756	21408
807.898	21321
808.04	21321
808.182	21245
808.324	21306
808.465	21435
808.607	21523
808.749	21644
808.891	21903
809.033	21899
809.174	21728
809.316	21671
809.458	21720
809.6	21580
809.741	21656
809.883	21485
810.025	21686
810.166	21755
810.308	21675
810.45	21698
810.591	21633
810.733	21389
810.875	21233
811.016	21142
811.158	21252
811.299	21458
811.441	21378
811.582	21435
811.724	21386
811.865	21169
812.007	21165
812.148	21161
812.29	21359
812.431	21408
812.573	21538
812.714	21641
812.855	21800
812.997	21934
813.138	22032
813.279	21880
813.421	21720
813.562	21690
813.703	21359
813.845	21351
813.986	21150
814.127	20963
814.268	20880
814.41	20739
814.551	20864
814.692	20895
814.833	20826
814.974	20735
815.115	20849
815.256	20606
815.397	20731
815.539	20590
815.68	20598
815.821	20332
815.962	20594
816.103	20431
816.244	20408
816.385	20218
816.526	20233
816.666	20073
816.807	19955
816.948	20046
817.089	20073
817.23	20164
817.371	19921
817.512	19852
817.653	19963
817.793	19936
817.934	19955
818.075	19906
818.216	20027
818.356	19830
818.497	19734
818.638	19693
818.778	19628
818.919	19666
819.06	19662
819.2	19864
819.341	19852
819.481	19723
819.622	19974
819.762	20134
819.903	20138
820.043	19944
820.184	20039
820.324	19822
820.465	19803
820.605	19925
820.746	19986
820.886	19791
821.026	19932
821.167	19894
821.307	20012
821.447	19860
821.588	19818
821.728	19670
821.868	19457
822.008	19335
822.149	19274
822.289	19308
822.429	18901
822.569	18894
822.709	19168
822.849	18928
822.99	18760
823.13	18829
823.27	18825
823.41	18646
823.55	18513
823.69	18623
823.83	18555
823.97	18544
824.11	18338
824.25	18418
824.389	18410
824.529	18426
824.669	18506
824.809	18578
824.949	18479
825.089	18494
825.228	18388
825.368	18281
825.508	18201
825.648	18239
825.787	18114
825.927	18266
826.067	18232
826.206	18163
826.346	18201
826.485	18178
826.625	18239
826.765	18281
826.904	18133
827.044	17961
827.183	17832
827.323	17885
827.462	17946
827.601	17855
827.741	17805
827.88	17798
828.02	17627
828.159	17855
828.298	17885
828.437	17939
828.577	17809
828.716	17950
828.855	17798
828.994	17790
829.134	17615
829.273	17615
829.412	17573
829.551	17528
829.69	17691
829.829	17623
829.968	17817
830.107	17611
830.246	17687
830.385	17581
830.524	17600
830.663	17368
830.802	17402
830.941	17307
831.08	17239
831.219	17315
831.357	17273
831.496	17364
831.635	17121
831.774	17166
831.913	17143
832.051	17083
832.19	17010
832.329	17174
832.467	16946
832.606	16915
832.744	16889
832.883	16850
833.022	16889
833.16	16995
833.299	16915
833.437	16972
833.576	17010
833.714	17014
833.852	16934
833.991	16953
834.129	17121
834.267	17037
834.406	17018
834.544	16961
834.682	17003
834.821	16938
834.959	17181
835.097	16881
835.235	17029
835.373	16938
835.511	17029
835.65	16854
835.788	16839
835.926	16752
836.064	16706
836.202	16653
836.34	16850
836.478	16869
836.615	16835
836.753	16805
836.891	16965
837.029	16873
837.167	16820
837.305	16801
837.443	16774
837.58	16809
837.718	16854
837.856	16698
837.993	16755
838.131	16786
838.269	16672
838.406	16691
838.544	16618
838.681	16447
838.819	16303
838.956	16268
839.094	16284
839.231	16284
839.369	16413
839.506	16664
839.643	16504
839.781	16295
839.918	16261
840.055	16394
840.193	16169
840.33	16204
840.467	16284
840.604	16287
840.742	16497
840.879	16200
841.016	16242
841.153	16154
841.29	16360
841.427	16322
841.564	16318
841.701	16310
841.838	16185
841.975	16162
842.112	16147
842.249	16036
842.385	15994
842.522	16219
842.659	16112
842.796	16029
842.933	16150
843.069	16063
843.206	15945
843.343	16185
843.479	16032
843.616	16036
843.752	15728
843.889	15785
844.025	16010
844.162	15736
844.298	15945
844.435	15808
844.571	15785
844.708	15960
844.844	15979
844.98	15972
845.117	15941
845.253	15724
845.389	15778
845.525	15854
845.661	15842
845.798	15899
845.934	15998
846.07	15861
846.206	16074
846.342	16017
846.478	15835
846.614	15618
846.75	15439
846.886	15454
847.022	15382
847.158	15450
847.294	15378
847.429	15401
847.565	15473
847.701	15587
847.837	15135
847.972	15089
848.108	15268
848.244	15214
848.379	15013
848.515	15005
848.65	14967
848.786	15058
848.921	14994
849.057	15097
849.192	15055
849.328	14990
849.463	15024
849.598	14906
849.734	14872
849.869	14796
850.004	14720
850.14	14735
850.275	14746
850.41	14659
850.545	14838
850.68	14674
850.815	14720
850.95	14724
851.085	14929
851.22	14899
851.355	14765
851.49	14739
851.625	14739
851.76	14724
851.895	14663
852.03	14571
852.165	14773
852.299	14746
852.434	14941
852.569	14811
852.703	14807
852.838	14819
852.973	14971
853.107	14891
853.242	14693
853.376	14594
853.511	14461
853.645	14549
853.78	14765
853.914	14678
854.048	14602
854.183	14602
854.317	14594
854.451	14788
854.585	14636
854.72	14613
854.854	14674
854.988	14583
855.122	14530
855.256	14419
855.39	14571
855.524	14705
855.658	14693
855.792	14701
855.926	14754
856.06	14716
856.194	14689
856.327	14648
856.461	14625
856.595	14556
856.729	14518
856.862	14743
856.996	14667
857.13	14697
857.263	14785
857.397	14735
857.53	14701
857.664	14773
857.797	14735
857.931	14716
858.064	14575
858.197	14705
858.331	14625
858.464	14636
858.597	14461
858.731	14613
858.864	14606
858.997	14610
859.13	14522
859.263	14682
859.396	14705
859.529	14678
859.662	14613
859.795	14590
859.928	14674
860.061	14716
860.194	14811
860.327	14651
860.46	14625
860.592	14708
860.725	14773
860.858	14777
860.99	14701
861.123	14571
861.256	14689
861.388	14640
861.521	15473
861.653	14495
861.786	14404
861.918	14488
862.05	14610
862.183	14552
862.315	14610
862.447	14678
862.58	14537
862.712	14362
862.844	14374
862.976	14545
863.108	14469
863.24	14842
863.372	14278
863.504	14351
863.636	14298
863.768	14484
863.9	14454
864.032	14301
864.164	14324
864.296	14518
864.428	14465
864.559	14465
864.691	14545
864.823	14598
864.954	14404
865.086	14427
865.217	14415
865.349	14385
865.48	14328
865.612	14381
865.743	14514
865.875	14396
866.006	14275
866.137	14282
866.269	14381
866.4	14358
866.531	14332
866.662	14370
866.793	14347
866.924	14286
867.055	14267
867.186	14355
867.317	14415
867.448	14275
867.579	14301
867.71	14290
867.841	14244
867.972	14450
868.103	14309
868.233	14351
868.364	14381
868.495	14450
868.625	14533
868.756	14762
868.886	14530
869.017	14659
869.147	14750
869.278	14731
869.408	14629
869.539	14701
869.669	14689
869.799	14575
869.929	14792
870.06	14785
870.19	14979
870.32	14826
870.45	14895
870.58	15020
870.71	15127
870.84	15036
870.97	15093
871.1	15017
871.23	15211
871.36	15192
871.489	15051
871.619	15211
871.749	15192
871.879	15344
872.008	15389
872.138	15157
872.267	15294
872.397	15127
872.526	15039
872.656	14986
872.785	15116
872.915	15279
873.044	15291
873.173	15370
873.303	15351
873.432	15203
873.561	15363
873.69	15233
873.819	15245
873.948	15359
874.077	15359
874.206	15268
874.335	15313
874.464	15397
874.593	15534
874.722	15519
874.851	15603
874.979	15644
875.108	15641
875.237	15564
875.365	15500
875.494	15481
875.623	15599
875.751	15587
875.88	15667
876.008	15724
876.136	15838
876.265	15994
876.393	16051
876.521	16021
876.65	16078
876.778	16032
876.906	15972
877.034	15941
877.162	16059
877.29	15998
877.418	16021
877.546	15953
877.674	15968
877.802	16029
877.93	15987
878.058	15956
878.185	15903
878.313	15926
878.441	16135
878.568	15823
878.696	15937
878.824	16040
878.951	16105
879.079	16268
879.206	16386
879.333	16204
879.461	16147
879.588	16268
879.715	16367
879.842	16443
879.97	16154
880.097	15941
880.224	15930
880.351	15953
880.478	15880
880.605	15911
880.732	15819
880.859	16017
880.986	15926
881.112	15846
881.239	15686
881.366	15641
881.493	15496
881.619	15557
881.746	15606
881.872	15511
881.999	15454
882.125	15553
882.252	15515
882.378	15644
882.505	15720
882.631	15523
882.757	15344
882.883	15370
883.01	15313
883.136	15279
883.262	15195
883.388	15211
883.514	15416
883.64	15485
883.766	15302
883.892	15207
884.018	15249
884.143	15370
884.269	15481
884.395	15123
884.52	15017
884.646	15017
884.772	15036
884.897	14944
885.023	15138
885.148	15230
885.274	15146
885.399	15104
885.524	15028
885.65	15108
885.775	15154
885.9	15005
886.025	15169
886.15	15062
886.275	14944
886.4	14960
886.525	14975
886.65	14861
886.775	14982
886.9	15165
887.025	15237
887.149	14998
887.274	14914
887.399	14872
887.523	14834
887.648	14727
887.773	14899
887.897	14834
888.021	14876
888.146	14857
888.27	14872
888.395	14960
888.519	14933
888.643	14994
888.767	14914
888.891	14765
889.015	14773
889.139	14754
889.263	14636
889.387	14777
889.511	14845
889.635	14777
889.759	14727
889.883	14655
890.006	14682
890.13	14769
890.254	14575
890.377	14724
890.501	14552
890.624	14511
890.748	14522
890.871	14370
890.995	14389
891.118	14339
891.241	14336
891.364	14469
891.488	14530
891.611	14396
891.734	14415
891.857	14484
891.98	14351
892.103	14412
892.226	14461
892.349	14381
892.471	14153
892.594	14381
892.717	14434
892.839	14328
892.962	14389
893.085	14556
893.207	14434
893.33	14271
893.452	14355
893.575	14476
893.697	14355
893.819	14545
893.941	14590
894.064	14469
894.186	14385
894.308	14294
894.43	14545
894.552	14610
894.674	14503
894.796	14415
894.918	14457
895.04	14362
895.161	14480
895.283	14469
895.405	14313
895.526	14484
895.648	14492
895.769	14522
895.891	14495
896.012	14701
896.134	14575
896.255	14556
896.376	14568
896.498	14610
896.619	14579
896.74	14587
896.861	14640
896.982	14891
897.103	15001
897.224	14807
897.345	14754
897.466	14781
897.587	14777
897.708	14937
897.828	14876
897.949	14754
898.07	14651
898.19	14807
898.311	14948
898.431	14868
898.552	14883
898.672	14861
898.792	15058
898.913	14960
899.033	14826
899.153	14720
899.273	14621
899.393	14788
899.513	14701
899.633	14701
899.753	14724
899.873	14746
899.993	14754
900.113	14720
900.232	14792
900.352	14686
900.472	14659
900.591	14537
900.711	14556
900.83	14556
900.95	14667
901.069	14651
901.189	14465
901.308	14332
901.427	14202
901.546	14351
901.665	14313
901.784	14358
901.904	14278
902.023	14157
902.141	13963
902.26	13894
902.379	13902
902.498	13757
902.617	13769
902.735	13830
902.854	13879
902.973	13830
903.091	13495
903.21	13529
903.328	13514
903.446	13464
903.565	13518
903.683	13373
903.801	13259
903.919	13483
904.038	13354
904.156	13236
904.274	13270
904.392	13175
904.51	13152
904.627	13213
904.745	13266
904.863	13209
904.981	13065
905.098	12913
905.216	12958
905.334	12909
905.451	12909
905.569	13004
905.686	12981
905.803	12897
905.921	12753
906.038	12875
906.155	12768
906.272	12662
906.389	12665
906.506	12555
906.623	12555
906.74	12399
906.857	12407
906.974	12525
907.091	12517
907.208	12544
907.324	12566
907.441	12414
907.557	12270
907.674	12292
907.79	12098
907.907	12121
908.023	12247
908.139	12277
908.256	12190
908.372	12186
908.488	12175
908.604	12079
908.72	11942
908.836	12034
908.952	11885
909.068	12049
909.184	12133
909.3	11965
909.415	12026
909.531	12030
909.647	11767
909.762	11767
909.878	11691
909.993	11790
910.108	11710
910.224	11684
910.339	11802
910.454	11630
910.57	11619
910.685	11577
910.8	11821
910.915	11794
911.03	11684
911.145	11486
911.259	11425
911.374	11444
911.489	11387
911.604	11368
911.718	11189
911.833	11239
911.947	11117
912.062	11018
912.176	11086
912.291	11216
912.405	11193
912.519	11379
912.633	11444
912.748	11292
912.862	11159
912.976	11071
913.09	10976
913.204	11033
913.318	11029
913.431	11109
913.545	11147
913.659	11269
913.772	11029
913.886	10968
914	10949
914.113	10980
914.226	11041
914.34	11025
914.453	10881
914.566	10946
914.68	10991
914.793	10885
914.906	10691
915.019	10683
915.132	10569
915.245	10668
915.358	10771
915.47	10733
915.583	10721
915.696	10771
915.809	10873
915.921	10812
916.034	10698
916.146	10698
916.259	10683
916.371	10733
916.483	10679
916.595	10634
916.708	10596
916.82	10615
916.932	10584
917.044	10561
917.156	10618
917.268	10447
917.38	10565
917.491	10546
917.603	10535
917.715	10668
917.826	10630
917.938	10577
918.049	10333
918.161	10508
918.272	10687
918.384	10660
918.495	10615
918.606	10390
918.717	10310
918.828	10466
918.939	10455
919.05	10402
919.161	10367
919.272	10162
919.383	10234
919.494	10451
919.604	10538
919.715	10322
919.826	10272
919.936	10303
920.047	10474
920.157	10508
920.267	10615
920.378	10500
920.488	10356
920.598	10569
920.708	10733
920.818	10672
920.928	10592
921.038	10710
921.148	10736
921.258	10443
921.368	10409
921.477	10276
921.587	10230
921.697	10147
921.806	10257
921.916	10101
922.025	9991
922.134	10013
922.244	9937
922.353	9949
922.462	9915
922.571	9816
922.68	9652
922.789	9671
922.898	9656
923.007	9580
923.116	9800
923.224	9622
923.333	9625
923.442	9561
923.55	9523
923.659	9538
923.767	9606
923.876	9576
923.984	9542
924.092	9466
924.201	9530
924.309	9454
924.417	9507
924.525	9412
924.633	9507
924.741	10443
924.849	9287
924.956	9450
925.064	9355
925.172	9199
925.279	9272
925.387	9298
925.494	9317
925.602	9443
925.709	9405
925.816	9298
925.924	9264
926.031	9386
926.138	9332
926.245	9412
926.352	9218
926.459	9306
926.566	9401
926.673	9169
926.779	9161
926.886	9138
926.993	8971
927.099	9055
927.206	8971
927.312	8921
927.419	9123
927.525	9097
927.631	9043
927.737	8941
927.843	8941
927.95	8792
928.056	8880
928.162	8887
928.267	8899
928.373	9523
928.479	9005
928.585	8746
928.69	8842
928.796	8960
928.901	8773
929.007	8636
929.112	8861
929.218	8811
929.323	8743
929.428	8602
929.533	8819
929.638	8632
929.743	8602
929.848	8739
929.953	8670
930.058	8629
930.163	8484
930.267	8465
930.372	8640
930.477	8484
930.581	8773
930.685	8678
930.79	8400
930.894	8431
930.998	8374
931.103	8526
931.207	8218
931.311	8191
931.415	8092
931.519	7887
931.623	7898
