Data from test_V78500241_3016.txt Node
Date: Fri Mar 25 14:54:42 CST 2022
User: usil
Spectrometer: V785-0024
Trigger mode: 0
Integration Time (sec): 4.000000E-1
Scans to average: 1
Nonlinearity correction enabled: false
Boxcar width: 0
Storing dark spectrum: false
XAxis mode: Wavelengths
Number of Pixels in Spectrum: 1024
>>>>>Begin Spectral Data<<<<<
801.071	22124
801.214	21979
801.356	21705
801.499	21580
801.641	21450
801.783	21439
801.926	21488
802.068	21332
802.211	21287
802.353	21287
802.496	20921
802.638	20956
802.78	20872
802.923	20971
803.065	20682
803.208	20788
803.35	20720
803.492	21039
803.635	21024
803.777	20781
803.919	20807
804.061	21024
804.204	20830
804.346	20693
804.488	20670
804.63	20663
804.773	20648
804.915	20670
805.057	20785
805.199	20621
805.341	20762
805.483	20716
805.626	20838
805.768	20575
805.91	20804
806.052	20705
806.194	20602
806.336	20769
806.478	20792
806.62	20727
806.762	20705
806.904	20963
807.046	21150
807.188	21093
807.33	21100
807.472	21127
807.614	20929
807.756	20982
807.898	20807
808.04	20640
808.182	20781
808.324	20731
808.465	20830
808.607	21070
808.749	21173
808.891	21154
809.033	21207
809.174	21138
809.316	21112
809.458	20998
809.6	20956
809.741	21188
809.883	21135
810.025	21306
810.166	21230
810.308	21256
810.45	21195
810.591	21043
810.733	20830
810.875	20830
811.016	20777
811.158	20754
811.299	20891
811.441	21043
811.582	20967
811.724	20853
811.865	20857
812.007	20861
812.148	20853
812.29	20902
812.431	21066
812.573	21116
812.714	21256
812.855	21279
812.997	21481
813.138	21618
813.279	21515
813.421	21340
813.562	21245
813.703	21077
813.845	20986
813.986	20617
814.127	20583
814.268	20590
814.41	20450
814.551	20419
814.692	20412
814.833	20339
814.974	20434
815.115	20370
815.256	20218
815.397	20298
815.539	20240
815.68	20172
815.821	20065
815.962	20164
816.103	20107
816.244	19928
816.385	19902
816.526	19708
816.666	19727
816.807	19506
816.948	19582
817.089	19609
817.23	19540
817.371	19457
817.512	19537
817.653	19422
817.793	19472
817.934	19597
818.075	19502
818.216	19518
818.356	19540
818.497	19255
818.638	19301
818.778	19171
818.919	19247
819.06	19289
819.2	19247
819.341	19384
819.481	19266
819.622	19491
819.762	19635
819.903	19742
820.043	19582
820.184	19407
820.324	19445
820.465	19544
820.605	19556
820.746	19487
820.886	19331
821.026	19506
821.167	19426
821.307	19487
821.447	19445
821.588	19411
821.728	19320
821.868	19148
822.008	18894
822.149	18905
822.289	18943
822.429	18707
822.569	18528
822.709	18623
822.849	18338
822.99	18292
823.13	18346
823.27	18426
823.41	18205
823.55	18098
823.69	18201
823.83	18251
823.97	18098
824.11	17984
824.25	17999
824.389	17931
824.529	17969
824.669	17904
824.809	18072
824.949	17988
825.089	17935
825.228	17965
825.368	17794
825.508	17832
825.648	17710
825.787	17794
825.927	17798
826.067	17718
826.206	17653
826.346	17779
826.485	17684
826.625	17726
826.765	17809
826.904	17684
827.044	17528
827.183	17512
827.323	17467
827.462	17429
827.601	17334
827.741	17406
827.88	17478
828.02	17239
828.159	17448
828.298	17421
828.437	17429
828.577	17417
828.716	17493
828.855	17406
828.994	17193
829.134	17227
829.273	17227
829.412	17140
829.551	17197
829.69	17117
829.829	17121
829.968	17220
830.107	17258
830.246	17193
830.385	17140
830.524	16949
830.663	17010
830.802	16957
830.941	16782
831.08	16805
831.219	16729
831.357	16835
831.496	16831
831.635	16694
831.774	16763
831.913	16698
832.051	16599
832.19	16653
832.329	16580
832.467	16489
832.606	16390
832.744	16398
832.883	16443
833.022	16421
833.16	16440
833.299	16451
833.437	16432
833.576	16527
833.714	16394
833.852	16618
833.991	16462
834.129	16672
834.267	16459
834.406	16428
834.544	16694
834.682	16550
834.821	16592
834.959	16694
835.097	16527
835.235	16546
835.373	16489
835.511	16565
835.65	16413
835.788	16291
835.926	16242
836.064	16166
836.202	16287
836.34	16402
836.478	16447
836.615	16405
836.753	16443
836.891	16462
837.029	16466
837.167	16360
837.305	16344
837.443	16234
837.58	16226
837.718	16379
837.856	16325
837.993	16261
838.131	16257
838.269	16139
838.406	16204
838.544	16188
838.681	16051
838.819	15987
838.956	15747
839.094	15717
839.231	15876
839.369	16013
839.506	16204
839.643	16006
839.781	15747
839.918	15762
840.055	15945
840.193	15873
840.33	15884
840.467	15793
840.604	15838
840.742	16128
840.879	15720
841.016	15770
841.153	15720
841.29	15895
841.427	15770
841.564	15850
841.701	15850
841.838	15713
841.975	15614
842.112	15671
842.249	15644
842.385	15614
842.522	15713
842.659	15606
842.796	15667
842.933	15713
843.069	15549
843.206	15572
843.343	15614
843.479	15603
843.616	15637
843.752	15298
843.889	15355
844.025	15496
844.162	15268
844.298	15405
844.435	15420
844.571	15336
844.708	15488
844.844	15496
844.98	15515
845.117	15443
845.253	15416
845.389	15329
845.525	15294
845.661	15252
845.798	15203
845.934	15222
846.07	15150
846.206	15222
846.342	15359
846.478	15188
846.614	15024
846.75	14918
846.886	14914
847.022	15116
847.158	14872
847.294	15013
847.429	15047
847.565	14956
847.701	15135
847.837	14689
847.972	14727
848.108	14781
848.244	14765
848.379	14568
848.515	14552
848.65	14514
848.786	14663
848.921	14564
849.057	14686
849.192	14564
849.328	14556
849.463	14583
849.598	14495
849.734	14454
849.869	14461
850.004	14347
850.14	14309
850.275	14343
850.41	14305
850.545	14256
850.68	14324
850.815	14412
850.95	14244
851.085	14503
851.22	14374
851.355	14347
851.49	14282
851.625	14084
851.76	14324
851.895	14278
852.03	14233
852.165	14309
852.299	14488
852.434	14431
852.569	14427
852.703	14309
852.838	14396
852.973	14480
853.107	14492
853.242	14320
853.376	14084
853.511	14180
853.645	14058
853.78	14377
853.914	14259
854.048	14142
854.183	14206
854.317	14229
854.451	14328
854.585	14195
854.72	14103
854.854	14142
854.988	14058
855.122	14225
855.256	14046
855.39	14138
855.524	14206
855.658	14187
855.792	14164
855.926	14199
856.06	14176
856.194	14233
856.327	14259
856.461	14145
856.595	14157
856.729	14172
856.862	14324
856.996	14225
857.13	14214
857.263	14221
857.397	14256
857.53	14206
857.664	14301
857.797	14214
857.931	14362
858.064	14328
858.197	14351
858.331	14244
858.464	14183
858.597	14073
858.731	14199
858.864	14240
858.997	14233
859.13	14229
859.263	14195
859.396	14218
859.529	14210
859.662	14237
859.795	14161
859.928	14282
860.061	14271
860.194	14423
860.327	14191
860.46	14103
860.592	14332
860.725	14374
860.858	14404
860.99	14214
861.123	14126
861.256	14153
861.388	14240
861.521	14788
861.653	14081
861.786	13989
861.918	14043
862.05	14183
862.183	14187
862.315	14195
862.447	14191
862.58	14176
862.712	13989
862.844	13947
862.976	14161
863.108	14027
863.24	14518
863.372	13890
863.504	14012
863.636	13974
863.768	14119
863.9	13940
864.032	13845
864.164	13947
864.296	14103
864.428	14103
864.559	14183
864.691	14092
864.823	14088
864.954	14035
865.086	14027
865.217	13963
865.349	13963
865.48	13997
865.612	13974
865.743	14081
865.875	13997
866.006	13986
866.137	14043
866.269	13875
866.4	14001
866.531	13970
866.662	13963
866.793	13902
866.924	13967
867.055	14050
867.186	14043
867.317	13917
867.448	13856
867.579	13944
867.71	13864
867.841	13993
867.972	14001
868.103	13944
868.233	14027
868.364	14065
868.495	14096
868.625	14199
868.756	14259
868.886	14183
869.017	14237
869.147	14343
869.278	14355
869.408	14305
869.539	14233
869.669	14240
869.799	14301
869.929	14374
870.06	14252
870.19	14568
870.32	14560
870.45	14583
870.58	14678
870.71	14663
870.84	14712
870.97	14590
871.1	14556
871.23	14773
871.36	14773
871.489	14708
871.619	14758
871.749	14876
871.879	14861
872.008	14883
872.138	14762
872.267	14804
872.397	14667
872.526	14697
872.656	14655
872.785	14629
872.915	14811
873.044	14933
873.173	14845
873.303	14811
873.432	14868
873.561	14948
873.69	14853
873.819	14826
873.948	14929
874.077	14880
874.206	14937
874.335	14876
874.464	15043
874.593	15036
874.722	15036
874.851	15131
874.979	15218
875.108	15169
875.237	15066
875.365	15169
875.494	15116
875.623	15313
875.751	15154
875.88	15249
876.008	15317
876.136	15458
876.265	15610
876.393	15800
876.521	15686
876.65	15641
876.778	15584
876.906	15542
877.034	15614
877.162	15595
877.29	15519
877.418	15557
877.546	15519
877.674	15625
877.802	15591
877.93	15469
878.058	15545
878.185	15542
878.313	15507
878.441	15542
878.568	15443
878.696	15492
878.824	15690
878.951	15701
879.079	15705
879.206	15918
879.333	15770
879.461	15713
879.588	15759
879.715	15842
879.842	15781
879.97	15637
880.097	15348
880.224	15412
880.351	15412
880.478	15584
880.605	15538
880.732	15504
880.859	15743
880.986	15511
881.112	15496
881.239	15401
881.366	15241
881.493	15108
881.619	15116
881.746	15085
881.872	15097
881.999	15047
882.125	15123
882.252	15116
882.378	15112
882.505	15188
882.631	15093
882.757	14868
882.883	15039
883.01	15009
883.136	14910
883.262	14819
883.388	14750
883.514	14941
883.64	14948
883.766	14845
883.892	14648
884.018	14765
884.143	14918
884.269	14979
884.395	14674
884.52	14606
884.646	14655
884.772	14606
884.897	14541
885.023	14739
885.148	14712
885.274	14811
885.399	14636
885.524	14644
885.65	14636
885.775	14587
885.9	14644
886.025	14804
886.15	14670
886.275	14632
886.4	14590
886.525	14571
886.65	14518
886.775	14571
886.9	14754
887.025	14895
887.149	14697
887.274	14499
887.399	14336
887.523	14431
887.648	14393
887.773	14396
887.897	14556
888.021	14575
888.146	14404
888.27	14492
888.395	14602
888.519	14518
888.643	14541
888.767	14465
888.891	14480
889.015	14358
889.139	14396
889.263	14328
889.387	14434
889.511	14511
889.635	14476
889.759	14244
889.883	14317
890.006	14271
890.13	14503
890.254	14267
890.377	14370
890.501	14164
890.624	14092
890.748	14103
890.871	14001
890.995	13967
891.118	13947
891.241	14054
891.364	14073
891.488	14092
891.611	14046
891.734	14100
891.857	14039
891.98	13970
892.103	14206
892.226	14103
892.349	14012
892.471	13852
892.594	14005
892.717	14046
892.839	13898
892.962	13944
893.085	14134
893.207	14012
893.33	13898
893.452	13944
893.575	14180
893.697	14035
893.819	14142
893.941	14263
894.064	14172
894.186	14008
894.308	13925
894.43	14145
894.552	14161
894.674	14206
894.796	14001
894.918	14081
895.04	14054
895.161	14161
895.283	14157
895.405	14077
895.526	14073
895.648	14096
895.769	14267
895.891	14142
896.012	14267
896.134	14225
896.255	14180
896.376	14126
896.498	14126
896.619	14282
896.74	14229
896.861	14237
896.982	14526
897.103	14689
897.224	14469
897.345	14488
897.466	14423
897.587	14503
897.708	14560
897.828	14499
897.949	14446
898.07	14431
898.19	14469
898.311	14621
898.431	14484
898.552	14606
898.672	14667
898.792	14636
898.913	14598
899.033	14434
899.153	14488
899.273	14294
899.393	14385
899.513	14415
899.633	14518
899.753	14415
899.873	14469
899.993	14434
900.113	14396
900.232	14434
900.352	14412
900.472	14336
900.591	14275
900.711	14366
900.83	14233
900.95	14355
901.069	14381
901.189	14317
901.308	14100
901.427	13928
901.546	13974
901.665	14024
901.784	13944
901.904	13852
902.023	13738
902.141	13594
902.26	13506
902.379	13662
902.498	13620
902.617	13400
902.735	13594
902.854	13556
902.973	13548
903.091	13236
903.21	13308
903.328	13190
903.446	13247
903.565	13099
903.683	13190
903.801	13069
903.919	12989
904.038	13076
904.156	12951
904.274	12878
904.392	12909
904.51	12829
904.627	12924
904.745	12985
904.863	12909
904.981	12817
905.098	12639
905.216	12559
905.334	12722
905.451	12578
905.569	12517
905.686	12684
905.803	12635
905.921	12391
906.038	12528
906.155	12486
906.272	12380
906.389	12395
906.506	12243
906.623	12216
906.74	12102
906.857	12155
906.974	12102
907.091	12304
907.208	12414
907.324	12258
907.441	12159
907.557	11904
907.674	11916
907.79	11809
907.907	11923
908.023	12041
908.139	11927
908.256	11882
908.372	11931
908.488	11821
908.604	11703
908.72	11733
908.836	11748
908.952	11539
909.068	11703
909.184	11824
909.3	11646
909.415	11817
909.531	11764
909.647	11505
909.762	11414
909.878	11406
909.993	11592
910.108	11471
910.224	11425
910.339	11474
910.454	11383
910.57	11277
910.685	11246
910.8	11665
910.915	11505
911.03	11254
911.145	11140
911.259	11166
911.374	11166
911.489	11048
911.604	11060
911.718	10904
911.833	10900
911.947	10828
912.062	10782
912.176	10949
912.291	10976
912.405	10957
912.519	11128
912.633	11189
912.748	10968
912.862	10877
912.976	10854
913.09	10649
913.204	10698
913.318	10752
913.431	10923
913.545	10900
913.659	10877
913.772	10835
913.886	10702
914	10672
914.113	10752
914.226	10809
914.34	10835
914.453	10630
914.566	10740
914.68	10611
914.793	10618
914.906	10421
915.019	10390
915.132	10363
915.245	10424
915.358	10459
915.47	10455
915.583	10504
915.696	10466
915.809	10599
915.921	10588
916.034	10382
916.146	10436
916.259	10424
916.371	10421
916.483	10478
916.595	10390
916.708	10394
916.82	10333
916.932	10348
917.044	10375
917.156	10333
917.268	10261
917.38	10314
917.491	10238
917.603	10314
917.715	10356
917.826	10417
917.938	10246
918.049	10101
918.161	10363
918.272	10386
918.384	10371
918.495	10268
918.606	10188
918.717	10025
918.828	10177
918.939	10128
919.05	10025
919.161	10147
919.272	9869
919.383	10029
919.494	10230
919.604	10394
919.715	10196
919.826	10002
919.936	10139
920.047	10223
920.157	10192
920.267	10341
920.378	10246
920.488	10143
920.598	10337
920.708	10531
920.818	10402
920.928	10432
921.038	10527
921.148	10542
921.258	10200
921.368	10101
921.477	10048
921.587	9998
921.697	9960
921.806	10067
921.916	9869
922.025	9743
922.134	9759
922.244	9679
922.353	9800
922.462	9625
922.571	9614
922.68	9473
922.789	9458
922.898	9431
923.007	9313
923.116	9405
923.224	9485
923.333	9386
923.442	9298
923.55	9310
923.659	9340
923.767	9370
923.876	9298
923.984	9412
924.092	9245
924.201	9306
924.309	9218
924.417	9332
924.525	9268
924.633	9207
924.741	10185
924.849	9055
924.956	9275
925.064	9077
925.172	8986
925.279	9047
925.387	9058
925.494	9123
925.602	9230
925.709	9165
925.816	8994
925.924	9104
926.031	9180
926.138	9142
926.245	9184
926.352	9013
926.459	9097
926.566	9184
926.673	9112
926.779	8971
926.886	8937
926.993	8883
927.099	8769
927.206	8834
927.312	8819
927.419	8826
927.525	8880
927.631	8941
927.737	8777
927.843	8697
927.95	8663
928.056	8739
928.162	8724
928.267	8766
928.373	9245
928.479	8849
928.585	8613
928.69	8804
928.796	8785
928.901	8674
929.007	8530
929.112	8598
929.218	8648
929.323	8590
929.428	8564
929.533	8727
929.638	8499
929.743	8526
929.848	8617
929.953	8560
930.058	8434
930.163	8324
930.267	8332
930.372	8431
930.477	8221
930.581	8530
930.685	8328
930.79	8225
930.894	8294
930.998	8290
931.103	8415
931.207	8050
931.311	8039
931.415	7955
931.519	7784
931.623	7712
