Data from test_V78500241_2091.txt Node
Date: Fri Mar 25 14:48:16 CST 2022
User: usil
Spectrometer: V785-0024
Trigger mode: 0
Integration Time (sec): 4.000000E-1
Scans to average: 1
Nonlinearity correction enabled: false
Boxcar width: 0
Storing dark spectrum: false
XAxis mode: Wavelengths
Number of Pixels in Spectrum: 1024
>>>>>Begin Spectral Data<<<<<
801.071	22124
801.214	21926
801.356	21751
801.499	21606
801.641	21595
801.783	21488
801.926	21519
802.068	21363
802.211	21252
802.353	21256
802.496	20990
802.638	20956
802.78	20842
802.923	20845
803.065	20842
803.208	20864
803.35	20811
803.492	20872
803.635	21024
803.777	20739
803.919	20975
804.061	21123
804.204	20948
804.346	20735
804.488	20663
804.63	20834
804.773	20682
804.915	20785
805.057	20853
805.199	20701
805.341	20785
805.483	20815
805.626	20868
805.768	20625
805.91	20712
806.052	20720
806.194	20678
806.336	20902
806.478	20689
806.62	20629
806.762	20956
806.904	21051
807.046	21203
807.188	21074
807.33	21013
807.472	21146
807.614	20963
807.756	20994
807.898	20857
808.04	20739
808.182	20735
808.324	20933
808.465	20811
808.607	20990
808.749	21028
808.891	21226
809.033	21287
809.174	21340
809.316	20998
809.458	21161
809.6	21127
809.741	21173
809.883	21207
810.025	21332
810.166	21378
810.308	21233
810.45	21233
810.591	21176
810.733	21024
810.875	20921
811.016	20807
811.158	20773
811.299	20937
811.441	21017
811.582	20929
811.724	20899
811.865	20853
812.007	20910
812.148	20883
812.29	21058
812.431	20944
812.573	21127
812.714	21135
812.855	21488
812.997	21488
813.138	21564
813.279	21698
813.421	21355
813.562	21268
813.703	21291
813.845	21017
813.986	20739
814.127	20594
814.268	20469
814.41	20575
814.551	20400
814.692	20564
814.833	20351
814.974	20370
815.115	20366
815.256	20221
815.397	20347
815.539	20301
815.68	20252
815.821	20088
815.962	20176
816.103	20024
816.244	20046
816.385	19883
816.526	19967
816.666	19784
816.807	19620
816.948	19651
817.089	19818
817.23	19597
817.371	19624
817.512	19594
817.653	19510
817.793	19453
817.934	19506
818.075	19540
818.216	19662
818.356	19540
818.497	19403
818.638	19301
818.778	19301
818.919	19304
819.06	19396
819.2	19495
819.341	19506
819.481	19518
819.622	19594
819.762	19769
819.903	19639
820.043	19609
820.184	19620
820.324	19457
820.465	19518
820.605	19464
820.746	19502
820.886	19533
821.026	19609
821.167	19472
821.307	19575
821.447	19392
821.588	19403
821.728	19297
821.868	19031
822.008	18996
822.149	18924
822.289	18916
822.429	18738
822.569	18563
822.709	18719
822.849	18513
822.99	18513
823.13	18403
823.27	18433
823.41	18243
823.55	18205
823.69	18311
823.83	18258
823.97	18083
824.11	18049
824.25	17996
824.389	18087
824.529	18114
824.669	18003
824.809	18171
824.949	18125
825.089	18129
825.228	17999
825.368	17836
825.508	17824
825.648	17779
825.787	17965
825.927	17832
826.067	17798
826.206	17726
826.346	17748
826.485	17798
826.625	17745
826.765	17927
826.904	17771
827.044	17554
827.183	17638
827.323	17463
827.462	17509
827.601	17516
827.741	17516
827.88	17474
828.02	17383
828.159	17497
828.298	17490
828.437	17532
828.577	17638
828.716	17516
828.855	17516
828.994	17212
829.134	17277
829.273	17345
829.412	17212
829.551	17113
829.69	17216
829.829	17258
829.968	17330
830.107	17242
830.246	17299
830.385	17220
830.524	17067
830.663	17124
830.802	16980
830.941	16843
831.08	16850
831.219	16949
831.357	16927
831.496	17117
831.635	16809
831.774	16778
831.913	16694
832.051	16759
832.19	16641
832.329	16683
832.467	16504
832.606	16584
832.744	16546
832.883	16470
833.022	16538
833.16	16523
833.299	16683
833.437	16569
833.576	16603
833.714	16668
833.852	16588
833.991	16664
834.129	16702
834.267	16615
834.406	16611
834.544	16596
834.682	16527
834.821	16569
834.959	16778
835.097	16561
835.235	16713
835.373	16588
835.511	16584
835.65	16554
835.788	16470
835.926	16402
836.064	16333
836.202	16314
836.34	16546
836.478	16603
836.615	16497
836.753	16596
836.891	16637
837.029	16546
837.167	16580
837.305	16375
837.443	16398
837.58	16356
837.718	16451
837.856	16379
837.993	16325
838.131	16333
838.269	16375
838.406	16375
838.544	16242
838.681	16082
838.819	16044
838.956	15983
839.094	16048
839.231	15930
839.369	16051
839.506	16333
839.643	16207
839.781	15949
839.918	15934
840.055	16017
840.193	15934
840.33	15987
840.467	16006
840.604	15922
840.742	16291
840.879	15774
841.016	15827
841.153	15861
841.29	16002
841.427	15968
841.564	16017
841.701	15994
841.838	15964
841.975	15770
842.112	15907
842.249	15720
842.385	15751
842.522	15880
842.659	15778
842.796	15720
842.933	15656
843.069	15671
843.206	15614
843.343	15835
843.479	15599
843.616	15732
843.752	15606
843.889	15568
844.025	15690
844.162	15572
844.298	15515
844.435	15462
844.571	15488
844.708	15572
844.844	15705
844.98	15694
845.117	15610
845.253	15492
845.389	15344
845.525	15431
845.661	15397
845.798	15291
845.934	15355
846.07	15256
846.206	15302
846.342	15412
846.478	15291
846.614	15100
846.75	15119
846.886	15043
847.022	15203
847.158	15097
847.294	15127
847.429	15058
847.565	15028
847.701	15294
847.837	14796
847.972	14853
848.108	14868
848.244	14967
848.379	14807
848.515	14632
848.65	14632
848.786	14670
848.921	14670
849.057	14769
849.192	14819
849.328	14686
849.463	14651
849.598	14651
849.734	14499
849.869	14499
850.004	14438
850.14	14476
850.275	14507
850.41	14313
850.545	14400
850.68	14423
850.815	14434
850.95	14442
851.085	14598
851.22	14552
851.355	14423
851.49	14328
851.625	14473
851.76	14438
851.895	14343
852.03	14309
852.165	14408
852.299	14427
852.434	14488
852.569	14484
852.703	14423
852.838	14454
852.973	14602
853.107	14594
853.242	14370
853.376	14366
853.511	14271
853.645	14244
853.78	14499
853.914	14374
854.048	14286
854.183	14324
854.317	14347
854.451	14541
854.585	14313
854.72	14298
854.854	14446
854.988	14233
855.122	14206
855.256	14138
855.39	14305
855.524	14381
855.658	14347
855.792	14396
855.926	14336
856.06	14450
856.194	14385
856.327	14339
856.461	14320
856.595	14362
856.729	14244
856.862	14446
856.996	14374
857.13	14412
857.263	14450
857.397	14366
857.53	14275
857.664	14434
857.797	14465
857.931	14450
858.064	14313
858.197	14434
858.331	14351
858.464	14248
858.597	14195
858.731	14309
858.864	14275
858.997	14210
859.13	14328
859.263	14328
859.396	14393
859.529	14332
859.662	14320
859.795	14358
859.928	14393
860.061	14537
860.194	14419
860.327	14339
860.46	14317
860.592	14514
860.725	14457
860.858	14419
860.99	14336
861.123	14286
861.256	14256
861.388	14400
861.521	14811
861.653	14145
861.786	14161
861.918	14191
862.05	14275
862.183	14248
862.315	14313
862.447	14290
862.58	14320
862.712	14054
862.844	14046
862.976	14081
863.108	14138
863.24	14480
863.372	13959
863.504	14100
863.636	14024
863.768	14183
863.9	14107
864.032	13963
864.164	13982
864.296	14145
864.428	14244
864.559	14088
864.691	14145
864.823	14202
864.954	14107
865.086	14126
865.217	14237
865.349	14069
865.48	14134
865.612	14100
865.743	14256
865.875	14016
866.006	13967
866.137	14058
866.269	14050
866.4	14115
866.531	13978
866.662	13967
866.793	14058
866.924	14081
867.055	14043
867.186	14142
867.317	14008
867.448	13875
867.579	14084
867.71	14005
867.841	14077
867.972	14157
868.103	14058
868.233	14073
868.364	14043
868.495	14115
868.625	14351
868.756	14404
868.886	14237
869.017	14355
869.147	14427
869.278	14499
869.408	14408
869.539	14370
869.669	14358
869.799	14343
869.929	14427
870.06	14446
870.19	14606
870.32	14651
870.45	14606
870.58	14746
870.71	14807
870.84	14868
870.97	14667
871.1	14735
871.23	14963
871.36	14910
871.489	14918
871.619	14834
871.749	14921
871.879	14971
872.008	15043
872.138	14925
872.267	14895
872.397	14739
872.526	14785
872.656	14762
872.785	14758
872.915	14937
873.044	15074
873.173	14982
873.303	15005
873.432	15047
873.561	15036
873.69	14979
873.819	14979
873.948	15070
874.077	15024
874.206	14998
874.335	15009
874.464	15142
874.593	15222
874.722	15237
874.851	15336
874.979	15241
875.108	15302
875.237	15195
875.365	15192
875.494	15279
875.623	15367
875.751	15272
875.88	15306
876.008	15477
876.136	15542
876.265	15736
876.393	15922
876.521	15770
876.65	15747
876.778	15633
876.906	15595
877.034	15698
877.162	15709
877.29	15629
877.418	15736
877.546	15690
877.674	15690
877.802	15717
877.93	15641
878.058	15667
878.185	15622
878.313	15652
878.441	15614
878.568	15675
878.696	15641
878.824	15701
878.951	15713
879.079	15854
879.206	16067
879.333	15903
879.461	15774
879.588	15732
879.715	15880
879.842	15972
879.97	15762
880.097	15507
880.224	15625
880.351	15606
880.478	15610
880.605	15462
880.732	15595
880.859	15846
880.986	15614
881.112	15526
881.239	15428
881.366	15401
881.493	15310
881.619	15367
881.746	15218
881.872	15222
881.999	15203
882.125	15100
882.252	15264
882.378	15218
882.505	15370
882.631	15131
882.757	15131
882.883	15039
883.01	15043
883.136	14956
883.262	14918
883.388	14796
883.514	15013
883.64	15009
883.766	14937
883.892	14986
884.018	14823
884.143	14941
884.269	15138
884.395	14781
884.52	14796
884.646	14560
884.772	14644
884.897	14663
885.023	14689
885.148	14838
885.274	14960
885.399	14895
885.524	14838
885.65	14807
885.775	14807
885.9	14807
886.025	14857
886.15	14777
886.275	14765
886.4	14670
886.525	14754
886.65	14765
886.775	14712
886.9	14880
887.025	14952
887.149	14777
887.274	14583
887.399	14461
887.523	14457
887.648	14549
887.773	14495
887.897	14571
888.021	14594
888.146	14552
888.27	14636
888.395	14659
888.519	14625
888.643	14617
888.767	14724
888.891	14564
889.015	14438
889.139	14492
889.263	14499
889.387	14514
889.511	14617
889.635	14461
889.759	14457
889.883	14317
890.006	14454
890.13	14545
890.254	14358
890.377	14434
890.501	14256
890.624	14180
890.748	14267
890.871	14229
890.995	14123
891.118	14054
891.241	14092
891.364	14107
891.488	14183
891.611	14142
891.734	14115
891.857	14191
891.98	14168
892.103	14248
892.226	14073
892.349	14142
892.471	14043
892.594	14073
892.717	14138
892.839	14142
892.962	14142
893.085	14123
893.207	14157
893.33	13955
893.452	14111
893.575	14138
893.697	14065
893.819	14400
893.941	14301
894.064	14320
894.186	14096
894.308	14100
894.43	14240
894.552	14320
894.674	14275
894.796	14123
894.918	14195
895.04	14214
895.161	14252
895.283	14271
895.405	14107
895.526	14259
895.648	14187
895.769	14286
895.891	14328
896.012	14374
896.134	14298
896.255	14278
896.376	14191
896.498	14320
896.619	14332
896.74	14332
896.861	14320
896.982	14693
897.103	14777
897.224	14598
897.345	14530
897.466	14423
897.587	14568
897.708	14655
897.828	14590
897.949	14541
898.07	14408
898.19	14560
898.311	14667
898.431	14632
898.552	14705
898.672	14659
898.792	14735
898.913	14560
899.033	14564
899.153	14610
899.273	14404
899.393	14412
899.513	14438
899.633	14480
899.753	14530
899.873	14431
899.993	14480
900.113	14590
900.232	14587
900.352	14469
900.472	14404
900.591	14381
900.711	14446
900.83	14393
900.95	14431
901.069	14454
901.189	14343
901.308	14111
901.427	14107
901.546	14092
901.665	14020
901.784	14130
901.904	13986
902.023	13780
902.141	13723
902.26	13655
902.379	13609
902.498	13601
902.617	13578
902.735	13670
902.854	13594
902.973	13601
903.091	13335
903.21	13285
903.328	13354
903.446	13232
903.565	13213
903.683	13198
903.801	13156
903.919	13038
904.038	13137
904.156	13015
904.274	13095
904.392	12993
904.51	12951
904.627	12981
904.745	13042
904.863	13046
904.981	12817
905.098	12669
905.216	12684
905.334	12650
905.451	12677
905.569	12639
905.686	12783
905.803	12604
905.921	12585
906.038	12604
906.155	12498
906.272	12448
906.389	12528
906.506	12273
906.623	12277
906.74	12239
906.857	12235
906.974	12251
907.091	12323
907.208	12426
907.324	12380
907.441	12194
907.557	12030
907.674	12102
907.79	11969
907.907	12026
908.023	12083
908.139	12030
908.256	11942
908.372	11973
908.488	11916
908.604	11855
908.72	11832
908.836	11802
908.952	11695
909.068	11794
909.184	11893
909.3	11733
909.415	11870
909.531	11965
909.647	11558
909.762	11535
909.878	11520
909.993	11562
910.108	11619
910.224	11543
910.339	11486
910.454	11524
910.57	11391
910.685	11345
910.8	11608
910.915	11490
911.03	11433
911.145	11212
911.259	11185
911.374	11284
911.489	11197
911.604	11143
911.718	11037
911.833	11090
911.947	10801
912.062	10835
912.176	10949
912.291	10980
912.405	10953
912.519	11151
912.633	11174
912.748	11098
912.862	10957
912.976	10999
913.09	10755
913.204	10866
913.318	10866
913.431	10972
913.545	11006
913.659	11052
913.772	10847
913.886	10702
914	10763
914.113	10824
914.226	10877
914.34	10854
914.453	10698
914.566	10854
914.68	10725
914.793	10771
914.906	10535
915.019	10497
915.132	10436
915.245	10527
915.358	10516
915.47	10573
915.583	10493
915.696	10607
915.809	10649
915.921	10672
916.034	10459
916.146	10523
916.259	10382
916.371	10561
916.483	10523
916.595	10443
916.708	10413
916.82	10470
916.932	10466
917.044	10500
917.156	10318
917.268	10303
917.38	10360
917.491	10341
917.603	10249
917.715	10470
917.826	10497
917.938	10390
918.049	10234
918.161	10363
918.272	10535
918.384	10436
918.495	10375
918.606	10261
918.717	10139
918.828	10284
918.939	10227
919.05	10071
919.161	10124
919.272	9975
919.383	10105
919.494	10215
919.604	10428
919.715	10272
919.826	10150
919.936	10185
920.047	10325
920.157	10166
920.267	10481
920.378	10314
920.488	10272
920.598	10447
920.708	10607
920.818	10485
920.928	10371
921.038	10584
921.148	10580
921.258	10230
921.368	10181
921.477	10162
921.587	10116
921.697	9911
921.806	10055
921.916	10051
922.025	9876
922.134	9797
922.244	9804
922.353	9846
922.462	9713
922.571	9576
922.68	9500
922.789	9397
922.898	9481
923.007	9374
923.116	9469
923.224	9469
923.333	9500
923.442	9374
923.55	9321
923.659	9389
923.767	9450
923.876	9401
923.984	9466
924.092	9359
924.201	9264
924.309	9344
924.417	9378
924.525	9344
924.633	9325
924.741	10268
924.849	9146
924.956	9279
925.064	9085
925.172	9085
925.279	9112
925.387	9207
925.494	9093
925.602	9287
925.709	9287
925.816	9085
925.924	9169
926.031	9222
926.138	9157
926.245	9142
926.352	9077
926.459	9161
926.566	9226
926.673	9062
926.779	8971
926.886	8925
926.993	8937
927.099	8887
927.206	8838
927.312	8804
927.419	8849
927.525	8804
927.631	8906
927.737	8834
927.843	8750
927.95	8659
928.056	8724
928.162	8781
928.267	8777
928.373	9389
928.479	8861
928.585	8693
928.69	8788
928.796	8800
928.901	8663
929.007	8594
929.112	8701
929.218	8590
929.323	8583
929.428	8533
929.533	8716
929.638	8484
929.743	8564
929.848	8564
929.953	8530
930.058	8549
930.163	8347
930.267	8358
930.372	8518
930.477	8271
930.581	8594
930.685	8438
930.79	8305
930.894	8328
930.998	8294
931.103	8488
931.207	8092
931.311	8012
931.415	7898
931.519	7708
931.623	7845
