Data from test_V78500241_426.txt Node
Date: Fri Mar 25 14:36:41 CST 2022
User: usil
Spectrometer: V785-0024
Trigger mode: 0
Integration Time (sec): 4.000000E-1
Scans to average: 1
Nonlinearity correction enabled: false
Boxcar width: 0
Storing dark spectrum: false
XAxis mode: Wavelengths
Number of Pixels in Spectrum: 1024
>>>>>Begin Spectral Data<<<<<
801.071	26632
801.214	26419
801.356	26396
801.499	26294
801.641	26035
801.783	26031
801.926	26096
802.068	26096
802.211	25894
802.353	25890
802.496	25845
802.638	25571
802.78	25738
802.923	25628
803.065	25525
803.208	25533
803.35	25559
803.492	25575
803.635	25620
803.777	25540
803.919	25643
804.061	25913
804.204	25708
804.346	25514
804.488	25506
804.63	25624
804.773	25468
804.915	25556
805.057	25712
805.199	25457
805.341	25655
805.483	25670
805.626	25563
805.768	25487
805.91	25559
806.052	25582
806.194	25537
806.336	25772
806.478	25518
806.62	25647
806.762	25632
806.904	25856
807.046	25940
807.188	25951
807.33	25833
807.472	26149
807.614	25947
807.756	25856
807.898	25837
808.04	25765
808.182	25685
808.324	25818
808.465	25761
808.607	25906
808.749	26130
808.891	26286
809.033	26377
809.174	26267
809.316	25944
809.458	26119
809.6	26084
809.741	26092
809.883	26084
810.025	26313
810.166	26286
810.308	26210
810.45	26153
810.591	26214
810.733	26031
810.875	25913
811.016	25890
811.158	25693
811.299	26126
811.441	26100
811.582	26103
811.724	25780
811.865	25947
812.007	25917
812.148	25959
812.29	25978
812.431	26035
812.573	26298
812.714	26389
812.855	26389
812.997	26480
813.138	26522
813.279	26434
813.421	26419
813.562	26400
813.703	26206
813.845	26126
813.986	25776
814.127	25601
814.268	25434
814.41	25415
814.551	25518
814.692	25544
814.833	25464
814.974	25438
815.115	25499
815.256	25346
815.397	25472
815.539	25266
815.68	25156
815.821	25179
815.962	25148
816.103	25137
816.244	24977
816.385	24871
816.526	24863
816.666	24760
816.807	24627
816.948	24661
817.089	24734
817.23	24635
817.371	24486
817.512	24661
817.653	24494
817.793	24528
817.934	24604
818.075	24608
818.216	24631
818.356	24639
818.497	24384
818.638	24254
818.778	24243
818.919	24216
819.06	24319
819.2	24521
819.341	24555
819.481	24585
819.622	24623
819.762	24886
819.903	24821
820.043	24521
820.184	24528
820.324	24604
820.465	24722
820.605	24616
820.746	24547
820.886	24502
821.026	24601
821.167	24536
821.307	24475
821.447	24369
821.588	24365
821.728	24270
821.868	23984
822.008	23977
822.149	23920
822.289	23996
822.429	23786
822.569	23615
822.709	23649
822.849	23467
822.99	23391
823.13	23299
823.27	23318
823.41	23239
823.55	23041
823.69	23113
823.83	23204
823.97	23121
824.11	22930
824.25	22942
824.389	22949
824.529	23014
824.669	22972
824.809	23022
824.949	23041
825.089	23067
825.228	22972
825.368	22721
825.508	22721
825.648	22702
825.787	22748
825.927	22854
826.067	22664
826.206	22649
826.346	22782
826.485	22736
826.625	22809
826.765	22778
826.904	22664
827.044	22382
827.183	22489
827.323	22348
827.462	22481
827.601	22379
827.741	22306
827.88	22421
828.02	22306
828.159	22382
828.298	22337
828.437	22504
828.577	22200
828.716	22390
828.855	22352
828.994	22272
829.134	22131
829.273	22135
829.412	22116
829.551	21941
829.69	22109
829.829	22143
829.968	22238
830.107	22215
830.246	22067
830.385	21968
830.524	21899
830.663	21816
830.802	21724
830.941	21709
831.08	21530
831.219	21667
831.357	21675
831.496	21895
831.635	21648
831.774	21576
831.913	21682
832.051	21534
832.19	21450
832.329	21447
832.467	21336
832.606	21321
832.744	21275
832.883	21397
833.022	21389
833.16	21348
833.299	21313
833.437	21401
833.576	21332
833.714	21317
833.852	21405
833.991	21317
834.129	21469
834.267	21416
834.406	21374
834.544	21355
834.682	21424
834.821	21150
834.959	21439
835.097	21260
835.235	21378
835.373	21264
835.511	21374
835.65	21203
835.788	21131
835.926	21028
836.064	20944
836.202	21013
836.34	21108
836.478	21211
836.615	21154
836.753	21245
836.891	21241
837.029	21249
837.167	21119
837.305	21005
837.443	21020
837.58	20937
837.718	21154
837.856	21119
837.993	20921
838.131	20948
838.269	21036
838.406	21104
838.544	20765
838.681	20689
838.819	20754
838.956	20522
839.094	20374
839.231	20670
839.369	20609
839.506	20788
839.643	20853
839.781	20606
839.918	20484
840.055	20522
840.193	20457
840.33	20358
840.467	20473
840.604	20438
840.742	20667
840.879	20244
841.016	20237
841.153	20347
841.29	20511
841.427	20336
841.564	20408
841.701	20518
841.838	20328
841.975	20248
842.112	20305
842.249	20214
842.385	20054
842.522	20400
842.659	20119
842.796	20149
842.933	20115
843.069	20202
843.206	20027
843.343	20248
843.479	20058
843.616	20100
843.752	19944
843.889	19944
844.025	20153
844.162	19845
844.298	19909
844.435	19852
844.571	19753
844.708	19944
844.844	20027
844.98	19986
845.117	19932
845.253	19864
845.389	19693
845.525	19784
845.661	19696
845.798	19674
845.934	19704
846.07	19704
846.206	19818
846.342	19841
846.478	19681
846.614	19392
846.75	19285
846.886	19282
847.022	19514
847.158	19324
847.294	19373
847.429	19411
847.565	19373
847.701	19510
847.837	19133
847.972	19027
848.108	19050
848.244	19164
848.379	18932
848.515	18863
848.65	18943
848.786	18924
848.921	18989
849.057	18878
849.192	18962
849.328	18932
849.463	18939
849.598	18833
849.734	18878
849.869	18688
850.004	18719
850.14	18711
850.275	18677
850.41	18486
850.545	18612
850.68	18745
850.815	18627
850.95	18627
851.085	18848
851.22	18821
851.355	18726
851.49	18635
851.625	18578
851.76	18570
851.895	18570
852.03	18433
852.165	18646
852.299	18692
852.434	18707
852.569	18764
852.703	18661
852.838	18810
852.973	18616
853.107	18684
853.242	18601
853.376	18490
853.511	18391
853.645	18369
853.78	18532
853.914	18502
854.048	18513
854.183	18574
854.317	18471
854.451	18722
854.585	18471
854.72	18350
854.854	18521
854.988	18422
855.122	18547
855.256	18258
855.39	18509
855.524	18551
855.658	18536
855.792	18422
855.926	18369
856.06	18517
856.194	18547
856.327	18471
856.461	18403
856.595	18403
856.729	18464
856.862	18467
856.996	18391
857.13	18380
857.263	18582
857.397	18502
857.53	18399
857.664	18467
857.797	18532
857.931	18506
858.064	18494
858.197	18589
858.331	18338
858.464	18502
858.597	18342
858.731	18311
858.864	18292
858.997	18334
859.13	18376
859.263	18422
859.396	18521
859.529	18437
859.662	18308
859.795	18445
859.928	18437
860.061	18642
860.194	18433
860.327	18388
860.46	18380
860.592	18414
860.725	18452
860.858	18464
860.99	18338
861.123	18338
861.256	18296
861.388	18300
861.521	19137
861.653	18194
861.786	18209
861.918	18289
862.05	18384
862.183	18471
862.315	18414
862.447	18517
862.58	18414
862.712	18235
862.844	18201
862.976	18243
863.108	18136
863.24	18410
863.372	18114
863.504	18155
863.636	18030
863.768	18068
863.9	18076
864.032	18064
864.164	18007
864.296	18171
864.428	18125
864.559	18159
864.691	18095
864.823	18121
864.954	18068
865.086	18091
865.217	18060
865.349	17996
865.48	18053
865.612	18121
865.743	18030
865.875	17992
866.006	17984
866.137	18110
866.269	18030
866.4	18068
866.531	18003
866.662	17927
866.793	17977
866.924	18049
867.055	17965
867.186	17920
867.317	17984
867.448	17954
867.579	17885
867.71	17866
867.841	18015
867.972	17954
868.103	18015
868.233	18030
868.364	17973
868.495	18117
868.625	18201
868.756	18258
868.886	18072
869.017	18144
869.147	18228
869.278	18342
869.408	18239
869.539	18224
869.669	18292
869.799	18292
869.929	18178
870.06	18327
870.19	18551
870.32	18486
870.45	18532
870.58	18570
870.71	18760
870.84	18749
870.97	18726
871.1	18479
871.23	18722
871.36	18730
871.489	18631
871.619	18757
871.749	18844
871.879	18802
872.008	18897
872.138	18798
872.267	18897
872.397	18684
872.526	18730
872.656	18639
872.785	18677
872.915	18840
873.044	18726
873.173	18821
873.303	18875
873.432	18951
873.561	18863
873.69	18890
873.819	18806
873.948	18928
874.077	18817
874.206	18749
874.335	18920
874.464	18916
874.593	19050
874.722	19118
874.851	19114
874.979	19164
875.108	19187
875.237	19107
875.365	19080
875.494	19076
875.623	19179
875.751	19129
875.88	19069
876.008	19327
876.136	19339
876.265	19567
876.393	19575
876.521	19518
876.65	19620
876.778	19616
876.906	19495
877.034	19491
877.162	19594
877.29	19464
877.418	19548
877.546	19537
877.674	19449
877.802	19453
877.93	19525
878.058	19388
878.185	19392
878.313	19533
878.441	19559
878.568	19411
878.696	19396
878.824	19525
878.951	19616
879.079	19677
879.206	19826
879.333	19677
879.461	19628
879.588	19605
879.715	19590
879.842	19932
879.97	19670
880.097	19312
880.224	19289
880.351	19358
880.478	19441
880.605	19320
880.732	19327
880.859	19575
880.986	19373
881.112	19346
881.239	19122
881.366	19076
881.493	19038
881.619	18897
881.746	19095
881.872	19095
881.999	18989
882.125	18981
882.252	19065
882.378	19015
882.505	19088
882.631	18939
882.757	18715
882.883	18821
883.01	18810
883.136	18692
883.262	18635
883.388	18563
883.514	18688
883.64	18749
883.766	18673
883.892	18559
884.018	18528
884.143	18764
884.269	18833
884.395	18479
884.52	18426
884.646	18475
884.772	18418
884.897	18258
885.023	18422
885.148	18479
885.274	18544
885.399	18502
885.524	18399
885.65	18475
885.775	18342
885.9	18391
886.025	18407
886.15	18426
886.275	18365
886.4	18319
886.525	18338
886.65	18292
886.775	18273
886.9	18475
887.025	18513
887.149	18384
887.274	18232
887.399	18152
887.523	18095
887.648	18125
887.773	17931
887.897	18292
888.021	18152
888.146	18125
888.27	18266
888.395	18251
888.519	18304
888.643	18190
888.767	18197
888.891	18098
889.015	18030
889.139	18057
889.263	17923
889.387	18003
889.511	18228
889.635	18060
889.759	17923
889.883	18015
890.006	18019
890.13	17988
890.254	18026
890.377	17916
890.501	17745
890.624	17718
890.748	17817
890.871	17566
890.995	17554
891.118	17566
891.241	17668
891.364	17661
891.488	17722
891.611	17570
891.734	17493
891.857	17691
891.98	17608
892.103	17760
892.226	17558
892.349	17535
892.471	17360
892.594	17543
892.717	17611
892.839	17570
892.962	17551
893.085	17634
893.207	17486
893.33	17410
893.452	17482
893.575	17634
893.697	17493
893.819	17676
893.941	17855
894.064	17684
894.186	17505
894.308	17448
894.43	17691
894.552	17684
894.674	17665
894.796	17474
894.918	17566
895.04	17520
895.161	17672
895.283	17532
895.405	17554
895.526	17566
895.648	17551
895.769	17547
895.891	17665
896.012	17642
896.134	17668
896.255	17707
896.376	17558
896.498	17707
896.619	17722
896.74	17779
896.861	17672
896.982	18041
897.103	18114
897.224	17859
897.345	17828
897.466	17802
897.587	17927
897.708	18057
897.828	17923
897.949	17889
898.07	17691
898.19	17863
898.311	17920
898.431	17843
898.552	17764
898.672	17954
898.792	17901
898.913	17779
899.033	17851
899.153	17604
899.273	17528
899.393	17634
899.513	17737
899.633	17615
899.753	17589
899.873	17619
899.993	17665
900.113	17630
900.232	17684
900.352	17528
900.472	17467
900.591	17455
900.711	17398
900.83	17490
900.95	17570
901.069	17524
901.189	17353
901.308	17178
901.427	17029
901.546	17121
901.665	17128
901.784	17174
901.904	16946
902.023	16938
902.141	16679
902.26	16615
902.379	16706
902.498	16679
902.617	16546
902.735	16668
902.854	16550
902.973	16592
903.091	16344
903.21	16310
903.328	16310
903.446	16196
903.565	16177
903.683	16215
903.801	16036
903.919	16082
904.038	16013
904.156	15949
904.274	15827
904.392	16006
904.51	15918
904.627	15975
904.745	15918
904.863	15930
904.981	15739
905.098	15564
905.216	15644
905.334	15557
905.451	15526
905.569	15473
905.686	15511
905.803	15599
905.921	15428
906.038	15549
906.155	15507
906.272	15245
906.389	15325
906.506	15039
906.623	15245
906.74	15184
906.857	14979
906.974	15043
907.091	15119
907.208	15237
907.324	15093
907.441	15047
907.557	14948
907.674	14823
907.79	14792
907.907	14765
908.023	14864
908.139	14842
908.256	14712
908.372	14811
908.488	14686
908.604	14674
908.72	14545
908.836	14564
908.952	14461
909.068	14560
909.184	14629
909.3	14514
909.415	14518
909.531	14568
909.647	14381
909.762	14381
909.878	14210
909.993	14275
910.108	14202
910.224	14183
910.339	14218
910.454	14054
910.57	14092
910.685	14046
910.8	14355
910.915	14328
911.03	14240
911.145	13947
911.259	13925
911.374	13822
911.489	13887
911.604	13868
911.718	13719
911.833	13616
911.947	13487
912.062	13506
912.176	13662
912.291	13651
912.405	13556
912.519	13849
912.633	13803
912.748	13715
912.862	13597
912.976	13540
913.09	13403
913.204	13388
913.318	13540
913.431	13578
913.545	13575
913.659	13628
913.772	13464
913.886	13400
914	13346
914.113	13415
914.226	13411
914.34	13331
914.453	13263
914.566	13422
914.68	13354
914.793	13160
914.906	13126
915.019	12954
915.132	12863
915.245	13023
915.358	13000
915.47	13019
915.583	13027
915.696	13072
915.809	13084
915.921	13084
916.034	12928
916.146	12909
916.259	12859
916.371	13019
916.483	12901
916.595	12840
916.708	12897
916.82	12825
916.932	12833
917.044	12806
917.156	12848
917.268	12745
917.38	12715
917.491	12684
917.603	12715
917.715	12738
917.826	12738
917.938	12669
918.049	12646
918.161	12719
918.272	12791
918.384	12791
918.495	12631
918.606	12521
918.717	12399
918.828	12551
918.939	12498
919.05	12422
919.161	12604
919.272	12388
919.383	12395
919.494	12483
919.604	12734
919.715	12574
919.826	12418
919.936	12475
920.047	12589
920.157	12521
920.267	12681
920.378	12521
920.488	12464
920.598	12703
920.708	12768
920.818	12669
920.928	12601
921.038	12844
921.148	12662
921.258	12490
921.368	12353
921.477	12232
921.587	12258
921.697	12144
921.806	12251
921.916	12136
922.025	12045
922.134	11912
922.244	11904
922.353	11980
922.462	11794
922.571	11699
922.68	11726
922.789	11615
922.898	11627
923.007	11452
923.116	11611
923.224	11551
923.333	11551
923.442	11490
923.55	11410
923.659	11417
923.767	11516
923.876	11364
923.984	11474
924.092	11360
924.201	11383
924.309	11395
924.417	11486
924.525	11322
924.633	11330
924.741	12311
924.849	11151
924.956	11265
925.064	11136
925.172	10991
925.279	11109
925.387	11098
925.494	11113
925.602	11235
925.709	11147
925.816	10991
925.924	11094
926.031	11090
926.138	11121
926.245	11174
926.352	11025
926.459	11155
926.566	11105
926.673	11018
926.779	10790
926.886	10862
926.993	10759
927.099	10858
927.206	10702
927.312	10710
927.419	10812
927.525	10839
927.631	10831
927.737	10660
927.843	10668
927.95	10481
928.056	10596
928.162	10584
928.267	10714
928.373	11181
928.479	10706
928.585	10474
928.69	10592
928.796	10683
928.901	10504
929.007	10360
929.112	10493
929.218	10443
929.323	10379
929.428	10291
929.533	10440
929.638	10310
929.743	10394
929.848	10306
929.953	10299
930.058	10227
930.163	10139
930.267	10078
930.372	10116
930.477	10036
930.581	10227
930.685	10124
930.79	9930
930.894	9975
930.998	9994
931.103	10112
931.207	9762
931.311	9682
931.415	9599
931.519	9393
931.623	9416
