Data from test_V78500241_263.txt Node
Date: Fri Mar 25 14:35:33 CST 2022
User: usil
Spectrometer: V785-0024
Trigger mode: 0
Integration Time (sec): 4.000000E-1
Scans to average: 1
Nonlinearity correction enabled: false
Boxcar width: 0
Storing dark spectrum: false
XAxis mode: Wavelengths
Number of Pixels in Spectrum: 1024
>>>>>Begin Spectral Data<<<<<
801.071	27317
801.214	27272
801.356	27013
801.499	27020
801.641	26880
801.783	26819
801.926	26804
802.068	26674
802.211	26708
802.353	26632
802.496	26358
802.638	26492
802.78	26377
802.923	26221
803.065	26225
803.208	26298
803.35	26252
803.492	26461
803.635	26385
803.777	26263
803.919	26480
804.061	26682
804.204	26400
804.346	26377
804.488	26206
804.63	26381
804.773	26172
804.915	26374
805.057	26377
805.199	26343
805.341	26461
805.483	26419
805.626	26324
805.768	26286
805.91	26324
806.052	26442
806.194	26233
806.336	26549
806.478	26434
806.62	26419
806.762	26461
806.904	26552
807.046	26727
807.188	26785
807.33	26773
807.472	26899
807.614	26655
807.756	26705
807.898	26720
808.04	26655
808.182	26541
808.324	26720
808.465	26659
808.607	26883
808.749	26982
808.891	27100
809.033	27302
809.174	27085
809.316	27009
809.458	27043
809.6	26990
809.741	27001
809.883	26872
810.025	27268
810.166	27043
810.308	27154
810.45	27116
810.591	26906
810.733	26849
810.875	26746
811.016	26609
811.158	26541
811.299	26796
811.441	26895
811.582	26823
811.724	26724
811.865	26636
812.007	26785
812.148	26762
812.29	26632
812.431	26769
812.573	27131
812.714	27055
812.855	27275
812.997	27325
813.138	27485
813.279	27329
813.421	27096
813.562	27108
813.703	27100
813.845	26918
813.986	26705
814.127	26461
814.268	26301
814.41	26434
814.551	26206
814.692	26469
814.833	26332
814.974	26214
815.115	26259
815.256	26081
815.397	26218
815.539	26103
815.68	26012
815.821	25986
815.962	26046
816.103	25917
816.244	25845
816.385	25700
816.526	25666
816.666	25643
816.807	25460
816.948	25468
817.089	25616
817.23	25419
817.371	25392
817.512	25411
817.653	25464
817.793	25377
817.934	25202
818.075	25445
818.216	25491
818.356	25244
818.497	25335
818.638	25042
818.778	25107
818.919	25198
819.06	25114
819.2	25259
819.341	25365
819.481	25293
819.622	25529
819.762	25559
819.903	25575
820.043	25464
820.184	25251
820.324	25396
820.465	25381
820.605	25354
820.746	25247
820.886	25183
821.026	25518
821.167	25339
821.307	25365
821.447	25282
821.588	25164
821.728	25057
821.868	24916
822.008	24806
822.149	24608
822.289	24669
822.429	24498
822.569	24372
822.709	24494
822.849	24239
822.99	24270
823.13	24178
823.27	24057
823.41	24030
823.55	23961
823.69	23984
823.83	24064
823.97	23992
824.11	23741
824.25	23695
824.389	23748
824.529	23805
824.669	23676
824.809	23817
824.949	23920
825.089	23908
825.228	23779
825.368	23623
825.508	23726
825.648	23627
825.787	23661
825.927	23687
826.067	23558
826.206	23680
826.346	23581
826.485	23581
826.625	23398
826.765	23592
826.904	23512
827.044	23482
827.183	23406
827.323	23303
827.462	23212
827.601	23299
827.741	23258
827.88	23193
828.02	23010
828.159	23216
828.298	23269
828.437	23193
828.577	23121
828.716	23227
828.855	23166
828.994	23018
829.134	22965
829.273	22999
829.412	22839
829.551	22835
829.69	22896
829.829	22889
829.968	22984
830.107	22942
830.246	22850
830.385	22744
830.524	22790
830.663	22656
830.802	22584
830.941	22489
831.08	22550
831.219	22561
831.357	22596
831.496	22664
831.635	22489
831.774	22470
831.913	22341
832.051	22398
832.19	22173
832.329	22192
832.467	22242
832.606	22234
832.744	22082
832.883	22078
833.022	22051
833.16	22086
833.299	22234
833.437	22139
833.576	22284
833.714	22078
833.852	22135
833.991	22207
834.129	22188
834.267	22238
834.406	22147
834.544	22166
834.682	22169
834.821	22021
834.959	22333
835.097	22021
835.235	22131
835.373	22101
835.511	22055
835.65	21991
835.788	21964
835.926	21812
836.064	21778
836.202	21827
836.34	21960
836.478	21964
836.615	21937
836.753	21956
836.891	21892
837.029	21846
837.167	21880
837.305	21812
837.443	21979
837.58	21770
837.718	21835
837.856	21671
837.993	21793
838.131	21728
838.269	21747
838.406	21682
838.544	21511
838.681	21435
838.819	21450
838.956	21195
839.094	21233
839.231	21332
839.369	21386
839.506	21686
839.643	21306
839.781	21351
839.918	21165
840.055	21245
840.193	21180
840.33	21157
840.467	21192
840.604	21230
840.742	21450
840.879	21043
841.016	21013
841.153	21013
841.29	21283
841.427	21165
841.564	21214
841.701	21173
841.838	21024
841.975	20956
842.112	21051
842.249	20891
842.385	20944
842.522	21096
842.659	20941
842.796	20960
842.933	20834
843.069	20804
843.206	20792
843.343	20811
843.479	20910
843.616	20785
843.752	20682
843.889	20609
844.025	20823
844.162	20503
844.298	20663
844.435	20480
844.571	20609
844.708	20697
844.844	20682
844.98	20693
845.117	20659
845.253	20480
845.389	20541
845.525	20594
845.661	20583
845.798	20568
845.934	20629
846.07	20556
846.206	20625
846.342	20670
846.478	20412
846.614	20259
846.75	20050
846.886	20145
847.022	20206
847.158	20111
847.294	20069
847.429	20134
847.565	20046
847.701	20244
847.837	19772
847.972	19731
848.108	19917
848.244	19875
848.379	19780
848.515	19685
848.65	19502
848.786	19628
848.921	19727
849.057	19647
849.192	19575
849.328	19597
849.463	19567
849.598	19578
849.734	19525
849.869	19544
850.004	19472
850.14	19346
850.275	19426
850.41	19232
850.545	19244
850.68	19259
850.815	19381
850.95	19293
851.085	19441
851.22	19533
851.355	19358
851.49	19331
851.625	19312
851.76	19400
851.895	19148
852.03	19285
852.165	19396
852.299	19365
852.434	19263
852.569	19445
852.703	19316
852.838	19384
852.973	19548
853.107	19331
853.242	19206
853.376	19289
853.511	19031
853.645	19141
853.78	19240
853.914	19209
854.048	19084
854.183	19194
854.317	19114
854.451	19202
854.585	19190
854.72	19126
854.854	19209
854.988	19118
855.122	19122
855.256	18981
855.39	19190
855.524	19179
855.658	19164
855.792	19084
855.926	19129
856.06	19160
856.194	19198
856.327	19065
856.461	19053
856.595	19209
856.729	19103
856.862	19190
856.996	19148
857.13	19240
857.263	19217
857.397	19171
857.53	19114
857.664	19057
857.797	19046
857.931	19209
858.064	19152
858.197	19099
858.331	19069
858.464	19019
858.597	19069
858.731	19015
858.864	19057
858.997	19069
859.13	19171
859.263	19046
859.396	19084
859.529	19065
859.662	19095
859.795	19088
859.928	19042
860.061	19206
860.194	19289
860.327	19053
860.46	19069
860.592	19141
860.725	19274
860.858	19209
860.99	19129
861.123	18928
861.256	18962
861.388	19038
861.521	19658
861.653	18996
861.786	18932
861.918	18916
862.05	19110
862.183	19110
862.315	19247
862.447	19171
862.58	19065
862.712	18848
862.844	18802
862.976	18935
863.108	18882
863.24	19168
863.372	18726
863.504	18867
863.636	18757
863.768	18783
863.9	18764
864.032	18741
864.164	18840
864.296	18867
864.428	18977
864.559	18753
864.691	18909
864.823	18795
864.954	18825
865.086	18757
865.217	18768
865.349	18525
865.48	18631
865.612	18631
865.743	18833
865.875	18722
866.006	18627
866.137	18772
866.269	18711
866.4	18829
866.531	18597
866.662	18635
866.793	18646
866.924	18563
867.055	18639
867.186	18745
867.317	18639
867.448	18585
867.579	18593
867.71	18563
867.841	18642
867.972	18623
868.103	18608
868.233	18692
868.364	18696
868.495	18734
868.625	18848
868.756	18916
868.886	18741
869.017	18833
869.147	19019
869.278	19012
869.408	18878
869.539	18863
869.669	19038
869.799	18928
869.929	18916
870.06	19012
870.19	19118
870.32	19217
870.45	19209
870.58	19263
870.71	19202
870.84	19422
870.97	19225
871.1	19301
871.23	19346
871.36	19483
871.489	19377
871.619	19358
871.749	19403
871.879	19605
872.008	19616
872.138	19480
872.267	19533
872.397	19419
872.526	19187
872.656	19285
872.785	19343
872.915	19552
873.044	19525
873.173	19502
873.303	19521
873.432	19510
873.561	19563
873.69	19422
873.819	19540
873.948	19632
874.077	19445
874.206	19453
874.335	19495
874.464	19635
874.593	19704
874.722	19723
874.851	19795
874.979	19803
875.108	19712
875.237	19753
875.365	19689
875.494	19624
875.623	19727
875.751	19769
875.88	19887
876.008	19921
876.136	20016
876.265	20259
876.393	20282
876.521	20271
876.65	20267
876.778	20221
876.906	20122
877.034	20024
877.162	20180
877.29	20058
877.418	20126
877.546	20149
877.674	20111
877.802	20130
877.93	20122
878.058	20054
878.185	20065
878.313	20065
878.441	20210
878.568	20046
878.696	20157
878.824	20138
878.951	20286
879.079	20469
879.206	20446
879.333	20320
879.461	20412
879.588	20427
879.715	20503
879.842	20568
879.97	20290
880.097	19986
880.224	19959
880.351	20065
880.478	20092
880.605	20035
880.732	20088
880.859	20282
880.986	20039
881.112	20043
881.239	19974
881.366	19750
881.493	19624
881.619	19727
881.746	19544
881.872	19624
881.999	19662
882.125	19643
882.252	19765
882.378	19731
882.505	19700
882.631	19483
882.757	19487
882.883	19559
883.01	19457
883.136	19320
883.262	19206
883.388	19270
883.514	19434
883.64	19449
883.766	19270
883.892	19240
884.018	19225
884.143	19312
884.269	19476
884.395	19126
884.52	19050
884.646	19038
884.772	18924
884.897	18958
885.023	19107
885.148	19103
885.274	19156
885.399	19133
885.524	18985
885.65	19069
885.775	19114
885.9	18989
886.025	19168
886.15	19114
886.275	18958
886.4	18878
886.525	18947
886.65	18916
886.775	18928
886.9	19236
887.025	19206
887.149	18947
887.274	18817
887.399	18840
887.523	18787
887.648	18760
887.773	18642
887.897	18890
888.021	18764
888.146	18795
888.27	18867
888.395	18916
888.519	18913
888.643	18856
888.767	18814
888.891	18673
889.015	18646
889.139	18692
889.263	18593
889.387	18711
889.511	18817
889.635	18703
889.759	18650
889.883	18540
890.006	18582
890.13	18597
890.254	18422
890.377	18448
890.501	18292
890.624	18224
890.748	18376
890.871	18239
890.995	18159
891.118	18133
891.241	18251
891.364	18216
891.488	18281
891.611	18087
891.734	18133
891.857	18300
891.98	18266
892.103	18205
892.226	18243
892.349	18209
892.471	17999
892.594	18163
892.717	18140
892.839	18163
892.962	18209
893.085	18194
893.207	18129
893.33	18076
893.452	18117
893.575	18178
893.697	18133
893.819	18277
893.941	18289
894.064	18323
894.186	18068
894.308	18171
894.43	18194
894.552	18289
894.674	18323
894.796	18121
894.918	18087
895.04	18106
895.161	18220
895.283	18117
895.405	18098
895.526	18144
895.648	18114
895.769	18247
895.891	18110
896.012	18266
896.134	18209
896.255	18262
896.376	18049
896.498	18319
896.619	18251
896.74	18270
896.861	18285
896.982	18525
897.103	18692
897.224	18589
897.345	18509
897.466	18422
897.587	18376
897.708	18528
897.828	18391
897.949	18365
898.07	18376
898.19	18403
898.311	18521
898.431	18327
898.552	18289
898.672	18502
898.792	18460
898.913	18384
899.033	18315
899.153	18182
899.273	18057
899.393	18106
899.513	18247
899.633	18136
899.753	18182
899.873	18030
899.993	18213
900.113	18209
900.232	18167
900.352	18121
900.472	18019
900.591	17996
900.711	17939
900.83	17889
900.95	18076
901.069	18251
901.189	17935
901.308	17729
901.427	17657
901.546	17653
901.665	17722
901.784	17646
901.904	17566
902.023	17501
902.141	17204
902.26	17200
902.379	17216
902.498	17170
902.617	17090
902.735	17189
902.854	17071
902.973	16957
903.091	16812
903.21	16824
903.328	16896
903.446	16759
903.565	16538
903.683	16744
903.801	16516
903.919	16698
904.038	16542
904.156	16360
904.274	16436
904.392	16413
904.51	16352
904.627	16360
904.745	16527
904.863	16485
904.981	16177
905.098	16063
905.216	16116
905.334	16143
905.451	15975
905.569	15998
905.686	16017
905.803	16105
905.921	15835
906.038	16029
906.155	15930
906.272	15732
906.389	15781
906.506	15625
906.623	15717
906.74	15572
906.857	15584
906.974	15622
907.091	15656
907.208	15743
907.324	15629
907.441	15549
907.557	15386
907.674	15348
907.79	15272
907.907	15294
908.023	15325
908.139	15207
908.256	15317
908.372	15245
908.488	15154
908.604	15093
908.72	15055
908.836	14990
908.952	14918
909.068	15009
909.184	15123
909.3	15017
909.415	15043
909.531	14952
909.647	14765
909.762	14769
909.878	14674
909.993	14834
910.108	14720
910.224	14610
910.339	14686
910.454	14583
910.57	14651
910.685	14473
910.8	14716
910.915	14716
911.03	14560
911.145	14400
911.259	14362
911.374	14358
911.489	14252
911.604	14298
911.718	14062
911.833	14065
911.947	13890
912.062	13906
912.176	14012
912.291	14046
912.405	14043
912.519	14275
912.633	14282
912.748	14046
912.862	14058
912.976	13852
913.09	13784
913.204	13909
913.318	13986
913.431	13989
913.545	14001
913.659	14046
913.772	13940
913.886	13704
914	13712
914.113	13917
914.226	13887
914.34	13845
914.453	13681
914.566	13757
914.68	13708
914.793	13693
914.906	13403
915.019	13373
915.132	13407
915.245	13350
915.358	13346
915.47	13495
915.583	13377
915.696	13430
915.809	13556
915.921	13563
916.034	13308
916.146	13346
916.259	13320
916.371	13316
916.483	13384
916.595	13217
916.708	13228
916.82	13232
916.932	13247
917.044	13304
917.156	13187
917.268	13137
917.38	13114
917.491	13053
917.603	13129
917.715	13160
917.826	13209
917.938	13099
918.049	12977
918.161	13122
918.272	13190
918.384	13179
918.495	13065
918.606	12935
918.717	12806
918.828	12924
918.939	12909
919.05	12802
919.161	12814
919.272	12673
919.383	12658
919.494	12958
919.604	13046
919.715	12977
919.826	12745
919.936	12837
920.047	12989
920.157	12909
920.267	13050
920.378	12833
920.488	12772
920.598	13053
920.708	13110
920.818	13012
920.928	13034
921.038	13149
921.148	13091
921.258	12783
921.368	12817
921.477	12612
921.587	12601
921.697	12467
921.806	12604
921.916	12410
922.025	12338
922.134	12292
922.244	12262
922.353	12311
922.462	12194
922.571	12072
922.68	11992
922.789	11908
922.898	11973
923.007	11931
923.116	11859
923.224	11840
923.333	11878
923.442	11760
923.55	11726
923.659	11805
923.767	11866
923.876	11676
923.984	11840
924.092	11733
924.201	11809
924.309	11760
924.417	11649
924.525	11657
924.633	11695
924.741	12563
924.849	11505
924.956	11627
925.064	11395
925.172	11368
925.279	11307
925.387	11429
925.494	11452
925.602	11604
925.709	11562
925.816	11376
925.924	11414
926.031	11551
926.138	11471
926.245	11493
926.352	11265
926.459	11356
926.566	11581
926.673	11326
926.779	11136
926.886	11353
926.993	11162
927.099	11071
927.206	11033
927.312	11048
927.419	11045
927.525	11064
927.631	11098
927.737	11022
927.843	10862
927.95	10797
928.056	10831
928.162	10904
928.267	10995
928.373	11387
928.479	10968
928.585	10809
928.69	10858
928.796	10961
928.901	10812
929.007	10634
929.112	10790
929.218	10854
929.323	10672
929.428	10656
929.533	10786
929.638	10622
929.743	10596
929.848	10694
929.953	10618
930.058	10588
930.163	10360
930.267	10398
930.372	10462
930.477	10348
930.581	10615
930.685	10455
930.79	10238
930.894	10287
930.998	10265
931.103	10375
931.207	10036
931.311	10036
931.415	9930
931.519	9667
931.623	9694
