Data from test_V78500241_3266.txt Node
Date: Fri Mar 25 14:56:27 CST 2022
User: usil
Spectrometer: V785-0024
Trigger mode: 0
Integration Time (sec): 4.000000E-1
Scans to average: 1
Nonlinearity correction enabled: false
Boxcar width: 0
Storing dark spectrum: false
XAxis mode: Wavelengths
Number of Pixels in Spectrum: 1024
>>>>>Begin Spectral Data<<<<<
801.071	22055
801.214	21880
801.356	21701
801.499	21663
801.641	21408
801.783	21325
801.926	21408
802.068	21481
802.211	21272
802.353	21188
802.496	21001
802.638	20960
802.78	20891
802.923	20804
803.065	20891
803.208	20549
803.35	20724
803.492	20811
803.635	20895
803.777	20697
803.919	20788
804.061	20994
804.204	20743
804.346	20689
804.488	20625
804.63	20659
804.773	20560
804.915	20792
805.057	20720
805.199	20564
805.341	20655
805.483	20754
805.626	20697
805.768	20514
805.91	20526
806.052	20609
806.194	20606
806.336	20724
806.478	20609
806.62	20495
806.762	20560
806.904	20811
807.046	21066
807.188	20910
807.33	20975
807.472	20971
807.614	20823
807.756	20952
807.898	20705
808.04	20724
808.182	20693
808.324	20674
808.465	20750
808.607	20800
808.749	20883
808.891	21165
809.033	21104
809.174	21047
809.316	20952
809.458	20994
809.6	20960
809.741	20925
809.883	20937
810.025	21123
810.166	21074
810.308	21142
810.45	21123
810.591	20910
810.733	20902
810.875	20682
811.016	20613
811.158	20667
811.299	20769
811.441	20861
811.582	20830
811.724	20800
811.865	20613
812.007	20743
812.148	20697
812.29	20792
812.431	20864
812.573	21017
812.714	21176
812.855	21184
812.997	21184
813.138	21367
813.279	21226
813.421	21245
813.562	21222
813.703	20925
813.845	20921
813.986	20579
814.127	20385
814.268	20343
814.41	20339
814.551	20286
814.692	20351
814.833	20248
814.974	20111
815.115	20366
815.256	20134
815.397	20058
815.539	20161
815.68	19986
815.821	19906
815.962	20012
816.103	19963
816.244	19902
816.385	19757
816.526	19776
816.666	19472
816.807	19369
816.948	19457
817.089	19544
817.23	19460
817.371	19460
817.512	19415
817.653	19331
817.793	19312
817.934	19407
818.075	19540
818.216	19537
818.356	19491
818.497	19213
818.638	19164
818.778	19183
818.919	19076
819.06	19160
819.2	19190
819.341	19274
819.481	19255
819.622	19441
819.762	19521
819.903	19594
820.043	19407
820.184	19415
820.324	19377
820.465	19480
820.605	19422
820.746	19350
820.886	19171
821.026	19480
821.167	19259
821.307	19411
821.447	19301
821.588	19221
821.728	19114
821.868	18882
822.008	18825
822.149	18783
822.289	18833
822.429	18494
822.569	18486
822.709	18452
822.849	18308
822.99	18311
823.13	18304
823.27	18270
823.41	18114
823.55	18076
823.69	18140
823.83	18091
823.97	18026
824.11	17802
824.25	17771
824.389	17897
824.529	17920
824.669	17817
824.809	18022
824.949	17916
825.089	17863
825.228	17843
825.368	17634
825.508	17604
825.648	17775
825.787	17703
825.927	17767
826.067	17649
826.206	17505
826.346	17672
826.485	17703
826.625	17676
826.765	17752
826.904	17630
827.044	17288
827.183	17410
827.323	17402
827.462	17429
827.601	17265
827.741	17337
827.88	17296
828.02	17212
828.159	17372
828.298	17372
828.437	17463
828.577	17318
828.716	17391
828.855	17322
828.994	17090
829.134	17056
829.273	17010
829.412	17098
829.551	16976
829.69	17022
829.829	17143
829.968	17086
830.107	17204
830.246	17143
830.385	17033
830.524	16961
830.663	16946
830.802	16908
830.941	16710
831.08	16713
831.219	16755
831.357	16706
831.496	16915
831.635	16683
831.774	16577
831.913	16512
832.051	16493
832.19	16299
832.329	16466
832.467	16443
832.606	16341
832.744	16398
832.883	16333
833.022	16280
833.16	16508
833.299	16409
833.437	16443
833.576	16462
833.714	16405
833.852	16447
833.991	16459
834.129	16561
834.267	16466
834.406	16363
834.544	16424
834.682	16436
834.821	16402
834.959	16622
835.097	16531
835.235	16577
835.373	16443
835.511	16428
835.65	16424
835.788	16375
835.926	16253
836.064	16284
836.202	16219
836.34	16405
836.478	16478
836.615	16322
836.753	16398
836.891	16443
837.029	16394
837.167	16261
837.305	16230
837.443	16299
837.58	16242
837.718	16268
837.856	16226
837.993	16135
838.131	16242
838.269	16150
838.406	16154
838.544	16055
838.681	15964
838.819	15915
838.956	15778
839.094	15808
839.231	15808
839.369	15930
839.506	16071
839.643	16029
839.781	15819
839.918	15736
840.055	15816
840.193	15728
840.33	15755
840.467	15812
840.604	15717
840.742	15972
840.879	15698
841.016	15660
841.153	15641
841.29	15903
841.427	15804
841.564	15827
841.701	15873
841.838	15720
841.975	15717
842.112	15705
842.249	15625
842.385	15561
842.522	15766
842.659	15534
842.796	15515
842.933	15507
843.069	15492
843.206	15606
843.343	15728
843.479	15610
843.616	15561
843.752	15291
843.889	15363
844.025	15473
844.162	15268
844.298	15424
844.435	15359
844.571	15359
844.708	15298
844.844	15515
844.98	15507
845.117	15469
845.253	15279
845.389	15218
845.525	15336
845.661	15256
845.798	15157
845.934	15180
846.07	15085
846.206	15180
846.342	15389
846.478	15116
846.614	14986
846.75	14849
846.886	14887
847.022	15055
847.158	14929
847.294	15009
847.429	14948
847.565	14845
847.701	15180
847.837	14754
847.972	14648
848.108	14762
848.244	14769
848.379	14632
848.515	14431
848.65	14552
848.786	14549
848.921	14522
849.057	14617
849.192	14617
849.328	14492
849.463	14511
849.598	14446
849.734	14412
849.869	14438
850.004	14339
850.14	14336
850.275	14286
850.41	14195
850.545	14317
850.68	14229
850.815	14263
850.95	14408
851.085	14431
851.22	14457
851.355	14339
851.49	14240
851.625	14214
851.76	14286
851.895	14115
852.03	14153
852.165	14259
852.299	14290
852.434	14370
852.569	14256
852.703	14290
852.838	14415
852.973	14476
853.107	14374
853.242	14252
853.376	14164
853.511	14096
853.645	14092
853.78	14248
853.914	14115
854.048	14221
854.183	14096
854.317	14218
854.451	14328
854.585	14161
854.72	14153
854.854	14218
854.988	14180
855.122	14183
855.256	14043
855.39	14039
855.524	14282
855.658	14221
855.792	14130
855.926	14210
856.06	14218
856.194	14290
856.327	14218
856.461	14088
856.595	14130
856.729	14149
856.862	14320
856.996	14130
857.13	14221
857.263	14324
857.397	14271
857.53	14328
857.664	14339
857.797	14233
857.931	14256
858.064	14145
858.197	14358
858.331	14123
858.464	14115
858.597	14092
858.731	14172
858.864	14077
858.997	14149
859.13	14126
859.263	14172
859.396	14377
859.529	14164
859.662	14062
859.795	14096
859.928	14233
860.061	14271
860.194	14358
860.327	14221
860.46	14199
860.592	14317
860.725	14294
860.858	14339
860.99	14069
861.123	14039
861.256	14145
861.388	14172
861.521	14883
861.653	14119
861.786	13932
861.918	14043
862.05	14020
862.183	14039
862.315	14176
862.447	14149
862.58	14088
862.712	13963
862.844	13875
862.976	14081
863.108	13925
863.24	14259
863.372	13940
863.504	14043
863.636	13993
863.768	13997
863.9	14001
864.032	13860
864.164	13871
864.296	14035
864.428	14016
864.559	13974
864.691	14107
864.823	13997
864.954	13989
865.086	13970
865.217	13928
865.349	13913
865.48	13959
865.612	13856
865.743	14161
865.875	13845
866.006	13936
866.137	13978
866.269	13955
866.4	13917
866.531	13868
866.662	13871
866.793	13951
866.924	13772
867.055	14065
867.186	13913
867.317	13860
867.448	13784
867.579	13940
867.71	13784
867.841	13772
867.972	13898
868.103	13993
868.233	13849
868.364	13932
868.495	13959
868.625	14195
868.756	14374
868.886	14142
869.017	14142
869.147	14374
869.278	14328
869.408	14271
869.539	14233
869.669	14195
869.799	14286
869.929	14305
870.06	14221
870.19	14393
870.32	14511
870.45	14541
870.58	14575
870.71	14746
870.84	14693
870.97	14629
871.1	14461
871.23	14769
871.36	14750
871.489	14640
871.619	14762
871.749	14788
871.879	14807
872.008	14853
872.138	14811
872.267	14796
872.397	14571
872.526	14655
872.656	14590
872.785	14602
872.915	14849
873.044	14868
873.173	14876
873.303	14838
873.432	14804
873.561	14868
873.69	14815
873.819	14845
873.948	14857
874.077	14834
874.206	14648
874.335	14868
874.464	15013
874.593	15066
874.722	15077
874.851	15279
874.979	15256
875.108	15188
875.237	15116
875.365	15036
875.494	15169
875.623	15264
875.751	15154
875.88	15203
876.008	15321
876.136	15405
876.265	15564
876.393	15713
876.521	15663
876.65	15641
876.778	15610
876.906	15576
877.034	15530
877.162	15572
877.29	15549
877.418	15614
877.546	15439
877.674	15614
877.802	15519
877.93	15633
878.058	15439
878.185	15466
878.313	15500
878.441	15538
878.568	15401
878.696	15561
878.824	15614
878.951	15656
879.079	15751
879.206	15956
879.333	15907
879.461	15587
879.588	15652
879.715	15717
879.842	15800
879.97	15629
880.097	15401
880.224	15466
880.351	15450
880.478	15401
880.605	15416
880.732	15363
880.859	15595
880.986	15428
881.112	15488
881.239	15447
881.366	15180
881.493	15150
881.619	15173
881.746	15176
881.872	15093
881.999	14925
882.125	15074
882.252	15169
882.378	15081
882.505	15176
882.631	14998
882.757	14883
882.883	14971
883.01	14815
883.136	14910
883.262	14708
883.388	14716
883.514	14891
883.64	14883
883.766	14902
883.892	14655
884.018	14693
884.143	14963
884.269	14929
884.395	14682
884.52	14495
884.646	14621
884.772	14461
884.897	14518
885.023	14644
885.148	14739
885.274	14693
885.399	14659
885.524	14632
885.65	14640
885.775	14655
885.9	14617
886.025	14667
886.15	14697
886.275	14552
886.4	14488
886.525	14629
886.65	14450
886.775	14480
886.9	14743
887.025	14815
887.149	14632
887.274	14492
887.399	14381
887.523	14374
887.648	14290
887.773	14339
887.897	14495
888.021	14465
888.146	14469
888.27	14514
888.395	14526
888.519	14499
888.643	14526
888.767	14522
888.891	14339
889.015	14286
889.139	14320
889.263	14256
889.387	14438
889.511	14533
889.635	14317
889.759	14275
889.883	14225
890.006	14381
890.13	14351
890.254	14263
890.377	14195
890.501	14054
890.624	14084
890.748	14142
890.871	13959
890.995	13982
891.118	13951
891.241	13906
891.364	13967
891.488	14111
891.611	13978
891.734	14039
891.857	14084
891.98	14054
892.103	14145
892.226	14035
892.349	14035
892.471	13890
892.594	13959
892.717	14046
892.839	14062
892.962	14046
893.085	14103
893.207	13993
893.33	13879
893.452	13852
893.575	14096
893.697	13932
893.819	14088
893.941	14214
894.064	14046
894.186	14039
894.308	13997
894.43	14130
894.552	14259
894.674	14012
894.796	13967
894.918	14077
895.04	13947
895.161	14142
895.283	14111
895.405	13925
895.526	14016
895.648	14096
895.769	14111
895.891	14119
896.012	14206
896.134	14195
896.255	14248
896.376	14142
896.498	14077
896.619	14263
896.74	14206
896.861	14240
896.982	14533
897.103	14754
897.224	14473
897.345	14351
897.466	14393
897.587	14400
897.708	14560
897.828	14503
897.949	14461
898.07	14305
898.19	14507
898.311	14499
898.431	14442
898.552	14476
898.672	14655
898.792	14537
898.913	14549
899.033	14423
899.153	14499
899.273	14286
899.393	14400
899.513	14450
899.633	14393
899.753	14400
899.873	14385
899.993	14431
900.113	14389
900.232	14400
900.352	14320
900.472	14320
900.591	14176
900.711	14282
900.83	14115
900.95	14347
901.069	14324
901.189	14145
901.308	14020
901.427	13769
901.546	13894
901.665	13925
901.784	13928
901.904	13826
902.023	13696
902.141	13483
902.26	13434
902.379	13594
902.498	13540
902.617	13495
902.735	13495
902.854	13453
902.973	13514
903.091	13225
903.21	13270
903.328	13247
903.446	13217
903.565	13103
903.683	13027
903.801	12939
903.919	13050
904.038	13008
904.156	12897
904.274	12920
904.392	12901
904.51	12806
904.627	12867
904.745	13027
904.863	13065
904.981	12688
905.098	12593
905.216	12528
905.334	12467
905.451	12578
905.569	12559
905.686	12719
905.803	12589
905.921	12426
906.038	12437
906.155	12437
906.272	12323
906.389	12315
906.506	12155
906.623	12224
906.74	12091
906.857	11992
906.974	12041
907.091	12243
907.208	12350
907.324	12243
907.441	12136
907.557	11958
907.674	11916
907.79	11840
907.907	11859
908.023	11897
908.139	11912
908.256	11802
908.372	11866
908.488	11794
908.604	11767
908.72	11600
908.836	11577
908.952	11699
909.068	11703
909.184	11722
909.3	11661
909.415	11748
909.531	11710
909.647	11444
909.762	11433
909.878	11398
909.993	11497
910.108	11478
910.224	11360
910.339	11364
910.454	11201
910.57	11204
910.685	11189
910.8	11486
910.915	11387
911.03	11288
911.145	11227
911.259	11162
911.374	11147
911.489	11064
911.604	11003
911.718	10908
911.833	10934
911.947	10752
912.062	10687
912.176	10927
912.291	10904
912.405	10915
912.519	10984
912.633	11166
912.748	11003
912.862	10862
912.976	10793
913.09	10702
913.204	10805
913.318	10812
913.431	10862
913.545	10858
913.659	10911
913.772	10778
913.886	10679
914	10626
914.113	10786
914.226	10763
914.34	10706
914.453	10565
914.566	10786
914.68	10637
914.793	10622
914.906	10386
915.019	10382
915.132	10348
915.245	10398
915.358	10390
915.47	10485
915.583	10440
915.696	10485
915.809	10561
915.921	10653
916.034	10310
916.146	10325
916.259	10303
916.371	10516
916.483	10394
916.595	10303
916.708	10379
916.82	10322
916.932	10348
917.044	10348
917.156	10295
917.268	10188
917.38	10177
917.491	10185
917.603	10215
917.715	10303
917.826	10295
917.938	10314
918.049	10116
918.161	10204
918.272	10371
918.384	10421
918.495	10257
918.606	10139
918.717	10040
918.828	10071
918.939	10090
919.05	10112
919.161	10055
919.272	9972
919.383	10010
919.494	10143
919.604	10390
919.715	10158
919.826	10063
919.936	10105
920.047	10227
920.157	10139
920.267	10394
920.378	10173
920.488	10147
920.598	10306
920.708	10531
920.818	10303
920.928	10322
921.038	10466
921.148	10443
921.258	10200
921.368	9998
921.477	9968
921.587	10010
921.697	9945
921.806	10025
921.916	9918
922.025	9747
922.134	9667
922.244	9652
922.353	9732
922.462	9641
922.571	9576
922.68	9382
922.789	9393
922.898	9370
923.007	9416
923.116	9401
923.224	9454
923.333	9416
923.442	9272
923.55	9317
923.659	9264
923.767	9355
923.876	9218
923.984	9306
924.092	9207
924.201	9260
924.309	9237
924.417	9302
924.525	9260
924.633	9230
924.741	10101
924.849	9055
924.956	9237
925.064	9051
925.172	9017
925.279	9051
925.387	9051
925.494	9036
925.602	9173
925.709	9150
925.816	8998
925.924	9028
926.031	9195
926.138	9066
926.245	9123
926.352	8994
926.459	9100
926.566	9150
926.673	8982
926.779	8918
926.886	8902
926.993	8830
927.099	8724
927.206	8735
927.312	8712
927.419	8838
927.525	8720
927.631	8838
927.737	8686
927.843	8693
927.95	8568
928.056	8670
928.162	8655
928.267	8724
928.373	9272
928.479	8788
928.585	8522
928.69	8716
928.796	8743
928.901	8602
929.007	8454
929.112	8617
929.218	8571
929.323	8522
929.428	8473
929.533	8564
929.638	8488
929.743	8431
929.848	8514
929.953	8461
930.058	8381
930.163	8210
930.267	8225
930.372	8366
930.477	8248
930.581	8461
930.685	8317
930.79	8206
930.894	8271
930.998	8218
931.103	8351
931.207	8012
931.311	7978
931.415	7875
931.519	7738
931.623	7753
