Data from test_V78500241_2986.txt Node
Date: Fri Mar 25 14:54:30 CST 2022
User: usil
Spectrometer: V785-0024
Trigger mode: 0
Integration Time (sec): 4.000000E-1
Scans to average: 1
Nonlinearity correction enabled: false
Boxcar width: 0
Storing dark spectrum: false
XAxis mode: Wavelengths
Number of Pixels in Spectrum: 1024
>>>>>Begin Spectral Data<<<<<
801.071	22093
801.214	21991
801.356	21728
801.499	21595
801.641	21549
801.783	21435
801.926	21367
802.068	21382
802.211	21203
802.353	21256
802.496	20925
802.638	21020
802.78	20941
802.923	20853
803.065	20807
803.208	20773
803.35	20785
803.492	20937
803.635	21085
803.777	20811
803.919	20811
804.061	21070
804.204	20785
804.346	20724
804.488	20735
804.63	20899
804.773	20716
804.915	20629
805.057	20727
805.199	20621
805.341	20800
805.483	20853
805.626	20765
805.768	20655
805.91	20651
806.052	20769
806.194	20712
806.336	20887
806.478	20701
806.62	20511
806.762	20769
806.904	20960
807.046	21146
807.188	21096
807.33	20994
807.472	21017
807.614	20971
807.756	20952
807.898	20823
808.04	20788
808.182	20731
808.324	20807
808.465	20838
808.607	21074
808.749	21100
808.891	21180
809.033	21245
809.174	21222
809.316	21104
809.458	21089
809.6	21028
809.741	21093
809.883	21241
810.025	21233
810.166	21264
810.308	21283
810.45	21275
810.591	21199
810.733	21058
810.875	20929
811.016	20792
811.158	20773
811.299	20929
811.441	21043
811.582	20933
811.724	20891
811.865	20807
812.007	20842
812.148	20788
812.29	20853
812.431	20986
812.573	21154
812.714	21249
812.855	21382
812.997	21382
813.138	21447
813.279	21367
813.421	21367
813.562	21260
813.703	21161
813.845	20941
813.986	20762
814.127	20571
814.268	20320
814.41	20556
814.551	20389
814.692	20480
814.833	20286
814.974	20336
815.115	20362
815.256	20317
815.397	20218
815.539	20183
815.68	20119
815.821	20084
815.962	20176
816.103	20073
816.244	20107
816.385	19871
816.526	19849
816.666	19647
816.807	19495
816.948	19700
817.089	19655
817.23	19628
817.371	19586
817.512	19472
817.653	19525
817.793	19438
817.934	19430
818.075	19445
818.216	19601
818.356	19354
818.497	19476
818.638	19255
818.778	19190
818.919	19110
819.06	19304
819.2	19346
819.341	19445
819.481	19430
819.622	19563
819.762	19769
819.903	19552
820.043	19521
820.184	19480
820.324	19487
820.465	19476
820.605	19491
820.746	19419
820.886	19426
821.026	19449
821.167	19457
821.307	19495
821.447	19453
821.588	19259
821.728	19072
821.868	19015
822.008	18787
822.149	18993
822.289	18821
822.429	18559
822.569	18555
822.709	18620
822.849	18353
822.99	18350
823.13	18323
823.27	18285
823.41	18228
823.55	18197
823.69	18251
823.83	18258
823.97	18155
824.11	17973
824.25	17927
824.389	17950
824.529	18007
824.669	17863
824.809	18057
824.949	18053
825.089	18015
825.228	17969
825.368	17779
825.508	17775
825.648	17741
825.787	17817
825.927	17790
826.067	17653
826.206	17665
826.346	17760
826.485	17699
826.625	17642
826.765	17828
826.904	17634
827.044	17497
827.183	17532
827.323	17486
827.462	17497
827.601	17436
827.741	17315
827.88	17436
828.02	17356
828.159	17421
828.298	17509
828.437	17490
828.577	17376
828.716	17524
828.855	17318
828.994	17299
829.134	17170
829.273	17265
829.412	17220
829.551	17140
829.69	17147
829.829	17132
829.968	17189
830.107	17231
830.246	17174
830.385	17052
830.524	17014
830.663	16904
830.802	16824
830.941	16831
831.08	16710
831.219	16911
831.357	16828
831.496	16984
831.635	16725
831.774	16664
831.913	16782
832.051	16558
832.19	16554
832.329	16599
832.467	16500
832.606	16428
832.744	16402
832.883	16409
833.022	16322
833.16	16538
833.299	16432
833.437	16474
833.576	16493
833.714	16436
833.852	16535
833.991	16500
834.129	16672
834.267	16588
834.406	16493
834.544	16508
834.682	16561
834.821	16569
834.959	16637
835.097	16382
835.235	16573
835.373	16504
835.511	16443
835.65	16443
835.788	16329
835.926	16207
836.064	16166
836.202	16173
836.34	16436
836.478	16546
836.615	16447
836.753	16371
836.891	16462
837.029	16417
837.167	16500
837.305	16265
837.443	16295
837.58	16185
837.718	16310
837.856	16287
837.993	16169
838.131	16287
838.269	16154
838.406	16303
838.544	16147
838.681	16036
838.819	15983
838.956	15770
839.094	15842
839.231	15907
839.369	16006
839.506	16131
839.643	16051
839.781	15861
839.918	15827
840.055	15915
840.193	15861
840.33	15800
840.467	15785
840.604	15835
840.742	15983
840.879	15625
841.016	15732
841.153	15785
841.29	15903
841.427	15808
841.564	15838
841.701	15759
841.838	15808
841.975	15633
842.112	15827
842.249	15679
842.385	15686
842.522	15762
842.659	15671
842.796	15549
842.933	15584
843.069	15519
843.206	15485
843.343	15610
843.479	15675
843.616	15694
843.752	15310
843.889	15382
844.025	15511
844.162	15351
844.298	15485
844.435	15348
844.571	15397
844.708	15439
844.844	15542
844.98	15523
845.117	15511
845.253	15393
845.389	15249
845.525	15313
845.661	15283
845.798	15074
845.934	15218
846.07	15154
846.206	15218
846.342	15298
846.478	15195
846.614	14937
846.75	14944
846.886	14868
847.022	14956
847.158	14864
847.294	14971
847.429	15001
847.565	14868
847.701	15207
847.837	14602
847.972	14674
848.108	14716
848.244	14739
848.379	14583
848.515	14533
848.65	14621
848.786	14507
848.921	14625
849.057	14708
849.192	14610
849.328	14689
849.463	14590
849.598	14476
849.734	14484
849.869	14469
850.004	14336
850.14	14313
850.275	14328
850.41	14294
850.545	14301
850.68	14294
850.815	14366
850.95	14332
851.085	14606
851.22	14457
851.355	14336
851.49	14362
851.625	14317
851.76	14301
851.895	14229
852.03	14229
852.165	14298
852.299	14385
852.434	14404
852.569	14389
852.703	14347
852.838	14328
852.973	14412
853.107	14465
853.242	14263
853.376	14142
853.511	14126
853.645	14149
853.78	14195
853.914	14256
854.048	14180
854.183	14202
854.317	14195
854.451	14305
854.585	14244
854.72	14195
854.854	14206
854.988	14039
855.122	14157
855.256	14012
855.39	14130
855.524	14313
855.658	14183
855.792	14138
855.926	14172
856.06	14301
856.194	14385
856.327	14221
856.461	14161
856.595	14103
856.729	14225
856.862	14305
856.996	14180
857.13	14199
857.263	14389
857.397	14294
857.53	14202
857.664	14233
857.797	14271
857.931	14400
858.064	14130
858.197	14214
858.331	14202
858.464	14157
858.597	14062
858.731	14164
858.864	14100
858.997	14134
859.13	14081
859.263	14248
859.396	14263
859.529	14206
859.662	14031
859.795	14027
859.928	14153
860.061	14336
860.194	14381
860.327	14180
860.46	14161
860.592	14271
860.725	14294
860.858	14290
860.99	14149
861.123	14084
861.256	14107
861.388	14256
861.521	14910
861.653	14103
861.786	14031
861.918	13940
862.05	14111
862.183	14088
862.315	14145
862.447	14210
862.58	14161
862.712	13963
862.844	13921
862.976	14050
863.108	14005
863.24	14415
863.372	13894
863.504	14001
863.636	13963
863.768	14008
863.9	13978
864.032	13936
864.164	13932
864.296	14039
864.428	14027
864.559	14115
864.691	13993
864.823	13986
864.954	13967
865.086	14077
865.217	13932
865.349	13906
865.48	13986
865.612	13909
865.743	14142
865.875	13902
866.006	13909
866.137	13909
866.269	13963
866.4	13868
866.531	13906
866.662	13811
866.793	13902
866.924	13928
867.055	13913
867.186	13970
867.317	13928
867.448	13784
867.579	13833
867.71	13860
867.841	13864
867.972	13951
868.103	14020
868.233	13967
868.364	13906
868.495	14012
868.625	14103
868.756	14252
868.886	13993
869.017	14138
869.147	14313
869.278	14343
869.408	14317
869.539	14229
869.669	14298
869.799	14214
869.929	14240
870.06	14248
870.19	14583
870.32	14533
870.45	14507
870.58	14564
870.71	14701
870.84	14754
870.97	14583
871.1	14621
871.23	14765
871.36	14804
871.489	14621
871.619	14640
871.749	14785
871.879	14872
872.008	14876
872.138	14773
872.267	14785
872.397	14644
872.526	14659
872.656	14659
872.785	14636
872.915	14887
873.044	14895
873.173	14815
873.303	14861
873.432	14830
873.561	14883
873.69	14830
873.819	14762
873.948	14925
874.077	14849
874.206	14899
874.335	14960
874.464	14967
874.593	15051
874.722	15043
874.851	15199
874.979	15150
875.108	15192
875.237	15157
875.365	15104
875.494	15089
875.623	15195
875.751	15104
875.88	15203
876.008	15348
876.136	15348
876.265	15542
876.393	15774
876.521	15633
876.65	15606
876.778	15576
876.906	15511
877.034	15564
877.162	15519
877.29	15473
877.418	15599
877.546	15504
877.674	15534
877.802	15572
877.93	15492
878.058	15545
878.185	15447
878.313	15519
878.441	15488
878.568	15462
878.696	15587
878.824	15629
878.951	15641
879.079	15705
879.206	15941
879.333	15751
879.461	15618
879.588	15675
879.715	15774
879.842	15755
879.97	15663
880.097	15408
880.224	15294
880.351	15393
880.478	15454
880.605	15462
880.732	15378
880.859	15739
880.986	15397
881.112	15561
881.239	15329
881.366	15184
881.493	15112
881.619	15062
881.746	15036
881.872	15074
881.999	15070
882.125	15089
882.252	15146
882.378	15116
882.505	15146
882.631	15062
882.757	14910
882.883	14952
883.01	14883
883.136	14918
883.262	14853
883.388	14697
883.514	14948
883.64	14910
883.766	14876
883.892	14655
884.018	14777
884.143	14979
884.269	14986
884.395	14667
884.52	14617
884.646	14648
884.772	14499
884.897	14465
885.023	14735
885.148	14682
885.274	14792
885.399	14659
885.524	14511
885.65	14644
885.775	14560
885.9	14640
886.025	14727
886.15	14625
886.275	14598
886.4	14434
886.525	14590
886.65	14511
886.775	14526
886.9	14670
887.025	14834
887.149	14590
887.274	14545
887.399	14343
887.523	14434
887.648	14427
887.773	14355
887.897	14473
888.021	14427
888.146	14446
888.27	14594
888.395	14644
888.519	14465
888.643	14568
888.767	14446
888.891	14313
889.015	14298
889.139	14393
889.263	14286
889.387	14377
889.511	14560
889.635	14419
889.759	14351
889.883	14240
890.006	14267
890.13	14476
890.254	14176
890.377	14248
890.501	14073
890.624	14103
890.748	14237
890.871	14012
890.995	13970
891.118	14001
891.241	13986
891.364	14008
891.488	14081
891.611	14046
891.734	14062
891.857	14027
891.98	14008
892.103	14069
892.226	14046
892.349	14012
892.471	13936
892.594	14043
892.717	14088
892.839	13993
892.962	14012
893.085	14100
893.207	13959
893.33	13906
893.452	13868
893.575	14058
893.697	13989
893.819	14107
893.941	14214
894.064	14271
894.186	14016
894.308	14065
894.43	14149
894.552	14176
894.674	14214
894.796	13997
894.918	14020
895.04	13955
895.161	14145
895.283	14100
895.405	14050
895.526	14164
895.648	14069
895.769	14149
895.891	14176
896.012	14202
896.134	14149
896.255	14096
896.376	14199
896.498	14161
896.619	14183
896.74	14195
896.861	14218
896.982	14488
897.103	14590
897.224	14511
897.345	14431
897.466	14419
897.587	14415
897.708	14495
897.828	14396
897.949	14507
898.07	14336
898.19	14324
898.311	14663
898.431	14522
898.552	14488
898.672	14648
898.792	14617
898.913	14629
899.033	14461
899.153	14408
899.273	14347
899.393	14374
899.513	14358
899.633	14374
899.753	14320
899.873	14457
899.993	14415
900.113	14423
900.232	14396
900.352	14412
900.472	14317
900.591	14263
900.711	14294
900.83	14278
900.95	14389
901.069	14366
901.189	14199
901.308	13978
901.427	13936
901.546	14073
901.665	14058
901.784	13936
901.904	13864
902.023	13803
902.141	13556
902.26	13521
902.379	13616
902.498	13499
902.617	13426
902.735	13559
902.854	13464
902.973	13407
903.091	13301
903.21	13240
903.328	13289
903.446	13217
903.565	13084
903.683	13133
903.801	13004
903.919	13027
904.038	13057
904.156	12863
904.274	12951
904.392	12795
904.51	12859
904.627	12897
904.745	12966
904.863	12894
904.981	12749
905.098	12536
905.216	12574
905.334	12635
905.451	12635
905.569	12490
905.686	12566
905.803	12681
905.921	12399
906.038	12437
906.155	12448
906.272	12330
906.389	12353
906.506	12140
906.623	12140
906.74	12235
906.857	11969
906.974	12034
907.091	12175
907.208	12304
907.324	12190
907.441	12106
907.557	11950
907.674	11885
907.79	11904
907.907	11939
908.023	11878
908.139	11950
908.256	11851
908.372	11760
908.488	11779
908.604	11741
908.72	11668
908.836	11668
908.952	11604
909.068	11642
909.184	11798
909.3	11665
909.415	11760
909.531	11630
909.647	11433
909.762	11524
909.878	11414
909.993	11444
910.108	11478
910.224	11459
910.339	11482
910.454	11303
910.57	11299
910.685	11242
910.8	11512
910.915	11391
911.03	11406
911.145	11174
911.259	11166
911.374	11170
911.489	11060
911.604	11121
911.718	10953
911.833	10934
911.947	10869
912.062	10725
912.176	10847
912.291	10923
912.405	10949
912.519	11105
912.633	11136
912.748	10949
912.862	10843
912.976	10763
913.09	10649
913.204	10755
913.318	10755
913.431	10911
913.545	10877
913.659	10934
913.772	10820
913.886	10767
914	10641
914.113	10744
914.226	10771
914.34	10793
914.453	10641
914.566	10774
914.68	10668
914.793	10596
914.906	10443
915.019	10417
915.132	10325
915.245	10394
915.358	10432
915.47	10478
915.583	10500
915.696	10451
915.809	10459
915.921	10660
916.034	10440
916.146	10421
916.259	10352
916.371	10462
916.483	10413
916.595	10341
916.708	10382
916.82	10402
916.932	10344
917.044	10348
917.156	10295
917.268	10204
917.38	10272
917.491	10219
917.603	10215
917.715	10348
917.826	10306
917.938	10215
918.049	10143
918.161	10242
918.272	10284
918.384	10398
918.495	10253
918.606	10120
918.717	10040
918.828	10150
918.939	10192
919.05	10124
919.161	10211
919.272	9899
919.383	9941
919.494	10291
919.604	10306
919.715	10173
919.826	10093
919.936	10135
920.047	10169
920.157	10150
920.267	10363
920.378	10131
920.488	10147
920.598	10344
920.708	10493
920.818	10413
920.928	10386
921.038	10516
921.148	10424
921.258	10215
921.368	10124
921.477	9987
921.587	9960
921.697	9934
921.806	10078
921.916	9869
922.025	9717
922.134	9717
922.244	9720
922.353	9755
922.462	9545
922.571	9572
922.68	9405
922.789	9359
922.898	9488
923.007	9378
923.116	9408
923.224	9382
923.333	9363
923.442	9287
923.55	9287
923.659	9351
923.767	9405
923.876	9313
923.984	9389
924.092	9222
924.201	9332
924.309	9249
924.417	9344
924.525	9173
924.633	9199
924.741	10150
924.849	9116
924.956	9233
925.064	9036
925.172	9039
925.279	9013
925.387	9055
925.494	9116
925.602	9211
925.709	9165
925.816	9005
925.924	9051
926.031	9161
926.138	9135
926.245	9161
926.352	8952
926.459	9150
926.566	9131
926.673	9093
926.779	8929
926.886	8941
926.993	8792
927.099	8769
927.206	8785
927.312	8746
927.419	8823
927.525	8785
927.631	8842
927.737	8754
927.843	8758
927.95	8579
928.056	8682
928.162	8731
928.267	8758
928.373	9233
928.479	8800
928.585	8514
928.69	8708
928.796	8693
928.901	8625
929.007	8419
929.112	8648
929.218	8579
929.323	8511
929.428	8461
929.533	8705
929.638	8442
929.743	8385
929.848	8545
929.953	8450
930.058	8385
930.163	8206
930.267	8229
930.372	8446
930.477	8259
930.581	8480
930.685	8366
930.79	8187
930.894	8263
930.998	8271
931.103	8431
931.207	8031
931.311	7986
931.415	7928
931.519	7750
931.623	7719
