Data from test_V78500241_2771.txt Node
Date: Fri Mar 25 14:53:00 CST 2022
User: usil
Spectrometer: V785-0024
Trigger mode: 0
Integration Time (sec): 4.000000E-1
Scans to average: 1
Nonlinearity correction enabled: false
Boxcar width: 0
Storing dark spectrum: false
XAxis mode: Wavelengths
Number of Pixels in Spectrum: 1024
>>>>>Begin Spectral Data<<<<<
801.071	22109
801.214	21945
801.356	21576
801.499	21614
801.641	21526
801.783	21492
801.926	21507
802.068	21340
802.211	21146
802.353	21222
802.496	21005
802.638	20956
802.78	20769
802.923	20811
803.065	20670
803.208	20632
803.35	20739
803.492	20910
803.635	20902
803.777	20705
803.919	20845
804.061	20952
804.204	20804
804.346	20674
804.488	20636
804.63	20617
804.773	20625
804.915	20708
805.057	20659
805.199	20648
805.341	20659
805.483	20796
805.626	20636
805.768	20640
805.91	20743
806.052	20781
806.194	20575
806.336	20739
806.478	20640
806.62	20541
806.762	20708
806.904	20686
807.046	21024
807.188	21032
807.33	20990
807.472	20963
807.614	20861
807.756	20823
807.898	20788
808.04	20651
808.182	20705
808.324	20720
808.465	20826
808.607	20929
808.749	21116
808.891	21176
809.033	21275
809.174	21077
809.316	21039
809.458	21013
809.6	20952
809.741	21020
809.883	21077
810.025	21192
810.166	21142
810.308	21131
810.45	21127
810.591	21051
810.733	20830
810.875	20727
811.016	20678
811.158	20804
811.299	20746
811.441	20910
811.582	20944
811.724	20731
811.865	20670
812.007	20735
812.148	20708
812.29	20792
812.431	20941
812.573	21161
812.714	21195
812.855	21313
812.997	21412
813.138	21538
813.279	21313
813.421	21310
813.562	21283
813.703	21043
813.845	20906
813.986	20689
814.127	20511
814.268	20339
814.41	20419
814.551	20313
814.692	20431
814.833	20317
814.974	20233
815.115	20259
815.256	20256
815.397	20168
815.539	20134
815.68	20168
815.821	20024
815.962	20008
816.103	20035
816.244	20024
816.385	19715
816.526	19719
816.666	19651
816.807	19430
816.948	19521
817.089	19548
817.23	19441
817.371	19453
817.512	19411
817.653	19411
817.793	19453
817.934	19483
818.075	19430
818.216	19571
818.356	19449
818.497	19198
818.638	19122
818.778	19168
818.919	19133
819.06	19213
819.2	19350
819.341	19335
819.481	19301
819.622	19525
819.762	19708
819.903	19582
820.043	19556
820.184	19487
820.324	19369
820.465	19552
820.605	19521
820.746	19422
820.886	19324
821.026	19343
821.167	19396
821.307	19350
821.447	19384
821.588	19244
821.728	19232
821.868	18993
822.008	18878
822.149	18791
822.289	18878
822.429	18566
822.569	18475
822.709	18570
822.849	18330
822.99	18384
823.13	18315
823.27	18270
823.41	18144
823.55	18174
823.69	18144
823.83	18216
823.97	18076
824.11	17988
824.25	17939
824.389	17996
824.529	17969
824.669	17939
824.809	18095
824.949	17996
825.089	17935
825.228	17977
825.368	17767
825.508	17703
825.648	17733
825.787	17737
825.927	17794
826.067	17707
826.206	17676
826.346	17737
826.485	17687
826.625	17764
826.765	17805
826.904	17707
827.044	17482
827.183	17417
827.323	17372
827.462	17459
827.601	17417
827.741	17337
827.88	17421
828.02	17250
828.159	17288
828.298	17463
828.437	17497
828.577	17414
828.716	17463
828.855	17296
828.994	17155
829.134	17147
829.273	17170
829.412	17086
829.551	17018
829.69	17109
829.829	17189
829.968	17189
830.107	17159
830.246	17124
830.385	17128
830.524	17014
830.663	16949
830.802	16873
830.941	16759
831.08	16706
831.219	16828
831.357	16809
831.496	16911
831.635	16763
831.774	16679
831.913	16645
832.051	16478
832.19	16603
832.329	16675
832.467	16500
832.606	16497
832.744	16432
832.883	16478
833.022	16519
833.16	16462
833.299	16459
833.437	16478
833.576	16470
833.714	16508
833.852	16592
833.991	16516
834.129	16607
834.267	16599
834.406	16664
834.544	16565
834.682	16558
834.821	16402
834.959	16596
835.097	16523
835.235	16535
835.373	16542
835.511	16573
835.65	16398
835.788	16474
835.926	16204
836.064	16246
836.202	16261
836.34	16497
836.478	16493
836.615	16356
836.753	16462
836.891	16462
837.029	16546
837.167	16325
837.305	16428
837.443	16318
837.58	16238
837.718	16303
837.856	16333
837.993	16238
838.131	16234
838.269	16173
838.406	16246
838.544	16166
838.681	16006
838.819	15930
838.956	15816
839.094	15823
839.231	15930
839.369	15994
839.506	16246
839.643	16040
839.781	15880
839.918	15774
840.055	15892
840.193	15789
840.33	15770
840.467	15800
840.604	15755
840.742	16017
840.879	15694
841.016	15713
841.153	15751
841.29	15930
841.427	15915
841.564	15793
841.701	15842
841.838	15888
841.975	15629
842.112	15709
842.249	15671
842.385	15492
842.522	15930
842.659	15679
842.796	15603
842.933	15675
843.069	15591
843.206	15564
843.343	15701
843.479	15603
843.616	15606
843.752	15443
843.889	15367
844.025	15443
844.162	15287
844.298	15629
844.435	15454
844.571	15447
844.708	15542
844.844	15504
844.98	15492
845.117	15477
845.253	15485
845.389	15325
845.525	15408
845.661	15313
845.798	15195
845.934	15329
846.07	15142
846.206	15351
846.342	15233
846.478	15188
846.614	14986
846.75	14925
846.886	15005
847.022	15112
847.158	14963
847.294	14979
847.429	15104
847.565	14956
847.701	15127
847.837	14708
847.972	14697
848.108	14788
848.244	14826
848.379	14602
848.515	14594
848.65	14533
848.786	14606
848.921	14571
849.057	14701
849.192	14724
849.328	14640
849.463	14625
849.598	14602
849.734	14465
849.869	14537
850.004	14408
850.14	14469
850.275	14385
850.41	14259
850.545	14366
850.68	14389
850.815	14336
850.95	14309
851.085	14560
851.22	14476
851.355	14450
851.49	14278
851.625	14305
851.76	14351
851.895	14233
852.03	14225
852.165	14358
852.299	14286
852.434	14461
852.569	14362
852.703	14385
852.838	14438
852.973	14564
853.107	14526
853.242	14267
853.376	14229
853.511	14153
853.645	14103
853.78	14336
853.914	14142
854.048	14157
854.183	14187
854.317	14237
854.451	14385
854.585	14263
854.72	14153
854.854	14263
854.988	14081
855.122	14252
855.256	14043
855.39	14218
855.524	14282
855.658	14282
855.792	14259
855.926	14256
856.06	14301
856.194	14385
856.327	14305
856.461	14199
856.595	14145
856.729	14313
856.862	14309
856.996	14305
857.13	14267
857.263	14393
857.397	14374
857.53	14259
857.664	14233
857.797	14225
857.931	14298
858.064	14286
858.197	14343
858.331	14183
858.464	14168
858.597	14191
858.731	14153
858.864	14187
858.997	14111
859.13	14218
859.263	14225
859.396	14294
859.529	14218
859.662	14210
859.795	14130
859.928	14240
860.061	14419
860.194	14393
860.327	14259
860.46	14229
860.592	14324
860.725	14370
860.858	14218
860.99	14278
861.123	14168
861.256	14130
861.388	14195
861.521	14796
861.653	14233
861.786	14024
861.918	14062
862.05	14096
862.183	14088
862.315	14138
862.447	14233
862.58	14161
862.712	14088
862.844	13963
862.976	14092
863.108	14081
863.24	14461
863.372	13978
863.504	14012
863.636	13989
863.768	14065
863.9	14096
864.032	13947
864.164	13970
864.296	14065
864.428	14161
864.559	14130
864.691	14046
864.823	14077
864.954	13947
865.086	14031
865.217	14054
865.349	13887
865.48	13894
865.612	14035
865.743	14069
865.875	13963
866.006	13921
866.137	13978
866.269	14024
866.4	14020
866.531	13849
866.662	13902
866.793	13856
866.924	13951
867.055	14069
867.186	14020
867.317	13982
867.448	13913
867.579	13970
867.71	13906
867.841	13947
867.972	14043
868.103	13982
868.233	13986
868.364	14027
868.495	14043
868.625	14229
868.756	14355
868.886	14168
869.017	14237
869.147	14309
869.278	14320
869.408	14225
869.539	14172
869.669	14278
869.799	14294
869.929	14347
870.06	14446
870.19	14564
870.32	14526
870.45	14564
870.58	14678
870.71	14735
870.84	14613
870.97	14606
871.1	14518
871.23	14933
871.36	14845
871.489	14785
871.619	14830
871.749	14857
871.879	14899
872.008	14872
872.138	14861
872.267	14815
872.397	14731
872.526	14667
872.656	14632
872.785	14754
872.915	14857
873.044	15005
873.173	14956
873.303	14834
873.432	14963
873.561	14887
873.69	14910
873.819	14864
873.948	14925
874.077	14842
874.206	14800
874.335	14941
874.464	14960
874.593	15074
874.722	15150
874.851	15169
874.979	15199
875.108	15207
875.237	15157
875.365	15142
875.494	15138
875.623	15275
875.751	15165
875.88	15233
876.008	15306
876.136	15435
876.265	15656
876.393	15759
876.521	15587
876.65	15724
876.778	15580
876.906	15492
877.034	15553
877.162	15564
877.29	15519
877.418	15591
877.546	15580
877.674	15591
877.802	15591
877.93	15595
878.058	15534
878.185	15549
878.313	15599
878.441	15614
878.568	15435
878.696	15526
878.824	15595
878.951	15694
879.079	15857
879.206	15934
879.333	15770
879.461	15663
879.588	15690
879.715	15922
879.842	15930
879.97	15690
880.097	15450
880.224	15458
880.351	15492
880.478	15530
880.605	15462
880.732	15496
880.859	15724
880.986	15500
881.112	15610
881.239	15340
881.366	15165
881.493	15108
881.619	15138
881.746	15066
881.872	15077
881.999	15119
882.125	15017
882.252	15093
882.378	15123
882.505	15226
882.631	15093
882.757	14960
882.883	14944
883.01	15005
883.136	14979
883.262	14872
883.388	14773
883.514	14929
883.64	14960
883.766	14845
883.892	14750
884.018	14785
884.143	14910
884.269	14956
884.395	14727
884.52	14602
884.646	14754
884.772	14644
884.897	14552
885.023	14625
885.148	14754
885.274	14823
885.399	14769
885.524	14640
885.65	14568
885.775	14777
885.9	14640
886.025	14746
886.15	14659
886.275	14583
886.4	14518
886.525	14556
886.65	14636
886.775	14571
886.9	14788
887.025	14834
887.149	14670
887.274	14511
887.399	14442
887.523	14381
887.648	14393
887.773	14389
887.897	14587
888.021	14587
888.146	14370
888.27	14587
888.395	14556
888.519	14602
888.643	14469
888.767	14583
888.891	14393
889.015	14358
889.139	14366
889.263	14385
889.387	14343
889.511	14507
889.635	14495
889.759	14393
889.883	14377
890.006	14339
890.13	14522
890.254	14282
890.377	14180
890.501	14202
890.624	14183
890.748	14225
890.871	14119
890.995	14096
891.118	13947
891.241	14024
891.364	14077
891.488	14100
891.611	14039
891.734	14005
891.857	14195
891.98	14180
892.103	14126
892.226	14039
892.349	14054
892.471	13864
892.594	13967
892.717	14107
892.839	13925
892.962	13906
893.085	14058
893.207	14024
893.33	13944
893.452	13989
893.575	14088
893.697	13986
893.819	14244
893.941	14248
894.064	14187
894.186	14065
894.308	14031
894.43	14229
894.552	14294
894.674	14214
894.796	13982
894.918	14039
895.04	14027
895.161	14233
895.283	14176
895.405	14081
895.526	14103
895.648	14161
895.769	14214
895.891	14294
896.012	14313
896.134	14202
896.255	14225
896.376	14149
896.498	14206
896.619	14244
896.74	14229
896.861	14313
896.982	14560
897.103	14693
897.224	14514
897.345	14434
897.466	14370
897.587	14423
897.708	14549
897.828	14602
897.949	14461
898.07	14358
898.19	14381
898.311	14530
898.431	14575
898.552	14606
898.672	14648
898.792	14568
898.913	14537
899.033	14454
899.153	14473
899.273	14271
899.393	14396
899.513	14423
899.633	14461
899.753	14549
899.873	14423
899.993	14457
900.113	14423
900.232	14423
900.352	14328
900.472	14271
900.591	14267
900.711	14309
900.83	14320
900.95	14389
901.069	14404
901.189	14351
901.308	13974
901.427	13963
901.546	13989
901.665	13978
901.784	13925
901.904	13818
902.023	13818
902.141	13559
902.26	13567
902.379	13624
902.498	13533
902.617	13445
902.735	13590
902.854	13514
902.973	13449
903.091	13259
903.21	13217
903.328	13282
903.446	13160
903.565	13164
903.683	13152
903.801	13034
903.919	13061
904.038	13050
904.156	12954
904.274	13000
904.392	12886
904.51	12886
904.627	12973
904.745	12954
904.863	12985
904.981	12711
905.098	12544
905.216	12700
905.334	12665
905.451	12665
905.569	12627
905.686	12623
905.803	12555
905.921	12433
906.038	12540
906.155	12422
906.272	12300
906.389	12319
906.506	12311
906.623	12201
906.74	12171
906.857	12060
906.974	12152
907.091	12224
907.208	12327
907.324	12178
907.441	12076
907.557	11988
907.674	11939
907.79	11893
907.907	11901
908.023	11954
908.139	12022
908.256	11946
908.372	11904
908.488	11859
908.604	11699
908.72	11745
908.836	11707
908.952	11653
909.068	11748
909.184	11805
909.3	11722
909.415	11794
909.531	11661
909.647	11554
909.762	11551
909.878	11463
909.993	11501
910.108	11516
910.224	11436
910.339	11455
910.454	11387
910.57	11410
910.685	11231
910.8	11562
910.915	11501
911.03	11353
911.145	11269
911.259	11143
911.374	11181
911.489	11155
911.604	11041
911.718	10957
911.833	10930
911.947	10839
912.062	10725
912.176	10999
912.291	10934
912.405	10980
912.519	11197
912.633	11159
912.748	11033
912.862	10976
912.976	10919
913.09	10710
913.204	10809
913.318	10862
913.431	10923
913.545	10885
913.659	10972
913.772	10843
913.886	10729
914	10664
914.113	10774
914.226	10805
914.34	10797
914.453	10573
914.566	10866
914.68	10721
914.793	10683
914.906	10451
915.019	10508
915.132	10322
915.245	10500
915.358	10493
915.47	10481
915.583	10443
915.696	10516
915.809	10558
915.921	10584
916.034	10440
916.146	10394
916.259	10424
916.371	10493
916.483	10466
916.595	10451
916.708	10394
916.82	10382
916.932	10352
917.044	10329
917.156	10329
917.268	10310
917.38	10257
917.491	10299
917.603	10246
917.715	10348
917.826	10421
917.938	10227
918.049	10158
918.161	10306
918.272	10459
918.384	10436
918.495	10306
918.606	10227
918.717	10169
918.828	10173
918.939	10162
919.05	10025
919.161	10112
919.272	9899
919.383	9994
919.494	10230
919.604	10348
919.715	10188
919.826	10093
919.936	10158
920.047	10280
920.157	10253
920.267	10348
920.378	10154
920.488	10162
920.598	10394
920.708	10584
920.818	10375
920.928	10356
921.038	10637
921.148	10497
921.258	10284
921.368	10097
921.477	10044
921.587	10055
921.697	9827
921.806	10097
921.916	9930
922.025	9789
922.134	9762
922.244	9701
922.353	9686
922.462	9603
922.571	9545
922.68	9443
922.789	9485
922.898	9416
923.007	9397
923.116	9507
923.224	9511
923.333	9435
923.442	9283
923.55	9363
923.659	9230
923.767	9355
923.876	9351
923.984	9348
924.092	9283
924.201	9313
924.309	9272
924.417	9321
924.525	9237
924.633	9298
924.741	9998
924.849	9112
924.956	9237
925.064	9081
925.172	9001
925.279	9081
925.387	9104
925.494	9119
925.602	9211
925.709	9154
925.816	9062
925.924	9089
926.031	9169
926.138	9131
926.245	9119
926.352	9032
926.459	9150
926.566	9211
926.673	9051
926.779	8963
926.886	8918
926.993	8811
927.099	8811
927.206	8762
927.312	8724
927.419	8857
927.525	8830
927.631	8842
927.737	8731
927.843	8712
927.95	8587
928.056	8648
928.162	8758
928.267	8735
928.373	9321
928.479	8785
928.585	8583
928.69	8739
928.796	8773
928.901	8537
929.007	8393
929.112	8606
929.218	8590
929.323	8598
929.428	8533
929.533	8689
929.638	8404
929.743	8530
929.848	8560
929.953	8552
930.058	8385
930.163	8286
930.267	8290
930.372	8476
930.477	8313
930.581	8484
930.685	8404
930.79	8214
930.894	8309
930.998	8161
931.103	8351
931.207	8031
931.311	8012
931.415	7894
931.519	7708
931.623	7677
