Data from test_V78500241_1899.txt Node
Date: Fri Mar 25 14:46:56 CST 2022
User: usil
Spectrometer: V785-0024
Trigger mode: 0
Integration Time (sec): 4.000000E-1
Scans to average: 1
Nonlinearity correction enabled: false
Boxcar width: 0
Storing dark spectrum: false
XAxis mode: Wavelengths
Number of Pixels in Spectrum: 1024
>>>>>Begin Spectral Data<<<<<
801.071	22067
801.214	21892
801.356	21682
801.499	21583
801.641	21496
801.783	21530
801.926	21424
802.068	21401
802.211	21317
802.353	21188
802.496	20937
802.638	21020
802.78	20956
802.923	20842
803.065	20781
803.208	20724
803.35	20781
803.492	20876
803.635	20944
803.777	20845
803.919	20937
804.061	21157
804.204	20815
804.346	20758
804.488	20670
804.63	20735
804.773	20697
804.915	20883
805.057	20876
805.199	20594
805.341	20941
805.483	20902
805.626	20788
805.768	20644
805.91	20682
806.052	20670
806.194	20705
806.336	20777
806.478	20689
806.62	20724
806.762	20727
806.904	20906
807.046	21123
807.188	20979
807.33	20952
807.472	21116
807.614	20941
807.756	20994
807.898	20834
808.04	20868
808.182	20743
808.324	20762
808.465	20823
808.607	21093
808.749	21203
808.891	21089
809.033	21112
809.174	21089
809.316	21119
809.458	21108
809.6	21013
809.741	21161
809.883	21214
810.025	21374
810.166	21260
810.308	21207
810.45	21135
810.591	21077
810.733	21051
810.875	20933
811.016	20861
811.158	20815
811.299	20906
811.441	20906
811.582	21077
811.724	20948
811.865	20826
812.007	20754
812.148	20830
812.29	20845
812.431	20963
812.573	21119
812.714	21298
812.855	21218
812.997	21466
813.138	21488
813.279	21481
813.421	21336
813.562	21378
813.703	21199
813.845	21020
813.986	20735
814.127	20541
814.268	20351
814.41	20507
814.551	20366
814.692	20450
814.833	20427
814.974	20282
815.115	20404
815.256	20237
815.397	20221
815.539	20358
815.68	20122
815.821	20096
815.962	20206
816.103	20020
816.244	19890
816.385	19830
816.526	19852
816.666	19757
816.807	19586
816.948	19662
817.089	19696
817.23	19613
817.371	19662
817.512	19518
817.653	19491
817.793	19422
817.934	19472
818.075	19559
818.216	19521
818.356	19487
818.497	19350
818.638	19236
818.778	19194
818.919	19236
819.06	19228
819.2	19335
819.341	19510
819.481	19335
819.622	19548
819.762	19727
819.903	19556
820.043	19510
820.184	19464
820.324	19578
820.465	19540
820.605	19544
820.746	19487
820.886	19381
821.026	19613
821.167	19445
821.307	19590
821.447	19453
821.588	19491
821.728	19240
821.868	19103
822.008	18958
822.149	18897
822.289	18970
822.429	18661
822.569	18776
822.709	18422
822.849	18410
822.99	18353
823.13	18289
823.27	18365
823.41	18251
823.55	18167
823.69	18110
823.83	18136
823.97	18171
824.11	17973
824.25	18049
824.389	17958
824.529	18064
824.669	18110
824.809	18102
824.949	18038
825.089	18079
825.228	18003
825.368	17794
825.508	17855
825.648	17828
825.787	17813
825.927	17832
826.067	17722
826.206	17786
826.346	17756
826.485	17802
826.625	17805
826.765	17855
826.904	17802
827.044	17512
827.183	17493
827.323	17440
827.462	17493
827.601	17535
827.741	17505
827.88	17520
828.02	17459
828.159	17566
828.298	17497
828.437	17528
828.577	17429
828.716	17532
828.855	17406
828.994	17132
829.134	17246
829.273	17315
829.412	17280
829.551	17159
829.69	17307
829.829	17250
829.968	17254
830.107	17258
830.246	17277
830.385	17208
830.524	17178
830.663	17098
830.802	16961
830.941	16774
831.08	16858
831.219	16854
831.357	16923
831.496	17083
831.635	16900
831.774	16843
831.913	16862
832.051	16691
832.19	16599
832.329	16649
832.467	16565
832.606	16660
832.744	16440
832.883	16573
833.022	16546
833.16	16462
833.299	16637
833.437	16538
833.576	16554
833.714	16584
833.852	16588
833.991	16622
834.129	16626
834.267	16694
834.406	16637
834.544	16561
834.682	16656
834.821	16641
834.959	16797
835.097	16519
835.235	16641
835.373	16660
835.511	16538
835.65	16565
835.788	16478
835.926	16417
836.064	16443
836.202	16382
836.34	16474
836.478	16611
836.615	16527
836.753	16569
836.891	16634
837.029	16546
837.167	16421
837.305	16531
837.443	16451
837.58	16375
837.718	16561
837.856	16367
837.993	16348
838.131	16478
838.269	16303
838.406	16280
838.544	16223
838.681	16074
838.819	16025
838.956	15941
839.094	15907
839.231	15975
839.369	15975
839.506	16333
839.643	16131
839.781	15953
839.918	15869
840.055	15972
840.193	15998
840.33	15937
840.467	15998
840.604	15922
840.742	16162
840.879	15819
841.016	15892
841.153	15842
841.29	16025
841.427	16055
841.564	15983
841.701	16044
841.838	16044
841.975	15922
842.112	15808
842.249	15755
842.385	15781
842.522	15850
842.659	15713
842.796	15789
842.933	15797
843.069	15698
843.206	15701
843.343	15793
843.479	15751
843.616	15770
843.752	15481
843.889	15542
844.025	15694
844.162	15606
844.298	15648
844.435	15496
844.571	15511
844.708	15595
844.844	15770
844.98	15663
845.117	15724
845.253	15549
845.389	15428
845.525	15511
845.661	15447
845.798	15310
845.934	15428
846.07	15336
846.206	15424
846.342	15538
846.478	15401
846.614	15157
846.75	15138
846.886	15074
847.022	15272
847.158	15116
847.294	15214
847.429	15142
847.565	15127
847.701	15428
847.837	14883
847.972	14876
848.108	14960
848.244	14933
848.379	14785
848.515	14705
848.65	14724
848.786	14746
848.921	14788
849.057	14804
849.192	14899
849.328	14792
849.463	14625
849.598	14727
849.734	14667
849.869	14579
850.004	14568
850.14	14549
850.275	14568
850.41	14457
850.545	14454
850.68	14427
850.815	14526
850.95	14442
851.085	14678
851.22	14689
851.355	14537
851.49	14423
851.625	14541
851.76	14518
851.895	14370
852.03	14434
852.165	14530
852.299	14549
852.434	14545
852.569	14587
852.703	14537
852.838	14511
852.973	14651
853.107	14648
853.242	14438
853.376	14389
853.511	14301
853.645	14385
853.78	14457
853.914	14362
854.048	14366
854.183	14343
854.317	14446
854.451	14507
854.585	14415
854.72	14381
854.854	14434
854.988	14370
855.122	14317
855.256	14168
855.39	14431
855.524	14568
855.658	14465
855.792	14370
855.926	14328
856.06	14503
856.194	14454
856.327	14336
856.461	14336
856.595	14301
856.729	14210
856.862	14450
856.996	14465
857.13	14419
857.263	14556
857.397	14518
857.53	14377
857.664	14393
857.797	14526
857.931	14545
858.064	14495
858.197	14431
858.331	14476
858.464	14351
858.597	14248
858.731	14377
858.864	14267
858.997	14393
859.13	14442
859.263	14396
859.396	14469
859.529	14347
859.662	14214
859.795	14298
859.928	14415
860.061	14590
860.194	14575
860.327	14408
860.46	14404
860.592	14431
860.725	14442
860.858	14419
860.99	14408
861.123	14317
861.256	14343
861.388	14275
861.521	15062
861.653	14309
861.786	14267
861.918	14111
862.05	14313
862.183	14275
862.315	14374
862.447	14434
862.58	14328
862.712	14130
862.844	14145
862.976	14199
863.108	14256
863.24	14499
863.372	14043
863.504	14164
863.636	14107
863.768	14183
863.9	14161
864.032	14145
864.164	14180
864.296	14183
864.428	14271
864.559	14237
864.691	14218
864.823	14191
864.954	14153
865.086	14244
865.217	14069
865.349	14043
865.48	14092
865.612	14088
865.743	14309
865.875	14054
866.006	14115
866.137	14157
866.269	14062
866.4	14221
866.531	14073
866.662	14062
866.793	14031
866.924	14069
867.055	14050
867.186	14058
867.317	14149
867.448	14069
867.579	14058
867.71	14100
867.841	13993
867.972	14210
868.103	14134
868.233	14153
868.364	14134
868.495	14176
868.625	14343
868.756	14408
868.886	14271
869.017	14389
869.147	14564
869.278	14549
869.408	14385
869.539	14396
869.669	14473
869.799	14446
869.929	14473
870.06	14454
870.19	14792
870.32	14568
870.45	14777
870.58	14838
870.71	14918
870.84	14868
870.97	14819
871.1	14743
871.23	14937
871.36	14967
871.489	14914
871.619	14864
871.749	14921
871.879	15024
872.008	15070
872.138	15001
872.267	14971
872.397	14781
872.526	14807
872.656	14727
872.785	14883
872.915	15043
873.044	15055
873.173	15058
873.303	14998
873.432	15093
873.561	15119
873.69	15028
873.819	15009
873.948	15116
874.077	15009
874.206	14944
874.335	15036
874.464	15085
874.593	15363
874.722	15241
874.851	15397
874.979	15458
875.108	15454
875.237	15256
875.365	15294
875.494	15275
875.623	15370
875.751	15268
875.88	15454
876.008	15515
876.136	15618
876.265	15694
876.393	15869
876.521	15743
876.65	15903
876.778	15819
876.906	15797
877.034	15751
877.162	15884
877.29	15732
877.418	15766
877.546	15606
877.674	15819
877.802	15800
877.93	15747
878.058	15644
878.185	15679
878.313	15641
878.441	15739
878.568	15587
878.696	15614
878.824	15720
878.951	15778
879.079	15960
879.206	16051
879.333	15918
879.461	15838
879.588	15835
879.715	15934
879.842	15941
879.97	15831
880.097	15488
880.224	15599
880.351	15724
880.478	15705
880.605	15603
880.732	15523
880.859	15778
880.986	15679
881.112	15614
881.239	15545
881.366	15431
881.493	15348
881.619	15287
881.746	15199
881.872	15203
881.999	15226
882.125	15245
882.252	15245
882.378	15256
882.505	15382
882.631	15218
882.757	15055
882.883	15112
883.01	15017
883.136	15108
883.262	14937
883.388	14979
883.514	15131
883.64	15089
883.766	15119
883.892	14872
884.018	14921
884.143	15097
884.269	15211
884.395	14845
884.52	14800
884.646	14880
884.772	14712
884.897	14720
885.023	14781
885.148	14929
885.274	14941
885.399	14929
885.524	14750
885.65	14777
885.775	14845
885.9	14769
886.025	14887
886.15	14750
886.275	14823
886.4	14625
886.525	14621
886.65	14727
886.775	14705
886.9	14823
887.025	15112
887.149	14853
887.274	14663
887.399	14575
887.523	14590
887.648	14655
887.773	14537
887.897	14754
888.021	14727
888.146	14575
888.27	14705
888.395	14743
888.519	14705
888.643	14667
888.767	14670
888.891	14537
889.015	14473
889.139	14552
889.263	14518
889.387	14564
889.511	14678
889.635	14625
889.759	14461
889.883	14400
890.006	14488
890.13	14476
890.254	14336
890.377	14450
890.501	14301
890.624	14267
890.748	14282
890.871	14233
890.995	14111
891.118	14039
891.241	14187
891.364	14237
891.488	14218
891.611	14168
891.734	14282
891.857	14313
891.98	14221
892.103	14210
892.226	14259
892.349	14244
892.471	13951
892.594	14138
892.717	14145
892.839	14142
892.962	14180
893.085	14259
893.207	14134
893.33	14126
893.452	14115
893.575	14149
893.697	14130
893.819	14343
893.941	14393
894.064	14256
894.186	14115
894.308	14084
894.43	14317
894.552	14259
894.674	14298
894.796	14199
894.918	14210
895.04	14153
895.161	14320
895.283	14294
895.405	14176
895.526	14176
895.648	14309
895.769	14259
895.891	14313
896.012	14313
896.134	14301
896.255	14305
896.376	14267
896.498	14309
896.619	14317
896.74	14374
896.861	14385
896.982	14640
897.103	14796
897.224	14629
897.345	14564
897.466	14442
897.587	14590
897.708	14765
897.828	14632
897.949	14667
898.07	14438
898.19	14545
898.311	14792
898.431	14590
898.552	14655
898.672	14693
898.792	14731
898.913	14655
899.033	14613
899.153	14476
899.273	14522
899.393	14488
899.513	14522
899.633	14533
899.753	14594
899.873	14518
899.993	14583
900.113	14552
900.232	14598
900.352	14488
900.472	14480
900.591	14332
900.711	14351
900.83	14317
900.95	14461
901.069	14469
901.189	14298
901.308	14164
901.427	14024
901.546	14031
901.665	14016
901.784	14084
901.904	13928
902.023	13894
902.141	13727
902.26	13567
902.379	13715
902.498	13540
902.617	13533
902.735	13685
902.854	13605
902.973	13643
903.091	13388
903.21	13430
903.328	13384
903.446	13293
903.565	13110
903.683	13232
903.801	13137
903.919	13225
904.038	13133
904.156	12954
904.274	13019
904.392	13065
904.51	13091
904.627	13031
904.745	13114
904.863	13023
904.981	12882
905.098	12646
905.216	12726
905.334	12677
905.451	12715
905.569	12722
905.686	12749
905.803	12688
905.921	12521
906.038	12642
906.155	12612
906.272	12467
906.389	12467
906.506	12258
906.623	12209
906.74	12292
906.857	12277
906.974	12254
907.091	12327
907.208	12483
907.324	12410
907.441	12216
907.557	12087
907.674	11980
907.79	11958
907.907	11992
908.023	12007
908.139	12041
908.256	12007
908.372	11935
908.488	11931
908.604	11855
908.72	11745
908.836	11821
908.952	11794
909.068	11836
909.184	11878
909.3	11786
909.415	11908
909.531	11885
909.647	11554
909.762	11608
909.878	11573
909.993	11611
910.108	11600
910.224	11516
910.339	11573
910.454	11532
910.57	11501
910.685	11277
910.8	11722
910.915	11661
911.03	11398
911.145	11356
911.259	11235
911.374	11197
911.489	11223
911.604	11269
911.718	11071
911.833	11033
911.947	10938
912.062	10892
912.176	10961
912.291	11025
912.405	11025
912.519	11239
912.633	11181
912.748	11155
912.862	10972
912.976	10946
913.09	10797
913.204	10873
913.318	10896
913.431	10976
913.545	10995
913.659	11048
913.772	10957
913.886	10805
914	10809
914.113	10881
914.226	10892
914.34	10915
914.453	10736
914.566	10889
914.68	10698
914.793	10752
914.906	10603
915.019	10561
915.132	10516
915.245	10519
915.358	10542
915.47	10565
915.583	10611
915.696	10527
915.809	10653
915.921	10721
916.034	10573
916.146	10516
916.259	10459
916.371	10626
916.483	10596
916.595	10512
916.708	10489
916.82	10462
916.932	10474
917.044	10481
917.156	10421
917.268	10379
917.38	10325
917.491	10394
917.603	10443
917.715	10470
917.826	10455
917.938	10402
918.049	10367
918.161	10424
918.272	10481
918.384	10531
918.495	10405
918.606	10230
918.717	10185
918.828	10352
918.939	10356
919.05	10249
919.161	10280
919.272	10051
919.383	10177
919.494	10295
919.604	10512
919.715	10356
919.826	10150
919.936	10280
920.047	10318
920.157	10299
920.267	10538
920.378	10371
920.488	10265
920.598	10474
920.708	10592
920.818	10535
920.928	10470
921.038	10656
921.148	10675
921.258	10379
921.368	10181
921.477	10154
921.587	10166
921.697	10082
921.806	10188
921.916	10055
922.025	9903
922.134	9850
922.244	9770
922.353	9960
922.462	9800
922.571	9701
922.68	9561
922.789	9538
922.898	9564
923.007	9492
923.116	9610
923.224	9481
923.333	9542
923.442	9435
923.55	9500
923.659	9420
923.767	9515
923.876	9325
923.984	9443
924.092	9348
924.201	9302
924.309	9382
924.417	9504
924.525	9355
924.633	9336
924.741	10284
924.849	9241
924.956	9389
925.064	9142
925.172	9062
925.279	9176
925.387	9169
925.494	9214
925.602	9287
925.709	9226
925.816	9119
925.924	9207
926.031	9291
926.138	9173
926.245	9176
926.352	9135
926.459	9192
926.566	9207
926.673	9157
926.779	8994
926.886	9001
926.993	8830
927.099	8910
927.206	8883
927.312	8853
927.419	8952
927.525	8838
927.631	8868
927.737	8739
927.843	8815
927.95	8716
928.056	8811
928.162	8807
928.267	8857
928.373	9397
928.479	8883
928.585	8655
928.69	8769
928.796	8895
928.901	8727
929.007	8526
929.112	8712
929.218	8693
929.323	8663
929.428	8594
929.533	8777
929.638	8514
929.743	8571
929.848	8705
929.953	8629
930.058	8492
930.163	8358
930.267	8343
930.372	8556
930.477	8377
930.581	8610
930.685	8514
930.79	8313
930.894	8389
930.998	8374
931.103	8366
931.207	8176
931.311	8054
931.415	8035
931.519	7849
931.623	7788
