Data from test_V78500241_3353.txt Node
Date: Fri Mar 25 14:57:03 CST 2022
User: usil
Spectrometer: V785-0024
Trigger mode: 0
Integration Time (sec): 4.000000E-1
Scans to average: 1
Nonlinearity correction enabled: false
Boxcar width: 0
Storing dark spectrum: false
XAxis mode: Wavelengths
Number of Pixels in Spectrum: 1024
>>>>>Begin Spectral Data<<<<<
801.071	21922
801.214	21831
801.356	21583
801.499	21500
801.641	21359
801.783	21329
801.926	21367
802.068	21332
802.211	21218
802.353	21039
802.496	20986
802.638	20864
802.78	20777
802.923	20773
803.065	20636
803.208	20640
803.35	20621
803.492	20724
803.635	20777
803.777	20651
803.919	20743
804.061	20971
804.204	20773
804.346	20667
804.488	20617
804.63	20682
804.773	20609
804.915	20571
805.057	20579
805.199	20594
805.341	20701
805.483	20693
805.626	20651
805.768	20514
805.91	20667
806.052	20480
806.194	20400
806.336	20644
806.478	20476
806.62	20404
806.762	20579
806.904	20788
807.046	21039
807.188	20838
807.33	20902
807.472	20914
807.614	20746
807.756	20697
807.898	20712
808.04	20621
808.182	20625
808.324	20644
808.465	20663
808.607	20746
808.749	20910
808.891	21036
809.033	21043
809.174	20971
809.316	20975
809.458	20834
809.6	20804
809.741	20971
809.883	21020
810.025	21036
810.166	21127
810.308	21055
810.45	20895
810.591	20986
810.733	20830
810.875	20674
811.016	20678
811.158	20587
811.299	20762
811.441	20781
811.582	20785
811.724	20750
811.865	20556
812.007	20667
812.148	20682
812.29	20667
812.431	20819
812.573	20994
812.714	21058
812.855	21112
812.997	21268
813.138	21325
813.279	21275
813.421	21066
813.562	21112
813.703	20929
813.845	20895
813.986	20480
814.127	20286
814.268	20278
814.41	20320
814.551	20130
814.692	20347
814.833	20149
814.974	20119
815.115	20172
815.256	19989
815.397	20130
815.539	20069
815.68	19894
815.821	19944
815.962	19982
816.103	19967
816.244	19799
816.385	19620
816.526	19719
816.666	19449
816.807	19419
816.948	19362
817.089	19392
817.23	19415
817.371	19320
817.512	19339
817.653	19304
817.793	19373
817.934	19278
818.075	19384
818.216	19346
818.356	19289
818.497	19259
818.638	19038
818.778	18966
818.919	19053
819.06	19107
819.2	19122
819.341	19156
819.481	19190
819.622	19453
819.762	19544
819.903	19605
820.043	19472
820.184	19407
820.324	19244
820.465	19388
820.605	19175
820.746	19362
820.886	19194
821.026	19278
821.167	19213
821.307	19377
821.447	19247
821.588	19187
821.728	19095
821.868	18966
822.008	18825
822.149	18707
822.289	18783
822.429	18517
822.569	18536
822.709	18445
822.849	18213
822.99	18224
823.13	18213
823.27	18308
823.41	18125
823.55	17999
823.69	18003
823.83	18125
823.97	17988
824.11	17901
824.25	17703
824.389	17760
824.529	17832
824.669	17901
824.809	17904
824.949	17916
825.089	17882
825.228	17946
825.368	17687
825.508	17524
825.648	17630
825.787	17646
825.927	17634
826.067	17505
826.206	17562
826.346	17577
826.485	17653
826.625	17600
826.765	17775
826.904	17653
827.044	17383
827.183	17376
827.323	17246
827.462	17372
827.601	17368
827.741	17311
827.88	17345
828.02	17200
828.159	17307
828.298	17231
828.437	17467
828.577	17315
828.716	17406
828.855	17383
828.994	17117
829.134	17128
829.273	17231
829.412	17056
829.551	16972
829.69	17064
829.829	17064
829.968	17208
830.107	17109
830.246	17090
830.385	17037
830.524	16991
830.663	16953
830.802	16759
830.941	16618
831.08	16668
831.219	16873
831.357	16793
831.496	16934
831.635	16694
831.774	16649
831.913	16603
832.051	16466
832.19	16493
832.329	16542
832.467	16341
832.606	16299
832.744	16363
832.883	16386
833.022	16417
833.16	16398
833.299	16440
833.437	16436
833.576	16405
833.714	16478
833.852	16489
833.991	16508
834.129	16637
834.267	16512
834.406	16394
834.544	16561
834.682	16538
834.821	16424
834.959	16554
835.097	16432
835.235	16478
835.373	16440
835.511	16478
835.65	16337
835.788	16382
835.926	16166
836.064	16166
836.202	16249
836.34	16379
836.478	16455
836.615	16318
836.753	16314
836.891	16466
837.029	16432
837.167	16291
837.305	16325
837.443	16272
837.58	16139
837.718	16348
837.856	16390
837.993	16131
838.131	16230
838.269	16181
838.406	16246
838.544	16090
838.681	15903
838.819	15934
838.956	15797
839.094	15797
839.231	15903
839.369	15964
839.506	16185
839.643	16082
839.781	15800
839.918	15778
840.055	15800
840.193	15857
840.33	15778
840.467	15781
840.604	15762
840.742	16006
840.879	15644
841.016	15743
841.153	15671
841.29	15873
841.427	15941
841.564	15797
841.701	15679
841.838	15774
841.975	15717
842.112	15599
842.249	15572
842.385	15538
842.522	15797
842.659	15595
842.796	15553
842.933	15584
843.069	15530
843.206	15466
843.343	15629
843.479	15507
843.616	15614
843.752	15355
843.889	15359
844.025	15523
844.162	15336
844.298	15370
844.435	15363
844.571	15363
844.708	15431
844.844	15534
844.98	15454
845.117	15504
845.253	15351
845.389	15272
845.525	15291
845.661	15188
845.798	15176
845.934	15226
846.07	15077
846.206	15184
846.342	15283
846.478	15279
846.614	15020
846.75	15020
846.886	14883
847.022	15009
847.158	14937
847.294	15005
847.429	14880
847.565	14929
847.701	15169
847.837	14663
847.972	14636
848.108	14765
848.244	14739
848.379	14556
848.515	14575
848.65	14465
848.786	14507
848.921	14480
849.057	14659
849.192	14598
849.328	14488
849.463	14583
849.598	14469
849.734	14526
849.869	14370
850.004	14355
850.14	14476
850.275	14278
850.41	14206
850.545	14259
850.68	14259
850.815	14347
850.95	14336
851.085	14484
851.22	14374
851.355	14286
851.49	14240
851.625	14324
851.76	14278
851.895	14111
852.03	14176
852.165	14233
852.299	14301
852.434	14374
852.569	14366
852.703	14263
852.838	14408
852.973	14415
853.107	14492
853.242	14305
853.376	14161
853.511	14077
853.645	14073
853.78	14233
853.914	14168
854.048	14183
854.183	14183
854.317	14126
854.451	14400
854.585	14145
854.72	14153
854.854	14271
854.988	14176
855.122	14187
855.256	14031
855.39	14161
855.524	14221
855.658	14187
855.792	14191
855.926	14206
856.06	14206
856.194	14168
856.327	14275
856.461	14172
856.595	14077
856.729	14229
856.862	14210
856.996	14153
857.13	14180
857.263	14309
857.397	14320
857.53	14164
857.664	14237
857.797	14218
857.931	14240
858.064	14218
858.197	14218
858.331	14088
858.464	14058
858.597	13974
858.731	14164
858.864	14172
858.997	14149
859.13	14237
859.263	14225
859.396	14145
859.529	14138
859.662	14088
859.795	14145
859.928	14199
860.061	14347
860.194	14355
860.327	14164
860.46	14142
860.592	14286
860.725	14339
860.858	14339
860.99	14145
861.123	14119
861.256	14081
861.388	14191
861.521	14971
861.653	14043
861.786	14016
861.918	13963
862.05	14107
862.183	14123
862.315	14180
862.447	14145
862.58	14145
862.712	13959
862.844	13875
862.976	13993
863.108	13955
863.24	14492
863.372	13959
863.504	14062
863.636	13947
863.768	14035
863.9	13925
864.032	13913
864.164	13959
864.296	14012
864.428	14046
864.559	14027
864.691	14043
864.823	14001
864.954	14031
865.086	13963
865.217	13959
865.349	13898
865.48	13970
865.612	13944
865.743	14103
865.875	13898
866.006	13913
866.137	13936
866.269	13974
866.4	13947
866.531	13909
866.662	13849
866.793	13894
866.924	13928
867.055	13921
867.186	13890
867.317	13955
867.448	13841
867.579	13841
867.71	13852
867.841	13902
867.972	13955
868.103	13917
868.233	14005
868.364	13921
868.495	13925
868.625	14115
868.756	14298
868.886	14172
869.017	14183
869.147	14358
869.278	14366
869.408	14305
869.539	14256
869.669	14244
869.799	14229
869.929	14294
870.06	14271
870.19	14457
870.32	14476
870.45	14507
870.58	14686
870.71	14796
870.84	14701
870.97	14503
871.1	14571
871.23	14807
871.36	14826
871.489	14716
871.619	14834
871.749	14861
871.879	14887
872.008	14902
872.138	14769
872.267	14769
872.397	14727
872.526	14568
872.656	14648
872.785	14598
872.915	14887
873.044	14944
873.173	14826
873.303	14861
873.432	14914
873.561	14937
873.69	14849
873.819	14765
873.948	14845
874.077	14895
874.206	14750
874.335	14815
874.464	14994
874.593	15013
874.722	15127
874.851	15100
874.979	15135
875.108	15142
875.237	15123
875.365	15013
875.494	15100
875.623	15252
875.751	15112
875.88	15184
876.008	15317
876.136	15401
876.265	15614
876.393	15686
876.521	15705
876.65	15690
876.778	15534
876.906	15538
877.034	15507
877.162	15595
877.29	15469
877.418	15622
877.546	15644
877.674	15496
877.802	15564
877.93	15450
878.058	15504
878.185	15511
878.313	15481
878.441	15572
878.568	15401
878.696	15408
878.824	15572
878.951	15618
879.079	15709
879.206	15899
879.333	15675
879.461	15591
879.588	15641
879.715	15800
879.842	15892
879.97	15614
880.097	15378
880.224	15370
880.351	15412
880.478	15355
880.605	15370
880.732	15481
880.859	15618
880.986	15439
881.112	15424
881.239	15367
881.366	15241
881.493	15184
881.619	15138
881.746	15138
881.872	15058
881.999	15058
882.125	15093
882.252	15074
882.378	15104
882.505	15249
882.631	15058
882.757	14845
882.883	14929
883.01	14883
883.136	14876
883.262	14686
883.388	14651
883.514	14971
883.64	14986
883.766	14811
883.892	14663
884.018	14800
884.143	14872
884.269	15017
884.395	14731
884.52	14552
884.646	14632
884.772	14537
884.897	14549
885.023	14587
885.148	14765
885.274	14739
885.399	14716
885.524	14629
885.65	14663
885.775	14689
885.9	14556
886.025	14598
886.15	14667
886.275	14541
886.4	14465
886.525	14632
886.65	14560
886.775	14571
886.9	14705
887.025	14811
887.149	14617
887.274	14514
887.399	14415
887.523	14560
887.648	14393
887.773	14358
887.897	14590
888.021	14473
888.146	14377
888.27	14568
888.395	14511
888.519	14545
888.643	14518
888.767	14419
888.891	14408
889.015	14336
889.139	14347
889.263	14290
889.387	14488
889.511	14514
889.635	14385
889.759	14248
889.883	14233
890.006	14396
890.13	14393
890.254	14218
890.377	14218
890.501	14145
890.624	14134
890.748	14142
890.871	14054
890.995	13997
891.118	13944
891.241	13989
891.364	14020
891.488	14077
891.611	13898
891.734	13989
891.857	14123
891.98	13982
892.103	14027
892.226	14039
892.349	13967
892.471	13860
892.594	13970
892.717	13963
892.839	13944
892.962	13936
893.085	14043
893.207	14016
893.33	13921
893.452	13940
893.575	13963
893.697	14005
893.819	14218
893.941	14218
894.064	14153
894.186	13978
894.308	13989
894.43	14210
894.552	14202
894.674	14168
894.796	14020
894.918	14046
895.04	14012
895.161	14187
895.283	14100
895.405	14039
895.526	14115
895.648	14077
895.769	14107
895.891	14286
896.012	14244
896.134	14259
896.255	14058
896.376	14145
896.498	14134
896.619	14248
896.74	14172
896.861	14294
896.982	14571
897.103	14644
897.224	14473
897.345	14412
897.466	14309
897.587	14408
897.708	14492
897.828	14484
897.949	14431
898.07	14362
898.19	14419
898.311	14484
898.431	14469
898.552	14480
898.672	14511
898.792	14651
898.913	14590
899.033	14457
899.153	14374
899.273	14336
899.393	14336
899.513	14377
899.633	14374
899.753	14476
899.873	14305
899.993	14370
900.113	14461
900.232	14362
900.352	14366
900.472	14328
900.591	14240
900.711	14256
900.83	14164
900.95	14324
901.069	14313
901.189	14115
901.308	13989
901.427	13917
901.546	13890
901.665	13974
901.784	13967
901.904	13845
902.023	13662
902.141	13499
902.26	13472
902.379	13552
902.498	13529
902.617	13491
902.735	13537
902.854	13449
902.973	13518
903.091	13152
903.21	13251
903.328	13217
903.446	13240
903.565	13069
903.683	13046
903.801	12989
903.919	13069
904.038	13046
904.156	12798
904.274	12962
904.392	12897
904.51	12928
904.627	12837
904.745	12890
904.863	12909
904.981	12692
905.098	12582
905.216	12547
905.334	12536
905.451	12555
905.569	12517
905.686	12665
905.803	12589
905.921	12395
906.038	12559
906.155	12353
906.272	12346
906.389	12323
906.506	12239
906.623	12232
906.74	12087
906.857	12038
906.974	12064
907.091	12159
907.208	12289
907.324	12281
907.441	12026
907.557	11866
907.674	11893
907.79	11870
907.907	11855
908.023	11893
908.139	11916
908.256	11870
908.372	11870
908.488	11790
908.604	11695
908.72	11646
908.836	11718
908.952	11589
909.068	11680
909.184	11771
909.3	11676
909.415	11745
909.531	11657
909.647	11463
909.762	11490
909.878	11429
909.993	11444
910.108	11376
910.224	11429
910.339	11478
910.454	11353
910.57	11277
910.685	11235
910.8	11474
910.915	11516
911.03	11345
911.145	11121
911.259	11136
911.374	11193
911.489	11064
911.604	11003
911.718	10873
911.833	10953
911.947	10748
912.062	10706
912.176	10881
912.291	10908
912.405	10911
912.519	11136
912.633	11117
912.748	10961
912.862	10835
912.976	10774
913.09	10698
913.204	10733
913.318	10801
913.431	10854
913.545	10953
913.659	10877
913.772	10778
913.886	10725
914	10714
914.113	10744
914.226	10729
914.34	10668
914.453	10577
914.566	10641
914.68	10645
914.793	10634
914.906	10432
915.019	10360
915.132	10375
915.245	10325
915.358	10447
915.47	10436
915.583	10455
915.696	10519
915.809	10512
915.921	10512
916.034	10424
916.146	10409
916.259	10333
916.371	10409
916.483	10322
916.595	10333
916.708	10318
916.82	10265
916.932	10375
917.044	10306
917.156	10303
917.268	10253
917.38	10253
917.491	10268
917.603	10253
917.715	10318
917.826	10390
917.938	10276
918.049	10131
918.161	10223
918.272	10371
918.384	10417
918.495	10348
918.606	10063
918.717	10093
918.828	10181
918.939	10150
919.05	10055
919.161	10128
919.272	9991
919.383	9964
919.494	10093
919.604	10356
919.715	10120
919.826	10131
919.936	10116
920.047	10261
920.157	10196
920.267	10363
920.378	10196
920.488	10101
920.598	10310
920.708	10531
920.818	10318
920.928	10303
921.038	10565
921.148	10436
921.258	10265
921.368	10048
921.477	10002
921.587	9987
921.697	9907
921.806	10013
921.916	9918
922.025	9766
922.134	9759
922.244	9595
922.353	9713
922.462	9595
922.571	9523
922.68	9458
922.789	9367
922.898	9469
923.007	9332
923.116	9405
923.224	9397
923.333	9378
923.442	9313
923.55	9237
923.659	9310
923.767	9382
923.876	9245
923.984	9302
924.092	9169
924.201	9329
924.309	9336
924.417	9302
924.525	9184
924.633	9249
924.741	10158
924.849	9043
924.956	9176
925.064	9013
925.172	8971
925.279	9051
925.387	9081
925.494	9116
925.602	9131
925.709	9123
925.816	8971
925.924	9093
926.031	9097
926.138	9017
926.245	9047
926.352	8971
926.459	9077
926.566	9161
926.673	9047
926.779	8880
926.886	8902
926.993	8807
927.099	8788
927.206	8724
927.312	8739
927.419	8811
927.525	8807
927.631	8891
927.737	8667
927.843	8621
927.95	8602
928.056	8682
928.162	8739
928.267	8697
928.373	9313
928.479	8746
928.585	8587
928.69	8640
928.796	8716
928.901	8602
929.007	8393
929.112	8682
929.218	8514
929.323	8450
929.428	8469
929.533	8670
929.638	8442
929.743	8454
929.848	8556
929.953	8499
930.058	8389
930.163	8233
930.267	8320
930.372	8415
930.477	8225
930.581	8503
930.685	8332
930.79	8237
930.894	8221
930.998	8157
931.103	8259
931.207	8027
931.311	7936
931.415	7925
931.519	7742
931.623	7708
