Data from test_V78500241_3374.txt Node
Date: Fri Mar 25 14:57:12 CST 2022
User: usil
Spectrometer: V785-0024
Trigger mode: 0
Integration Time (sec): 4.000000E-1
Scans to average: 1
Nonlinearity correction enabled: false
Boxcar width: 0
Storing dark spectrum: false
XAxis mode: Wavelengths
Number of Pixels in Spectrum: 1024
>>>>>Begin Spectral Data<<<<<
801.071	21854
801.214	21892
801.356	21519
801.499	21534
801.641	21325
801.783	21211
801.926	21317
802.068	21325
802.211	21214
802.353	21138
802.496	20910
802.638	20811
802.78	20667
802.923	20777
803.065	20575
803.208	20526
803.35	20701
803.492	20648
803.635	20807
803.777	20537
803.919	20712
804.061	20925
804.204	20670
804.346	20640
804.488	20552
804.63	20632
804.773	20583
804.915	20533
805.057	20568
805.199	20514
805.341	20423
805.483	20602
805.626	20655
805.768	20499
805.91	20632
806.052	20514
806.194	20358
806.336	20636
806.478	20503
806.62	20507
806.762	20682
806.904	20701
807.046	20975
807.188	20914
807.33	20876
807.472	20868
807.614	20598
807.756	20864
807.898	20724
808.04	20549
808.182	20564
808.324	20560
808.465	20621
808.607	20876
808.749	20830
808.891	21062
809.033	21009
809.174	20971
809.316	20769
809.458	20880
809.6	20716
809.741	20883
809.883	20902
810.025	21081
810.166	20937
810.308	20944
810.45	21017
810.591	20963
810.733	20663
810.875	20648
811.016	20636
811.158	20454
811.299	20678
811.441	20891
811.582	20625
811.724	20678
811.865	20587
812.007	20644
812.148	20644
812.29	20629
812.431	20773
812.573	20979
812.714	21135
812.855	21157
812.997	21241
813.138	21332
813.279	21325
813.421	21077
813.562	21028
813.703	20971
813.845	20788
813.986	20469
814.127	20412
814.268	20294
814.41	20183
814.551	20252
814.692	20256
814.833	20320
814.974	20240
815.115	20172
815.256	20081
815.397	20027
815.539	20031
815.68	19890
815.821	19940
815.962	20008
816.103	19845
816.244	19761
816.385	19784
816.526	19525
816.666	19457
816.807	19365
816.948	19415
817.089	19540
817.23	19327
817.371	19381
817.512	19327
817.653	19388
817.793	19278
817.934	19301
818.075	19369
818.216	19339
818.356	19285
818.497	19270
818.638	18985
818.778	19069
818.919	19000
819.06	19069
819.2	19122
819.341	19228
819.481	19141
819.622	19312
819.762	19460
819.903	19411
820.043	19403
820.184	19403
820.324	19346
820.465	19407
820.605	19346
820.746	19297
820.886	19171
821.026	19190
821.167	19217
821.307	19358
821.447	19324
821.588	19095
821.728	19050
821.868	18852
822.008	18741
822.149	18760
822.289	18661
822.429	18384
822.569	18452
822.709	18395
822.849	18220
822.99	18289
823.13	18186
823.27	18327
823.41	18041
823.55	17961
823.69	17958
823.83	18011
823.97	17885
824.11	17885
824.25	17756
824.389	17813
824.529	17775
824.669	17805
824.809	17786
824.949	17939
825.089	17802
825.228	17855
825.368	17646
825.508	17680
825.648	17604
825.787	17551
825.927	17718
826.067	17501
826.206	17436
826.346	17581
826.485	17615
826.625	17471
826.765	17687
826.904	17672
827.044	17433
827.183	17288
827.323	17315
827.462	17273
827.601	17246
827.741	17341
827.88	17307
828.02	17193
828.159	17284
828.298	17280
828.437	17254
828.577	17277
828.716	17433
828.855	17208
828.994	17083
829.134	17033
829.273	16972
829.412	16980
829.551	16896
829.69	16987
829.829	17010
829.968	17052
830.107	17151
830.246	17018
830.385	17105
830.524	16885
830.663	16782
830.802	16866
830.941	16721
831.08	16630
831.219	16805
831.357	16634
831.496	16908
831.635	16645
831.774	16508
831.913	16489
832.051	16360
832.19	16432
832.329	16497
832.467	16375
832.606	16333
832.744	16325
832.883	16322
833.022	16223
833.16	16409
833.299	16337
833.437	16348
833.576	16386
833.714	16367
833.852	16440
833.991	16527
834.129	16428
834.267	16527
834.406	16447
834.544	16443
834.682	16466
834.821	16462
834.959	16485
835.097	16485
835.235	16607
835.373	16470
835.511	16371
835.65	16386
835.788	16356
835.926	16116
836.064	16200
836.202	16196
836.34	16318
836.478	16413
836.615	16375
836.753	16306
836.891	16432
837.029	16310
837.167	16276
837.305	16268
837.443	16314
837.58	16204
837.718	16291
837.856	16139
837.993	16139
838.131	16169
838.269	16173
838.406	16109
838.544	16078
838.681	15850
838.819	15842
838.956	15838
839.094	15720
839.231	15759
839.369	15907
839.506	16124
839.643	15930
839.781	15789
839.918	15682
840.055	15686
840.193	15762
840.33	15671
840.467	15701
840.604	15797
840.742	15956
840.879	15496
841.016	15641
841.153	15705
841.29	15770
841.427	15766
841.564	15804
841.701	15770
841.838	15724
841.975	15698
842.112	15576
842.249	15637
842.385	15485
842.522	15675
842.659	15584
842.796	15526
842.933	15545
843.069	15526
843.206	15534
843.343	15610
843.479	15530
843.616	15591
843.752	15363
843.889	15329
844.025	15420
844.162	15272
844.298	15325
844.435	15351
844.571	15294
844.708	15370
844.844	15496
844.98	15545
845.117	15450
845.253	15252
845.389	15218
845.525	15237
845.661	15230
845.798	15165
845.934	15195
846.07	15032
846.206	15123
846.342	15146
846.478	15150
846.614	14941
846.75	14815
846.886	14963
847.022	15043
847.158	14864
847.294	14830
847.429	14880
847.565	14868
847.701	15055
847.837	14750
847.972	14610
848.108	14708
848.244	14750
848.379	14564
848.515	14507
848.65	14400
848.786	14476
848.921	14549
849.057	14651
849.192	14598
849.328	14465
849.463	14552
849.598	14484
849.734	14389
849.869	14434
850.004	14305
850.14	14317
850.275	14225
850.41	14145
850.545	14142
850.68	14202
850.815	14282
850.95	14210
851.085	14488
851.22	14267
851.355	14343
851.49	14278
851.625	14275
851.76	14233
851.895	14206
852.03	14103
852.165	14214
852.299	14233
852.434	14358
852.569	14240
852.703	14202
852.838	14317
852.973	14324
853.107	14412
853.242	14199
853.376	14107
853.511	13982
853.645	14130
853.78	14199
853.914	14195
854.048	14111
854.183	14180
854.317	14187
854.451	14324
854.585	14142
854.72	14115
854.854	14145
854.988	14005
855.122	14050
855.256	13989
855.39	14069
855.524	14138
855.658	14237
855.792	14168
855.926	14172
856.06	14191
856.194	14256
856.327	14256
856.461	14142
856.595	14111
856.729	14142
856.862	14164
856.996	14138
857.13	14214
857.263	14229
857.397	14240
857.53	14142
857.664	14180
857.797	14172
857.931	14256
858.064	14233
858.197	14313
858.331	14218
858.464	14126
858.597	14001
858.731	14119
858.864	14210
858.997	14081
859.13	14191
859.263	14221
859.396	14199
859.529	14126
859.662	14077
859.795	14126
859.928	14145
860.061	14263
860.194	14339
860.327	14229
860.46	14081
860.592	14339
860.725	14259
860.858	14309
860.99	14210
861.123	14073
861.256	14164
861.388	14161
861.521	14963
861.653	14043
861.786	13974
861.918	14084
862.05	14100
862.183	14183
862.315	14138
862.447	14138
862.58	14119
862.712	13940
862.844	13852
862.976	14005
863.108	14126
863.24	14423
863.372	13940
863.504	13921
863.636	13902
863.768	14077
863.9	13993
864.032	13955
864.164	13974
864.296	14016
864.428	14176
864.559	13986
864.691	14035
864.823	14046
864.954	13986
865.086	14054
865.217	13959
865.349	13894
865.48	13921
865.612	13906
865.743	14103
865.875	13947
866.006	13925
866.137	13925
866.269	13997
866.4	13940
866.531	13868
866.662	13955
866.793	13906
866.924	13856
867.055	13963
867.186	13875
867.317	13917
867.448	13898
867.579	13909
867.71	13818
867.841	13811
867.972	13974
868.103	13951
868.233	13928
868.364	13925
868.495	14088
868.625	14229
868.756	14313
868.886	14073
869.017	14202
869.147	14271
869.278	14214
869.408	14229
869.539	14168
869.669	14240
869.799	14176
869.929	14282
870.06	14259
870.19	14651
870.32	14503
870.45	14511
870.58	14617
870.71	14682
870.84	14731
870.97	14617
871.1	14583
871.23	14811
871.36	14716
871.489	14617
871.619	14788
871.749	14746
871.879	14861
872.008	14819
872.138	14796
872.267	14701
872.397	14689
872.526	14689
872.656	14697
872.785	14610
872.915	14765
873.044	14834
873.173	14834
873.303	14910
873.432	14861
873.561	15039
873.69	14899
873.819	14891
873.948	14876
874.077	14819
874.206	14830
874.335	14990
874.464	14967
874.593	15077
874.722	15123
874.851	15207
874.979	15180
875.108	15112
875.237	15131
875.365	14998
875.494	15119
875.623	15313
875.751	15169
875.88	15214
876.008	15359
876.136	15424
876.265	15534
876.393	15709
876.521	15785
876.65	15675
876.778	15633
876.906	15511
877.034	15572
877.162	15534
877.29	15587
877.418	15530
877.546	15610
877.674	15599
877.802	15610
877.93	15599
878.058	15496
878.185	15507
878.313	15568
878.441	15599
878.568	15473
878.696	15526
878.824	15572
878.951	15637
879.079	15641
879.206	15937
879.333	15816
879.461	15675
879.588	15705
879.715	15709
879.842	15880
879.97	15599
880.097	15382
880.224	15481
880.351	15435
880.478	15473
880.605	15397
880.732	15519
880.859	15732
880.986	15473
881.112	15545
881.239	15416
881.366	15192
881.493	15142
881.619	15146
881.746	15077
881.872	15089
881.999	15123
882.125	14975
882.252	15097
882.378	15036
882.505	15264
882.631	14982
882.757	14872
882.883	14925
883.01	14921
883.136	14800
883.262	14682
883.388	14800
883.514	14906
883.64	14982
883.766	14853
883.892	14765
884.018	14773
884.143	14918
884.269	14990
884.395	14788
884.52	14571
884.646	14560
884.772	14541
884.897	14461
885.023	14667
885.148	14701
885.274	14834
885.399	14727
885.524	14640
885.65	14667
885.775	14648
885.9	14610
886.025	14701
886.15	14689
886.275	14632
886.4	14465
886.525	14590
886.65	14556
886.775	14511
886.9	14689
887.025	14788
887.149	14507
887.274	14396
887.399	14480
887.523	14377
887.648	14317
887.773	14324
887.897	14564
888.021	14473
888.146	14461
888.27	14488
888.395	14518
888.519	14545
888.643	14537
888.767	14469
888.891	14377
889.015	14256
889.139	14396
889.263	14324
889.387	14415
889.511	14511
889.635	14362
889.759	14313
889.883	14240
890.006	14431
890.13	14419
890.254	14278
890.377	14305
890.501	14031
890.624	14039
890.748	14176
890.871	14027
890.995	13951
891.118	13944
891.241	14001
891.364	13909
891.488	14062
891.611	14031
891.734	13982
891.857	14123
891.98	14062
892.103	14115
892.226	14012
892.349	14069
892.471	13913
892.594	13978
892.717	14020
892.839	13925
892.962	13967
893.085	14062
893.207	14043
893.33	13917
893.452	13982
893.575	14020
893.697	14020
893.819	14161
893.941	14309
894.064	14115
894.186	13959
894.308	13940
894.43	14218
894.552	14263
894.674	14191
894.796	13989
894.918	14046
895.04	14084
895.161	14195
895.283	14115
895.405	13967
895.526	14199
895.648	14149
895.769	14199
895.891	14138
896.012	14290
896.134	14221
896.255	14210
896.376	14202
896.498	14267
896.619	14237
896.74	14180
896.861	14271
896.982	14404
897.103	14689
897.224	14473
897.345	14396
897.466	14332
897.587	14469
897.708	14670
897.828	14469
897.949	14404
898.07	14298
898.19	14442
898.311	14678
898.431	14480
898.552	14560
898.672	14621
898.792	14716
898.913	14594
899.033	14431
899.153	14370
899.273	14362
899.393	14400
899.513	14419
899.633	14446
899.753	14419
899.873	14389
899.993	14499
900.113	14423
900.232	14419
900.352	14389
900.472	14252
900.591	14244
900.711	14229
900.83	14142
900.95	14305
901.069	14298
901.189	14153
901.308	13940
901.427	13791
901.546	13879
901.665	13921
901.784	13944
901.904	13750
902.023	13753
902.141	13529
902.26	13537
902.379	13624
902.498	13510
902.617	13396
902.735	13556
902.854	13483
902.973	13403
903.091	13324
903.21	13194
903.328	13179
903.446	13149
903.565	13095
903.683	13103
903.801	12966
903.919	13053
904.038	13076
904.156	12966
904.274	12993
904.392	12894
904.51	12951
904.627	12814
904.745	12924
904.863	12829
904.981	12703
905.098	12559
905.216	12585
905.334	12540
905.451	12650
905.569	12490
905.686	12566
905.803	12635
905.921	12350
906.038	12559
906.155	12369
906.272	12258
906.389	12365
906.506	12258
906.623	12262
906.74	12144
906.857	11961
906.974	12034
907.091	12197
907.208	12308
907.324	12209
907.441	12178
907.557	11920
907.674	11901
907.79	11878
907.907	11931
908.023	11988
908.139	11935
908.256	11954
908.372	11931
908.488	11843
908.604	11726
908.72	11608
908.836	11722
908.952	11668
909.068	11661
909.184	11802
909.3	11699
909.415	11817
909.531	11707
909.647	11463
909.762	11501
909.878	11379
909.993	11532
910.108	11417
910.224	11436
910.339	11429
910.454	11330
910.57	11337
910.685	11273
910.8	11512
910.915	11448
911.03	11311
911.145	11143
911.259	11155
911.374	11189
911.489	11098
911.604	11086
911.718	10919
911.833	10862
911.947	10816
912.062	10729
912.176	10923
912.291	10854
912.405	10911
912.519	11132
912.633	11162
912.748	10999
912.862	10847
912.976	10869
913.09	10740
913.204	10790
913.318	10744
913.431	10961
913.545	10889
913.659	10885
913.772	10843
913.886	10687
914	10714
914.113	10736
914.226	10889
914.34	10664
914.453	10599
914.566	10729
914.68	10630
914.793	10504
914.906	10466
915.019	10440
915.132	10306
915.245	10413
915.358	10493
915.47	10436
915.583	10466
915.696	10440
915.809	10592
915.921	10592
916.034	10413
916.146	10413
916.259	10322
916.371	10512
916.483	10375
916.595	10367
916.708	10413
916.82	10341
916.932	10413
917.044	10303
917.156	10253
917.268	10280
917.38	10306
917.491	10253
917.603	10211
917.715	10268
917.826	10276
917.938	10211
918.049	10196
918.161	10257
918.272	10409
918.384	10421
918.495	10295
918.606	10234
918.717	10112
918.828	10162
918.939	10139
919.05	10124
919.161	10112
919.272	9960
919.383	10032
919.494	10284
919.604	10329
919.715	10162
919.826	10112
919.936	10147
920.047	10234
920.157	10154
920.267	10386
920.378	10257
920.488	10097
920.598	10348
920.708	10573
920.818	10318
920.928	10318
921.038	10569
921.148	10485
921.258	10249
921.368	10169
921.477	9987
921.587	9979
921.697	9922
921.806	10006
921.916	9983
922.025	9755
922.134	9705
922.244	9633
922.353	9789
922.462	9671
922.571	9545
922.68	9382
922.789	9378
922.898	9378
923.007	9325
923.116	9485
923.224	9439
923.333	9355
923.442	9294
923.55	9260
923.659	9283
923.767	9405
923.876	9256
923.984	9332
924.092	9256
924.201	9279
924.309	9348
924.417	9260
924.525	9184
924.633	9207
924.741	10246
924.849	8979
924.956	9294
925.064	9081
925.172	9039
925.279	8986
925.387	9100
925.494	9154
925.602	9173
925.709	9142
925.816	9032
925.924	9093
926.031	9176
926.138	9074
926.245	9085
926.352	8967
926.459	9112
926.566	9165
926.673	8982
926.779	8956
926.886	8971
926.993	8845
927.099	8792
927.206	8762
927.312	8762
927.419	8819
927.525	8906
927.631	8766
927.737	8750
927.843	8766
927.95	8678
928.056	8746
928.162	8651
928.267	8777
928.373	9382
928.479	8826
928.585	8602
928.69	8708
928.796	8724
928.901	8610
929.007	8511
929.112	8617
929.218	8564
929.323	8522
929.428	8556
929.533	8636
929.638	8492
929.743	8488
929.848	8537
929.953	8541
930.058	8465
930.163	8271
930.267	8328
930.372	8404
930.477	8202
930.581	8556
930.685	8358
930.79	8248
930.894	8305
930.998	8240
931.103	8358
931.207	7986
931.311	7993
931.415	7928
931.519	7750
931.623	7704
