Data from test_V78500241_2663.txt Node
Date: Fri Mar 25 14:52:15 CST 2022
User: usil
Spectrometer: V785-0024
Trigger mode: 0
Integration Time (sec): 4.000000E-1
Scans to average: 1
Nonlinearity correction enabled: false
Boxcar width: 0
Storing dark spectrum: false
XAxis mode: Wavelengths
Number of Pixels in Spectrum: 1024
>>>>>Begin Spectral Data<<<<<
801.071	22002
801.214	21895
801.356	21663
801.499	21530
801.641	21439
801.783	21332
801.926	21397
802.068	21321
802.211	21237
802.353	21142
802.496	20902
802.638	20868
802.78	20876
802.923	20693
803.065	20689
803.208	20663
803.35	20743
803.492	20838
803.635	20830
803.777	20663
803.919	20906
804.061	20979
804.204	20811
804.346	20648
804.488	20640
804.63	20617
804.773	20495
804.915	20655
805.057	20724
805.199	20541
805.341	20689
805.483	20674
805.626	20579
805.768	20655
805.91	20648
806.052	20537
806.194	20495
806.336	20727
806.478	20743
806.62	20469
806.762	20678
806.904	20796
807.046	20864
807.188	20933
807.33	20887
807.472	20941
807.614	20838
807.756	20804
807.898	20598
808.04	20712
808.182	20701
808.324	20606
808.465	20632
808.607	20804
808.749	20941
808.891	21017
809.033	21176
809.174	20914
809.316	21001
809.458	20941
809.6	20899
809.741	21009
809.883	21047
810.025	21199
810.166	21131
810.308	21188
810.45	21055
810.591	20861
810.733	20788
810.875	20811
811.016	20686
811.158	20537
811.299	20796
811.441	20998
811.582	20845
811.724	20705
811.865	20746
812.007	20724
812.148	20693
812.29	20659
812.431	20864
812.573	20956
812.714	21233
812.855	21230
812.997	21340
813.138	21424
813.279	21264
813.421	21161
813.562	21104
813.703	21055
813.845	20849
813.986	20514
814.127	20465
814.268	20415
814.41	20389
814.551	20282
814.692	20362
814.833	20210
814.974	20081
815.115	20248
815.256	20084
815.397	20073
815.539	20115
815.68	19978
815.821	19955
815.962	20027
816.103	20103
816.244	19852
816.385	19765
816.526	19715
816.666	19510
816.807	19369
816.948	19434
817.089	19571
817.23	19476
817.371	19441
817.512	19400
817.653	19293
817.793	19263
817.934	19411
818.075	19419
818.216	19373
818.356	19506
818.497	19217
818.638	19069
818.778	19008
818.919	19076
819.06	19255
819.2	19228
819.341	19377
819.481	19312
819.622	19430
819.762	19567
819.903	19529
820.043	19392
820.184	19285
820.324	19388
820.465	19495
820.605	19377
820.746	19441
820.886	19221
821.026	19392
821.167	19297
821.307	19453
821.447	19304
821.588	19209
821.728	19137
821.868	18996
822.008	18848
822.149	18722
822.289	18916
822.429	18604
822.569	18403
822.709	18479
822.849	18304
822.99	18350
823.13	18182
823.27	18323
823.41	18174
823.55	18057
823.69	18091
823.83	18144
823.97	18049
824.11	17904
824.25	17840
824.389	17798
824.529	17939
824.669	17904
824.809	17939
824.949	18015
825.089	17843
825.228	17855
825.368	17726
825.508	17752
825.648	17824
825.787	17649
825.927	17600
826.067	17608
826.206	17581
826.346	17710
826.485	17661
826.625	17619
826.765	17817
826.904	17566
827.044	17425
827.183	17322
827.323	17318
827.462	17406
827.601	17452
827.741	17349
827.88	17349
828.02	17223
828.159	17368
828.298	17406
828.437	17417
828.577	17341
828.716	17554
828.855	17318
828.994	17147
829.134	17105
829.273	17102
829.412	17060
829.551	17075
829.69	17006
829.829	17155
829.968	17216
830.107	17277
830.246	17155
830.385	17041
830.524	16949
830.663	16889
830.802	16668
830.941	16763
831.08	16630
831.219	16755
831.357	16793
831.496	17022
831.635	16755
831.774	16641
831.913	16580
832.051	16497
832.19	16451
832.329	16500
832.467	16417
832.606	16394
832.744	16402
832.883	16462
833.022	16363
833.16	16447
833.299	16440
833.437	16538
833.576	16535
833.714	16474
833.852	16538
833.991	16485
834.129	16443
834.267	16561
834.406	16428
834.544	16535
834.682	16512
834.821	16546
834.959	16744
835.097	16485
835.235	16535
835.373	16512
835.511	16455
835.65	16478
835.788	16329
835.926	16192
836.064	16223
836.202	16177
836.34	16424
836.478	16523
836.615	16333
836.753	16402
836.891	16382
837.029	16382
837.167	16344
837.305	16257
837.443	16352
837.58	16291
837.718	16421
837.856	16341
837.993	16150
838.131	16299
838.269	16158
838.406	16196
838.544	16219
838.681	16097
838.819	15926
838.956	15899
839.094	15823
839.231	15915
839.369	15949
839.506	16238
839.643	16036
839.781	15842
839.918	15823
840.055	15785
840.193	15819
840.33	15785
840.467	15915
840.604	15827
840.742	16025
840.879	15717
841.016	15743
841.153	15778
841.29	15846
841.427	15793
841.564	15876
841.701	15816
841.838	15755
841.975	15625
842.112	15701
842.249	15679
842.385	15530
842.522	15816
842.659	15595
842.796	15557
842.933	15599
843.069	15473
843.206	15511
843.343	15622
843.479	15717
843.616	15610
843.752	15298
843.889	15431
844.025	15462
844.162	15462
844.298	15534
844.435	15538
844.571	15325
844.708	15317
844.844	15599
844.98	15530
845.117	15500
845.253	15340
845.389	15321
845.525	15272
845.661	15313
845.798	15119
845.934	15176
846.07	15157
846.206	15222
846.342	15336
846.478	15116
846.614	15017
846.75	14948
846.886	14979
847.022	15058
847.158	15013
847.294	14979
847.429	14929
847.565	14918
847.701	15161
847.837	14743
847.972	14746
848.108	14788
848.244	14792
848.379	14602
848.515	14663
848.65	14480
848.786	14549
848.921	14602
849.057	14644
849.192	14678
849.328	14636
849.463	14526
849.598	14522
849.734	14465
849.869	14442
850.004	14370
850.14	14385
850.275	14351
850.41	14309
850.545	14187
850.68	14305
850.815	14377
850.95	14278
851.085	14541
851.22	14438
851.355	14259
851.49	14221
851.625	14355
851.76	14366
851.895	14221
852.03	14176
852.165	14301
852.299	14351
852.434	14339
852.569	14347
852.703	14328
852.838	14419
852.973	14454
853.107	14381
853.242	14290
853.376	14233
853.511	14172
853.645	14134
853.78	14339
853.914	14149
854.048	14218
854.183	14153
854.317	14202
854.451	14366
854.585	14248
854.72	14142
854.854	14218
854.988	14126
855.122	14142
855.256	14092
855.39	14210
855.524	14214
855.658	14202
855.792	14233
855.926	14210
856.06	14240
856.194	14442
856.327	14244
856.461	14199
856.595	14161
856.729	14161
856.862	14343
856.996	14176
857.13	14206
857.263	14404
857.397	14370
857.53	14237
857.664	14195
857.797	14290
857.931	14408
858.064	14237
858.197	14294
858.331	14130
858.464	14180
858.597	14210
858.731	14248
858.864	14142
858.997	14153
859.13	14233
859.263	14259
859.396	14290
859.529	14290
859.662	14092
859.795	14161
859.928	14149
860.061	14415
860.194	14358
860.327	14332
860.46	14195
860.592	14408
860.725	14434
860.858	14423
860.99	14351
861.123	14259
861.256	14153
861.388	14290
861.521	14792
861.653	14092
861.786	14115
861.918	14153
862.05	14126
862.183	14142
862.315	14275
862.447	14305
862.58	14221
862.712	14054
862.844	13997
862.976	14103
863.108	13978
863.24	14374
863.372	13902
863.504	14081
863.636	14039
863.768	14096
863.9	14024
864.032	13925
864.164	13993
864.296	14107
864.428	14195
864.559	14187
864.691	14126
864.823	14054
864.954	14092
865.086	14054
865.217	14046
865.349	14012
865.48	14054
865.612	14039
865.743	14164
865.875	13928
866.006	13932
866.137	14115
866.269	13997
866.4	14084
866.531	13947
866.662	13963
866.793	13906
866.924	13970
867.055	14130
867.186	13989
867.317	13982
867.448	14005
867.579	13936
867.71	13868
867.841	13955
867.972	13989
868.103	14031
868.233	13951
868.364	14073
868.495	14142
868.625	14244
868.756	14252
868.886	14107
869.017	14199
869.147	14412
869.278	14377
869.408	14290
869.539	14305
869.669	14408
869.799	14343
869.929	14400
870.06	14415
870.19	14598
870.32	14522
870.45	14621
870.58	14781
870.71	14777
870.84	14712
870.97	14727
871.1	14667
871.23	14914
871.36	14941
871.489	14682
871.619	14773
871.749	14743
871.879	15039
872.008	15028
872.138	14956
872.267	14887
872.397	14716
872.526	14716
872.656	14689
872.785	14724
872.915	14895
873.044	14960
873.173	14963
873.303	14941
873.432	14891
873.561	14967
873.69	14819
873.819	14880
873.948	14971
874.077	14944
874.206	14902
874.335	14902
874.464	15017
874.593	15241
874.722	15150
874.851	15264
874.979	15272
875.108	15218
875.237	15245
875.365	15066
875.494	15218
875.623	15382
875.751	15123
875.88	15321
876.008	15329
876.136	15420
876.265	15663
876.393	15755
876.521	15713
876.65	15827
876.778	15717
876.906	15614
877.034	15618
877.162	15545
877.29	15530
877.418	15667
877.546	15717
877.674	15591
877.802	15747
877.93	15553
878.058	15584
878.185	15519
878.313	15572
878.441	15572
878.568	15439
878.696	15584
878.824	15770
878.951	15766
879.079	15831
879.206	15941
879.333	15846
879.461	15774
879.588	15720
879.715	15960
879.842	15937
879.97	15694
880.097	15485
880.224	15416
880.351	15447
880.478	15606
880.605	15481
880.732	15435
880.859	15606
880.986	15599
881.112	15599
881.239	15485
881.366	15222
881.493	15218
881.619	15188
881.746	15184
881.872	15146
881.999	15291
882.125	15081
882.252	15230
882.378	15260
882.505	15237
882.631	15218
882.757	15009
882.883	15112
883.01	14971
883.136	14979
883.262	14956
883.388	14902
883.514	15070
883.64	14967
883.766	14975
883.892	14701
884.018	14845
884.143	15009
884.269	15009
884.395	14830
884.52	14693
884.646	14667
884.772	14571
884.897	14503
885.023	14667
885.148	14796
885.274	14838
885.399	14743
885.524	14686
885.65	14651
885.775	14678
885.9	14739
886.025	14773
886.15	14781
886.275	14613
886.4	14537
886.525	14606
886.65	14651
886.775	14682
886.9	14769
887.025	14834
887.149	14689
887.274	14503
887.399	14499
887.523	14495
887.648	14438
887.773	14412
887.897	14678
888.021	14651
888.146	14450
888.27	14632
888.395	14587
888.519	14465
888.643	14610
888.767	14503
888.891	14545
889.015	14328
889.139	14404
889.263	14282
889.387	14526
889.511	14549
889.635	14476
889.759	14252
889.883	14381
890.006	14385
890.13	14511
890.254	14305
890.377	14332
890.501	14252
890.624	14168
890.748	14278
890.871	14103
890.995	13932
891.118	14043
891.241	14020
891.364	14172
891.488	14225
891.611	14126
891.734	14058
891.857	14149
891.98	13928
892.103	14180
892.226	14081
892.349	13932
892.471	13932
892.594	14008
892.717	14115
892.839	14073
892.962	14084
893.085	14050
893.207	14069
893.33	13909
893.452	13986
893.575	14206
893.697	14050
893.819	14259
893.941	14351
894.064	14202
894.186	14111
894.308	14073
894.43	14168
894.552	14305
894.674	14191
894.796	14054
894.918	14172
895.04	14180
895.161	14275
895.283	14202
895.405	14096
895.526	14267
895.648	14218
895.769	14153
895.891	14294
896.012	14351
896.134	14237
896.255	14286
896.376	14248
896.498	14248
896.619	14339
896.74	14233
896.861	14263
896.982	14499
897.103	14724
897.224	14564
897.345	14480
897.466	14408
897.587	14606
897.708	14541
897.828	14682
897.949	14461
898.07	14366
898.19	14514
898.311	14746
898.431	14434
898.552	14686
898.672	14731
898.792	14708
898.913	14651
899.033	14518
899.153	14446
899.273	14393
899.393	14396
899.513	14526
899.633	14450
899.753	14427
899.873	14446
899.993	14457
900.113	14343
900.232	14484
900.352	14419
900.472	14389
900.591	14263
900.711	14286
900.83	14313
900.95	14434
901.069	14514
901.189	14248
901.308	14027
901.427	14024
901.546	13947
901.665	14054
901.784	13944
901.904	13852
902.023	13780
902.141	13582
902.26	13548
902.379	13636
902.498	13578
902.617	13533
902.735	13605
902.854	13499
902.973	13457
903.091	13331
903.21	13247
903.328	13266
903.446	13225
903.565	13099
903.683	13160
903.801	13080
903.919	13164
904.038	13103
904.156	12935
904.274	12981
904.392	12909
904.51	12859
904.627	12863
904.745	12890
904.863	12935
904.981	12776
905.098	12673
905.216	12665
905.334	12627
905.451	12559
905.569	12540
905.686	12719
905.803	12642
905.921	12441
906.038	12555
906.155	12555
906.272	12327
906.389	12361
906.506	12266
906.623	12194
906.74	12220
906.857	12144
906.974	12129
907.091	12281
907.208	12365
907.324	12304
907.441	12171
907.557	12015
907.674	11946
907.79	11901
907.907	11882
908.023	12003
908.139	11996
908.256	11939
908.372	11874
908.488	11874
908.604	11851
908.72	11668
908.836	11722
908.952	11665
909.068	11805
909.184	11878
909.3	11710
909.415	11699
909.531	11722
909.647	11596
909.762	11577
909.878	11490
909.993	11535
910.108	11463
910.224	11406
910.339	11493
910.454	11395
910.57	11330
910.685	11345
910.8	11596
910.915	11543
911.03	11379
911.145	11265
911.259	11246
911.374	11227
911.489	11178
911.604	11064
911.718	11006
911.833	10915
911.947	10915
912.062	10793
912.176	11025
912.291	10930
912.405	10972
912.519	11105
912.633	11159
912.748	11094
912.862	10995
912.976	10816
913.09	10763
913.204	10869
913.318	10904
913.431	11060
913.545	11018
913.659	10934
913.772	10809
913.886	10748
914	10774
914.113	10801
914.226	10873
914.34	10820
914.453	10748
914.566	10763
914.68	10622
914.793	10618
914.906	10489
915.019	10474
915.132	10333
915.245	10409
915.358	10478
915.47	10443
915.583	10500
915.696	10481
915.809	10618
915.921	10611
916.034	10459
916.146	10402
916.259	10344
916.371	10512
916.483	10504
916.595	10337
916.708	10390
916.82	10363
916.932	10421
917.044	10409
917.156	10348
917.268	10295
917.38	10291
917.491	10284
917.603	10352
917.715	10470
917.826	10390
917.938	10291
918.049	10215
918.161	10348
918.272	10462
918.384	10405
918.495	10306
918.606	10135
918.717	10143
918.828	10169
918.939	10238
919.05	10101
919.161	10150
919.272	9945
919.383	10036
919.494	10280
919.604	10375
919.715	10261
919.826	10067
919.936	10234
920.047	10265
920.157	10207
920.267	10436
920.378	10272
920.488	10223
920.598	10390
920.708	10565
920.818	10428
920.928	10398
921.038	10546
921.148	10611
921.258	10257
921.368	10177
921.477	10071
921.587	10071
921.697	9880
921.806	10116
921.916	9941
922.025	9865
922.134	9800
922.244	9717
922.353	9846
922.462	9732
922.571	9599
922.68	9458
922.789	9397
922.898	9488
923.007	9386
923.116	9576
923.224	9450
923.333	9393
923.442	9302
923.55	9348
923.659	9435
923.767	9374
923.876	9325
923.984	9336
924.092	9241
924.201	9329
924.309	9310
924.417	9325
924.525	9230
924.633	9344
924.741	10055
924.849	9146
924.956	9211
925.064	9066
925.172	9039
925.279	9028
925.387	9138
925.494	9039
925.602	9245
925.709	9192
925.816	8963
925.924	9154
926.031	9207
926.138	9112
926.245	9138
926.352	9036
926.459	9184
926.566	9165
926.673	9085
926.779	9013
926.886	8952
926.993	8838
927.099	8834
927.206	8739
927.312	8762
927.419	8956
927.525	8853
927.631	8872
927.737	8811
927.843	8716
927.95	8689
928.056	8735
928.162	8754
928.267	8819
928.373	9367
928.479	8826
928.585	8651
928.69	8788
928.796	8796
928.901	8651
929.007	8537
929.112	8571
929.218	8655
929.323	8537
929.428	8602
929.533	8773
929.638	8499
929.743	8549
929.848	8575
929.953	8621
930.058	8454
930.163	8317
930.267	8366
930.372	8499
930.477	8351
930.581	8526
930.685	8393
930.79	8336
930.894	8252
930.998	8244
931.103	8427
931.207	8088
931.311	7989
931.415	7974
931.519	7757
931.623	7818
