Data from test_V78500241_982.txt Node
Date: Fri Mar 25 14:40:33 CST 2022
User: usil
Spectrometer: V785-0024
Trigger mode: 0
Integration Time (sec): 4.000000E-1
Scans to average: 1
Nonlinearity correction enabled: false
Boxcar width: 0
Storing dark spectrum: false
XAxis mode: Wavelengths
Number of Pixels in Spectrum: 1024
>>>>>Begin Spectral Data<<<<<
801.071	23269
801.214	23170
801.356	23018
801.499	22869
801.641	22641
801.783	22626
801.926	22672
802.068	22516
802.211	22405
802.353	22363
802.496	22185
802.638	22158
802.78	22158
802.923	22135
803.065	21930
803.208	21956
803.35	22082
803.492	22147
803.635	21991
803.777	21979
803.919	22150
804.061	22344
804.204	22150
804.346	21922
804.488	21759
804.63	21903
804.773	21819
804.915	21865
805.057	22006
805.199	21911
805.341	22074
805.483	22048
805.626	21991
805.768	21846
805.91	22010
806.052	22032
806.194	21915
806.336	22135
806.478	21987
806.62	21975
806.762	22032
806.904	22375
807.046	22584
807.188	22485
807.33	22504
807.472	22569
807.614	22542
807.756	22622
807.898	22527
808.04	22569
808.182	22634
808.324	22953
808.465	23094
808.607	23474
808.749	23942
808.891	24007
809.033	24041
809.174	23859
809.316	23490
809.458	23368
809.6	23022
809.741	23048
809.883	23029
810.025	22972
810.166	22873
810.308	22755
810.45	22797
810.591	22577
810.733	22538
810.875	22287
811.016	22253
811.158	22246
811.299	22329
811.441	22432
811.582	22276
811.724	22139
811.865	22154
812.007	22124
812.148	22101
812.29	22223
812.431	22402
812.573	22603
812.714	22710
812.855	22702
812.997	22793
813.138	22831
813.279	22774
813.421	22733
813.562	22618
813.703	22443
813.845	22447
813.986	21964
814.127	21895
814.268	21854
814.41	21804
814.551	21789
814.692	21713
814.833	21660
814.974	21720
815.115	21705
815.256	21614
815.397	21557
815.539	21500
815.68	21504
815.821	21405
815.962	21466
816.103	21344
816.244	21226
816.385	21135
816.526	21165
816.666	21077
816.807	20948
816.948	20944
817.089	20967
817.23	20895
817.371	20868
817.512	20948
817.653	20910
817.793	20792
817.934	20804
818.075	20925
818.216	20826
818.356	20724
818.497	20667
818.638	20522
818.778	20465
818.919	20511
819.06	20621
819.2	20655
819.341	20750
819.481	20746
819.622	20842
819.762	21017
819.903	20967
820.043	20830
820.184	20701
820.324	20785
820.465	20918
820.605	20830
820.746	20758
820.886	20811
821.026	20746
821.167	20800
821.307	20864
821.447	20667
821.588	20545
821.728	20396
821.868	20393
822.008	20206
822.149	20214
822.289	20138
822.429	19864
822.569	19776
822.709	19913
822.849	19753
822.99	19658
823.13	19632
823.27	19578
823.41	19525
823.55	19403
823.69	19422
823.83	19506
823.97	19460
824.11	19244
824.25	19232
824.389	19221
824.529	19301
824.669	19240
824.809	19327
824.949	19434
825.089	19320
825.228	19274
825.368	19034
825.508	18958
825.648	19027
825.787	19221
825.927	19107
826.067	19004
826.206	19012
826.346	19050
826.485	19069
826.625	19103
826.765	19209
826.904	19038
827.044	18840
827.183	18772
827.323	18719
827.462	18768
827.601	18677
827.741	18707
827.88	18764
828.02	18688
828.159	18654
828.298	18642
828.437	18669
828.577	18719
828.716	18837
828.855	18665
828.994	18460
829.134	18467
829.273	18570
829.412	18350
829.551	18429
829.69	18403
829.829	18464
829.968	18540
830.107	18551
830.246	18410
830.385	18426
830.524	18350
830.663	18330
830.802	18201
830.941	18072
831.08	18030
831.219	18163
831.357	18072
831.496	18285
831.635	18060
831.774	17889
831.913	17958
832.051	17821
832.19	17809
832.329	17832
832.467	17802
832.606	17726
832.744	17767
832.883	17771
833.022	17813
833.16	17813
833.299	17847
833.437	17760
833.576	17863
833.714	17684
833.852	17889
833.991	17824
834.129	17958
834.267	17874
834.406	17885
834.544	18026
834.682	17927
834.821	17771
834.959	17980
835.097	17817
835.235	17885
835.373	17817
835.511	17786
835.65	17649
835.788	17756
835.926	17630
836.064	17467
836.202	17581
836.34	17604
836.478	17729
836.615	17630
836.753	17661
836.891	17821
837.029	17726
837.167	17623
837.305	17634
837.443	17505
837.58	17471
837.718	17680
837.856	17520
837.993	17528
838.131	17493
838.269	17570
838.406	17353
838.544	17372
838.681	17261
838.819	17200
838.956	17025
839.094	17029
839.231	17121
839.369	17143
839.506	17505
839.643	17353
839.781	17033
839.918	17029
840.055	17159
840.193	17033
840.33	16972
840.467	17029
840.604	17075
840.742	17322
840.879	16911
841.016	16980
841.153	17014
841.29	17140
841.427	17003
841.564	17094
841.701	17094
841.838	16976
841.975	16938
842.112	16934
842.249	16774
842.385	16828
842.522	16938
842.659	16778
842.796	16816
842.933	16740
843.069	16782
843.206	16717
843.343	16820
843.479	16847
843.616	16801
843.752	16565
843.889	16691
844.025	16752
844.162	16580
844.298	16656
844.435	16675
844.571	16588
844.708	16736
844.844	16854
844.98	16904
845.117	16847
845.253	16816
845.389	16801
845.525	17014
845.661	17356
845.798	17703
845.934	18083
846.07	18270
846.206	18201
846.342	18041
846.478	17497
846.614	16938
846.75	16588
846.886	16413
847.022	16402
847.158	16234
847.294	16238
847.429	16207
847.565	16120
847.701	16390
847.837	15998
847.972	15918
848.108	16074
848.244	15880
848.379	15732
848.515	15762
848.65	15701
848.786	15701
848.921	15774
849.057	15934
849.192	15884
849.328	15823
849.463	15686
849.598	15709
849.734	15580
849.869	15599
850.004	15492
850.14	15549
850.275	15576
850.41	15370
850.545	15363
850.68	15477
850.815	15435
850.95	15564
851.085	15629
851.22	15496
851.355	15458
851.49	15496
851.625	15488
851.76	15458
851.895	15424
852.03	15443
852.165	15488
852.299	15485
852.434	15549
852.569	15511
852.703	15507
852.838	15610
852.973	15682
853.107	15625
853.242	15443
853.376	15359
853.511	15188
853.645	15351
853.78	15492
853.914	15332
854.048	15275
854.183	15256
854.317	15306
854.451	15553
854.585	15370
854.72	15313
854.854	15378
854.988	15272
855.122	15348
855.256	15146
855.39	15332
855.524	15462
855.658	15321
855.792	15428
855.926	15431
856.06	15511
856.194	15450
856.327	15359
856.461	15264
856.595	15241
856.729	15367
856.862	15462
856.996	15344
857.13	15351
857.263	15443
857.397	15454
857.53	15317
857.664	15469
857.797	15344
857.931	15439
858.064	15416
858.197	15397
858.331	15435
858.464	15275
858.597	15093
858.731	15245
858.864	15329
858.997	15252
859.13	15382
859.263	15363
859.396	15450
859.529	15348
859.662	15233
859.795	15283
859.928	15389
860.061	15431
860.194	15549
860.327	15348
860.46	15233
860.592	15420
860.725	15416
860.858	15405
860.99	15241
861.123	15367
861.256	15359
861.388	15370
861.521	15930
861.653	15108
861.786	15173
861.918	15192
862.05	15268
862.183	15218
862.315	15370
862.447	15389
862.58	15374
862.712	15108
862.844	15039
862.976	15161
863.108	15062
863.24	15591
863.372	15013
863.504	15058
863.636	15146
863.768	15051
863.9	15150
864.032	14979
864.164	15074
864.296	15150
864.428	15146
864.559	15195
864.691	15138
864.823	15161
864.954	15127
865.086	15184
865.217	15051
865.349	14986
865.48	14967
865.612	15051
865.743	15176
865.875	15093
866.006	15036
866.137	15123
866.269	15081
866.4	15020
866.531	15032
866.662	14929
866.793	14963
866.924	15066
867.055	15013
867.186	15036
867.317	15062
867.448	14910
867.579	14975
867.71	14967
867.841	15062
867.972	14925
868.103	15043
868.233	15058
868.364	15062
868.495	15093
868.625	15226
868.756	15435
868.886	15226
869.017	15272
869.147	15401
869.278	15439
869.408	15317
869.539	15370
869.669	15405
869.799	15283
869.929	15412
870.06	15420
870.19	15591
870.32	15572
870.45	15701
870.58	15663
870.71	15857
870.84	15766
870.97	15648
871.1	15739
871.23	15797
871.36	15934
871.489	15751
871.619	15797
871.749	15842
871.879	15922
872.008	16010
872.138	15956
872.267	15892
872.397	15808
872.526	15762
872.656	15789
872.785	15797
872.915	16029
873.044	16040
873.173	15865
873.303	16017
873.432	16055
873.561	16025
873.69	15895
873.819	15945
873.948	16017
874.077	15926
874.206	15979
874.335	15956
874.464	16166
874.593	16211
874.722	16246
874.851	16322
874.979	16341
875.108	16329
875.237	16253
875.365	16253
875.494	16272
875.623	16436
875.751	16238
875.88	16360
876.008	16497
876.136	16443
876.265	16721
876.393	16866
876.521	16755
876.65	16831
876.778	16736
876.906	16763
877.034	16744
877.162	16660
877.29	16660
877.418	16736
877.546	16725
877.674	16710
877.802	16767
877.93	16824
878.058	16721
878.185	16744
878.313	16820
878.441	16858
878.568	16694
878.696	16869
878.824	16953
878.951	17075
879.079	17326
879.206	17566
879.333	17619
879.461	17570
879.588	17805
879.715	17748
879.842	17817
879.97	17528
880.097	17174
880.224	16908
880.351	17010
880.478	16953
880.605	16843
880.732	16858
880.859	16957
880.986	16797
881.112	16759
881.239	16660
881.366	16538
881.493	16333
881.619	16360
881.746	16333
881.872	16382
881.999	16314
882.125	16402
882.252	16497
882.378	16421
882.505	16546
882.631	16356
882.757	16158
882.883	16268
883.01	16265
883.136	16188
883.262	16135
883.388	16006
883.514	16295
883.64	16344
883.766	16238
883.892	16090
884.018	16059
884.143	16219
884.269	16230
884.395	16006
884.52	15926
884.646	15979
884.772	15793
884.897	15819
885.023	15937
885.148	15994
885.274	16074
885.399	15991
885.524	15915
885.65	15880
885.775	15869
885.9	15873
886.025	15972
886.15	15915
886.275	15854
886.4	15793
886.525	15861
886.65	15747
886.775	15732
886.9	15915
887.025	16120
887.149	15759
887.274	15660
887.399	15564
887.523	15667
887.648	15488
887.773	15473
887.897	15728
888.021	15736
888.146	15564
888.27	15629
888.395	15751
888.519	15728
888.643	15720
888.767	15648
888.891	15526
889.015	15443
889.139	15526
889.263	15329
889.387	15450
889.511	15690
889.635	15538
889.759	15355
889.883	15397
890.006	15408
890.13	15561
890.254	15260
890.377	15393
890.501	15211
890.624	15283
890.748	15192
890.871	15135
890.995	15013
891.118	14804
891.241	15024
891.364	15020
891.488	15176
891.611	15077
891.734	14998
891.857	15275
891.98	15074
892.103	15047
892.226	15036
892.349	15051
892.471	14956
892.594	15036
892.717	15066
892.839	15062
892.962	15058
893.085	15104
893.207	15017
893.33	14883
893.452	14956
893.575	15138
893.697	14994
893.819	15233
893.941	15222
894.064	15146
894.186	14963
894.308	14929
894.43	15233
894.552	15146
894.674	15077
894.796	15081
894.918	15043
895.04	15127
895.161	15138
895.283	15127
895.405	14937
895.526	15024
895.648	15138
895.769	15131
895.891	15135
896.012	15154
896.134	15249
896.255	15211
896.376	15138
896.498	15165
896.619	15241
896.74	15165
896.861	15157
896.982	15408
897.103	15698
897.224	15469
897.345	15443
897.466	15287
897.587	15401
897.708	15507
897.828	15450
897.949	15420
898.07	15233
898.19	15374
898.311	15568
898.431	15443
898.552	15511
898.672	15633
898.792	15557
898.913	15698
899.033	15412
899.153	15450
899.273	15237
899.393	15230
899.513	15450
899.633	15359
899.753	15397
899.873	15279
899.993	15374
900.113	15485
900.232	15386
900.352	15389
900.472	15203
900.591	15180
900.711	15214
900.83	15222
900.95	15272
901.069	15344
901.189	15199
901.308	15005
901.427	14853
901.546	14914
901.665	14986
901.784	14929
901.904	14823
902.023	14632
902.141	14457
902.26	14412
902.379	14560
902.498	14396
902.617	14385
902.735	14492
902.854	14431
902.973	14438
903.091	14142
903.21	14183
903.328	14050
903.446	14054
903.565	13925
903.683	13963
903.801	13799
903.919	13944
904.038	13928
904.156	13731
904.274	13883
904.392	13780
904.51	13704
904.627	13712
904.745	13875
904.863	13765
904.981	13529
905.098	13407
905.216	13419
905.334	13468
905.451	13514
905.569	13415
905.686	13445
905.803	13426
905.921	13263
906.038	13297
906.155	13293
906.272	13160
906.389	13217
906.506	13149
906.623	13050
906.74	12916
906.857	12913
906.974	12935
907.091	13095
907.208	13126
907.324	13031
907.441	12939
907.557	12760
907.674	12779
907.79	12696
907.907	12776
908.023	12757
908.139	12700
908.256	12707
908.372	12593
908.488	12635
908.604	12547
908.72	12563
908.836	12403
908.952	12464
909.068	12509
909.184	12559
909.3	12494
909.415	12517
909.531	12479
909.647	12342
909.762	12239
909.878	12270
909.993	12228
910.108	12194
910.224	12148
910.339	12296
910.454	12136
910.57	12060
910.685	12117
910.8	12315
910.915	12254
911.03	12129
911.145	11920
911.259	11961
911.374	11992
911.489	11824
911.604	11866
911.718	11707
911.833	11729
911.947	11585
912.062	11482
912.176	11767
912.291	11657
912.405	11573
912.519	11821
912.633	11802
912.748	11809
912.862	11634
912.976	11627
913.09	11410
913.204	11452
913.318	11608
913.431	11554
913.545	11558
913.659	11623
913.772	11573
913.886	11330
914	11429
914.113	11482
914.226	11417
914.34	11429
914.453	11318
914.566	11547
914.68	11345
914.793	11258
914.906	11170
915.019	11102
915.132	11105
915.245	11155
915.358	11174
915.47	11223
915.583	11121
915.696	11124
915.809	11227
915.921	11261
916.034	11109
916.146	11060
916.259	11048
916.371	11140
916.483	11098
916.595	11045
916.708	11105
916.82	11105
916.932	11086
917.044	11056
917.156	11029
917.268	10999
917.38	10915
917.491	10923
917.603	11014
917.715	11022
917.826	11025
917.938	10984
918.049	10801
918.161	10896
918.272	11098
918.384	11136
918.495	10946
918.606	10877
918.717	10729
918.828	10801
918.939	10949
919.05	10733
919.161	10763
919.272	10618
919.383	10672
919.494	10911
919.604	11010
919.715	10843
919.826	10714
919.936	10744
920.047	10820
920.157	10790
920.267	11033
920.378	10919
920.488	10824
920.598	11071
920.708	11193
920.818	11056
920.928	11014
921.038	11132
921.148	11197
921.258	10843
921.368	10729
921.477	10675
921.587	10630
921.697	10577
921.806	10664
921.916	10558
922.025	10325
922.134	10306
922.244	10238
922.353	10409
922.462	10234
922.571	10188
922.68	10071
922.789	10032
922.898	10006
923.007	9960
923.116	10021
923.224	10032
923.333	9934
923.442	9968
923.55	9892
923.659	9922
923.767	9972
923.876	9915
923.984	9945
924.092	9812
924.201	9895
924.309	9827
924.417	9941
924.525	9854
924.633	9819
924.741	10774
924.849	9618
924.956	9762
925.064	9656
925.172	9576
925.279	9698
925.387	9644
925.494	9637
925.602	9797
925.709	9740
925.816	9572
925.924	9682
926.031	9740
926.138	9675
926.245	9660
926.352	9580
926.459	9736
926.566	9762
926.673	9599
926.779	9538
926.886	9507
926.993	9420
927.099	9355
927.206	9389
927.312	9272
927.419	9363
927.525	9336
927.631	9401
927.737	9287
927.843	9256
927.95	9169
928.056	9211
928.162	9218
928.267	9321
928.373	9778
928.479	9348
928.585	9104
928.69	9211
928.796	9256
928.901	9127
929.007	9024
929.112	9169
929.218	9142
929.323	9036
929.428	9100
929.533	9233
929.638	8937
929.743	8963
929.848	9051
929.953	9058
930.058	8967
930.163	8746
930.267	8800
930.372	8883
930.477	8716
930.581	8982
930.685	8876
930.79	8754
930.894	8773
930.998	8758
931.103	8944
931.207	8507
931.311	8427
931.415	8438
931.519	8214
931.623	8218
