Data from test_V78500241_2608.txt Node
Date: Fri Mar 25 14:51:52 CST 2022
User: usil
Spectrometer: V785-0024
Trigger mode: 0
Integration Time (sec): 4.000000E-1
Scans to average: 1
Nonlinearity correction enabled: false
Boxcar width: 0
Storing dark spectrum: false
XAxis mode: Wavelengths
Number of Pixels in Spectrum: 1024
>>>>>Begin Spectral Data<<<<<
801.071	22112
801.214	21759
801.356	21564
801.499	21591
801.641	21435
801.783	21420
801.926	21389
802.068	21256
802.211	21260
802.353	21218
802.496	20948
802.638	20853
802.78	20883
802.923	20754
803.065	20697
803.208	20701
803.35	20754
803.492	20872
803.635	20823
803.777	20746
803.919	20769
804.061	21104
804.204	20651
804.346	20636
804.488	20549
804.63	20678
804.773	20499
804.915	20499
805.057	20705
805.199	20552
805.341	20735
805.483	20674
805.626	20769
805.768	20587
805.91	20693
806.052	20724
806.194	20495
806.336	20686
806.478	20575
806.62	20556
806.762	20644
806.904	20872
807.046	20963
807.188	21001
807.33	20982
807.472	20994
807.614	20819
807.756	20678
807.898	20697
808.04	20735
808.182	20640
808.324	20701
808.465	20686
808.607	20804
808.749	20982
808.891	21036
809.033	21161
809.174	21058
809.316	20990
809.458	20963
809.6	20918
809.741	21020
809.883	21112
810.025	21032
810.166	21055
810.308	21161
810.45	20994
810.591	20918
810.733	20902
810.875	20720
811.016	20579
811.158	20503
811.299	20807
811.441	20834
811.582	20861
811.724	20746
811.865	20590
812.007	20697
812.148	20648
812.29	20811
812.431	20906
812.573	21188
812.714	21157
812.855	21207
812.997	21279
813.138	21488
813.279	21359
813.421	21146
813.562	21127
813.703	21085
813.845	20933
813.986	20636
814.127	20381
814.268	20415
814.41	20332
814.551	20328
814.692	20362
814.833	20233
814.974	20221
815.115	20267
815.256	20240
815.397	20183
815.539	20153
815.68	19909
815.821	19921
815.962	19955
816.103	20012
816.244	19951
816.385	19723
816.526	19750
816.666	19628
816.807	19552
816.948	19533
817.089	19533
817.23	19480
817.371	19339
817.512	19430
817.653	19422
817.793	19354
817.934	19422
818.075	19422
818.216	19381
818.356	19346
818.497	19183
818.638	19000
818.778	19065
818.919	19008
819.06	19084
819.2	19179
819.341	19228
819.481	19327
819.622	19499
819.762	19533
819.903	19639
820.043	19510
820.184	19544
820.324	19388
820.465	19472
820.605	19365
820.746	19388
820.886	19270
821.026	19293
821.167	19400
821.307	19365
821.447	19304
821.588	19259
821.728	19088
821.868	18913
822.008	18848
822.149	18852
822.289	18867
822.429	18570
822.569	18452
822.709	18547
822.849	18388
822.99	18209
823.13	18391
823.27	18209
823.41	18167
823.55	18163
823.69	18121
823.83	18186
823.97	17996
824.11	17897
824.25	17847
824.389	17969
824.529	17977
824.669	17942
824.809	17908
824.949	17916
825.089	17961
825.228	17961
825.368	17767
825.508	17672
825.648	17661
825.787	17646
825.927	17779
826.067	17562
826.206	17638
826.346	17649
826.485	17600
826.625	17604
826.765	17790
826.904	17596
827.044	17444
827.183	17482
827.323	17444
827.462	17417
827.601	17395
827.741	17299
827.88	17376
828.02	17280
828.159	17436
828.298	17349
828.437	17341
828.577	17391
828.716	17505
828.855	17334
828.994	17090
829.134	17174
829.273	17170
829.412	16972
829.551	17090
829.69	17071
829.829	16995
829.968	17223
830.107	17147
830.246	17162
830.385	17166
830.524	16949
830.663	16915
830.802	16911
830.941	16763
831.08	16782
831.219	16923
831.357	16771
831.496	17003
831.635	16763
831.774	16641
831.913	16618
832.051	16569
832.19	16462
832.329	16596
832.467	16500
832.606	16428
832.744	16382
832.883	16550
833.022	16402
833.16	16516
833.299	16500
833.437	16508
833.576	16466
833.714	16527
833.852	16637
833.991	16569
834.129	16580
834.267	16615
834.406	16531
834.544	16546
834.682	16497
834.821	16428
834.959	16683
835.097	16504
835.235	16626
835.373	16561
835.511	16489
835.65	16405
835.788	16500
835.926	16333
836.064	16249
836.202	16276
836.34	16451
836.478	16485
836.615	16382
836.753	16443
836.891	16516
837.029	16546
837.167	16455
837.305	16417
837.443	16432
837.58	16310
837.718	16333
837.856	16280
837.993	16234
838.131	16306
838.269	16295
838.406	16341
838.544	16215
838.681	16078
838.819	16048
838.956	15930
839.094	15766
839.231	15987
839.369	16025
839.506	16234
839.643	16078
839.781	15892
839.918	15785
840.055	15991
840.193	15873
840.33	15800
840.467	15873
840.604	15869
840.742	16093
840.879	15739
841.016	15766
841.153	15717
841.29	15953
841.427	15835
841.564	15903
841.701	15911
841.838	15793
841.975	15781
842.112	15781
842.249	15675
842.385	15599
842.522	15892
842.659	15679
842.796	15622
842.933	15572
843.069	15610
843.206	15538
843.343	15667
843.479	15736
843.616	15709
843.752	15389
843.889	15416
844.025	15732
844.162	15386
844.298	15450
844.435	15408
844.571	15306
844.708	15447
844.844	15584
844.98	15610
845.117	15561
845.253	15420
845.389	15348
845.525	15344
845.661	15230
845.798	15176
845.934	15260
846.07	15108
846.206	15275
846.342	15252
846.478	15184
846.614	15020
846.75	14910
846.886	14880
847.022	15089
847.158	14971
847.294	14929
847.429	15058
847.565	15017
847.701	15332
847.837	14697
847.972	14716
848.108	14811
848.244	14739
848.379	14682
848.515	14625
848.65	14556
848.786	14556
848.921	14651
849.057	14678
849.192	14724
849.328	14610
849.463	14659
849.598	14545
849.734	14587
849.869	14381
850.004	14419
850.14	14389
850.275	14362
850.41	14256
850.545	14389
850.68	14301
850.815	14476
850.95	14320
851.085	14511
851.22	14537
851.355	14328
851.49	14320
851.625	14332
851.76	14324
851.895	14244
852.03	14191
852.165	14278
852.299	14400
852.434	14419
852.569	14358
852.703	14351
852.838	14423
852.973	14556
853.107	14511
853.242	14408
853.376	14202
853.511	14077
853.645	14134
853.78	14370
853.914	14191
854.048	14324
854.183	14130
854.317	14195
854.451	14362
854.585	14229
854.72	14237
854.854	14320
854.988	14149
855.122	14225
855.256	14039
855.39	14259
855.524	14237
855.658	14362
855.792	14446
855.926	14275
856.06	14275
856.194	14343
856.327	14267
856.461	14221
856.595	14275
856.729	14183
856.862	14377
856.996	14256
857.13	14263
857.263	14347
857.397	14355
857.53	14355
857.664	14294
857.797	14377
857.931	14374
858.064	14199
858.197	14256
858.331	14195
858.464	14142
858.597	14050
858.731	14256
858.864	14339
858.997	14225
859.13	14294
859.263	14233
859.396	14229
859.529	14206
859.662	14183
859.795	14138
859.928	14202
860.061	14396
860.194	14404
860.327	14286
860.46	14195
860.592	14313
860.725	14457
860.858	14366
860.99	14267
861.123	14195
861.256	14180
861.388	14229
861.521	14773
861.653	14115
861.786	14031
861.918	14096
862.05	14100
862.183	14218
862.315	14256
862.447	14210
862.58	14191
862.712	14050
862.844	13909
862.976	14043
863.108	14149
863.24	14461
863.372	13955
863.504	14035
863.636	14016
863.768	14107
863.9	14065
864.032	13986
864.164	14039
864.296	14050
864.428	14206
864.559	14073
864.691	14218
864.823	14107
864.954	14103
865.086	14054
865.217	14081
865.349	13909
865.48	13898
865.612	14081
865.743	14138
865.875	14035
866.006	14069
866.137	14054
866.269	13951
866.4	14077
866.531	13951
866.662	13986
866.793	13902
866.924	13974
867.055	14012
867.186	13997
867.317	13959
867.448	13879
867.579	13898
867.71	13860
867.841	13925
867.972	14043
868.103	14062
868.233	13921
868.364	13989
868.495	14054
868.625	14107
868.756	14298
868.886	14172
869.017	14256
869.147	14412
869.278	14374
869.408	14126
869.539	14134
869.669	14282
869.799	14271
869.929	14438
870.06	14362
870.19	14476
870.32	14575
870.45	14648
870.58	14651
870.71	14750
870.84	14632
870.97	14549
871.1	14606
871.23	14902
871.36	14887
871.489	14735
871.619	14883
871.749	14834
871.879	14887
872.008	15005
872.138	14861
872.267	14864
872.397	14724
872.526	14583
872.656	14678
872.785	14632
872.915	14914
873.044	14982
873.173	14925
873.303	14944
873.432	14933
873.561	15039
873.69	14971
873.819	14925
873.948	14960
874.077	14910
874.206	14902
874.335	14933
874.464	15173
874.593	15245
874.722	15093
874.851	15195
874.979	15344
875.108	15310
875.237	15173
875.365	15150
875.494	15184
875.623	15173
875.751	15218
875.88	15218
876.008	15329
876.136	15439
876.265	15587
876.393	15854
876.521	15736
876.65	15728
876.778	15751
876.906	15603
877.034	15557
877.162	15637
877.29	15553
877.418	15698
877.546	15545
877.674	15606
877.802	15610
877.93	15633
878.058	15580
878.185	15416
878.313	15580
878.441	15675
878.568	15519
878.696	15469
878.824	15732
878.951	15724
879.079	15831
879.206	15907
879.333	15781
879.461	15660
879.588	15755
879.715	15793
879.842	15846
879.97	15694
880.097	15507
880.224	15488
880.351	15428
880.478	15473
880.605	15515
880.732	15485
880.859	15747
880.986	15485
881.112	15454
881.239	15310
881.366	15317
881.493	15252
881.619	15047
881.746	15119
881.872	15176
881.999	15131
882.125	15081
882.252	15176
882.378	15237
882.505	15348
882.631	15180
882.757	14925
882.883	14990
883.01	14880
883.136	14986
883.262	14731
883.388	14800
883.514	15005
883.64	15066
883.766	14853
883.892	14773
884.018	14845
884.143	14963
884.269	15013
884.395	14750
884.52	14590
884.646	14785
884.772	14568
884.897	14602
885.023	14693
885.148	14727
885.274	14876
885.399	14746
885.524	14613
885.65	14590
885.775	14727
885.9	14632
886.025	14823
886.15	14632
886.275	14575
886.4	14556
886.525	14610
886.65	14648
886.775	14575
886.9	14807
887.025	14891
887.149	14610
887.274	14488
887.399	14526
887.523	14427
887.648	14419
887.773	14389
887.897	14568
888.021	14556
888.146	14514
888.27	14511
888.395	14689
888.519	14473
888.643	14602
888.767	14564
888.891	14408
889.015	14317
889.139	14347
889.263	14415
889.387	14423
889.511	14556
889.635	14568
889.759	14309
889.883	14328
890.006	14415
890.13	14484
890.254	14214
890.377	14351
890.501	14202
890.624	14100
890.748	14252
890.871	14058
890.995	14092
891.118	13890
891.241	14103
891.364	14103
891.488	14157
891.611	14027
891.734	13921
891.857	14123
891.98	14058
892.103	14062
892.226	14050
892.349	13997
892.471	13803
892.594	14024
892.717	14153
892.839	14062
892.962	14050
893.085	14088
893.207	14020
893.33	13906
893.452	13959
893.575	14073
893.697	14027
893.819	14168
893.941	14263
894.064	14218
894.186	14077
894.308	13947
894.43	14176
894.552	14221
894.674	14267
894.796	14008
894.918	14248
895.04	14062
895.161	14275
895.283	14172
895.405	14107
895.526	14153
895.648	14164
895.769	14195
895.891	14172
896.012	14244
896.134	14294
896.255	14138
896.376	14229
896.498	14233
896.619	14183
896.74	14240
896.861	14271
896.982	14473
897.103	14830
897.224	14454
897.345	14465
897.466	14427
897.587	14473
897.708	14594
897.828	14564
897.949	14480
898.07	14351
898.19	14423
898.311	14625
898.431	14442
898.552	14549
898.672	14667
898.792	14716
898.913	14549
899.033	14579
899.153	14362
899.273	14362
899.393	14347
899.513	14393
899.633	14412
899.753	14503
899.873	14347
899.993	14412
900.113	14385
900.232	14419
900.352	14423
900.472	14328
900.591	14267
900.711	14370
900.83	14218
900.95	14347
901.069	14419
901.189	14271
901.308	14054
901.427	13959
901.546	13993
901.665	13925
901.784	13982
901.904	13772
902.023	13826
902.141	13750
902.26	13552
902.379	13601
902.498	13487
902.617	13449
902.735	13499
902.854	13502
902.973	13510
903.091	13228
903.21	13209
903.328	13217
903.446	13156
903.565	13179
903.683	13110
903.801	13015
903.919	13126
904.038	13084
904.156	12962
904.274	13012
904.392	12882
904.51	12977
904.627	12947
904.745	12962
904.863	13034
904.981	12658
905.098	12597
905.216	12639
905.334	12646
905.451	12612
905.569	12566
905.686	12616
905.803	12677
905.921	12486
906.038	12612
906.155	12388
906.272	12441
906.389	12414
906.506	12205
906.623	12194
906.74	12182
906.857	12034
906.974	12129
907.091	12289
907.208	12380
907.324	12220
907.441	12110
907.557	12034
907.674	11923
907.79	11798
907.907	11996
908.023	12045
908.139	11999
908.256	11863
908.372	11935
908.488	11885
908.604	11703
908.72	11680
908.836	11665
908.952	11767
909.068	11718
909.184	11805
909.3	11771
909.415	11771
909.531	11634
909.647	11566
909.762	11467
909.878	11448
909.993	11528
910.108	11524
910.224	11414
910.339	11452
910.454	11349
910.57	11318
910.685	11261
910.8	11501
910.915	11459
911.03	11376
911.145	11193
911.259	11132
911.374	11204
911.489	11128
911.604	11079
911.718	10995
911.833	10946
911.947	10862
912.062	10767
912.176	10881
912.291	10984
912.405	10938
912.519	11197
912.633	11178
912.748	10995
912.862	10953
912.976	10790
913.09	10740
913.204	10843
913.318	10812
913.431	10847
913.545	10930
913.659	10892
913.772	10793
913.886	10755
914	10618
914.113	10744
914.226	10809
914.34	10782
914.453	10561
914.566	10793
914.68	10691
914.793	10504
914.906	10443
915.019	10417
915.132	10360
915.245	10497
915.358	10561
915.47	10493
915.583	10390
915.696	10440
915.809	10554
915.921	10588
916.034	10424
916.146	10432
916.259	10432
916.371	10478
916.483	10478
916.595	10322
916.708	10314
916.82	10333
916.932	10367
917.044	10329
917.156	10371
917.268	10257
917.38	10329
917.491	10223
917.603	10238
917.715	10417
917.826	10417
917.938	10299
918.049	10185
918.161	10272
918.272	10470
918.384	10367
918.495	10333
918.606	10185
918.717	10044
918.828	10223
918.939	10147
919.05	10071
919.161	10147
919.272	9884
919.383	10067
919.494	10219
919.604	10405
919.715	10223
919.826	10128
919.936	10173
920.047	10291
920.157	10185
920.267	10386
920.378	10291
920.488	10177
920.598	10470
920.708	10558
920.818	10382
920.928	10375
921.038	10561
921.148	10500
921.258	10249
921.368	10204
921.477	10032
921.587	9960
921.697	9861
921.806	10048
921.916	9979
922.025	9816
922.134	9778
922.244	9713
922.353	9732
922.462	9629
922.571	9622
922.68	9439
922.789	9439
922.898	9466
923.007	9401
923.116	9492
923.224	9401
923.333	9458
923.442	9294
923.55	9329
923.659	9294
923.767	9344
923.876	9256
923.984	9370
924.092	9321
924.201	9355
924.309	9298
924.417	9279
924.525	9195
924.633	9272
924.741	10036
924.849	9077
924.956	9264
925.064	9062
925.172	8994
925.279	9032
925.387	9104
925.494	9127
925.602	9214
925.709	9146
925.816	8998
925.924	9146
926.031	9173
926.138	9017
926.245	9116
926.352	9077
926.459	9218
926.566	9203
926.673	9036
926.779	8967
926.886	9001
926.993	8838
927.099	8811
927.206	8750
927.312	8712
927.419	8811
927.525	8853
927.631	8857
927.737	8750
927.843	8716
927.95	8686
928.056	8807
928.162	8659
928.267	8773
928.373	9374
928.479	8754
928.585	8530
928.69	8716
928.796	8674
928.901	8640
929.007	8488
929.112	8659
929.218	8644
929.323	8564
929.428	8530
929.533	8697
929.638	8473
929.743	8442
929.848	8545
929.953	8522
930.058	8457
930.163	8267
930.267	8271
930.372	8442
930.477	8279
930.581	8450
930.685	8415
930.79	8259
930.894	8248
930.998	8221
931.103	8366
931.207	8054
931.311	7978
931.415	7913
931.519	7807
931.623	7708
