Data from test_V78500241_1848.txt Node
Date: Fri Mar 25 14:46:34 CST 2022
User: usil
Spectrometer: V785-0024
Trigger mode: 0
Integration Time (sec): 4.000000E-1
Scans to average: 1
Nonlinearity correction enabled: false
Boxcar width: 0
Storing dark spectrum: false
XAxis mode: Wavelengths
Number of Pixels in Spectrum: 1024
>>>>>Begin Spectral Data<<<<<
801.071	22207
801.214	22032
801.356	21743
801.499	21644
801.641	21450
801.783	21564
801.926	21561
802.068	21450
802.211	21310
802.353	21245
802.496	21222
802.638	21024
802.78	21020
802.923	20925
803.065	20815
803.208	20826
803.35	20906
803.492	20861
803.635	20994
803.777	20815
803.919	21001
804.061	21173
804.204	20807
804.346	20731
804.488	20804
804.63	20853
804.773	20678
804.915	20861
805.057	20815
805.199	20804
805.341	20765
805.483	20849
805.626	20895
805.768	20625
805.91	20845
806.052	20712
806.194	20773
806.336	20956
806.478	20750
806.62	20724
806.762	20834
806.904	20941
807.046	21165
807.188	21070
807.33	21066
807.472	21161
807.614	21039
807.756	20895
807.898	20853
808.04	20815
808.182	20667
808.324	20807
808.465	20899
808.607	21127
808.749	21108
808.891	21180
809.033	21412
809.174	21135
809.316	21085
809.458	21203
809.6	21047
809.741	21207
809.883	21157
810.025	21313
810.166	21408
810.308	21306
810.45	21291
810.591	21165
810.733	21104
810.875	20933
811.016	20823
811.158	20746
811.299	20941
811.441	21100
811.582	21123
811.724	20956
811.865	20811
812.007	20902
812.148	20929
812.29	20887
812.431	21047
812.573	21306
812.714	21287
812.855	21275
812.997	21397
813.138	21583
813.279	21511
813.421	21443
813.562	21310
813.703	21275
813.845	21131
813.986	20883
814.127	20621
814.268	20396
814.41	20427
814.551	20381
814.692	20423
814.833	20313
814.974	20290
815.115	20465
815.256	20317
815.397	20298
815.539	20282
815.68	20229
815.821	20218
815.962	20199
816.103	20142
816.244	20001
816.385	19868
816.526	19925
816.666	19769
816.807	19655
816.948	19689
817.089	19742
817.23	19689
817.371	19514
817.512	19616
817.653	19559
817.793	19521
817.934	19571
818.075	19544
818.216	19487
818.356	19445
818.497	19510
818.638	19217
818.778	19335
818.919	19270
819.06	19343
819.2	19521
819.341	19559
819.481	19544
819.622	19499
819.762	19902
819.903	19715
820.043	19662
820.184	19609
820.324	19620
820.465	19563
820.605	19590
820.746	19441
820.886	19419
821.026	19502
821.167	19487
821.307	19670
821.447	19544
821.588	19422
821.728	19240
821.868	19122
822.008	18909
822.149	19000
822.289	19038
822.429	18665
822.569	18677
822.709	18639
822.849	18490
822.99	18486
823.13	18570
823.27	18410
823.41	18342
823.55	18178
823.69	18213
823.83	18330
823.97	18213
824.11	17958
824.25	17954
824.389	18106
824.529	18117
824.669	18102
824.809	18197
824.949	18171
825.089	18213
825.228	18060
825.368	17931
825.508	17889
825.648	17977
825.787	17916
825.927	17939
826.067	17783
826.206	17832
826.346	17904
826.485	17863
826.625	17912
826.765	17939
826.904	17805
827.044	17547
827.183	17501
827.323	17596
827.462	17490
827.601	17615
827.741	17520
827.88	17551
828.02	17486
828.159	17455
828.298	17478
828.437	17512
828.577	17452
828.716	17592
828.855	17452
828.994	17193
829.134	17356
829.273	17265
829.412	17204
829.551	17212
829.69	17197
829.829	17277
829.968	17376
830.107	17242
830.246	17277
830.385	17231
830.524	17170
830.663	17117
830.802	17060
830.941	16942
831.08	16828
831.219	17033
831.357	16938
831.496	17079
831.635	16869
831.774	16748
831.913	16668
832.051	16664
832.19	16653
832.329	16668
832.467	16615
832.606	16592
832.744	16580
832.883	16565
833.022	16615
833.16	16630
833.299	16725
833.437	16622
833.576	16592
833.714	16656
833.852	16599
833.991	16729
834.129	16679
834.267	16736
834.406	16645
834.544	16740
834.682	16561
834.821	16561
834.959	16706
835.097	16664
835.235	16649
835.373	16660
835.511	16790
835.65	16516
835.788	16508
835.926	16432
836.064	16436
836.202	16405
836.34	16588
836.478	16611
836.615	16531
836.753	16599
836.891	16698
837.029	16550
837.167	16466
837.305	16523
837.443	16478
837.58	16341
837.718	16478
837.856	16398
837.993	16398
838.131	16379
838.269	16337
838.406	16337
838.544	16299
838.681	16200
838.819	16097
838.956	16006
839.094	15994
839.231	16013
839.369	16181
839.506	16303
839.643	16390
839.781	16032
839.918	15983
840.055	15956
840.193	16044
840.33	15953
840.467	15983
840.604	15968
840.742	16173
840.879	15880
841.016	15888
841.153	15918
841.29	16040
841.427	15972
841.564	15956
841.701	16059
841.838	15964
841.975	15964
842.112	15930
842.249	15694
842.385	15644
842.522	15987
842.659	15774
842.796	15869
842.933	15743
843.069	15709
843.206	15736
843.343	15778
843.479	15751
843.616	15842
843.752	15603
843.889	15526
844.025	15679
844.162	15549
844.298	15671
844.435	15603
844.571	15538
844.708	15747
844.844	15743
844.98	15675
845.117	15671
845.253	15469
845.389	15408
845.525	15568
845.661	15431
845.798	15264
845.934	15466
846.07	15249
846.206	15329
846.342	15443
846.478	15283
846.614	15116
846.75	15039
846.886	15001
847.022	15161
847.158	15070
847.294	15184
847.429	15058
847.565	15066
847.701	15275
847.837	14834
847.972	14815
848.108	14944
848.244	15005
848.379	14754
848.515	14720
848.65	14667
848.786	14826
848.921	14739
849.057	14937
849.192	14735
849.328	14777
849.463	14697
849.598	14807
849.734	14659
849.869	14549
850.004	14476
850.14	14552
850.275	14522
850.41	14454
850.545	14415
850.68	14438
850.815	14560
850.95	14495
851.085	14625
851.22	14583
851.355	14419
851.49	14480
851.625	14355
851.76	14518
851.895	14423
852.03	14393
852.165	14575
852.299	14522
852.434	14503
852.569	14374
852.703	14450
852.838	14545
852.973	14632
853.107	14560
853.242	14385
853.376	14446
853.511	14351
853.645	14225
853.78	14552
853.914	14309
854.048	14305
854.183	14309
854.317	14339
854.451	14469
854.585	14427
854.72	14336
854.854	14469
854.988	14252
855.122	14419
855.256	14244
855.39	14298
855.524	14446
855.658	14366
855.792	14389
855.926	14450
856.06	14374
856.194	14393
856.327	14309
856.461	14248
856.595	14275
856.729	14290
856.862	14389
856.996	14366
857.13	14427
857.263	14362
857.397	14560
857.53	14328
857.664	14476
857.797	14469
857.931	14446
858.064	14419
858.197	14454
858.331	14358
858.464	14328
858.597	14210
858.731	14347
858.864	14415
858.997	14381
859.13	14351
859.263	14351
859.396	14396
859.529	14347
859.662	14290
859.795	14278
859.928	14336
860.061	14446
860.194	14484
860.327	14404
860.46	14389
860.592	14438
860.725	14537
860.858	14507
860.99	14256
861.123	14290
861.256	14374
861.388	14393
861.521	14990
861.653	14301
861.786	14244
861.918	14168
862.05	14267
862.183	14309
862.315	14275
862.447	14469
862.58	14324
862.712	14073
862.844	14103
862.976	14199
863.108	14119
863.24	14404
863.372	14084
863.504	14096
863.636	14107
863.768	14210
863.9	14134
864.032	14149
864.164	14111
864.296	14164
864.428	14164
864.559	14195
864.691	14214
864.823	14240
864.954	14077
865.086	14248
865.217	14054
865.349	14180
865.48	14214
865.612	14145
865.743	14275
865.875	14027
866.006	14039
866.137	14115
866.269	14191
866.4	14168
866.531	14069
866.662	14031
866.793	14008
866.924	14039
867.055	14126
867.186	14164
867.317	14001
867.448	14046
867.579	14035
867.71	13982
867.841	14043
867.972	14065
868.103	14005
868.233	14172
868.364	14138
868.495	14145
868.625	14370
868.756	14339
868.886	14267
869.017	14362
869.147	14465
869.278	14507
869.408	14389
869.539	14381
869.669	14412
869.799	14408
869.929	14503
870.06	14556
870.19	14708
870.32	14693
870.45	14686
870.58	14788
870.71	14857
870.84	14872
870.97	14727
871.1	14823
871.23	14861
871.36	14883
871.489	14941
871.619	14963
871.749	14944
871.879	15024
872.008	15108
872.138	14925
872.267	14963
872.397	14811
872.526	14765
872.656	14712
872.785	14826
872.915	14929
873.044	15047
873.173	15009
873.303	14906
873.432	15119
873.561	15036
873.69	15039
873.819	15005
873.948	14948
874.077	15028
874.206	14990
874.335	14998
874.464	15203
874.593	15165
874.722	15237
874.851	15378
874.979	15378
875.108	15405
875.237	15252
875.365	15268
875.494	15298
875.623	15363
875.751	15291
875.88	15332
876.008	15443
876.136	15591
876.265	15778
876.393	15865
876.521	15857
876.65	15854
876.778	15698
876.906	15679
877.034	15679
877.162	15713
877.29	15705
877.418	15648
877.546	15701
877.674	15660
877.802	15618
877.93	15679
878.058	15671
878.185	15614
878.313	15701
878.441	15694
878.568	15694
878.696	15717
878.824	15781
878.951	15876
879.079	15880
879.206	16105
879.333	15926
879.461	15831
879.588	15846
879.715	15876
879.842	15975
879.97	15781
880.097	15656
880.224	15568
880.351	15603
880.478	15599
880.605	15530
880.732	15576
880.859	15781
880.986	15572
881.112	15549
881.239	15572
881.366	15397
881.493	15252
881.619	15272
881.746	15249
881.872	15310
881.999	15154
882.125	15176
882.252	15287
882.378	15351
882.505	15367
882.631	15188
882.757	15005
882.883	15127
883.01	15043
883.136	14990
883.262	14880
883.388	14838
883.514	15077
883.64	15077
883.766	14971
883.892	14853
884.018	14918
884.143	14948
884.269	15165
884.395	14838
884.52	14708
884.646	14781
884.772	14610
884.897	14674
885.023	14804
885.148	14849
885.274	14910
885.399	14986
885.524	14811
885.65	14785
885.775	14739
885.9	14826
886.025	14792
886.15	14845
886.275	14670
886.4	14689
886.525	14674
886.65	14731
886.775	14644
886.9	14876
887.025	14986
887.149	14754
887.274	14560
887.399	14499
887.523	14549
887.648	14507
887.773	14492
887.897	14689
888.021	14735
888.146	14632
888.27	14640
888.395	14823
888.519	14640
888.643	14640
888.767	14655
888.891	14503
889.015	14393
889.139	14533
889.263	14492
889.387	14564
889.511	14598
889.635	14564
889.759	14446
889.883	14427
890.006	14484
890.13	14587
890.254	14461
890.377	14366
890.501	14351
890.624	14259
890.748	14332
890.871	14278
890.995	14123
891.118	14065
891.241	14119
891.364	14214
891.488	14259
891.611	14149
891.734	14187
891.857	14252
891.98	14199
892.103	14218
892.226	14275
892.349	14168
892.471	13993
892.594	14161
892.717	14161
892.839	14126
892.962	14214
893.085	14176
893.207	14142
893.33	13989
893.452	14088
893.575	14267
893.697	14031
893.819	14336
893.941	14267
894.064	14370
894.186	14092
894.308	14016
894.43	14301
894.552	14423
894.674	14278
894.796	14225
894.918	14187
895.04	14130
895.161	14324
895.283	14332
895.405	14138
895.526	14305
895.648	14263
895.769	14313
895.891	14358
896.012	14366
896.134	14271
896.255	14244
896.376	14320
896.498	14328
896.619	14343
896.74	14328
896.861	14328
896.982	14651
897.103	14807
897.224	14648
897.345	14583
897.466	14545
897.587	14644
897.708	14762
897.828	14613
897.949	14610
898.07	14495
898.19	14499
898.311	14800
898.431	14568
898.552	14621
898.672	14689
898.792	14800
898.913	14800
899.033	14587
899.153	14560
899.273	14393
899.393	14442
899.513	14537
899.633	14533
899.753	14625
899.873	14469
899.993	14488
900.113	14514
900.232	14514
900.352	14533
900.472	14419
900.591	14351
900.711	14393
900.83	14347
900.95	14492
901.069	14434
901.189	14336
901.308	14153
901.427	14024
901.546	14123
901.665	14107
901.784	14046
901.904	14012
902.023	13826
902.141	13719
902.26	13647
902.379	13776
902.498	13643
902.617	13708
902.735	13662
902.854	13601
902.973	13518
903.091	13327
903.21	13400
903.328	13384
903.446	13247
903.565	13255
903.683	13251
903.801	13145
903.919	13145
904.038	13202
904.156	12981
904.274	13110
904.392	12993
904.51	13023
904.627	13000
904.745	13072
904.863	13023
904.981	12821
905.098	12669
905.216	12665
905.334	12692
905.451	12738
905.569	12650
905.686	12673
905.803	12757
905.921	12494
906.038	12616
906.155	12555
906.272	12494
906.389	12361
906.506	12319
906.623	12247
906.74	12254
906.857	12190
906.974	12178
907.091	12407
907.208	12456
907.324	12330
907.441	12190
907.557	12026
907.674	12003
907.79	11999
907.907	12045
908.023	12068
908.139	12030
908.256	12041
908.372	11931
908.488	11999
908.604	11817
908.72	11794
908.836	11885
908.952	11802
909.068	11802
909.184	11958
909.3	11817
909.415	11897
909.531	11817
909.647	11627
909.762	11543
909.878	11562
909.993	11596
910.108	11596
910.224	11592
910.339	11570
910.454	11512
910.57	11406
910.685	11387
910.8	11608
910.915	11596
911.03	11421
911.145	11296
911.259	11273
911.374	11315
911.489	11121
911.604	11204
911.718	10957
911.833	11037
911.947	10923
912.062	10976
912.176	11029
912.291	11071
912.405	11060
912.519	11181
912.633	11197
912.748	11117
912.862	11003
912.976	10942
913.09	10812
913.204	10816
913.318	10923
913.431	10991
913.545	10938
913.659	11006
913.772	10953
913.886	10786
914	10763
914.113	10896
914.226	10881
914.34	10831
914.453	10698
914.566	10858
914.68	10706
914.793	10706
914.906	10573
915.019	10462
915.132	10489
915.245	10493
915.358	10535
915.47	10481
915.583	10558
915.696	10554
915.809	10694
915.921	10599
916.034	10565
916.146	10497
916.259	10466
916.371	10584
916.483	10512
916.595	10455
916.708	10459
916.82	10512
916.932	10424
917.044	10424
917.156	10436
917.268	10371
917.38	10371
917.491	10265
917.603	10337
917.715	10413
917.826	10436
917.938	10325
918.049	10257
918.161	10341
918.272	10550
918.384	10519
918.495	10367
918.606	10272
918.717	10196
918.828	10314
918.939	10356
919.05	10139
919.161	10303
919.272	10002
919.383	10055
919.494	10291
919.604	10432
919.715	10211
919.826	10192
919.936	10265
920.047	10325
920.157	10310
920.267	10550
920.378	10348
920.488	10242
920.598	10527
920.708	10599
920.818	10421
920.928	10428
921.038	10577
921.148	10561
921.258	10371
921.368	10268
921.477	10131
921.587	10112
921.697	9972
921.806	10196
921.916	9975
922.025	9713
922.134	9838
922.244	9736
922.353	9861
922.462	9660
922.571	9595
922.68	9538
922.789	9477
922.898	9545
923.007	9431
923.116	9496
923.224	9542
923.333	9466
923.442	9405
923.55	9344
923.659	9378
923.767	9412
923.876	9389
923.984	9511
924.092	9294
924.201	9355
924.309	9367
924.417	9302
924.525	9298
924.633	9340
924.741	10253
924.849	9154
924.956	9306
925.064	9138
925.172	9097
925.279	9135
925.387	9169
925.494	9226
925.602	9268
925.709	9291
925.816	9085
925.924	9180
926.031	9233
926.138	9203
926.245	9283
926.352	9024
926.459	9207
926.566	9306
926.673	9135
926.779	9097
926.886	8971
926.993	8891
927.099	8864
927.206	8826
927.312	8788
927.419	8963
927.525	8872
927.631	8906
927.737	8788
927.843	8781
927.95	8587
928.056	8788
928.162	8750
928.267	8785
928.373	9355
928.479	8845
928.585	8587
928.69	8807
928.796	8792
928.901	8625
929.007	8613
929.112	8610
929.218	8667
929.323	8598
929.428	8549
929.533	8720
929.638	8503
929.743	8522
929.848	8590
929.953	8583
930.058	8469
930.163	8358
930.267	8351
930.372	8476
930.477	8374
930.581	8526
930.685	8412
930.79	8252
930.894	8320
930.998	8313
931.103	8495
931.207	8039
931.311	8012
931.415	8008
931.519	7757
931.623	7868
