Data from test_V78500241_812.txt Node
Date: Fri Mar 25 14:39:22 CST 2022
User: usil
Spectrometer: V785-0024
Trigger mode: 0
Integration Time (sec): 4.000000E-1
Scans to average: 1
Nonlinearity correction enabled: false
Boxcar width: 0
Storing dark spectrum: false
XAxis mode: Wavelengths
Number of Pixels in Spectrum: 1024
>>>>>Begin Spectral Data<<<<<
801.071	26244
801.214	26153
801.356	26058
801.499	25940
801.641	25723
801.783	25708
801.926	25719
802.068	25518
802.211	25438
802.353	25438
802.496	25129
802.638	25324
802.78	25190
802.923	25118
803.065	25042
803.208	25080
803.35	25053
803.492	25221
803.635	25388
803.777	25171
803.919	25304
804.061	25506
804.204	25358
804.346	25194
804.488	25141
804.63	25297
804.773	25255
804.915	25445
805.057	25521
805.199	25510
805.341	25635
805.483	25864
805.626	25803
805.768	25632
805.91	25639
806.052	25928
806.194	26054
806.336	26313
806.478	26164
806.62	26221
806.762	26514
806.904	26952
807.046	27389
807.188	27576
807.33	27846
807.472	28382
807.614	28809
807.756	29516
807.898	30285
808.04	31468
808.182	32960
808.324	34900
808.465	37080
808.607	39526
808.749	41885
808.891	43019
809.033	43190
809.174	41783
809.316	39755
809.458	36985
809.6	34459
809.741	32655
809.883	31031
810.025	29958
810.166	29075
810.308	28542
810.45	28177
810.591	27736
810.733	27222
810.875	26750
811.016	26629
811.158	26552
811.299	26511
811.441	26393
811.582	26225
811.724	26103
811.865	25944
812.007	25963
812.148	25917
812.29	25841
812.431	25970
812.573	26092
812.714	26225
812.855	26077
812.997	26366
813.138	26313
813.279	26214
813.421	26119
813.562	25993
813.703	25856
813.845	25666
813.986	25415
814.127	25110
814.268	24844
814.41	24924
814.551	24932
814.692	24951
814.833	24920
814.974	24817
815.115	24871
815.256	24608
815.397	24692
815.539	24722
815.68	24483
815.821	24410
815.962	24490
816.103	24483
816.244	24232
816.385	24194
816.526	24152
816.666	24095
816.807	23790
816.948	23882
817.089	23984
817.23	23882
817.371	23832
817.512	23897
817.653	23794
817.793	23551
817.934	23657
818.075	23726
818.216	23794
818.356	23687
818.497	23646
818.638	23395
818.778	23638
818.919	23528
819.06	23474
819.2	23448
819.341	23611
819.481	23512
819.622	23668
819.762	23965
819.903	23893
820.043	23832
820.184	23790
820.324	23615
820.465	23760
820.605	23554
820.746	23573
820.886	23467
821.026	23547
821.167	23528
821.307	23653
821.447	23474
821.588	23436
821.728	23151
821.868	23090
822.008	22866
822.149	22862
822.289	22869
822.429	22763
822.569	22527
822.709	22557
822.849	22363
822.99	22443
823.13	22253
823.27	22188
823.41	22242
823.55	22078
823.69	22147
823.83	22097
823.97	22055
824.11	21903
824.25	21838
824.389	21865
824.529	21998
824.669	21865
824.809	21960
824.949	22021
825.089	22013
825.228	21869
825.368	21728
825.508	21751
825.648	21709
825.787	21724
825.927	21842
826.067	21614
826.206	21618
826.346	21747
826.485	21671
826.625	21694
826.765	21705
826.904	21641
827.044	21454
827.183	21488
827.323	21336
827.462	21382
827.601	21386
827.741	21329
827.88	21367
828.02	21264
828.159	21313
828.298	21298
828.437	21420
828.577	21241
828.716	21420
828.855	21389
828.994	21195
829.134	21085
829.273	21180
829.412	21123
829.551	21005
829.69	21028
829.829	21043
829.968	20990
830.107	21066
830.246	21013
830.385	20929
830.524	20880
830.663	20777
830.802	20804
830.941	20571
831.08	20571
831.219	20632
831.357	20629
831.496	20735
831.635	20629
831.774	20575
831.913	20518
832.051	20446
832.19	20530
832.329	20434
832.467	20362
832.606	20309
832.744	20473
832.883	20400
833.022	20423
833.16	20609
833.299	20708
833.437	20861
833.576	20918
833.714	20944
833.852	21173
833.991	21302
834.129	21218
834.267	21310
834.406	21173
834.544	21173
834.682	21135
834.821	20956
834.959	21055
835.097	20697
835.235	20796
835.373	20674
835.511	20579
835.65	20488
835.788	20423
835.926	20309
836.064	20031
836.202	20134
836.34	20244
836.478	20328
836.615	20214
836.753	20084
836.891	20164
837.029	20256
837.167	20199
837.305	20062
837.443	19970
837.58	20016
837.718	20065
837.856	19986
837.993	19982
838.131	19944
838.269	19894
838.406	19909
838.544	19791
838.681	19586
838.819	19559
838.956	19419
839.094	19441
839.231	19514
839.369	19495
839.506	19909
839.643	19746
839.781	19354
839.918	19354
840.055	19460
840.193	19266
840.33	19301
840.467	19274
840.604	19270
840.742	19616
840.879	19324
841.016	19285
841.153	19384
841.29	19472
841.427	19419
841.564	19415
841.701	19464
841.838	19392
841.975	19217
842.112	19365
842.249	19225
842.385	19190
842.522	19346
842.659	19293
842.796	19141
842.933	19304
843.069	19133
843.206	19129
843.343	19244
843.479	19232
843.616	19377
843.752	19126
843.889	19183
844.025	19297
844.162	19304
844.298	19373
844.435	19464
844.571	19495
844.708	19871
844.844	20240
844.98	20640
845.117	20872
845.253	21603
845.389	22812
845.525	25441
845.661	29752
845.798	34653
845.934	38727
846.07	40287
846.206	39424
846.342	35904
846.478	30928
846.614	26339
846.75	23417
846.886	21694
847.022	20769
847.158	19940
847.294	19563
847.429	19301
847.565	19141
847.701	19274
847.837	18528
847.972	18494
848.108	18616
848.244	18589
848.379	18361
848.515	18369
848.65	18273
848.786	18205
848.921	18114
849.057	18300
849.192	18262
849.328	18182
849.463	18174
849.598	18091
849.734	18053
849.869	17977
850.004	17866
850.14	17961
850.275	17870
850.41	17767
850.545	17718
850.68	17828
850.815	17931
850.95	17809
851.085	18114
851.22	17889
851.355	17798
851.49	17813
851.625	17832
851.76	17707
851.895	17718
852.03	17767
852.165	17904
852.299	17851
852.434	17946
852.569	17878
852.703	17931
852.838	17939
852.973	18041
853.107	17958
853.242	17786
853.376	17901
853.511	17798
853.645	17828
853.78	18026
853.914	17908
854.048	17870
854.183	17942
854.317	18041
854.451	18148
854.585	17908
854.72	17977
854.854	17855
854.988	17840
855.122	17912
855.256	17771
855.39	17760
855.524	17920
855.658	17874
855.792	17752
855.926	17619
856.06	17843
856.194	17859
856.327	17703
856.461	17790
856.595	17718
856.729	17680
856.862	17840
856.996	17779
857.13	17676
857.263	17764
857.397	17691
857.53	17638
857.664	17737
857.797	17729
857.931	17729
858.064	17596
858.197	17707
858.331	17551
858.464	17539
858.597	17570
858.731	17600
858.864	17478
858.997	17512
859.13	17581
859.263	17665
859.396	17619
859.529	17577
859.662	17554
859.795	17440
859.928	17497
860.061	17577
860.194	17832
860.327	17547
860.46	17436
860.592	17649
860.725	17646
860.858	17684
860.99	17543
861.123	17452
861.256	17414
861.388	17543
861.521	18060
861.653	17368
861.786	17326
861.918	17326
862.05	17554
862.183	17455
862.315	17524
862.447	17577
862.58	17440
862.712	17235
862.844	17227
862.976	17258
863.108	17296
863.24	17611
863.372	17166
863.504	17242
863.636	17235
863.768	17246
863.9	17273
864.032	17159
864.164	17136
864.296	17220
864.428	17311
864.559	17181
864.691	17254
864.823	17220
864.954	17185
865.086	17178
865.217	17162
865.349	17105
865.48	17056
865.612	17200
865.743	17360
865.875	17231
866.006	17052
866.137	17170
866.269	17121
866.4	17185
866.531	17197
866.662	17079
866.793	17094
866.924	17067
867.055	17159
867.186	17060
867.317	17143
867.448	17132
867.579	16976
867.71	17029
867.841	17010
867.972	17174
868.103	17071
868.233	17079
868.364	17155
868.495	17223
868.625	17395
868.756	17478
868.886	17417
869.017	17330
869.147	17440
869.278	17528
869.408	17433
869.539	17436
869.669	17532
869.799	17455
869.929	17509
870.06	17585
870.19	17764
870.32	17714
870.45	17874
870.58	17805
870.71	17927
870.84	17882
870.97	17802
871.1	17828
871.23	18159
871.36	17927
871.489	17954
871.619	18045
871.749	18041
871.879	18163
872.008	18190
872.138	18167
872.267	17961
872.397	17935
872.526	17996
872.656	17996
872.785	17931
872.915	18243
873.044	18254
873.173	18315
873.303	18224
873.432	18258
873.561	18346
873.69	18308
873.819	18346
873.948	18391
874.077	18308
874.206	18327
874.335	18384
874.464	18547
874.593	18544
874.722	18623
874.851	18783
874.979	18738
875.108	18848
875.237	18837
875.365	18772
875.494	18882
875.623	18932
875.751	18833
875.88	18935
876.008	19110
876.136	19335
876.265	19426
876.393	19605
876.521	19594
876.65	19677
876.778	19552
876.906	19674
877.034	19601
877.162	19620
877.29	19632
877.418	19738
877.546	19830
877.674	19925
877.802	20081
877.93	20164
878.058	20180
878.185	20313
878.313	20632
878.441	20834
878.568	21005
878.696	21599
878.824	22078
878.951	22919
879.079	24258
879.206	25738
879.333	27294
879.461	28497
879.588	29440
879.715	29497
879.842	28759
879.97	27298
880.097	25624
880.224	24445
880.351	23554
880.478	23018
880.605	22352
880.732	22238
880.859	22207
880.986	21785
881.112	21709
881.239	21641
881.366	21420
881.493	21348
881.619	21386
881.746	21435
881.872	21412
881.999	21416
882.125	21348
882.252	21511
882.378	21485
882.505	21694
882.631	21538
882.757	21359
882.883	21477
883.01	21370
883.136	21245
883.262	21161
883.388	21142
883.514	21401
883.64	21393
883.766	21214
883.892	21077
884.018	21230
884.143	21287
884.269	21431
884.395	21055
884.52	21066
884.646	21074
884.772	21013
884.897	21127
885.023	21009
885.148	21051
885.274	21089
885.399	21013
885.524	20765
885.65	20727
885.775	20758
885.9	20522
886.025	20511
886.15	20419
886.275	20237
886.4	20069
886.525	20111
886.65	19909
886.775	19803
886.9	19944
887.025	19940
887.149	19742
887.274	19601
887.399	19308
887.523	19274
887.648	19217
887.773	19023
887.897	19274
888.021	19050
888.146	18985
888.27	19023
888.395	19099
888.519	18890
888.643	18993
888.767	18886
888.891	18681
889.015	18570
889.139	18692
889.263	18612
889.387	18555
889.511	18673
889.635	18448
889.759	18399
889.883	18395
890.006	18498
890.13	18410
890.254	18270
890.377	18410
890.501	18068
890.624	17950
890.748	18098
890.871	18030
890.995	17737
891.118	17752
891.241	17813
891.364	17726
891.488	17866
891.611	17802
891.734	17764
891.857	17657
891.98	17718
892.103	17828
892.226	17680
892.349	17611
892.471	17406
892.594	17497
892.717	17554
892.839	17478
892.962	17505
893.085	17532
893.207	17436
893.33	17429
893.452	17326
893.575	17337
893.697	17372
893.819	17539
893.941	17471
894.064	17501
894.186	17284
894.308	17242
894.43	17292
894.552	17455
894.674	17265
894.796	17159
894.918	17216
895.04	17242
895.161	17353
895.283	17231
895.405	17136
895.526	17223
895.648	17185
895.769	17189
895.891	17170
896.012	17151
896.134	17288
896.255	17231
896.376	17265
896.498	17090
896.619	17208
896.74	17117
896.861	17235
896.982	17417
897.103	17707
897.224	17490
897.345	17326
897.466	17318
897.587	17337
897.708	17554
897.828	17395
897.949	17288
898.07	17178
898.19	17292
898.311	17509
898.431	17376
898.552	17254
898.672	17459
898.792	17463
898.913	17493
899.033	17311
899.153	17220
899.273	17067
899.393	17071
899.513	17178
899.633	17162
899.753	17197
899.873	17151
899.993	17204
900.113	17143
900.232	17254
900.352	17041
900.472	17037
900.591	16991
900.711	16995
900.83	16965
900.95	17143
901.069	17121
901.189	17006
901.308	16672
901.427	16565
901.546	16580
901.665	16607
901.784	16516
901.904	16455
902.023	16398
902.141	16185
902.26	16063
902.379	16147
902.498	16101
902.617	16051
902.735	16078
902.854	15994
902.973	15972
903.091	15701
903.21	15854
903.328	15812
903.446	15709
903.565	15603
903.683	15549
903.801	15416
903.919	15443
904.038	15530
904.156	15405
904.274	15443
904.392	15218
904.51	15268
904.627	15306
904.745	15393
904.863	15283
904.981	15169
905.098	14948
905.216	14944
905.334	14986
905.451	15039
905.569	14902
905.686	15024
905.803	14880
905.921	14762
906.038	14853
906.155	14663
906.272	14724
906.389	14636
906.506	14533
906.623	14511
906.74	14450
906.857	14374
906.974	14400
907.091	14549
907.208	14663
907.324	14442
907.441	14400
907.557	14286
907.674	14290
907.79	14172
907.907	14123
908.023	14259
908.139	14221
908.256	14039
908.372	14111
908.488	14046
908.604	13997
908.72	13909
908.836	14027
908.952	13864
909.068	13982
909.184	14054
909.3	13921
909.415	13974
909.531	13932
909.647	13689
909.762	13643
909.878	13601
909.993	13658
910.108	13666
910.224	13632
910.339	13658
910.454	13548
910.57	13510
910.685	13464
910.8	13723
910.915	13700
911.03	13476
911.145	13346
911.259	13324
911.374	13407
911.489	13194
911.604	13221
911.718	13072
911.833	13000
911.947	12962
912.062	12867
912.176	13050
912.291	13004
912.405	13023
912.519	13251
912.633	13187
912.748	12970
912.862	12977
912.976	12856
913.09	12810
913.204	12852
913.318	12871
913.431	13027
913.545	13004
913.659	12989
913.772	12886
913.886	12764
914	12760
914.113	12760
914.226	12916
914.34	12817
914.453	12703
914.566	12886
914.68	12837
914.793	12741
914.906	12418
915.019	12551
915.132	12357
915.245	12441
915.358	12494
915.47	12467
915.583	12418
915.696	12460
915.809	12498
915.921	12646
916.034	12460
916.146	12410
916.259	12342
916.371	12593
916.483	12471
916.595	12479
916.708	12391
916.82	12532
916.932	12410
917.044	12376
917.156	12429
917.268	12247
917.38	12239
917.491	12167
917.603	12190
917.715	12346
917.826	12247
917.938	12266
918.049	12079
918.161	12163
918.272	12369
918.384	12270
918.495	12194
918.606	12072
918.717	11980
918.828	12087
918.939	12106
919.05	11958
919.161	11965
919.272	11866
919.383	11904
919.494	12106
919.604	12201
919.715	11992
919.826	11935
919.936	11965
920.047	12087
920.157	12041
920.267	12155
920.378	12064
920.488	12022
920.598	12083
920.708	12414
920.818	12194
920.928	12091
921.038	12342
921.148	12311
921.258	11965
921.368	11893
921.477	11847
921.587	11722
921.697	11684
921.806	11775
921.916	11745
922.025	11528
922.134	11474
922.244	11448
922.353	11535
922.462	11311
922.571	11269
922.68	11185
922.789	11086
922.898	11269
923.007	11045
923.116	11197
923.224	11143
923.333	11151
923.442	11041
923.55	10957
923.659	11045
923.767	11064
923.876	10896
923.984	11102
924.092	10881
924.201	10953
924.309	10930
924.417	10999
924.525	10904
924.633	10869
924.741	11783
924.849	10729
924.956	10892
925.064	10694
925.172	10611
925.279	10679
925.387	10748
925.494	10721
925.602	10763
925.709	10809
925.816	10531
925.924	10630
926.031	10668
926.138	10584
926.245	10755
926.352	10569
926.459	10714
926.566	10729
926.673	10618
926.779	10466
926.886	10478
926.993	10306
927.099	10341
927.206	10306
927.312	10303
927.419	10398
927.525	10337
927.631	10325
927.737	10227
927.843	10169
927.95	10169
928.056	10185
928.162	10272
928.267	10276
928.373	10873
928.479	10227
928.585	10101
928.69	10234
928.796	10227
928.901	10036
929.007	10017
929.112	10036
929.218	10044
929.323	9979
929.428	9994
929.533	10090
929.638	9911
929.743	9918
929.848	10021
929.953	9930
930.058	9808
930.163	9713
930.267	9713
930.372	9873
930.477	9660
930.581	9922
930.685	9766
930.79	9709
930.894	9679
930.998	9652
931.103	9736
931.207	9431
931.311	9386
931.415	9321
931.519	9123
931.623	9100
