Data from test_V78500241_102.txt Node
Date: Fri Mar 25 14:34:26 CST 2022
User: usil
Spectrometer: V785-0024
Trigger mode: 0
Integration Time (sec): 4.000000E-1
Scans to average: 1
Nonlinearity correction enabled: false
Boxcar width: 0
Storing dark spectrum: false
XAxis mode: Wavelengths
Number of Pixels in Spectrum: 1024
>>>>>Begin Spectral Data<<<<<
801.071	29551
801.214	29341
801.356	29136
801.499	29041
801.641	28934
801.783	29018
801.926	28923
802.068	28900
802.211	28896
802.353	28854
802.496	28443
802.638	28733
802.78	28630
802.923	28466
803.065	28405
803.208	28455
803.35	28474
803.492	28763
803.635	28805
803.777	28733
803.919	28786
804.061	29056
804.204	28843
804.346	28710
804.488	28592
804.63	28702
804.773	28538
804.915	28820
805.057	28801
805.199	28713
805.341	28858
805.483	28850
805.626	28828
805.768	28816
805.91	28854
806.052	29086
806.194	28831
806.336	29166
806.478	29037
806.62	29155
806.762	29269
806.904	29562
807.046	29809
807.188	29771
807.33	29939
807.472	30144
807.614	30323
807.756	30456
807.898	30410
808.04	30798
808.182	31293
808.324	31993
808.465	32549
808.607	33344
808.749	34036
808.891	34481
809.033	34440
809.174	33983
809.316	33226
809.458	32522
809.6	31826
809.741	31289
809.883	30992
810.025	30711
810.166	30509
810.308	30304
810.45	30201
810.591	30003
810.733	29764
810.875	29585
811.016	29429
811.158	29436
811.299	29554
811.441	29585
811.582	29642
811.724	29486
811.865	29292
812.007	29368
812.148	29296
812.29	29220
812.431	29414
812.573	29573
812.714	29691
812.855	29817
812.997	29821
813.138	29923
813.279	29897
813.421	29695
813.562	29638
813.703	29493
813.845	29315
813.986	29033
814.127	29022
814.268	28835
814.41	28923
814.551	28778
814.692	28812
814.833	28645
814.974	28805
815.115	28675
815.256	28516
815.397	28512
815.539	28478
815.68	28478
815.821	28394
815.962	28470
816.103	28409
816.244	28185
816.385	28341
816.526	28097
816.666	28055
816.807	27785
816.948	27804
817.089	27937
817.23	27979
817.371	27789
817.512	27895
817.653	27690
817.793	27823
817.934	27804
818.075	27709
818.216	27743
818.356	27690
818.497	27496
818.638	27534
818.778	27530
818.919	27397
819.06	27656
819.2	27583
819.341	27637
819.481	27656
819.622	27736
819.762	27934
819.903	27865
820.043	27880
820.184	27698
820.324	27751
820.465	27732
820.605	27633
820.746	27751
820.886	27545
821.026	27526
821.167	27538
821.307	27652
821.447	27564
821.588	27488
821.728	27344
821.868	27233
822.008	27127
822.149	26940
822.289	27108
822.429	26701
822.569	26609
822.709	26659
822.849	26560
822.99	26328
823.13	26298
823.27	26309
823.41	26237
823.55	26073
823.69	26244
823.83	26187
823.97	26225
824.11	26103
824.25	25993
824.389	26054
824.529	26111
824.669	25982
824.809	26202
824.949	26119
825.089	26065
825.228	26043
825.368	25986
825.508	25780
825.648	25830
825.787	25837
825.927	25784
826.067	25772
826.206	25822
826.346	25887
826.485	25986
826.625	25761
826.765	26035
826.904	25852
827.044	25468
827.183	25563
827.323	25476
827.462	25438
827.601	25438
827.741	25419
827.88	25381
828.02	25327
828.159	25491
828.298	25377
828.437	25438
828.577	25407
828.716	25525
828.855	25289
828.994	25202
829.134	25076
829.273	25304
829.412	25141
829.551	24943
829.69	25175
829.829	25110
829.968	25209
830.107	25110
830.246	25118
830.385	25084
830.524	25099
830.663	24954
830.802	24814
830.941	24608
831.08	24707
831.219	24821
831.357	24875
831.496	24848
831.635	24631
831.774	24563
831.913	24578
832.051	24441
832.19	24486
832.329	24372
832.467	24422
832.606	24296
832.744	24384
832.883	24247
833.022	24319
833.16	24292
833.299	24551
833.437	24498
833.576	24570
833.714	24620
833.852	24555
833.991	24384
834.129	24612
834.267	24673
834.406	24521
834.544	24536
834.682	24578
834.821	24467
834.959	24566
835.097	24350
835.235	24296
835.373	24380
835.511	24186
835.65	24144
835.788	24148
835.926	24060
836.064	24030
836.202	23999
836.34	24159
836.478	24247
836.615	24072
836.753	24030
836.891	24247
837.029	23999
837.167	24060
837.305	24049
837.443	23965
837.58	23855
837.718	23999
837.856	23996
837.993	23805
838.131	23885
838.269	23878
838.406	23824
838.544	23634
838.681	23649
838.819	23509
838.956	23433
839.094	23356
839.231	23391
839.369	23383
839.506	23760
839.643	23547
839.781	23337
839.918	23170
840.055	23296
840.193	23379
840.33	23159
840.467	23212
840.604	23197
840.742	23341
840.879	23105
841.016	23071
841.153	23147
841.29	23269
841.427	23265
841.564	23242
841.701	23147
841.838	23181
841.975	23178
842.112	23075
842.249	22995
842.385	22987
842.522	23124
842.659	23079
842.796	22862
842.933	22949
843.069	22930
843.206	22858
843.343	23033
843.479	23010
843.616	23006
843.752	22672
843.889	22748
844.025	22934
844.162	22782
844.298	22869
844.435	22805
844.571	22957
844.708	22919
844.844	23200
844.98	23227
845.117	23353
845.253	23356
845.389	23649
845.525	24319
845.661	25533
845.798	27017
845.934	28154
846.07	28717
846.206	28481
846.342	27637
846.478	25986
846.614	24578
846.75	23653
846.886	23117
847.022	22831
847.158	22668
847.294	22440
847.429	22318
847.565	22230
847.701	22295
847.837	21789
847.972	21956
848.108	22021
848.244	21907
848.379	21781
848.515	21778
848.65	21583
848.786	21720
848.921	21793
849.057	21732
849.192	21770
849.328	21781
849.463	21793
849.598	21568
849.734	21614
849.869	21473
850.004	21329
850.14	21393
850.275	21344
850.41	21481
850.545	21298
850.68	21439
850.815	21458
850.95	21412
851.085	21599
851.22	21420
851.355	21317
851.49	21348
851.625	21298
851.76	21294
851.895	21249
852.03	21268
852.165	21321
852.299	21374
852.434	21332
852.569	21416
852.703	21370
852.838	21370
852.973	21439
853.107	21500
853.242	21256
853.376	21344
853.511	21123
853.645	21188
853.78	21203
853.914	21378
854.048	21298
854.183	21184
854.317	21264
854.451	21496
854.585	21218
854.72	21264
854.854	21230
854.988	21089
855.122	21188
855.256	21100
855.39	21157
855.524	21233
855.658	21222
855.792	21150
855.926	21119
856.06	21169
856.194	21108
856.327	21169
856.461	21028
856.595	21108
856.729	21096
856.862	21203
856.996	21112
857.13	21146
857.263	21104
857.397	21169
857.53	21085
857.664	21161
857.797	21146
857.931	21214
858.064	21112
858.197	21207
858.331	20998
858.464	21093
858.597	20895
858.731	21017
858.864	21081
858.997	21070
859.13	20941
859.263	21036
859.396	21024
859.529	21070
859.662	20986
859.795	20948
859.928	20963
860.061	21116
860.194	21222
860.327	21108
860.46	21100
860.592	21108
860.725	21085
860.858	21150
860.99	21017
861.123	20971
861.256	20899
861.388	20944
861.521	21580
861.653	20849
861.786	20823
861.918	20921
862.05	21032
862.183	21024
862.315	20944
862.447	21260
862.58	21062
862.712	20853
862.844	20948
862.976	20819
863.108	20842
863.24	21043
863.372	20670
863.504	20792
863.636	20701
863.768	20659
863.9	20781
864.032	20621
864.164	20632
864.296	20777
864.428	20785
864.559	20659
864.691	20777
864.823	20670
864.954	20594
865.086	20640
865.217	20667
865.349	20575
865.48	20522
865.612	20636
865.743	20807
865.875	20621
866.006	20537
866.137	20648
866.269	20625
866.4	20564
866.531	20583
866.662	20571
866.793	20587
866.924	20530
867.055	20518
867.186	20514
867.317	20514
867.448	20412
867.579	20476
867.71	20423
867.841	20393
867.972	20412
868.103	20533
868.233	20480
868.364	20522
868.495	20602
868.625	20727
868.756	20754
868.886	20625
869.017	20731
869.147	20982
869.278	20876
869.408	20754
869.539	20750
869.669	20788
869.799	20918
869.929	20933
870.06	20819
870.19	20986
870.32	21028
870.45	21089
870.58	21062
870.71	21203
870.84	21203
870.97	21169
871.1	21074
871.23	21306
871.36	21287
871.489	21211
871.619	21336
871.749	21408
871.879	21351
872.008	21485
872.138	21386
872.267	21351
872.397	21230
872.526	21306
872.656	21169
872.785	21332
872.915	21355
873.044	21492
873.173	21447
873.303	21389
873.432	21500
873.561	21519
873.69	21500
873.819	21405
873.948	21526
874.077	21447
874.206	21500
874.335	21462
874.464	21564
874.593	21747
874.722	21690
874.851	21694
874.979	21812
875.108	21804
875.237	21770
875.365	21614
875.494	21816
875.623	21835
875.751	21705
875.88	21915
876.008	22029
876.136	22010
876.265	22246
876.393	22337
876.521	22253
876.65	22363
876.778	22265
876.906	22325
877.034	22341
877.162	22242
877.29	22295
877.418	22211
877.546	22344
877.674	22516
877.802	22390
877.93	22382
878.058	22352
878.185	22417
878.313	22493
878.441	22607
878.568	22588
878.696	22831
878.824	23018
878.951	23376
879.079	23649
879.206	24178
879.333	24601
879.461	24989
879.588	25365
879.715	25232
879.842	25122
879.97	24532
880.097	23817
880.224	23539
880.351	23265
880.478	23098
880.605	22900
880.732	22854
880.859	23083
880.986	22858
881.112	22809
881.239	22565
881.366	22516
881.493	22474
881.619	22360
881.746	22405
881.872	22493
881.999	22325
882.125	22310
882.252	22504
882.378	22398
882.505	22493
882.631	22386
882.757	22162
882.883	22230
883.01	22249
883.136	22147
883.262	21979
883.388	21937
883.514	22082
883.64	22086
883.766	22006
883.892	21975
884.018	22021
884.143	22101
884.269	22257
884.395	21861
884.52	21869
884.646	21800
884.772	21671
884.897	21591
885.023	21831
885.148	21846
885.274	21899
885.399	21778
885.524	21656
885.65	21778
885.775	21660
885.9	21564
886.025	21648
886.15	21622
886.275	21435
886.4	21428
886.525	21492
886.65	21279
886.775	21401
886.9	21367
887.025	21519
887.149	21252
887.274	21180
887.399	21055
887.523	21039
887.648	20960
887.773	20933
887.897	21157
888.021	21036
888.146	21005
888.27	21096
888.395	20960
888.519	20929
888.643	20975
888.767	21017
888.891	20823
889.015	20769
889.139	20788
889.263	20648
889.387	20727
889.511	20906
889.635	20834
889.759	20556
889.883	20648
890.006	20625
890.13	20720
890.254	20511
890.377	20514
890.501	20309
890.624	20374
890.748	20355
890.871	20244
890.995	20172
891.118	20092
891.241	20233
891.364	20126
891.488	20233
891.611	20092
891.734	20180
891.857	20233
891.98	20073
892.103	20275
892.226	20153
892.349	19982
892.471	19902
892.594	20001
892.717	19936
892.839	19875
892.962	20043
893.085	19970
893.207	20088
893.33	19807
893.452	19799
893.575	20062
893.697	19883
893.819	20001
893.941	20035
894.064	19997
894.186	19890
894.308	19830
894.43	19978
894.552	20024
894.674	19887
894.796	19788
894.918	19811
895.04	19712
895.161	20001
895.283	19734
895.405	19883
895.526	19864
895.648	19841
895.769	19898
895.891	19780
896.012	19970
896.134	19864
896.255	19841
896.376	19925
896.498	19902
896.619	20043
896.74	19936
896.861	19898
896.982	20298
897.103	20298
897.224	20119
897.345	20183
897.466	20016
897.587	20119
897.708	20240
897.828	19947
897.949	19936
898.07	19917
898.19	20039
898.311	19986
898.431	19921
898.552	19921
898.672	20088
898.792	20039
898.913	19826
899.033	19875
899.153	19822
899.273	19601
899.393	19689
899.513	19814
899.633	19772
899.753	19738
899.873	19632
899.993	19674
900.113	19597
900.232	19647
900.352	19734
900.472	19616
900.591	19548
900.711	19525
900.83	19655
900.95	19499
901.069	19639
901.189	19453
901.308	19236
901.427	19038
901.546	19255
901.665	19129
901.784	19080
901.904	19042
902.023	18878
902.141	18791
902.26	18707
902.379	18722
902.498	18681
902.617	18490
902.735	18612
902.854	18483
902.973	18559
903.091	18232
903.21	18399
903.328	18216
903.446	18205
903.565	18049
903.683	18102
903.801	18026
903.919	18003
904.038	17954
904.156	17901
904.274	17965
904.392	17779
904.51	17813
904.627	17745
904.745	17874
904.863	17805
904.981	17493
905.098	17463
905.216	17444
905.334	17535
905.451	17463
905.569	17387
905.686	17558
905.803	17433
905.921	17246
906.038	17341
906.155	17258
906.272	17193
906.389	17284
906.506	16991
906.623	16980
906.74	16961
906.857	16786
906.974	16919
907.091	17090
907.208	17121
907.324	16942
907.441	16957
907.557	16786
907.674	16721
907.79	16752
907.907	16554
908.023	16793
908.139	16687
908.256	16660
908.372	16611
908.488	16447
908.604	16470
908.72	16481
908.836	16329
908.952	16303
909.068	16394
909.184	16428
909.3	16356
909.415	16382
909.531	16352
909.647	16071
909.762	16059
909.878	16101
909.993	16078
910.108	16002
910.224	15895
910.339	16135
910.454	16006
910.57	15884
910.685	15736
910.8	16097
910.915	16078
911.03	15899
911.145	15736
911.259	15717
911.374	15614
911.489	15530
911.604	15534
911.718	15481
911.833	15431
911.947	15321
912.062	15275
912.176	15405
912.291	15382
912.405	15378
912.519	15549
912.633	15568
912.748	15359
912.862	15298
912.976	15370
913.09	15093
913.204	15283
913.318	15241
913.431	15188
913.545	15351
913.659	15291
913.772	15123
913.886	15047
914	15058
914.113	15131
914.226	15195
914.34	15127
914.453	14975
914.566	15089
914.68	14921
914.793	14963
914.906	14678
915.019	14659
915.132	14682
915.245	14693
915.358	14731
915.47	14663
915.583	14701
915.696	14724
915.809	14804
915.921	14792
916.034	14705
916.146	14560
916.259	14537
916.371	14644
916.483	14602
916.595	14488
916.708	14484
916.82	14469
916.932	14431
917.044	14571
917.156	14385
917.268	14336
917.38	14370
917.491	14252
917.603	14362
917.715	14317
917.826	14301
917.938	14240
918.049	14130
918.161	14221
918.272	14381
918.384	14328
918.495	14275
918.606	14054
918.717	14123
918.828	14134
918.939	14126
919.05	13902
919.161	13986
919.272	13894
919.383	13871
919.494	14035
919.604	14199
919.715	13986
919.826	13951
919.936	13795
920.047	14016
920.157	14043
920.267	14115
920.378	13868
920.488	13887
920.598	14172
920.708	14275
920.818	14145
920.928	14130
921.038	14218
921.148	14187
921.258	13932
921.368	13894
921.477	13795
921.587	13712
921.697	13582
921.806	13791
921.916	13571
922.025	13396
922.134	13445
922.244	13384
922.353	13422
922.462	13327
922.571	13187
922.68	13012
922.789	13000
922.898	13031
923.007	12954
923.116	12989
923.224	12935
923.333	12943
923.442	12867
923.55	12833
923.659	12928
923.767	12878
923.876	12791
923.984	12916
924.092	12669
924.201	12882
924.309	12798
924.417	12764
924.525	12726
924.633	12677
924.741	13563
924.849	12433
924.956	12635
925.064	12490
925.172	12410
925.279	12456
925.387	12555
925.494	12433
925.602	12604
925.709	12566
925.816	12369
925.924	12403
926.031	12471
926.138	12391
926.245	12483
926.352	12372
926.459	12570
926.566	12426
926.673	12323
926.779	12209
926.886	12114
926.993	12064
927.099	12091
927.206	11939
927.312	11958
927.419	12121
927.525	12079
927.631	12022
927.737	11950
927.843	11775
927.95	11813
928.056	11950
928.162	11897
928.267	11878
928.373	12448
928.479	11889
928.585	11771
928.69	11817
928.796	11843
928.901	11680
929.007	11581
929.112	11748
929.218	11619
929.323	11573
929.428	11566
929.533	11684
929.638	11482
929.743	11532
929.848	11581
929.953	11558
930.058	11467
930.163	11311
930.267	11201
930.372	11398
930.477	11280
930.581	11497
930.685	11296
930.79	11197
930.894	11140
930.998	11090
931.103	11265
931.207	10889
931.311	10771
931.415	10755
931.519	10481
931.623	10626
