Data from test_V78500241_2809.txt Node
Date: Fri Mar 25 14:53:16 CST 2022
User: usil
Spectrometer: V785-0024
Trigger mode: 0
Integration Time (sec): 4.000000E-1
Scans to average: 1
Nonlinearity correction enabled: false
Boxcar width: 0
Storing dark spectrum: false
XAxis mode: Wavelengths
Number of Pixels in Spectrum: 1024
>>>>>Begin Spectral Data<<<<<
801.071	22093
801.214	21937
801.356	21720
801.499	21713
801.641	21507
801.783	21428
801.926	21416
802.068	21355
802.211	21367
802.353	21161
802.496	21024
802.638	20895
802.78	20925
802.923	20769
803.065	20754
803.208	20811
803.35	20769
803.492	20823
803.635	20853
803.777	20743
803.919	20872
804.061	21108
804.204	20773
804.346	20781
804.488	20598
804.63	20678
804.773	20587
804.915	20708
805.057	20606
805.199	20549
805.341	20735
805.483	20834
805.626	20743
805.768	20545
805.91	20731
806.052	20686
806.194	20571
806.336	20762
806.478	20659
806.62	20655
806.762	20750
806.904	20899
807.046	21020
807.188	20937
807.33	21123
807.472	20998
807.614	20891
807.756	20777
807.898	20815
808.04	20701
808.182	20651
808.324	20781
808.465	20819
808.607	20998
808.749	20971
808.891	21135
809.033	21310
809.174	21070
809.316	21104
809.458	20963
809.6	20979
809.741	21100
809.883	21062
810.025	21077
810.166	21146
810.308	21096
810.45	21047
810.591	21043
810.733	20906
810.875	20857
811.016	20716
811.158	20613
811.299	20842
811.441	20998
811.582	20819
811.724	20845
811.865	20739
812.007	20807
812.148	20811
812.29	20800
812.431	20925
812.573	21070
812.714	21192
812.855	21176
812.997	21344
813.138	21549
813.279	21351
813.421	21336
813.562	21275
813.703	21024
813.845	20944
813.986	20659
814.127	20507
814.268	20457
814.41	20400
814.551	20290
814.692	20377
814.833	20305
814.974	20339
815.115	20214
815.256	20183
815.397	20206
815.539	20168
815.68	20142
815.821	20096
815.962	20210
816.103	19986
816.244	19959
816.385	19742
816.526	19746
816.666	19666
816.807	19457
816.948	19567
817.089	19594
817.23	19506
817.371	19438
817.512	19434
817.653	19438
817.793	19453
817.934	19449
818.075	19381
818.216	19491
818.356	19331
818.497	19228
818.638	19175
818.778	19084
818.919	19206
819.06	19206
819.2	19324
819.341	19384
819.481	19464
819.622	19514
819.762	19601
819.903	19613
820.043	19578
820.184	19460
820.324	19487
820.465	19719
820.605	19377
820.746	19396
820.886	19266
821.026	19422
821.167	19422
821.307	19438
821.447	19487
821.588	19171
821.728	19274
821.868	18973
822.008	18825
822.149	18741
822.289	18882
822.429	18589
822.569	18506
822.709	18506
822.849	18418
822.99	18327
823.13	18319
823.27	18357
823.41	18148
823.55	18121
823.69	18171
823.83	18102
823.97	18053
824.11	17973
824.25	17901
824.389	17882
824.529	17977
824.669	17897
824.809	18095
824.949	18038
825.089	18057
825.228	17923
825.368	17703
825.508	17611
825.648	17760
825.787	17764
825.927	17737
826.067	17661
826.206	17703
826.346	17726
826.485	17764
826.625	17585
826.765	17741
826.904	17767
827.044	17615
827.183	17455
827.323	17334
827.462	17467
827.601	17387
827.741	17318
827.88	17391
828.02	17254
828.159	17330
828.298	17402
828.437	17421
828.577	17414
828.716	17444
828.855	17277
828.994	17147
829.134	17181
829.273	17185
829.412	17151
829.551	16999
829.69	17246
829.829	17048
829.968	17159
830.107	17166
830.246	17147
830.385	16991
830.524	17094
830.663	16869
830.802	16987
830.941	16729
831.08	16755
831.219	16908
831.357	16831
831.496	16938
831.635	16801
831.774	16702
831.913	16691
832.051	16649
832.19	16474
832.329	16573
832.467	16500
832.606	16367
832.744	16432
832.883	16573
833.022	16455
833.16	16424
833.299	16516
833.437	16535
833.576	16565
833.714	16538
833.852	16489
833.991	16481
834.129	16573
834.267	16523
834.406	16443
834.544	16546
834.682	16497
834.821	16409
834.959	16744
835.097	16512
835.235	16694
835.373	16588
835.511	16512
835.65	16462
835.788	16409
835.926	16356
836.064	16238
836.202	16230
836.34	16504
836.478	16512
836.615	16436
836.753	16493
836.891	16474
837.029	16432
837.167	16447
837.305	16318
837.443	16253
837.58	16268
837.718	16405
837.856	16325
837.993	16215
838.131	16436
838.269	16226
838.406	16219
838.544	16109
838.681	15975
838.819	15975
838.956	15842
839.094	15797
839.231	15869
839.369	15991
839.506	16329
839.643	16063
839.781	15899
839.918	15892
840.055	15873
840.193	15816
840.33	15819
840.467	15869
840.604	15895
840.742	16006
840.879	15694
841.016	15739
841.153	15732
841.29	15949
841.427	15869
841.564	15865
841.701	15895
841.838	15831
841.975	15751
842.112	15778
842.249	15660
842.385	15530
842.522	15781
842.659	15644
842.796	15625
842.933	15614
843.069	15542
843.206	15561
843.343	15686
843.479	15637
843.616	15701
843.752	15363
843.889	15389
844.025	15458
844.162	15424
844.298	15458
844.435	15431
844.571	15249
844.708	15370
844.844	15553
844.98	15511
845.117	15526
845.253	15408
845.389	15351
845.525	15317
845.661	15363
845.798	15214
845.934	15317
846.07	15218
846.206	15291
846.342	15355
846.478	15188
846.614	14998
846.75	15009
846.886	14925
847.022	15020
847.158	14864
847.294	15028
847.429	14960
847.565	14998
847.701	15260
847.837	14682
847.972	14697
848.108	14800
848.244	14705
848.379	14632
848.515	14579
848.65	14552
848.786	14484
848.921	14610
849.057	14610
849.192	14689
849.328	14560
849.463	14674
849.598	14526
849.734	14564
849.869	14469
850.004	14423
850.14	14469
850.275	14408
850.41	14290
850.545	14317
850.68	14317
850.815	14385
850.95	14214
851.085	14556
851.22	14434
851.355	14389
851.49	14244
851.625	14328
851.76	14381
851.895	14157
852.03	14301
852.165	14275
852.299	14434
852.434	14396
852.569	14412
852.703	14389
852.838	14412
852.973	14473
853.107	14549
853.242	14237
853.376	14252
853.511	14035
853.645	14164
853.78	14267
853.914	14107
854.048	14199
854.183	14237
854.317	14199
854.451	14423
854.585	14168
854.72	14172
854.854	14366
854.988	14172
855.122	14164
855.256	14005
855.39	14244
855.524	14248
855.658	14309
855.792	14317
855.926	14298
856.06	14263
856.194	14412
856.327	14286
856.461	14119
856.595	14130
856.729	14164
856.862	14275
856.996	14256
857.13	14286
857.263	14366
857.397	14320
857.53	14157
857.664	14271
857.797	14301
857.931	14370
858.064	14324
858.197	14370
858.331	14195
858.464	14259
858.597	14069
858.731	14233
858.864	14271
858.997	14164
859.13	14233
859.263	14157
859.396	14362
859.529	14263
859.662	14214
859.795	14187
859.928	14218
860.061	14355
860.194	14309
860.327	14259
860.46	14096
860.592	14305
860.725	14362
860.858	14324
860.99	14191
861.123	14172
861.256	14142
861.388	14123
861.521	14864
861.653	13993
861.786	14024
861.918	14096
862.05	14195
862.183	14168
862.315	14191
862.447	14187
862.58	14221
862.712	13997
862.844	14035
862.976	14065
863.108	13944
863.24	14389
863.372	13925
863.504	14054
863.636	13936
863.768	13986
863.9	13974
864.032	13940
864.164	13986
864.296	14069
864.428	14130
864.559	14134
864.691	14062
864.823	13944
864.954	13944
865.086	13986
865.217	14111
865.349	14001
865.48	14149
865.612	13974
865.743	14199
865.875	14020
866.006	13955
866.137	13989
866.269	13921
866.4	14024
866.531	13932
866.662	13894
866.793	13967
866.924	13921
867.055	14096
867.186	13925
867.317	13909
867.448	13932
867.579	13955
867.71	13925
867.841	13898
867.972	13978
868.103	14062
868.233	14043
868.364	13947
868.495	14107
868.625	14142
868.756	14320
868.886	14157
869.017	14202
869.147	14393
869.278	14381
869.408	14336
869.539	14202
869.669	14233
869.799	14256
869.929	14400
870.06	14343
870.19	14488
870.32	14415
870.45	14488
870.58	14674
870.71	14758
870.84	14724
870.97	14606
871.1	14590
871.23	14845
871.36	14830
871.489	14746
871.619	14735
871.749	14796
871.879	14811
872.008	14921
872.138	14811
872.267	14796
872.397	14762
872.526	14705
872.656	14610
872.785	14610
872.915	14971
873.044	14910
873.173	14857
873.303	14891
873.432	14895
873.561	14944
873.69	14899
873.819	14891
873.948	14883
874.077	14971
874.206	14883
874.335	14899
874.464	14948
874.593	15176
874.722	15184
874.851	15226
874.979	15211
875.108	15241
875.237	15097
875.365	15066
875.494	15077
875.623	15184
875.751	15272
875.88	15268
876.008	15348
876.136	15348
876.265	15637
876.393	15774
876.521	15652
876.65	15732
876.778	15652
876.906	15580
877.034	15652
877.162	15538
877.29	15454
877.418	15599
877.546	15591
877.674	15652
877.802	15584
877.93	15591
878.058	15618
878.185	15549
878.313	15622
878.441	15671
878.568	15401
878.696	15576
878.824	15625
878.951	15724
879.079	15876
879.206	15857
879.333	15709
879.461	15709
879.588	15736
879.715	15789
879.842	15873
879.97	15709
880.097	15500
880.224	15469
880.351	15515
880.478	15519
880.605	15397
880.732	15454
880.859	15637
880.986	15450
881.112	15576
881.239	15374
881.366	15249
881.493	15116
881.619	15199
881.746	15093
881.872	15108
881.999	15157
882.125	15135
882.252	15089
882.378	15161
882.505	15272
882.631	15150
882.757	14902
882.883	14971
883.01	14895
883.136	14853
883.262	14804
883.388	14777
883.514	14895
883.64	14967
883.766	14944
883.892	14807
884.018	14872
884.143	14963
884.269	15047
884.395	14686
884.52	14617
884.646	14636
884.772	14602
884.897	14594
885.023	14575
885.148	14777
885.274	14826
885.399	14781
885.524	14610
885.65	14689
885.775	14674
885.9	14693
886.025	14762
886.15	14674
886.275	14507
886.4	14484
886.525	14579
886.65	14590
886.775	14552
886.9	14883
887.025	14918
887.149	14549
887.274	14488
887.399	14446
887.523	14465
887.648	14396
887.773	14301
887.897	14492
888.021	14571
888.146	14423
888.27	14552
888.395	14526
888.519	14514
888.643	14454
888.767	14461
888.891	14465
889.015	14317
889.139	14400
889.263	14199
889.387	14473
889.511	14427
889.635	14488
889.759	14256
889.883	14267
890.006	14434
890.13	14442
890.254	14237
890.377	14370
890.501	14199
890.624	14183
890.748	14259
890.871	14069
890.995	14027
891.118	13856
891.241	14020
891.364	14005
891.488	14157
891.611	13970
891.734	13925
891.857	14123
891.98	14050
892.103	14138
892.226	14126
892.349	14088
892.471	13883
892.594	13955
892.717	13993
892.839	14027
892.962	14145
893.085	14069
893.207	13986
893.33	13925
893.452	13967
893.575	14096
893.697	13982
893.819	14206
893.941	14339
894.064	14191
894.186	13951
894.308	13970
894.43	14142
894.552	14339
894.674	14218
894.796	14027
894.918	14138
895.04	14077
895.161	14176
895.283	14134
895.405	14176
895.526	14157
895.648	14164
895.769	14229
895.891	14252
896.012	14199
896.134	14142
896.255	14218
896.376	14187
896.498	14187
896.619	14294
896.74	14301
896.861	14339
896.982	14514
897.103	14750
897.224	14450
897.345	14423
897.466	14423
897.587	14473
897.708	14644
897.828	14552
897.949	14431
898.07	14309
898.19	14427
898.311	14678
898.431	14522
898.552	14522
898.672	14632
898.792	14667
898.913	14640
899.033	14507
899.153	14362
899.273	14328
899.393	14351
899.513	14499
899.633	14446
899.753	14465
899.873	14377
899.993	14450
900.113	14358
900.232	14484
900.352	14355
900.472	14347
900.591	14275
900.711	14374
900.83	14275
900.95	14415
901.069	14423
901.189	14183
901.308	14001
901.427	13940
901.546	13989
901.665	14020
901.784	13989
901.904	13803
902.023	13765
902.141	13518
902.26	13632
902.379	13643
902.498	13468
902.617	13483
902.735	13594
902.854	13571
902.973	13460
903.091	13320
903.21	13213
903.328	13350
903.446	13179
903.565	13114
903.683	13103
903.801	13015
903.919	12996
904.038	13061
904.156	12897
904.274	12989
904.392	12943
904.51	12909
904.627	12894
904.745	12878
904.863	12939
904.981	12719
905.098	12601
905.216	12563
905.334	12677
905.451	12658
905.569	12582
905.686	12684
905.803	12528
905.921	12448
906.038	12525
906.155	12486
906.272	12292
906.389	12330
906.506	12213
906.623	12201
906.74	12281
906.857	12102
906.974	12136
907.091	12262
907.208	12346
907.324	12167
907.441	12243
907.557	12125
907.674	11977
907.79	11863
907.907	11996
908.023	11950
908.139	11954
908.256	11840
908.372	11935
908.488	11805
908.604	11718
908.72	11657
908.836	11718
908.952	11649
909.068	11752
909.184	11863
909.3	11745
909.415	11752
909.531	11668
909.647	11482
909.762	11471
909.878	11497
909.993	11478
910.108	11376
910.224	11478
910.339	11410
910.454	11429
910.57	11326
910.685	11322
910.8	11554
910.915	11433
911.03	11345
911.145	11166
911.259	11162
911.374	11143
911.489	11140
911.604	11048
911.718	10942
911.833	10953
911.947	10881
912.062	10816
912.176	10968
912.291	10908
912.405	10896
912.519	11109
912.633	11140
912.748	11033
912.862	10961
912.976	10755
913.09	10733
913.204	10702
913.318	10809
913.431	10949
913.545	10854
913.659	10946
913.772	10854
913.886	10596
914	10637
914.113	10778
914.226	10824
914.34	10771
914.453	10637
914.566	10736
914.68	10641
914.793	10611
914.906	10432
915.019	10474
915.132	10363
915.245	10440
915.358	10474
915.47	10432
915.583	10493
915.696	10516
915.809	10561
915.921	10611
916.034	10497
916.146	10432
916.259	10329
916.371	10428
916.483	10489
916.595	10394
916.708	10375
916.82	10394
916.932	10375
917.044	10268
917.156	10341
917.268	10261
917.38	10303
917.491	10246
917.603	10382
917.715	10379
917.826	10360
917.938	10234
918.049	10196
918.161	10257
918.272	10382
918.384	10436
918.495	10341
918.606	10101
918.717	10177
918.828	10200
918.939	10249
919.05	10040
919.161	10166
919.272	9953
919.383	10013
919.494	10234
919.604	10356
919.715	10154
919.826	10120
919.936	10112
920.047	10291
920.157	10265
920.267	10322
920.378	10257
920.488	10291
920.598	10295
920.708	10489
920.818	10440
920.928	10363
921.038	10531
921.148	10485
921.258	10227
921.368	10101
921.477	10036
921.587	10032
921.697	9892
921.806	10036
921.916	9918
922.025	9743
922.134	9686
922.244	9694
922.353	9804
922.462	9599
922.571	9545
922.68	9435
922.789	9408
922.898	9363
923.007	9416
923.116	9481
923.224	9450
923.333	9439
923.442	9405
923.55	9275
923.659	9302
923.767	9370
923.876	9275
923.984	9367
924.092	9306
924.201	9241
924.309	9313
924.417	9294
924.525	9241
924.633	9218
924.741	9983
924.849	9051
924.956	9226
925.064	9142
925.172	9062
925.279	9055
925.387	9116
925.494	9157
925.602	9146
925.709	9169
925.816	9032
925.924	9123
926.031	9180
926.138	9074
926.245	9131
926.352	9032
926.459	9165
926.566	9207
926.673	9058
926.779	8971
926.886	8941
926.993	8807
927.099	8781
927.206	8758
927.312	8758
927.419	8880
927.525	8853
927.631	8899
927.737	8724
927.843	8697
927.95	8610
928.056	8659
928.162	8769
928.267	8708
928.373	9291
928.479	8788
928.585	8552
928.69	8682
928.796	8697
928.901	8602
929.007	8488
929.112	8590
929.218	8651
929.323	8537
929.428	8514
929.533	8636
929.638	8484
929.743	8526
929.848	8526
929.953	8537
930.058	8499
930.163	8332
930.267	8305
930.372	8499
930.477	8267
930.581	8518
930.685	8377
930.79	8282
930.894	8298
930.998	8279
931.103	8336
931.207	7986
931.311	8001
931.415	7993
931.519	7772
931.623	7738
