Data from test_V78500241_397.txt Node
Date: Fri Mar 25 14:36:29 CST 2022
User: usil
Spectrometer: V785-0024
Trigger mode: 0
Integration Time (sec): 4.000000E-1
Scans to average: 1
Nonlinearity correction enabled: false
Boxcar width: 0
Storing dark spectrum: false
XAxis mode: Wavelengths
Number of Pixels in Spectrum: 1024
>>>>>Begin Spectral Data<<<<<
801.071	26796
801.214	26693
801.356	26355
801.499	26282
801.641	26081
801.783	26149
801.926	26229
802.068	26145
802.211	26035
802.353	26005
802.496	25845
802.638	25704
802.78	25765
802.923	25742
803.065	25552
803.208	25601
803.35	25712
803.492	25799
803.635	25765
803.777	25822
803.919	25780
804.061	26126
804.204	25750
804.346	25639
804.488	25670
804.63	25727
804.773	25609
804.915	25704
805.057	25765
805.199	25689
805.341	25780
805.483	25727
805.626	25715
805.768	25624
805.91	25700
806.052	25651
806.194	25590
806.336	25856
806.478	25586
806.62	25738
806.762	25871
806.904	26012
807.046	26221
807.188	26149
807.33	26096
807.472	26305
807.614	26016
807.756	26020
807.898	25887
808.04	25887
808.182	25833
808.324	25955
808.465	25913
808.607	25925
808.749	26180
808.891	26393
809.033	26469
809.174	26453
809.316	26206
809.458	26210
809.6	26134
809.741	26168
809.883	26263
810.025	26434
810.166	26393
810.308	26495
810.45	26290
810.591	26290
810.733	26020
810.875	26077
811.016	25974
811.158	25997
811.299	26107
811.441	26343
811.582	26138
811.724	25944
811.865	26107
812.007	25959
812.148	26183
812.29	25982
812.431	26157
812.573	26336
812.714	26244
812.855	26518
812.997	26670
813.138	26765
813.279	26537
813.421	26625
813.562	26514
813.703	26374
813.845	26206
813.986	26016
814.127	25788
814.268	25552
814.41	25597
814.551	25605
814.692	25780
814.833	25567
814.974	25533
815.115	25628
815.256	25381
815.397	25388
815.539	25346
815.68	25240
815.821	25327
815.962	25400
816.103	25221
816.244	25274
816.385	25110
816.526	24992
816.666	24932
816.807	24795
816.948	24848
817.089	24856
817.23	24882
817.371	24825
817.512	24730
817.653	24528
817.793	24677
817.934	24738
818.075	24707
818.216	24635
818.356	24700
818.497	24505
818.638	24456
818.778	24292
818.919	24532
819.06	24437
819.2	24536
819.341	24696
819.481	24669
819.622	24817
819.762	24966
819.903	24806
820.043	24833
820.184	24829
820.324	24601
820.465	24783
820.605	24734
820.746	24749
820.886	24547
821.026	24525
821.167	24597
821.307	24726
821.447	24585
821.588	24445
821.728	24296
821.868	24300
822.008	24057
822.149	24117
822.289	24106
822.429	23977
822.569	23794
822.709	23649
822.849	23577
822.99	23638
823.13	23452
823.27	23353
823.41	23318
823.55	23094
823.69	23353
823.83	23242
823.97	23258
824.11	23003
824.25	23098
824.389	23014
824.529	23083
824.669	23079
824.809	23197
824.949	23151
825.089	23117
825.228	23090
825.368	22968
825.508	22961
825.648	22767
825.787	22972
825.927	22850
826.067	22908
826.206	22900
826.346	22915
826.485	22927
826.625	22881
826.765	22972
826.904	22984
827.044	22698
827.183	22565
827.323	22481
827.462	22668
827.601	22694
827.741	22565
827.88	22481
828.02	22356
828.159	22554
828.298	22588
828.437	22584
828.577	22508
828.716	22596
828.855	22386
828.994	22295
829.134	22192
829.273	22253
829.412	22101
829.551	22192
829.69	22135
829.829	22219
829.968	22363
830.107	22280
830.246	22291
830.385	22230
830.524	22059
830.663	21998
830.802	21865
830.941	21762
831.08	21774
831.219	21835
831.357	21755
831.496	22029
831.635	21808
831.774	21713
831.913	21747
832.051	21633
832.19	21568
832.329	21648
832.467	21488
832.606	21504
832.744	21450
832.883	21431
833.022	21454
833.16	21454
833.299	21515
833.437	21424
833.576	21591
833.714	21374
833.852	21572
833.991	21401
834.129	21564
834.267	21435
834.406	21431
834.544	21473
834.682	21561
834.821	21424
834.959	21561
835.097	21412
835.235	21431
835.373	21435
835.511	21439
835.65	21344
835.788	21340
835.926	21135
836.064	21039
836.202	21230
836.34	21466
836.478	21466
836.615	21321
836.753	21329
836.891	21370
837.029	21374
837.167	21237
837.305	21317
837.443	21363
837.58	21051
837.718	21256
837.856	21184
837.993	21230
838.131	21218
838.269	21062
838.406	21062
838.544	20914
838.681	20777
838.819	20861
838.956	20552
839.094	20606
839.231	20609
839.369	20750
839.506	21070
839.643	20910
839.781	20514
839.918	20598
840.055	20765
840.193	20533
840.33	20408
840.467	20457
840.604	20636
840.742	20750
840.879	20377
841.016	20362
841.153	20431
841.29	20648
841.427	20583
841.564	20476
841.701	20533
841.838	20518
841.975	20347
842.112	20328
842.249	20415
842.385	20267
842.522	20530
842.659	20229
842.796	20237
842.933	20309
843.069	20237
843.206	20149
843.343	20214
843.479	20278
843.616	20256
843.752	20050
843.889	19986
844.025	20111
844.162	19940
844.298	20084
844.435	19967
844.571	19993
844.708	20024
844.844	20081
844.98	20069
845.117	20168
845.253	19959
845.389	19875
845.525	19822
845.661	19875
845.798	19826
845.934	19818
846.07	19738
846.206	19856
846.342	19757
846.478	19704
846.614	19601
846.75	19491
846.886	19407
847.022	19609
847.158	19476
847.294	19388
847.429	19491
847.565	19518
847.701	19693
847.837	19183
847.972	19156
848.108	19202
848.244	19232
848.379	19042
848.515	19046
848.65	19000
848.786	18996
848.921	19042
849.057	19129
849.192	19198
849.328	19019
849.463	19031
849.598	18916
849.734	18951
849.869	18802
850.004	18768
850.14	18833
850.275	18859
850.41	18677
850.545	18711
850.68	18673
850.815	18814
850.95	18734
851.085	18890
851.22	18810
851.355	18844
851.49	18696
851.625	18726
851.76	18639
851.895	18650
852.03	18608
852.165	18753
852.299	18802
852.434	18913
852.569	18658
852.703	18578
852.838	18837
852.973	18810
853.107	18840
853.242	18635
853.376	18620
853.511	18486
853.645	18494
853.78	18696
853.914	18597
854.048	18536
854.183	18540
854.317	18536
854.451	18764
854.585	18597
854.72	18635
854.854	18597
854.988	18517
855.122	18540
855.256	18471
855.39	18574
855.524	18642
855.658	18745
855.792	18661
855.926	18525
856.06	18620
856.194	18715
856.327	18540
856.461	18555
856.595	18467
856.729	18502
856.862	18585
856.996	18521
857.13	18719
857.263	18741
857.397	18604
857.53	18582
857.664	18589
857.797	18642
857.931	18574
858.064	18513
858.197	18585
858.331	18585
858.464	18445
858.597	18445
858.731	18452
858.864	18452
858.997	18559
859.13	18521
859.263	18384
859.396	18688
859.529	18460
859.662	18372
859.795	18388
859.928	18502
860.061	18578
860.194	18688
860.327	18475
860.46	18414
860.592	18585
860.725	18608
860.858	18681
860.99	18464
861.123	18429
861.256	18418
861.388	18490
861.521	19335
861.653	18365
861.786	18384
861.918	18403
862.05	18445
862.183	18490
862.315	18631
862.447	18521
862.58	18547
862.712	18273
862.844	18186
862.976	18399
863.108	18342
863.24	18608
863.372	18216
863.504	18235
863.636	18369
863.768	18342
863.9	18273
864.032	18201
864.164	18201
864.296	18224
864.428	18258
864.559	18342
864.691	18197
864.823	18243
864.954	18262
865.086	18228
865.217	18110
865.349	18049
865.48	18194
865.612	18095
865.743	18190
865.875	18171
866.006	18281
866.137	18186
866.269	18152
866.4	18019
866.531	18209
866.662	18045
866.793	18064
866.924	18049
867.055	18087
867.186	18011
867.317	18053
867.448	18034
867.579	18091
867.71	18053
867.841	18007
867.972	18110
868.103	18019
868.233	18064
868.364	18136
868.495	18159
868.625	18216
868.756	18486
868.886	18197
869.017	18262
869.147	18479
869.278	18486
869.408	18361
869.539	18334
869.669	18391
869.799	18353
869.929	18452
870.06	18327
870.19	18673
870.32	18593
870.45	18623
870.58	18779
870.71	18700
870.84	18840
870.97	18776
871.1	18779
871.23	18863
871.36	18821
871.489	18897
871.619	18863
871.749	18932
871.879	18996
872.008	19004
872.138	18916
872.267	18901
872.397	18844
872.526	18719
872.656	18798
872.785	18757
872.915	18856
873.044	18867
873.173	18916
873.303	18985
873.432	18981
873.561	18932
873.69	18916
873.819	19076
873.948	18935
874.077	18897
874.206	18890
874.335	18993
874.464	19095
874.593	19175
874.722	19110
874.851	19213
874.979	19168
875.108	19369
875.237	19194
875.365	19137
875.494	19164
875.623	19278
875.751	19107
875.88	19198
876.008	19396
876.136	19453
876.265	19537
876.393	19685
876.521	19651
876.65	19578
876.778	19575
876.906	19605
877.034	19480
877.162	19609
877.29	19483
877.418	19635
877.546	19487
877.674	19662
877.802	19643
877.93	19548
878.058	19537
878.185	19487
878.313	19533
878.441	19605
878.568	19472
878.696	19559
878.824	19590
878.951	19597
879.079	19879
879.206	19967
879.333	19818
879.461	19681
879.588	19784
879.715	19788
879.842	20008
879.97	19643
880.097	19483
880.224	19301
880.351	19441
880.478	19499
880.605	19426
880.732	19362
880.859	19647
880.986	19578
881.112	19415
881.239	19304
881.366	19187
881.493	19107
881.619	19114
881.746	19061
881.872	19069
881.999	19072
882.125	19031
882.252	19046
882.378	19206
882.505	19175
882.631	18901
882.757	18844
882.883	18878
883.01	18837
883.136	18848
883.262	18741
883.388	18711
883.514	18894
883.64	18814
883.766	18840
883.892	18627
884.018	18623
884.143	18741
884.269	18806
884.395	18696
884.52	18547
884.646	18536
884.772	18407
884.897	18369
885.023	18498
885.148	18608
885.274	18635
885.399	18566
885.524	18490
885.65	18464
885.775	18460
885.9	18452
886.025	18681
886.15	18475
886.275	18437
886.4	18429
886.525	18353
886.65	18448
886.775	18460
886.9	18574
887.025	18673
887.149	18486
887.274	18224
887.399	18201
887.523	18426
887.648	18190
887.773	18262
887.897	18266
888.021	18338
888.146	17977
888.27	18327
888.395	18334
888.519	18357
888.643	18285
888.767	18216
888.891	18117
889.015	17996
889.139	18136
889.263	18034
889.387	18136
889.511	18213
889.635	18228
889.759	18117
889.883	17996
890.006	18064
890.13	18083
890.254	18007
890.377	17984
890.501	17798
890.624	17790
890.748	17851
890.871	17843
890.995	17699
891.118	17596
891.241	17726
891.364	17756
891.488	17710
891.611	17661
891.734	17676
891.857	17726
891.98	17718
892.103	17707
892.226	17737
892.349	17509
892.471	17520
892.594	17619
892.717	17585
892.839	17699
892.962	17741
893.085	17737
893.207	17581
893.33	17444
893.452	17528
893.575	17630
893.697	17623
893.819	17813
893.941	17756
894.064	17767
894.186	17509
894.308	17551
894.43	17775
894.552	17809
894.674	17657
894.796	17630
894.918	17630
895.04	17566
895.161	17707
895.283	17695
895.405	17551
895.526	17604
895.648	17691
895.769	17748
895.891	17718
896.012	17790
896.134	17771
896.255	17703
896.376	17680
896.498	17722
896.619	17756
896.74	17714
896.861	17748
896.982	18007
897.103	18167
897.224	17931
897.345	18015
897.466	17790
897.587	17984
897.708	18011
897.828	18057
897.949	17958
898.07	17703
898.19	17935
898.311	18022
898.431	17965
898.552	17920
898.672	17984
898.792	17946
898.913	17965
899.033	17843
899.153	17794
899.273	17699
899.393	17634
899.513	17733
899.633	17748
899.753	17737
899.873	17756
899.993	17714
900.113	17547
900.232	17748
900.352	17619
900.472	17722
900.591	17592
900.711	17551
900.83	17505
900.95	17630
901.069	17657
901.189	17505
901.308	17235
901.427	17197
901.546	17162
901.665	17147
901.784	17128
901.904	17018
902.023	17010
902.141	16854
902.26	16797
902.379	16694
902.498	16588
902.617	16577
902.735	16668
902.854	16721
902.973	16531
903.091	16402
903.21	16379
903.328	16371
903.446	16360
903.565	16226
903.683	16196
903.801	16101
903.919	16139
904.038	16109
904.156	15956
904.274	16040
904.392	15949
904.51	15991
904.627	15994
904.745	16051
904.863	16010
904.981	15819
905.098	15648
905.216	15576
905.334	15736
905.451	15625
905.569	15526
905.686	15755
905.803	15568
905.921	15450
906.038	15507
906.155	15511
906.272	15408
906.389	15268
906.506	15214
906.623	15245
906.74	15188
906.857	15089
906.974	15066
907.091	15226
907.208	15291
907.324	15199
907.441	15123
907.557	14990
907.674	14883
907.79	14819
907.907	14796
908.023	14933
908.139	14842
908.256	14826
908.372	14746
908.488	14773
908.604	14598
908.72	14560
908.836	14606
908.952	14636
909.068	14651
909.184	14746
909.3	14590
909.415	14610
909.531	14610
909.647	14469
909.762	14317
909.878	14237
909.993	14343
910.108	14317
910.224	14278
910.339	14282
910.454	14320
910.57	14164
910.685	14084
910.8	14332
910.915	14332
911.03	14176
911.145	13940
911.259	13890
911.374	13989
911.489	13883
911.604	13826
911.718	13841
911.833	13639
911.947	13521
912.062	13518
912.176	13655
912.291	13704
912.405	13662
912.519	13791
912.633	13898
912.748	13795
912.862	13590
912.976	13552
913.09	13381
913.204	13457
913.318	13529
913.431	13601
913.545	13533
913.659	13639
913.772	13571
913.886	13518
914	13369
914.113	13476
914.226	13544
914.34	13434
914.453	13301
914.566	13457
914.68	13377
914.793	13270
914.906	13149
915.019	13065
915.132	13057
915.245	12970
915.358	13088
915.47	13103
915.583	13095
915.696	13038
915.809	13187
915.921	13156
916.034	12993
916.146	13034
916.259	12958
916.371	13053
916.483	12954
916.595	12897
916.708	12890
916.82	12920
916.932	12867
917.044	12863
917.156	12951
917.268	12753
917.38	12757
917.491	12665
917.603	12795
917.715	12829
917.826	12833
917.938	12623
918.049	12635
918.161	12795
918.272	12894
918.384	12875
918.495	12673
918.606	12559
918.717	12483
918.828	12620
918.939	12608
919.05	12486
919.161	12608
919.272	12361
919.383	12452
919.494	12593
919.604	12654
919.715	12551
919.826	12490
919.936	12582
920.047	12540
920.157	12429
920.267	12745
920.378	12555
920.488	12456
920.598	12669
920.708	12871
920.818	12642
920.928	12639
921.038	12802
921.148	12764
921.258	12418
921.368	12437
921.477	12311
921.587	12365
921.697	12190
921.806	12197
921.916	12087
922.025	12079
922.134	11984
922.244	11958
922.353	11992
922.462	11908
922.571	11836
922.68	11638
922.789	11608
922.898	11608
923.007	11532
923.116	11714
923.224	11596
923.333	11600
923.442	11520
923.55	11509
923.659	11539
923.767	11516
923.876	11486
923.984	11566
924.092	11330
924.201	11486
924.309	11398
924.417	11444
924.525	11414
924.633	11349
924.741	12262
924.849	11231
924.956	11277
925.064	11132
925.172	11117
925.279	11159
925.387	11189
925.494	11075
925.602	11311
925.709	11208
925.816	11117
925.924	11117
926.031	11277
926.138	11147
926.245	11181
926.352	10991
926.459	11193
926.566	11239
926.673	11102
926.779	10915
926.886	10930
926.993	10801
927.099	10854
927.206	10729
927.312	10725
927.419	10862
927.525	10809
927.631	10847
927.737	10668
927.843	10672
927.95	10497
928.056	10584
928.162	10679
928.267	10649
928.373	11349
928.479	10786
928.585	10470
928.69	10603
928.796	10569
928.901	10554
929.007	10402
929.112	10542
929.218	10527
929.323	10504
929.428	10371
929.533	10546
929.638	10379
929.743	10360
929.848	10459
929.953	10382
930.058	10276
930.163	10116
930.267	10139
930.372	10291
930.477	10017
930.581	10329
930.685	10223
930.79	10036
930.894	10074
930.998	9953
931.103	10090
931.207	9857
931.311	9740
931.415	9610
931.519	9435
931.623	9458
