Data from test_V78500241_3006.txt Node
Date: Fri Mar 25 14:54:38 CST 2022
User: usil
Spectrometer: V785-0024
Trigger mode: 0
Integration Time (sec): 4.000000E-1
Scans to average: 1
Nonlinearity correction enabled: false
Boxcar width: 0
Storing dark spectrum: false
XAxis mode: Wavelengths
Number of Pixels in Spectrum: 1024
>>>>>Begin Spectral Data<<<<<
801.071	22051
801.214	21975
801.356	21739
801.499	21561
801.641	21466
801.783	21576
801.926	21492
802.068	21344
802.211	21272
802.353	21355
802.496	21009
802.638	20906
802.78	20933
802.923	20857
803.065	20826
803.208	20678
803.35	20804
803.492	20823
803.635	20944
803.777	20754
803.919	20781
804.061	21211
804.204	20811
804.346	20781
804.488	20674
804.63	20811
804.773	20636
804.915	20651
805.057	20819
805.199	20663
805.341	20765
805.483	20899
805.626	20887
805.768	20667
805.91	20613
806.052	20792
806.194	20552
806.336	20826
806.478	20625
806.62	20537
806.762	20682
806.904	20979
807.046	21199
807.188	20994
807.33	21047
807.472	21146
807.614	21055
807.756	20929
807.898	20720
808.04	20724
808.182	20686
808.324	20887
808.465	20864
808.607	20933
808.749	21089
808.891	21165
809.033	21275
809.174	21100
809.316	21039
809.458	21032
809.6	20971
809.741	21154
809.883	21199
810.025	21173
810.166	21176
810.308	21382
810.45	21108
810.591	20963
810.733	20952
810.875	20921
811.016	20876
811.158	20598
811.299	20906
811.441	21089
811.582	20891
811.724	20826
811.865	20765
812.007	20910
812.148	20861
812.29	20842
812.431	20952
812.573	21154
812.714	21249
812.855	21359
812.997	21370
813.138	21580
813.279	21367
813.421	21355
813.562	21344
813.703	21001
813.845	21036
813.986	20659
814.127	20583
814.268	20385
814.41	20446
814.551	20275
814.692	20469
814.833	20263
814.974	20286
815.115	20374
815.256	20282
815.397	20237
815.539	20267
815.68	20115
815.821	20027
815.962	20100
816.103	20058
816.244	19898
816.385	19753
816.526	19807
816.666	19662
816.807	19537
816.948	19620
817.089	19620
817.23	19590
817.371	19525
817.512	19567
817.653	19624
817.793	19480
817.934	19422
818.075	19544
818.216	19521
818.356	19438
818.497	19457
818.638	19202
818.778	19194
818.919	19145
819.06	19251
819.2	19373
819.341	19445
819.481	19365
819.622	19506
819.762	19795
819.903	19620
820.043	19514
820.184	19430
820.324	19605
820.465	19510
820.605	19377
820.746	19544
820.886	19266
821.026	19426
821.167	19419
821.307	19464
821.447	19426
821.588	19282
821.728	19152
821.868	19080
822.008	18924
822.149	18787
822.289	18844
822.429	18585
822.569	18574
822.709	18566
822.849	18323
822.99	18429
823.13	18395
823.27	18369
823.41	18247
823.55	18072
823.69	18315
823.83	18133
823.97	18133
824.11	17931
824.25	17935
824.389	17954
824.529	18034
824.669	17916
824.809	18068
824.949	17992
825.089	18041
825.228	17828
825.368	17649
825.508	17847
825.648	17767
825.787	17726
825.927	17748
826.067	17676
826.206	17608
826.346	17741
826.485	17691
826.625	17623
826.765	17847
826.904	17752
827.044	17547
827.183	17535
827.323	17402
827.462	17532
827.601	17402
827.741	17478
827.88	17356
828.02	17353
828.159	17402
828.298	17444
828.437	17490
828.577	17421
828.716	17554
828.855	17421
828.994	17174
829.134	17162
829.273	17231
829.412	16972
829.551	17147
829.69	17151
829.829	17117
829.968	17288
830.107	17231
830.246	17254
830.385	17102
830.524	17025
830.663	17067
830.802	16835
830.941	16755
831.08	16641
831.219	16889
831.357	16866
831.496	17033
831.635	16687
831.774	16641
831.913	16634
832.051	16641
832.19	16603
832.329	16489
832.467	16466
832.606	16386
832.744	16428
832.883	16436
833.022	16382
833.16	16470
833.299	16478
833.437	16470
833.576	16554
833.714	16462
833.852	16622
833.991	16493
834.129	16573
834.267	16588
834.406	16554
834.544	16535
834.682	16694
834.821	16440
834.959	16675
835.097	16451
835.235	16558
835.373	16538
835.511	16561
835.65	16493
835.788	16390
835.926	16230
836.064	16177
836.202	16360
836.34	16459
836.478	16409
836.615	16356
836.753	16371
836.891	16558
837.029	16424
837.167	16299
837.305	16333
837.443	16268
837.58	16242
837.718	16322
837.856	16276
837.993	16284
838.131	16238
838.269	16158
838.406	16234
838.544	16139
838.681	16082
838.819	16017
838.956	15778
839.094	15842
839.231	15854
839.369	15956
839.506	16284
839.643	15991
839.781	15819
839.918	15690
840.055	15797
840.193	15713
840.33	15808
840.467	15812
840.604	15724
840.742	15964
840.879	15705
841.016	15732
841.153	15694
841.29	15884
841.427	15766
841.564	15888
841.701	15850
841.838	15690
841.975	15641
842.112	15850
842.249	15637
842.385	15595
842.522	15755
842.659	15671
842.796	15610
842.933	15584
843.069	15629
843.206	15530
843.343	15682
843.479	15584
843.616	15580
843.752	15370
843.889	15367
844.025	15561
844.162	15348
844.298	15481
844.435	15386
844.571	15325
844.708	15378
844.844	15469
844.98	15462
845.117	15420
845.253	15287
845.389	15256
845.525	15378
845.661	15176
845.798	15180
845.934	15294
846.07	15039
846.206	15245
846.342	15332
846.478	15245
846.614	14990
846.75	14933
846.886	14944
847.022	15013
847.158	15058
847.294	14990
847.429	15009
847.565	14952
847.701	15188
847.837	14731
847.972	14697
848.108	14800
848.244	14758
848.379	14556
848.515	14579
848.65	14442
848.786	14552
848.921	14533
849.057	14701
849.192	14530
849.328	14621
849.463	14579
849.598	14602
849.734	14492
849.869	14408
850.004	14389
850.14	14381
850.275	14358
850.41	14199
850.545	14267
850.68	14328
850.815	14385
850.95	14305
851.085	14408
851.22	14362
851.355	14393
851.49	14278
851.625	14237
851.76	14320
851.895	14313
852.03	14294
852.165	14237
852.299	14317
852.434	14396
852.569	14294
852.703	14355
852.838	14446
852.973	14541
853.107	14366
853.242	14267
853.376	14237
853.511	14027
853.645	14103
853.78	14336
853.914	14199
854.048	14153
854.183	14111
854.317	14195
854.451	14377
854.585	14237
854.72	14202
854.854	14313
854.988	14046
855.122	14077
855.256	14134
855.39	14221
855.524	14286
855.658	14290
855.792	14130
855.926	14126
856.06	14301
856.194	14233
856.327	14195
856.461	14142
856.595	14100
856.729	14096
856.862	14278
856.996	14229
857.13	14240
857.263	14317
857.397	14286
857.53	14157
857.664	14282
857.797	14187
857.931	14263
858.064	14153
858.197	14176
858.331	14244
858.464	14142
858.597	14062
858.731	14138
858.864	14221
858.997	14176
859.13	14180
859.263	14199
859.396	14278
859.529	14069
859.662	14153
859.795	14153
859.928	14149
860.061	14290
860.194	14385
860.327	14180
860.46	14183
860.592	14309
860.725	14358
860.858	14290
860.99	14195
861.123	14142
861.256	14142
861.388	14172
861.521	14739
861.653	14115
861.786	13894
861.918	13982
862.05	14005
862.183	14123
862.315	14119
862.447	14206
862.58	14145
862.712	13940
862.844	13868
862.976	13997
863.108	14043
863.24	14503
863.372	13917
863.504	14005
863.636	13940
863.768	14031
863.9	14073
864.032	13864
864.164	13845
864.296	13963
864.428	13989
864.559	14054
864.691	14020
864.823	14107
864.954	13951
865.086	13917
865.217	13909
865.349	13826
865.48	13925
865.612	14005
865.743	14024
865.875	13959
866.006	13917
866.137	13993
866.269	13940
866.4	13936
866.531	13837
866.662	13818
866.793	13894
866.924	13841
867.055	13982
867.186	13947
867.317	13849
867.448	13928
867.579	13883
867.71	13868
867.841	13849
867.972	13909
868.103	14008
868.233	13959
868.364	14031
868.495	13978
868.625	14229
868.756	14286
868.886	14016
869.017	14142
869.147	14298
869.278	14275
869.408	14278
869.539	14324
869.669	14275
869.799	14157
869.929	14301
870.06	14317
870.19	14492
870.32	14377
870.45	14530
870.58	14583
870.71	14735
870.84	14663
870.97	14560
871.1	14533
871.23	14716
871.36	14785
871.489	14758
871.619	14815
871.749	14765
871.879	14765
872.008	14845
872.138	14864
872.267	14758
872.397	14686
872.526	14598
872.656	14598
872.785	14617
872.915	14765
873.044	14891
873.173	14883
873.303	14895
873.432	14899
873.561	14883
873.69	14792
873.819	14811
873.948	14838
874.077	14845
874.206	14861
874.335	14834
874.464	14948
874.593	15108
874.722	15142
874.851	15184
874.979	15184
875.108	15222
875.237	15036
875.365	15188
875.494	15165
875.623	15245
875.751	15207
875.88	15222
876.008	15291
876.136	15291
876.265	15622
876.393	15720
876.521	15618
876.65	15739
876.778	15561
876.906	15595
877.034	15488
877.162	15584
877.29	15538
877.418	15542
877.546	15545
877.674	15568
877.802	15622
877.93	15504
878.058	15584
878.185	15435
878.313	15576
878.441	15511
878.568	15401
878.696	15549
878.824	15496
878.951	15701
879.079	15732
879.206	15960
879.333	15778
879.461	15709
879.588	15724
879.715	15675
879.842	15854
879.97	15584
880.097	15363
880.224	15397
880.351	15435
880.478	15477
880.605	15340
880.732	15359
880.859	15663
880.986	15557
881.112	15466
881.239	15336
881.366	15207
881.493	15157
881.619	15047
881.746	15081
881.872	15131
881.999	14994
882.125	15020
882.252	15051
882.378	15154
882.505	15260
882.631	15028
882.757	14948
882.883	14891
883.01	14849
883.136	14891
883.262	14750
883.388	14724
883.514	14918
883.64	14876
883.766	14861
883.892	14621
884.018	14689
884.143	14834
884.269	15047
884.395	14716
884.52	14686
884.646	14606
884.772	14598
884.897	14412
885.023	14560
885.148	14716
885.274	14720
885.399	14750
885.524	14594
885.65	14617
885.775	14670
885.9	14621
886.025	14727
886.15	14689
886.275	14594
886.4	14488
886.525	14579
886.65	14549
886.775	14518
886.9	14746
887.025	14777
887.149	14640
887.274	14511
887.399	14339
887.523	14408
887.648	14332
887.773	14442
887.897	14522
888.021	14465
888.146	14347
888.27	14594
888.395	14560
888.519	14465
888.643	14476
888.767	14469
888.891	14305
889.015	14286
889.139	14362
889.263	14332
889.387	14461
889.511	14560
889.635	14454
889.759	14419
889.883	14412
890.006	14317
890.13	14305
890.254	14199
890.377	14180
890.501	14176
890.624	14012
890.748	14145
890.871	14027
890.995	13894
891.118	13860
891.241	14058
891.364	14031
891.488	14130
891.611	13928
891.734	13970
891.857	14031
891.98	14119
892.103	14062
892.226	14077
892.349	13974
892.471	13845
892.594	13959
892.717	14050
892.839	14008
892.962	13974
893.085	14084
893.207	14050
893.33	13868
893.452	13940
893.575	14020
893.697	13959
893.819	14142
893.941	14301
894.064	14065
894.186	13993
894.308	13940
894.43	14123
894.552	14214
894.674	14096
894.796	14012
894.918	14081
895.04	14016
895.161	14183
895.283	14123
895.405	13970
895.526	14062
895.648	14103
895.769	14130
895.891	14149
896.012	14267
896.134	14176
896.255	14107
896.376	14271
896.498	14092
896.619	14324
896.74	14202
896.861	14202
896.982	14564
897.103	14617
897.224	14404
897.345	14415
897.466	14377
897.587	14419
897.708	14537
897.828	14522
897.949	14408
898.07	14294
898.19	14533
898.311	14602
898.431	14434
898.552	14583
898.672	14648
898.792	14594
898.913	14511
899.033	14499
899.153	14438
899.273	14256
899.393	14332
899.513	14469
899.633	14442
899.753	14442
899.873	14427
899.993	14469
900.113	14446
900.232	14469
900.352	14301
900.472	14294
900.591	14233
900.711	14176
900.83	14244
900.95	14298
901.069	14362
901.189	14164
901.308	13902
901.427	13852
901.546	13906
901.665	14008
901.784	13871
901.904	13788
902.023	13734
902.141	13552
902.26	13586
902.379	13533
902.498	13518
902.617	13453
902.735	13537
902.854	13464
902.973	13441
903.091	13221
903.21	13217
903.328	13221
903.446	13171
903.565	13015
903.683	13175
903.801	12985
903.919	13000
904.038	13099
904.156	12913
904.274	12920
904.392	12882
904.51	12897
904.627	12890
904.745	12909
904.863	12970
904.981	12738
905.098	12593
905.216	12582
905.334	12608
905.451	12566
905.569	12559
905.686	12703
905.803	12589
905.921	12369
906.038	12536
906.155	12399
906.272	12315
906.389	12285
906.506	12121
906.623	12125
906.74	12041
906.857	12060
906.974	12068
907.091	12209
907.208	12304
907.324	12239
907.441	12102
907.557	11992
907.674	11935
907.79	11794
907.907	11889
908.023	11958
908.139	11935
908.256	11897
908.372	11840
908.488	11863
908.604	11649
908.72	11688
908.836	11653
908.952	11634
909.068	11661
909.184	11703
909.3	11688
909.415	11688
909.531	11691
909.647	11490
909.762	11486
909.878	11356
909.993	11440
910.108	11353
910.224	11383
910.339	11383
910.454	11383
910.57	11368
910.685	11212
910.8	11619
910.915	11436
911.03	11265
911.145	11201
911.259	11166
911.374	11128
911.489	11045
911.604	11083
911.718	10873
911.833	10869
911.947	10866
912.062	10793
912.176	10900
912.291	10949
912.405	10934
912.519	11216
912.633	11102
912.748	10930
912.862	10915
912.976	10797
913.09	10717
913.204	10759
913.318	10767
913.431	10923
913.545	10900
913.659	10877
913.772	10748
913.886	10687
914	10637
914.113	10744
914.226	10797
914.34	10721
914.453	10584
914.566	10904
914.68	10641
914.793	10618
914.906	10474
915.019	10375
915.132	10314
915.245	10405
915.358	10447
915.47	10516
915.583	10455
915.696	10405
915.809	10538
915.921	10546
916.034	10360
916.146	10291
916.259	10333
916.371	10466
916.483	10428
916.595	10405
916.708	10360
916.82	10402
916.932	10310
917.044	10382
917.156	10333
917.268	10249
917.38	10299
917.491	10230
917.603	10253
917.715	10360
917.826	10398
917.938	10230
918.049	10177
918.161	10207
918.272	10409
918.384	10459
918.495	10261
918.606	10188
918.717	10082
918.828	10105
918.939	10169
919.05	10101
919.161	10166
919.272	9892
919.383	9987
919.494	10158
919.604	10344
919.715	10215
919.826	10090
919.936	10135
920.047	10196
920.157	10177
920.267	10367
920.378	10192
920.488	10135
920.598	10322
920.708	10504
920.818	10405
920.928	10303
921.038	10504
921.148	10504
921.258	10181
921.368	10135
921.477	10040
921.587	10021
921.697	9930
921.806	9979
921.916	9831
922.025	9797
922.134	9720
922.244	9717
922.353	9705
922.462	9545
922.571	9526
922.68	9469
922.789	9348
922.898	9420
923.007	9336
923.116	9500
923.224	9488
923.333	9386
923.442	9272
923.55	9283
923.659	9340
923.767	9458
923.876	9233
923.984	9291
924.092	9237
924.201	9287
924.309	9241
924.417	9329
924.525	9203
924.633	9256
924.741	10131
924.849	8971
924.956	9233
925.064	9127
925.172	9062
925.279	8956
925.387	9047
925.494	9074
925.602	9253
925.709	9157
925.816	9097
925.924	9036
926.031	9116
926.138	9024
926.245	9127
926.352	8986
926.459	9119
926.566	9199
926.673	8971
926.779	8910
926.886	8929
926.993	8815
927.099	8811
927.206	8785
927.312	8746
927.419	8887
927.525	8819
927.631	8830
927.737	8735
927.843	8670
927.95	8526
928.056	8678
928.162	8750
928.267	8735
928.373	9291
928.479	8834
928.585	8518
928.69	8651
928.796	8708
928.901	8545
929.007	8522
929.112	8564
929.218	8613
929.323	8518
929.428	8537
929.533	8663
929.638	8381
929.743	8438
929.848	8530
929.953	8518
930.058	8442
930.163	8240
930.267	8309
930.372	8385
930.477	8195
930.581	8438
930.685	8336
930.79	8267
930.894	8202
930.998	8195
931.103	8358
931.207	8046
931.311	8043
931.415	7879
931.519	7731
931.623	7780
