Data from test_V78500241_578.txt Node
Date: Fri Mar 25 14:37:44 CST 2022
User: usil
Spectrometer: V785-0024
Trigger mode: 0
Integration Time (sec): 4.000000E-1
Scans to average: 1
Nonlinearity correction enabled: false
Boxcar width: 0
Storing dark spectrum: false
XAxis mode: Wavelengths
Number of Pixels in Spectrum: 1024
>>>>>Begin Spectral Data<<<<<
801.071	27736
801.214	27622
801.356	27504
801.499	27427
801.641	27157
801.783	27199
801.926	27207
802.068	27135
802.211	26910
802.353	26918
802.496	26883
802.638	26804
802.78	26682
802.923	26617
803.065	26712
803.208	26708
803.35	26754
803.492	26785
803.635	26823
803.777	26781
803.919	26788
804.061	27123
804.204	26914
804.346	26819
804.488	26765
804.63	26693
804.773	26815
804.915	26849
805.057	27036
805.199	26998
805.341	27142
805.483	27142
805.626	27104
805.768	27089
805.91	27195
806.052	27492
806.194	27306
806.336	27686
806.478	27473
806.62	27583
806.762	27873
806.904	28238
807.046	28767
807.188	28786
807.33	28938
807.472	29551
807.614	29775
807.756	30095
807.898	30719
808.04	31700
808.182	32895
808.324	34577
808.465	36197
808.607	38183
808.749	39937
808.891	40809
809.033	40736
809.174	39861
809.316	38149
809.458	36144
809.6	34143
809.741	32712
809.883	31445
810.025	30722
810.166	30007
810.308	29551
810.45	29140
810.591	28900
810.733	28535
810.875	28101
811.016	27983
811.158	27637
811.299	27804
811.441	27865
811.582	27682
811.724	27492
811.865	27515
812.007	27431
812.148	27351
812.29	27416
812.431	27458
812.573	27492
812.714	27526
812.855	27785
812.997	27827
813.138	27914
813.279	27850
813.421	27694
813.562	27591
813.703	27321
813.845	27389
813.986	26921
814.127	26712
814.268	26583
814.41	26617
814.551	26568
814.692	26568
814.833	26442
814.974	26336
815.115	26434
815.256	26248
815.397	26240
815.539	26183
815.68	26157
815.821	26092
815.962	26275
816.103	26168
816.244	26092
816.385	25887
816.526	25799
816.666	25670
816.807	25575
816.948	25548
817.089	25776
817.23	25415
817.371	25476
817.512	25476
817.653	25453
817.793	25479
817.934	25388
818.075	25506
818.216	25381
818.356	25411
818.497	25175
818.638	25076
818.778	25126
818.919	25217
819.06	25175
819.2	25198
819.341	25304
819.481	25270
819.622	25533
819.762	25605
819.903	25548
820.043	25377
820.184	25232
820.324	25335
820.465	25354
820.605	25377
820.746	25164
820.886	25206
821.026	25175
821.167	25198
821.307	25285
821.447	25141
821.588	24958
821.728	24951
821.868	24833
822.008	24555
822.149	24734
822.289	24582
822.429	24350
822.569	24220
822.709	24327
822.849	23893
822.99	24121
823.13	24011
823.27	23961
823.41	23847
823.55	23752
823.69	23912
823.83	23870
823.97	23824
824.11	23570
824.25	23573
824.389	23566
824.529	23547
824.669	23611
824.809	23752
824.949	23684
825.089	23554
825.228	23531
825.368	23410
825.508	23497
825.648	23379
825.787	23463
825.927	23444
826.067	23315
826.206	23273
826.346	23292
826.485	23493
826.625	23277
826.765	23372
826.904	23391
827.044	23166
827.183	23014
827.323	23006
827.462	23162
827.601	23041
827.741	22900
827.88	22946
828.02	22858
828.159	22942
828.298	22968
828.437	23079
828.577	22965
828.716	23178
828.855	22873
828.994	22698
829.134	22752
829.273	22698
829.412	22691
829.551	22755
829.69	22752
829.829	22694
829.968	22828
830.107	22622
830.246	22710
830.385	22554
830.524	22683
830.663	22508
830.802	22386
830.941	22280
831.08	22234
831.219	22322
831.357	22329
831.496	22398
831.635	22306
831.774	22276
831.913	22185
832.051	22185
832.19	22181
832.329	22238
832.467	21983
832.606	22074
832.744	22109
832.883	22128
833.022	22131
833.16	22207
833.299	22280
833.437	22341
833.576	22356
833.714	22519
833.852	22519
833.991	22592
834.129	22683
834.267	22630
834.406	22615
834.544	22748
834.682	22626
834.821	22409
834.959	22531
835.097	22348
835.235	22371
835.373	22280
835.511	22169
835.65	22078
835.788	21968
835.926	21766
836.064	21663
836.202	21766
836.34	21854
836.478	21888
836.615	21686
836.753	21846
836.891	21873
837.029	21857
837.167	21770
837.305	21732
837.443	21732
837.58	21610
837.718	21663
837.856	21641
837.993	21557
838.131	21622
838.269	21523
838.406	21370
838.544	21496
838.681	21412
838.819	21230
838.956	21093
839.094	21089
839.231	21085
839.369	21180
839.506	21485
839.643	21135
839.781	21013
839.918	20952
840.055	20952
840.193	20971
840.33	20872
840.467	20902
840.604	20956
840.742	21203
840.879	20883
841.016	20769
841.153	20834
841.29	21081
841.427	20921
841.564	20960
841.701	21043
841.838	20929
841.975	20883
842.112	20773
842.249	20716
842.385	20758
842.522	20975
842.659	20731
842.796	20594
842.933	20792
843.069	20689
843.206	20746
843.343	20819
843.479	20765
843.616	20853
843.752	20716
843.889	20727
844.025	20807
844.162	20781
844.298	20861
844.435	20796
844.571	20811
844.708	21146
844.844	21340
844.98	21576
845.117	22090
845.253	22276
845.389	23292
845.525	25468
845.661	28580
845.798	32594
845.934	36034
846.07	37312
846.206	36467
846.342	33835
846.478	29843
846.614	26229
846.75	23840
846.886	22512
847.022	21766
847.158	21188
847.294	20788
847.429	20651
847.565	20450
847.701	20590
847.837	19997
847.972	19928
848.108	20065
848.244	19928
848.379	19731
848.515	19776
848.65	19670
848.786	19639
848.921	19567
849.057	19696
849.192	19719
849.328	19609
849.463	19582
849.598	19480
849.734	19392
849.869	19422
850.004	19308
850.14	19343
850.275	19392
850.41	19156
850.545	19110
850.68	19240
850.815	19263
850.95	19373
851.085	19407
851.22	19354
851.355	19297
851.49	19270
851.625	19236
851.76	19266
851.895	19122
852.03	19259
852.165	19244
852.299	19221
852.434	19335
852.569	19411
852.703	19316
852.838	19438
852.973	19552
853.107	19392
853.242	19259
853.376	19236
853.511	19065
853.645	19289
853.78	19377
853.914	19263
854.048	19179
854.183	19346
854.317	19381
854.451	19506
854.585	19297
854.72	19266
854.854	19365
854.988	19221
855.122	19285
855.256	19133
855.39	19285
855.524	19282
855.658	19156
855.792	19156
855.926	19038
856.06	19175
856.194	19213
856.327	19137
856.461	19038
856.595	18928
856.729	19061
856.862	19160
856.996	19175
857.13	18989
857.263	19080
857.397	19053
857.53	19019
857.664	19080
857.797	19019
857.931	19122
858.064	18973
858.197	19190
858.331	19065
858.464	18878
858.597	18939
858.731	18875
858.864	18966
858.997	18981
859.13	19069
859.263	19015
859.396	18977
859.529	18954
859.662	18951
859.795	18897
859.928	18981
860.061	18943
860.194	19099
860.327	19027
860.46	18814
860.592	18989
860.725	18894
860.858	19053
860.99	18909
861.123	18890
861.256	18890
861.388	18798
861.521	19651
861.653	18711
861.786	18776
861.918	18798
862.05	18753
862.183	18829
862.315	18817
862.447	18951
862.58	18856
862.712	18604
862.844	18536
862.976	18829
863.108	18798
863.24	19057
863.372	18570
863.504	18696
863.636	18654
863.768	18688
863.9	18646
864.032	18616
864.164	18521
864.296	18627
864.428	18722
864.559	18688
864.691	18658
864.823	18555
864.954	18665
865.086	18635
865.217	18661
865.349	18395
865.48	18616
865.612	18506
865.743	18650
865.875	18585
866.006	18532
866.137	18566
866.269	18555
866.4	18506
866.531	18407
866.662	18471
866.793	18479
866.924	18410
867.055	18582
867.186	18597
867.317	18506
867.448	18239
867.579	18403
867.71	18361
867.841	18422
867.972	18559
868.103	18490
868.233	18494
868.364	18498
868.495	18597
868.625	18726
868.756	18840
868.886	18635
869.017	18700
869.147	18867
869.278	18905
869.408	18787
869.539	18703
869.669	18859
869.799	18795
869.929	18901
870.06	18791
870.19	19065
870.32	19008
870.45	19175
870.58	19156
870.71	19209
870.84	19236
870.97	19175
871.1	19221
871.23	19301
871.36	19438
871.489	19236
871.619	19339
871.749	19483
871.879	19438
872.008	19460
872.138	19468
872.267	19457
872.397	19388
872.526	19308
872.656	19301
872.785	19236
872.915	19544
873.044	19693
873.173	19578
873.303	19578
873.432	19571
873.561	19750
873.69	19582
873.819	19632
873.948	19643
874.077	19689
874.206	19658
874.335	19689
874.464	19811
874.593	19970
874.722	19944
874.851	19982
874.979	20092
875.108	20107
875.237	20065
875.365	20012
875.494	20077
875.623	20142
875.751	20081
875.88	20176
876.008	20278
876.136	20431
876.265	20686
876.393	20838
876.521	20807
876.65	20826
876.778	20754
876.906	20804
877.034	20853
877.162	20891
877.29	20914
877.418	20921
877.546	21055
877.674	21066
877.802	21272
877.93	21211
878.058	21363
878.185	21351
878.313	21519
878.441	21819
878.568	21953
878.696	22291
878.824	22778
878.951	23497
879.079	24315
879.206	25769
879.333	26910
879.461	27884
879.588	28580
879.715	28500
879.842	28124
879.97	26868
880.097	25540
880.224	24471
880.351	23897
880.478	23326
880.605	23090
880.732	22824
880.859	22778
880.986	22455
881.112	22356
881.239	22379
881.366	22284
881.493	22105
881.619	22067
881.746	22070
881.872	22116
881.999	22013
882.125	22067
882.252	22082
882.378	22116
882.505	22204
882.631	22181
882.757	21926
882.883	22036
883.01	21934
883.136	21930
883.262	21793
883.388	21831
883.514	21953
883.64	21953
883.766	21823
883.892	21652
884.018	21663
884.143	21960
884.269	21838
884.395	21648
884.52	21705
884.646	21614
884.772	21599
884.897	21545
885.023	21736
885.148	21682
885.274	21675
885.399	21561
885.524	21428
885.65	21507
885.775	21401
885.9	21264
886.025	21237
886.15	21104
886.275	20933
886.4	20933
886.525	20746
886.65	20678
886.775	20651
886.9	20811
887.025	20781
887.149	20499
887.274	20324
887.399	20248
887.523	20092
887.648	19982
887.773	20054
887.897	20122
888.021	20046
888.146	19986
888.27	20020
888.395	20126
888.519	19841
888.643	19860
888.767	19879
888.891	19750
889.015	19685
889.139	19685
889.263	19441
889.387	19620
889.511	19852
889.635	19605
889.759	19327
889.883	19506
890.006	19293
890.13	19426
890.254	19327
890.377	19331
890.501	19145
890.624	19213
890.748	19160
890.871	19038
890.995	18901
891.118	18856
891.241	18882
891.364	18814
891.488	18970
891.611	18901
891.734	18764
891.857	18848
891.98	18810
892.103	18741
892.226	18772
892.349	18669
892.471	18608
892.594	18608
892.717	18604
892.839	18673
892.962	18715
893.085	18711
893.207	18563
893.33	18464
893.452	18547
893.575	18525
893.697	18498
893.819	18631
893.941	18658
894.064	18585
894.186	18361
894.308	18365
894.43	18483
894.552	18582
894.674	18547
894.796	18384
894.918	18365
895.04	18372
895.161	18452
895.283	18437
895.405	18262
895.526	18357
895.648	18273
895.769	18285
895.891	18353
896.012	18308
896.134	18334
896.255	18376
896.376	18403
896.498	18277
896.619	18410
896.74	18350
896.861	18292
896.982	18677
897.103	18791
897.224	18589
897.345	18570
897.466	18426
897.587	18506
897.708	18673
897.828	18585
897.949	18490
898.07	18414
898.19	18544
898.311	18502
898.431	18456
898.552	18566
898.672	18570
898.792	18574
898.913	18566
899.033	18380
899.153	18365
899.273	18220
899.393	18353
899.513	18403
899.633	18323
899.753	18308
899.873	18319
899.993	18395
900.113	18232
900.232	18308
900.352	18228
900.472	18163
900.591	18140
900.711	18194
900.83	18015
900.95	18121
901.069	18209
901.189	18087
901.308	17874
901.427	17809
901.546	17657
901.665	17703
901.784	17653
901.904	17516
902.023	17379
902.141	17296
902.26	17166
902.379	17296
902.498	17239
902.617	17132
902.735	17189
902.854	17109
902.973	17075
903.091	16854
903.21	16797
903.328	16805
903.446	16698
903.565	16626
903.683	16588
903.801	16569
903.919	16611
904.038	16542
904.156	16405
904.274	16493
904.392	16405
904.51	16291
904.627	16382
904.745	16341
904.863	16432
904.981	16150
905.098	16017
905.216	16021
905.334	16048
905.451	16105
905.569	16048
905.686	16067
905.803	15911
905.921	15823
906.038	15895
906.155	15842
906.272	15652
906.389	15698
906.506	15591
906.623	15606
906.74	15564
906.857	15466
906.974	15580
907.091	15519
907.208	15736
907.324	15584
907.441	15317
907.557	15294
907.674	15325
907.79	15218
907.907	15188
908.023	15211
908.139	15241
908.256	15127
908.372	15112
908.488	15119
908.604	14895
908.72	14979
908.836	14944
908.952	14906
909.068	14975
909.184	14952
909.3	14956
909.415	14994
909.531	14899
909.647	14705
909.762	14667
909.878	14610
909.993	14655
910.108	14625
910.224	14545
910.339	14590
910.454	14518
910.57	14492
910.685	14423
910.8	14682
910.915	14552
911.03	14450
911.145	14370
911.259	14267
911.374	14210
911.489	14229
911.604	14248
911.718	14020
911.833	13993
911.947	13974
912.062	13799
912.176	14012
912.291	14024
912.405	14005
912.519	14229
912.633	14248
912.748	14119
912.862	14058
912.976	13833
913.09	13655
913.204	13803
913.318	13860
913.431	13894
913.545	13932
913.659	13974
913.772	13708
913.886	13662
914	13552
914.113	13788
914.226	13818
914.34	13666
914.453	13582
914.566	13681
914.68	13556
914.793	13628
914.906	13438
915.019	13343
915.132	13350
915.245	13400
915.358	13407
915.47	13457
915.583	13384
915.696	13464
915.809	13575
915.921	13495
916.034	13282
916.146	13377
916.259	13327
916.371	13354
916.483	13377
916.595	13278
916.708	13304
916.82	13274
916.932	13236
917.044	13293
917.156	13232
917.268	13088
917.38	13160
917.491	12970
917.603	13129
917.715	13149
917.826	13232
917.938	13046
918.049	12954
918.161	13057
918.272	13187
918.384	13152
918.495	13038
918.606	12947
918.717	12806
918.828	12871
918.939	12878
919.05	12757
919.161	12802
919.272	12604
919.383	12726
919.494	12867
919.604	13118
919.715	12753
919.826	12745
919.936	12764
920.047	12821
920.157	12817
920.267	13190
920.378	12825
920.488	12852
920.598	12932
920.708	13156
920.818	12924
920.928	12977
921.038	13122
921.148	13076
921.258	12779
921.368	12711
921.477	12658
921.587	12608
921.697	12456
921.806	12528
921.916	12448
922.025	12334
922.134	12251
922.244	12175
922.353	12277
922.462	12079
922.571	12045
922.68	11973
922.789	11954
922.898	11908
923.007	11863
923.116	11821
923.224	11923
923.333	11828
923.442	11729
923.55	11760
923.659	11771
923.767	11824
923.876	11691
923.984	11767
924.092	11611
924.201	11733
924.309	11665
924.417	11661
924.525	11657
924.633	11615
924.741	12441
924.849	11433
924.956	11566
925.064	11372
925.172	11356
925.279	11349
925.387	11459
925.494	11414
925.602	11524
925.709	11501
925.816	11353
925.924	11360
926.031	11425
926.138	11414
926.245	11345
926.352	11261
926.459	11509
926.566	11509
926.673	11303
926.779	11162
926.886	11151
926.993	11075
927.099	11041
927.206	10968
927.312	10965
927.419	11025
927.525	10995
927.631	11094
927.737	10991
927.843	10930
927.95	10778
928.056	10873
928.162	10866
928.267	10911
928.373	11372
928.479	11037
928.585	10774
928.69	10801
928.796	10923
928.901	10782
929.007	10691
929.112	10797
929.218	10714
929.323	10679
929.428	10634
929.533	10698
929.638	10592
929.743	10573
929.848	10653
929.953	10565
930.058	10512
930.163	10360
930.267	10390
930.372	10436
930.477	10344
930.581	10546
930.685	10363
930.79	10272
930.894	10284
930.998	10181
931.103	10348
931.207	10013
931.311	9964
931.415	9895
931.519	9663
931.623	9663
