Data from test_V78500241_794.txt Node
Date: Fri Mar 25 14:39:14 CST 2022
User: usil
Spectrometer: V785-0024
Trigger mode: 0
Integration Time (sec): 4.000000E-1
Scans to average: 1
Nonlinearity correction enabled: false
Boxcar width: 0
Storing dark spectrum: false
XAxis mode: Wavelengths
Number of Pixels in Spectrum: 1024
>>>>>Begin Spectral Data<<<<<
801.071	26583
801.214	26511
801.356	26176
801.499	26172
801.641	25928
801.783	25906
801.926	25856
802.068	25799
802.211	25575
802.353	25578
802.496	25529
802.638	25457
802.78	25392
802.923	25339
803.065	25274
803.208	25495
803.35	25415
803.492	25464
803.635	25514
803.777	25502
803.919	25491
804.061	25761
804.204	25575
804.346	25548
804.488	25483
804.63	25464
804.773	25552
804.915	25628
805.057	25772
805.199	25734
805.341	25894
805.483	26008
805.626	26107
805.768	25932
805.91	26221
806.052	26252
806.194	26240
806.336	26632
806.478	26629
806.62	26819
806.762	27150
806.904	27389
807.046	27876
807.188	27968
807.33	28303
807.472	29029
807.614	29444
807.756	30216
807.898	31050
808.04	32476
808.182	34074
808.324	36296
808.465	38826
808.607	41665
808.749	44062
808.891	45408
809.033	45694
809.174	44088
809.316	41798
809.458	38994
809.6	36136
809.741	33694
809.883	31993
810.025	30840
810.166	29779
810.308	29204
810.45	28538
810.591	28070
810.733	27538
810.875	27302
811.016	27024
811.158	26819
811.299	26785
811.441	26773
811.582	26663
811.724	26423
811.865	26328
812.007	26271
812.148	26119
812.29	26134
812.431	26305
812.573	26374
812.714	26381
812.855	26362
812.997	26492
813.138	26598
813.279	26594
813.421	26377
813.562	26107
813.703	26005
813.845	25830
813.986	25552
814.127	25369
814.268	25110
814.41	25232
814.551	25069
814.692	25148
814.833	25122
814.974	24977
815.115	24992
815.256	24817
815.397	24852
815.539	24848
815.68	24703
815.821	24574
815.962	24563
816.103	24536
816.244	24460
816.385	24330
816.526	24319
816.666	24152
816.807	24038
816.948	24038
817.089	24022
817.23	24140
817.371	24095
817.512	23916
817.653	23802
817.793	23897
817.934	23901
818.075	23805
818.216	23855
818.356	23882
818.497	23775
818.638	23604
818.778	23558
818.919	23615
819.06	23543
819.2	23714
819.341	23851
819.481	23840
819.622	23908
819.762	24072
819.903	24015
820.043	24022
820.184	23783
820.324	23870
820.465	24018
820.605	23771
820.746	23745
820.886	23687
821.026	23611
821.167	23729
821.307	23672
821.447	23665
821.588	23364
821.728	23425
821.868	23246
822.008	23075
822.149	23037
822.289	23037
822.429	22660
822.569	22710
822.709	22660
822.849	22478
822.99	22382
823.13	22470
823.27	22382
823.41	22306
823.55	22120
823.69	22344
823.83	22268
823.97	22207
824.11	22002
824.25	22109
824.389	22044
824.529	22067
824.669	21983
824.809	22105
824.949	22124
825.089	22040
825.228	22021
825.368	21842
825.508	21835
825.648	21785
825.787	21926
825.927	21892
826.067	21717
826.206	21797
826.346	21793
826.485	21736
826.625	21899
826.765	21789
826.904	21766
827.044	21583
827.183	21530
827.323	21431
827.462	21591
827.601	21454
827.741	21481
827.88	21408
828.02	21332
828.159	21462
828.298	21344
828.437	21462
828.577	21382
828.716	21561
828.855	21378
828.994	21260
829.134	21176
829.273	21127
829.412	21150
829.551	21074
829.69	21230
829.829	21192
829.968	21313
830.107	21123
830.246	21294
830.385	21077
830.524	20918
830.663	21009
830.802	20830
830.941	20762
831.08	20720
831.219	20777
831.357	20842
831.496	20910
831.635	20689
831.774	20598
831.913	20636
832.051	20648
832.19	20644
832.329	20682
832.467	20556
832.606	20545
832.744	20518
832.883	20617
833.022	20629
833.16	20823
833.299	20819
833.437	20921
833.576	21074
833.714	21070
833.852	21389
833.991	21443
834.129	21473
834.267	21515
834.406	21443
834.544	21393
834.682	21268
834.821	21165
834.959	21165
835.097	21009
835.235	20872
835.373	20895
835.511	20823
835.65	20689
835.788	20549
835.926	20320
836.064	20199
836.202	20172
836.34	20366
836.478	20381
836.615	20313
836.753	20233
836.891	20366
837.029	20351
837.167	20298
837.305	20168
837.443	20115
837.58	20058
837.718	20240
837.856	20225
837.993	20069
838.131	20058
838.269	19978
838.406	20100
838.544	19955
838.681	19715
838.819	19715
838.956	19632
839.094	19578
839.231	19658
839.369	19742
839.506	19807
839.643	19757
839.781	19567
839.918	19491
840.055	19563
840.193	19529
840.33	19502
840.467	19643
840.604	19594
840.742	19731
840.879	19388
841.016	19460
841.153	19426
841.29	19655
841.427	19491
841.564	19472
841.701	19556
841.838	19499
841.975	19377
842.112	19419
842.249	19278
842.385	19278
842.522	19533
842.659	19278
842.796	19320
842.933	19350
843.069	19339
843.206	19403
843.343	19457
843.479	19537
843.616	19472
843.752	19251
843.889	19392
844.025	19521
844.162	19407
844.298	19525
844.435	19731
844.571	19723
844.708	20069
844.844	20366
844.98	20758
845.117	21469
845.253	22055
845.389	23482
845.525	26492
845.661	31335
845.798	36928
845.934	41311
846.07	43031
846.206	42144
846.342	38191
846.478	32453
846.614	27420
846.75	24053
846.886	22192
847.022	21157
847.158	20275
847.294	19833
847.429	19575
847.565	19331
847.701	19460
847.837	18821
847.972	18783
848.108	18741
848.244	18734
848.379	18521
848.515	18483
848.65	18422
848.786	18315
848.921	18357
849.057	18464
849.192	18311
849.328	18350
849.463	18266
849.598	18194
849.734	18235
849.869	18117
850.004	17931
850.14	18019
850.275	17920
850.41	17813
850.545	17927
850.68	17977
850.815	18022
850.95	17870
851.085	18144
851.22	18098
851.355	17931
851.49	17996
851.625	17958
851.76	17977
851.895	17912
852.03	17824
852.165	17965
852.299	17935
852.434	17980
852.569	18022
852.703	17973
852.838	18041
852.973	18235
853.107	18235
853.242	18068
853.376	17984
853.511	17942
853.645	17863
853.78	18182
853.914	18060
854.048	18041
854.183	18155
854.317	18072
854.451	18258
854.585	18136
854.72	18117
854.854	18167
854.988	18049
855.122	18007
855.256	17889
855.39	17828
855.524	18034
855.658	17916
855.792	17931
855.926	17904
856.06	17946
856.194	17984
856.327	18003
856.461	17805
856.595	17775
856.729	17817
856.862	17889
856.996	17851
857.13	17805
857.263	17885
857.397	17882
857.53	17760
857.664	17737
857.797	17923
857.931	17882
858.064	17703
858.197	17908
858.331	17726
858.464	17657
858.597	17520
858.731	17634
858.864	17611
858.997	17646
859.13	17756
859.263	17657
859.396	17737
859.529	17657
859.662	17653
859.795	17608
859.928	17646
860.061	17805
860.194	17691
860.327	17699
860.46	17665
860.592	17710
860.725	17828
860.858	17733
860.99	17592
861.123	17577
861.256	17547
861.388	17604
861.521	18289
861.653	17402
861.786	17471
861.918	17638
862.05	17687
862.183	17596
862.315	17566
862.447	17604
862.58	17543
862.712	17463
862.844	17288
862.976	17452
863.108	17379
863.24	17798
863.372	17254
863.504	17231
863.636	17383
863.768	17387
863.9	17341
864.032	17155
864.164	17288
864.296	17395
864.428	17391
864.559	17372
864.691	17368
864.823	17436
864.954	17288
865.086	17288
865.217	17220
865.349	17185
865.48	17315
865.612	17330
865.743	17391
865.875	17303
866.006	17250
866.137	17246
866.269	17193
866.4	17330
866.531	17280
866.662	17204
866.793	17204
866.924	17181
867.055	17239
867.186	17231
867.317	17143
867.448	17216
867.579	17200
867.71	17162
867.841	17067
867.972	17311
868.103	17239
868.233	17189
868.364	17128
868.495	17299
868.625	17341
868.756	17562
868.886	17436
869.017	17440
869.147	17581
869.278	17589
869.408	17486
869.539	17501
869.669	17615
869.799	17516
869.929	17638
870.06	17668
870.19	17832
870.32	17821
870.45	17901
870.58	17916
870.71	18136
870.84	18114
870.97	17855
871.1	17923
871.23	18281
871.36	18125
871.489	17999
871.619	18190
871.749	18144
871.879	18251
872.008	18330
872.138	18194
872.267	18049
872.397	18106
872.526	18095
872.656	18049
872.785	18091
872.915	18285
873.044	18506
873.173	18228
873.303	18311
873.432	18433
873.561	18521
873.69	18327
873.819	18460
873.948	18460
874.077	18471
874.206	18407
874.335	18528
874.464	18776
874.593	18791
874.722	18707
874.851	18943
874.979	18867
875.108	18932
875.237	18935
875.365	18875
875.494	19084
875.623	19053
875.751	19053
875.88	19126
876.008	19236
876.136	19441
876.265	19632
876.393	19696
876.521	19795
876.65	19894
876.778	19811
876.906	19822
877.034	19788
877.162	20024
877.29	19909
877.418	20069
877.546	20180
877.674	20267
877.802	20244
877.93	20408
878.058	20598
878.185	20682
878.313	20967
878.441	21188
878.568	21469
878.696	22067
878.824	22755
878.951	23722
879.079	24966
879.206	26872
879.333	28516
879.461	29939
879.588	30939
879.715	30726
879.842	30091
879.97	28474
880.097	26735
880.224	25137
880.351	24376
880.478	23547
880.605	22991
880.732	22767
880.859	22812
880.986	22405
881.112	22295
881.239	22131
881.366	21895
881.493	21884
881.619	21797
881.746	21979
881.872	21880
881.999	21983
882.125	21972
882.252	22017
882.378	22154
882.505	22109
882.631	22086
882.757	22010
882.883	22051
883.01	21907
883.136	21850
883.262	21728
883.388	21785
883.514	21888
883.64	21994
883.766	21888
883.892	21679
884.018	21694
884.143	21842
884.269	21956
884.395	21637
884.52	21614
884.646	21682
884.772	21466
884.897	21545
885.023	21576
885.148	21705
885.274	21679
885.399	21504
885.524	21313
885.65	21272
885.775	21176
885.9	21005
886.025	21123
886.15	20785
886.275	20724
886.4	20556
886.525	20434
886.65	20317
886.775	20221
886.9	20278
887.025	20347
887.149	19989
887.274	19833
887.399	19704
887.523	19559
887.648	19510
887.773	19396
887.897	19483
888.021	19369
888.146	19232
888.27	19472
888.395	19426
888.519	19179
888.643	19141
888.767	19202
888.891	18996
889.015	18810
889.139	18901
889.263	18749
889.387	18882
889.511	18916
889.635	18871
889.759	18711
889.883	18627
890.006	18700
890.13	18703
890.254	18509
890.377	18490
890.501	18330
890.624	18262
890.748	18273
890.871	18228
890.995	18060
891.118	18007
891.241	18034
891.364	18019
891.488	18068
891.611	17954
891.734	17927
891.857	17977
891.98	17980
892.103	17889
892.226	17923
892.349	17729
892.471	17714
892.594	17745
892.717	17687
892.839	17722
892.962	17745
893.085	17653
893.207	17634
893.33	17528
893.452	17497
893.575	17638
893.697	17581
893.819	17600
893.941	17573
894.064	17604
894.186	17425
894.308	17448
894.43	17566
894.552	17551
894.674	17463
894.796	17341
894.918	17280
895.04	17364
895.161	17360
895.283	17448
895.405	17208
895.526	17284
895.648	17258
895.769	17353
895.891	17326
896.012	17463
896.134	17318
896.255	17341
896.376	17254
896.498	17284
896.619	17383
896.74	17216
896.861	17364
896.982	17638
897.103	17756
897.224	17577
897.345	17577
897.466	17364
897.587	17444
897.708	17524
897.828	17398
897.949	17512
898.07	17444
898.19	17395
898.311	17566
898.431	17444
898.552	17551
898.672	17539
898.792	17512
898.913	17520
899.033	17368
899.153	17303
899.273	17204
899.393	17254
899.513	17353
899.633	17311
899.753	17254
899.873	17128
899.993	17368
900.113	17242
900.232	17341
900.352	17212
900.472	17117
900.591	17170
900.711	17155
900.83	16987
900.95	17121
901.069	17204
901.189	17010
901.308	16908
901.427	16725
901.546	16637
901.665	16637
901.784	16790
901.904	16466
902.023	16466
902.141	16215
902.26	16158
902.379	16226
902.498	16105
902.617	16097
902.735	16177
902.854	16116
902.973	15972
903.091	15770
903.21	15812
903.328	15854
903.446	15667
903.565	15606
903.683	15610
903.801	15397
903.919	15644
904.038	15561
904.156	15283
904.274	15443
904.392	15344
904.51	15389
904.627	15355
904.745	15431
904.863	15458
904.981	15123
905.098	14994
905.216	15005
905.334	15108
905.451	14982
905.569	14979
905.686	15093
905.803	15036
905.921	14906
906.038	14929
906.155	14739
906.272	14735
906.389	14674
906.506	14545
906.623	14492
906.74	14522
906.857	14415
906.974	14377
907.091	14594
907.208	14648
907.324	14507
907.441	14438
907.557	14362
907.674	14267
907.79	14214
907.907	14225
908.023	14271
908.139	14339
908.256	14161
908.372	14206
908.488	14100
908.604	13970
908.72	13997
908.836	13986
908.952	13986
909.068	14062
909.184	14138
909.3	13986
909.415	14164
909.531	13974
909.647	13753
909.762	13655
909.878	13784
909.993	13674
910.108	13605
910.224	13734
910.339	13727
910.454	13632
910.57	13575
910.685	13468
910.8	13784
910.915	13647
911.03	13601
911.145	13457
911.259	13301
911.374	13373
911.489	13221
911.604	13206
911.718	13110
911.833	13137
911.947	13076
912.062	13000
912.176	13072
912.291	13202
912.405	13042
912.519	13339
912.633	13301
912.748	13183
912.862	13053
912.976	13031
913.09	12848
913.204	12935
913.318	12981
913.431	13122
913.545	12935
913.659	13088
913.772	12954
913.886	12859
914	12787
914.113	12844
914.226	12905
914.34	12844
914.453	12795
914.566	12886
914.68	12795
914.793	12757
914.906	12578
915.019	12566
915.132	12403
915.245	12513
915.358	12612
915.47	12597
915.583	12509
915.696	12532
915.809	12635
915.921	12730
916.034	12555
916.146	12536
916.259	12494
916.371	12681
916.483	12441
916.595	12483
916.708	12525
916.82	12448
916.932	12479
917.044	12422
917.156	12475
917.268	12327
917.38	12391
917.491	12365
917.603	12311
917.715	12433
917.826	12330
917.938	12304
918.049	12182
918.161	12216
918.272	12372
918.384	12300
918.495	12251
918.606	12114
918.717	11961
918.828	12057
918.939	12091
919.05	11954
919.161	12106
919.272	11847
919.383	11847
919.494	12083
919.604	12239
919.715	12148
919.826	12022
919.936	12034
920.047	12098
920.157	12053
920.267	12213
920.378	12121
920.488	12015
920.598	12239
920.708	12418
920.818	12194
920.928	12175
921.038	12372
921.148	12365
921.258	12060
921.368	11961
921.477	11908
921.587	11745
921.697	11786
921.806	11889
921.916	11737
922.025	11615
922.134	11482
922.244	11524
922.353	11497
922.462	11417
922.571	11254
922.68	11162
922.789	11170
922.898	11181
923.007	11155
923.116	11181
923.224	11299
923.333	11121
923.442	11064
923.55	11075
923.659	11102
923.767	11121
923.876	10896
923.984	11124
924.092	10965
924.201	10987
924.309	11022
924.417	10957
924.525	10885
924.633	10900
924.741	11908
924.849	10767
924.956	10889
925.064	10721
925.172	10698
925.279	10668
925.387	10771
925.494	10725
925.602	10862
925.709	10786
925.816	10740
925.924	10793
926.031	10850
926.138	10687
926.245	10740
926.352	10626
926.459	10687
926.566	10771
926.673	10660
926.779	10531
926.886	10504
926.993	10371
927.099	10371
927.206	10402
927.312	10352
927.419	10459
927.525	10379
927.631	10421
927.737	10249
927.843	10215
927.95	10139
928.056	10276
928.162	10268
928.267	10299
928.373	10938
928.479	10382
928.585	10090
928.69	10196
928.796	10227
928.901	10124
929.007	9991
929.112	10105
929.218	10139
929.323	10071
929.428	10051
929.533	10181
929.638	9918
929.743	9994
929.848	9926
929.953	9915
930.058	9945
930.163	9755
930.267	9755
930.372	9915
930.477	9717
930.581	9975
930.685	9823
930.79	9660
930.894	9736
930.998	9652
931.103	9850
931.207	9519
931.311	9389
931.415	9313
931.519	9123
931.623	9131
