Data from test_V78500241_1297.txt Node
Date: Fri Mar 25 14:42:44 CST 2022
User: usil
Spectrometer: V785-0024
Trigger mode: 0
Integration Time (sec): 4.000000E-1
Scans to average: 1
Nonlinearity correction enabled: false
Boxcar width: 0
Storing dark spectrum: false
XAxis mode: Wavelengths
Number of Pixels in Spectrum: 1024
>>>>>Begin Spectral Data<<<<<
801.071	22436
801.214	22303
801.356	21972
801.499	21964
801.641	21694
801.783	21785
801.926	21797
802.068	21709
802.211	21694
802.353	21416
802.496	21260
802.638	21279
802.78	21321
802.923	21230
803.065	21199
803.208	20998
803.35	21096
803.492	21188
803.635	21195
803.777	21032
803.919	21184
804.061	21275
804.204	21108
804.346	21081
804.488	20925
804.63	21104
804.773	20994
804.915	21150
805.057	21085
805.199	21211
805.341	21138
805.483	21104
805.626	21127
805.768	21047
805.91	21066
806.052	21150
806.194	20986
806.336	21176
806.478	21039
806.62	21013
806.762	21028
806.904	21096
807.046	21519
807.188	21473
807.33	21401
807.472	21428
807.614	21348
807.756	21450
807.898	21287
808.04	21081
808.182	21176
808.324	21173
808.465	21313
808.607	21515
808.749	21614
808.891	21724
809.033	21728
809.174	21690
809.316	21542
809.458	21511
809.6	21477
809.741	21515
809.883	21469
810.025	21682
810.166	21694
810.308	21614
810.45	21526
810.591	21504
810.733	21340
810.875	21260
811.016	21176
811.158	21096
811.299	21241
811.441	21389
811.582	21283
811.724	21260
811.865	21180
812.007	21131
812.148	21157
812.29	21150
812.431	21397
812.573	21614
812.714	21679
812.855	21633
812.997	21884
813.138	21804
813.279	21755
813.421	21724
813.562	21663
813.703	21466
813.845	21264
813.986	21051
814.127	20899
814.268	20853
814.41	20902
814.551	20876
814.692	20823
814.833	20663
814.974	20678
815.115	20769
815.256	20423
815.397	20617
815.539	20526
815.68	20374
815.821	20412
815.962	20412
816.103	20419
816.244	20393
816.385	20294
816.526	20252
816.666	20134
816.807	19974
816.948	20024
817.089	19970
817.23	19894
817.371	19875
817.512	19883
817.653	19890
817.793	19860
817.934	19841
818.075	19856
818.216	19852
818.356	19833
818.497	19586
818.638	19563
818.778	19544
818.919	19540
819.06	19681
819.2	19757
819.341	19742
819.481	19674
819.622	19944
819.762	20168
819.903	19936
820.043	19856
820.184	19936
820.324	19898
820.465	19940
820.605	19906
820.746	19879
820.886	19689
821.026	19814
821.167	19864
821.307	19906
821.447	19784
821.588	19708
821.728	19666
821.868	19449
822.008	19263
822.149	19221
822.289	19308
822.429	19057
822.569	19000
822.709	18985
822.849	18817
822.99	18798
823.13	18741
823.27	18726
823.41	18616
823.55	18506
823.69	18627
823.83	18456
823.97	18452
824.11	18353
824.25	18353
824.389	18391
824.529	18410
824.669	18338
824.809	18422
824.949	18475
825.089	18342
825.228	18418
825.368	18232
825.508	18186
825.648	18209
825.787	18186
825.927	18007
826.067	18106
826.206	18083
826.346	18220
826.485	18102
826.625	18095
826.765	18254
826.904	18155
827.044	17920
827.183	17908
827.323	17859
827.462	17901
827.601	17775
827.741	17794
827.88	17950
828.02	17722
828.159	17920
828.298	17821
828.437	17965
828.577	17718
828.716	17946
828.855	17748
828.994	17570
829.134	17566
829.273	17710
829.412	17535
829.551	17490
829.69	17691
829.829	17653
829.968	17665
830.107	17638
830.246	17547
830.385	17623
830.524	17528
830.663	17440
830.802	17204
830.941	17220
831.08	17151
831.219	17296
831.357	17254
831.496	17326
831.635	17261
831.774	17189
831.913	17200
832.051	17083
832.19	17018
832.329	17025
832.467	16911
832.606	16831
832.744	16953
832.883	16885
833.022	16759
833.16	16850
833.299	17010
833.437	16854
833.576	16984
833.714	17029
833.852	17018
833.991	16942
834.129	16987
834.267	17010
834.406	16896
834.544	16965
834.682	16850
834.821	16885
834.959	17098
835.097	16987
835.235	17033
835.373	16953
835.511	16991
835.65	16961
835.788	16915
835.926	16816
836.064	16691
836.202	16717
836.34	16828
836.478	16911
836.615	16790
836.753	16911
836.891	17022
837.029	16847
837.167	16843
837.305	16771
837.443	16786
837.58	16706
837.718	16843
837.856	16797
837.993	16607
838.131	16694
838.269	16611
838.406	16733
838.544	16615
838.681	16474
838.819	16489
838.956	16382
839.094	16322
839.231	16306
839.369	16394
839.506	16710
839.643	16516
839.781	16402
839.918	16204
840.055	16306
840.193	16226
840.33	16253
840.467	16265
840.604	16287
840.742	16508
840.879	16204
841.016	16166
841.153	16226
841.29	16303
841.427	16333
841.564	16310
841.701	16303
841.838	16219
841.975	16120
842.112	16230
842.249	16074
842.385	15934
842.522	16154
842.659	16067
842.796	15953
842.933	16025
843.069	16032
843.206	16063
843.343	16105
843.479	16071
843.616	16093
843.752	15770
843.889	15846
844.025	15892
844.162	15808
844.298	15994
844.435	15800
844.571	15842
844.708	15895
844.844	16063
844.98	16017
845.117	15987
845.253	15835
845.389	15717
845.525	15861
845.661	15770
845.798	15728
845.934	15934
846.07	15838
846.206	15922
846.342	15827
846.478	15831
846.614	15485
846.75	15416
846.886	15340
847.022	15557
847.158	15450
847.294	15485
847.429	15515
847.565	15313
847.701	15618
847.837	15222
847.972	15127
848.108	15252
848.244	15260
848.379	15070
848.515	15100
848.65	14979
848.786	14986
848.921	15051
849.057	15047
849.192	15173
849.328	15085
849.463	15032
849.598	14990
849.734	14887
849.869	14864
850.004	14857
850.14	14830
850.275	14853
850.41	14663
850.545	14796
850.68	14788
850.815	14762
850.95	14815
851.085	14963
851.22	14788
851.355	14876
851.49	14853
851.625	14788
851.76	14716
851.895	14575
852.03	14705
852.165	14754
852.299	14823
852.434	14838
852.569	14857
852.703	14796
852.838	14826
852.973	15024
853.107	14967
853.242	14800
853.376	14617
853.511	14442
853.645	14705
853.78	14845
853.914	14606
854.048	14705
854.183	14617
854.317	14686
854.451	14743
854.585	14720
854.72	14613
854.854	14670
854.988	14655
855.122	14636
855.256	14454
855.39	14606
855.524	14708
855.658	14663
855.792	14712
855.926	14674
856.06	14743
856.194	14724
856.327	14621
856.461	14617
856.595	14632
856.729	14617
856.862	14727
856.996	14644
857.13	14735
857.263	14853
857.397	14781
857.53	14602
857.664	14712
857.797	14769
857.931	14746
858.064	14708
858.197	14682
858.331	14632
858.464	14492
858.597	14419
858.731	14636
858.864	14644
858.997	14617
859.13	14617
859.263	14819
859.396	14724
859.529	14720
859.662	14560
859.795	14610
859.928	14587
860.061	14838
860.194	14781
860.327	14697
860.46	14720
860.592	14686
860.725	14758
860.858	14804
860.99	14743
861.123	14556
861.256	14602
861.388	14689
861.521	15477
861.653	14541
861.786	14507
861.918	14511
862.05	14545
862.183	14610
862.315	14583
862.447	14731
862.58	14571
862.712	14499
862.844	14427
862.976	14480
863.108	14419
863.24	14891
863.372	14301
863.504	14415
863.636	14442
863.768	14400
863.9	14389
864.032	14347
864.164	14484
864.296	14518
864.428	14659
864.559	14545
864.691	14571
864.823	14442
864.954	14442
865.086	14461
865.217	14336
865.349	14225
865.48	14473
865.612	14438
865.743	14492
865.875	14450
866.006	14358
866.137	14400
866.269	14446
866.4	14381
866.531	14366
866.662	14271
866.793	14339
866.924	14381
867.055	14385
867.186	14393
867.317	14294
867.448	14278
867.579	14412
867.71	14187
867.841	14336
867.972	14336
868.103	14343
868.233	14450
868.364	14370
868.495	14431
868.625	14480
868.756	14697
868.886	14560
869.017	14651
869.147	14777
869.278	14781
869.408	14644
869.539	14594
869.669	14743
869.799	14708
869.929	14785
870.06	14777
870.19	15001
870.32	14826
870.45	14986
870.58	15131
870.71	15104
870.84	15085
870.97	15070
871.1	15085
871.23	15199
871.36	15245
871.489	15074
871.619	15211
871.749	15272
871.879	15291
872.008	15336
872.138	15283
872.267	15222
872.397	15161
872.526	14914
872.656	15024
872.785	15047
872.915	15214
873.044	15317
873.173	15329
873.303	15344
873.432	15302
873.561	15336
873.69	15283
873.819	15287
873.948	15370
874.077	15294
874.206	15313
874.335	15340
874.464	15462
874.593	15599
874.722	15515
874.851	15675
874.979	15584
875.108	15618
875.237	15530
875.365	15488
875.494	15542
875.623	15660
875.751	15595
875.88	15682
876.008	15762
876.136	15770
876.265	15998
876.393	16154
876.521	16055
876.65	16002
876.778	16051
876.906	15854
877.034	15934
877.162	15998
877.29	15918
877.418	15968
877.546	16021
877.674	16032
877.802	15994
877.93	16029
878.058	16044
878.185	15835
878.313	15991
878.441	15983
878.568	15941
878.696	16002
878.824	16166
878.951	16097
879.079	16166
879.206	16375
879.333	16158
879.461	16120
879.588	16249
879.715	16325
879.842	16314
879.97	16169
880.097	15930
880.224	15979
880.351	15823
880.478	15953
880.605	15895
880.732	15835
880.859	16154
880.986	15846
881.112	15926
881.239	15808
881.366	15660
881.493	15625
881.619	15564
881.746	15572
881.872	15526
881.999	15538
882.125	15488
882.252	15667
882.378	15603
882.505	15709
882.631	15466
882.757	15348
882.883	15511
883.01	15420
883.136	15275
883.262	15272
883.388	15195
883.514	15310
883.64	15405
883.766	15389
883.892	15157
884.018	15165
884.143	15355
884.269	15359
884.395	15051
884.52	14998
884.646	15077
884.772	14967
884.897	14990
885.023	15055
885.148	15146
885.274	15169
885.399	15123
885.524	15013
885.65	15138
885.775	15070
885.9	14979
886.025	15097
886.15	15138
886.275	14941
886.4	14925
886.525	15047
886.65	14986
886.775	15032
886.9	15192
887.025	15313
887.149	15005
887.274	14906
887.399	14800
887.523	14804
887.648	14788
887.773	14697
887.897	14948
888.021	14880
888.146	14720
888.27	14982
888.395	15024
888.519	14952
888.643	14921
888.767	14994
888.891	14765
889.015	14758
889.139	14739
889.263	14705
889.387	14902
889.511	14857
889.635	14785
889.759	14678
889.883	14746
890.006	14796
890.13	14800
890.254	14655
890.377	14667
890.501	14560
890.624	14480
890.748	14636
890.871	14507
890.995	14427
891.118	14339
891.241	14431
891.364	14408
891.488	14518
891.611	14370
891.734	14393
891.857	14438
891.98	14415
892.103	14488
892.226	14412
892.349	14423
892.471	14210
892.594	14377
892.717	14355
892.839	14385
892.962	14454
893.085	14469
893.207	14427
893.33	14256
893.452	14396
893.575	14507
893.697	14301
893.819	14590
893.941	14655
894.064	14495
894.186	14351
894.308	14366
894.43	14507
894.552	14545
894.674	14526
894.796	14374
894.918	14469
895.04	14412
895.161	14522
895.283	14514
895.405	14400
895.526	14514
895.648	14480
895.769	14594
895.891	14530
896.012	14621
896.134	14644
896.255	14499
896.376	14568
896.498	14613
896.619	14629
896.74	14530
896.861	14663
896.982	14956
897.103	15074
897.224	14849
897.345	14739
897.466	14746
897.587	14883
897.708	14933
897.828	14891
897.949	14811
898.07	14720
898.19	14746
898.311	14967
898.431	14758
898.552	14921
898.672	14956
898.792	14941
898.913	15032
899.033	14944
899.153	14777
899.273	14636
899.393	14750
899.513	14830
899.633	14758
899.753	14849
899.873	14667
899.993	14731
900.113	14765
900.232	14754
900.352	14682
900.472	14625
900.591	14632
900.711	14610
900.83	14522
900.95	14648
901.069	14773
901.189	14560
901.308	14396
901.427	14278
901.546	14164
901.665	14358
901.784	14301
901.904	14202
902.023	14043
902.141	13989
902.26	13879
902.379	13940
902.498	13837
902.617	13879
902.735	13917
902.854	13841
902.973	13731
903.091	13567
903.21	13575
903.328	13518
903.446	13499
903.565	13358
903.683	13468
903.801	13445
903.919	13316
904.038	13407
904.156	13149
904.274	13244
904.392	13221
904.51	13183
904.627	13217
904.745	13346
904.863	13312
904.981	13080
905.098	12875
905.216	12863
905.334	12920
905.451	12848
905.569	12867
905.686	12985
905.803	12947
905.921	12783
906.038	12779
906.155	12741
906.272	12703
906.389	12654
906.506	12525
906.623	12502
906.74	12547
906.857	12327
906.974	12445
907.091	12582
907.208	12635
907.324	12555
907.441	12483
907.557	12338
907.674	12251
907.79	12239
907.907	12224
908.023	12311
908.139	12239
908.256	12228
908.372	12243
908.488	12167
908.604	12026
908.72	11961
908.836	12064
908.952	11870
909.068	12007
909.184	12091
909.3	12053
909.415	12114
909.531	12091
909.647	11950
909.762	11775
909.878	11790
909.993	11748
910.108	11771
910.224	11714
910.339	11703
910.454	11767
910.57	11592
910.685	11528
910.8	11859
910.915	11817
911.03	11604
911.145	11535
911.259	11562
911.374	11482
911.489	11406
911.604	11376
911.718	11178
911.833	11201
911.947	11086
912.062	10972
912.176	11246
912.291	11246
912.405	11250
912.519	11440
912.633	11402
912.748	11273
912.862	11208
912.976	11124
913.09	10984
913.204	11105
913.318	11064
913.431	11258
913.545	11223
913.659	11170
913.772	11041
913.886	10930
914	10949
914.113	11071
914.226	11067
914.34	11090
914.453	10919
914.566	11037
914.68	10968
914.793	10900
914.906	10771
915.019	10714
915.132	10615
915.245	10702
915.358	10710
915.47	10812
915.583	10755
915.696	10828
915.809	10892
915.921	10809
916.034	10790
916.146	10668
916.259	10618
916.371	10847
916.483	10649
916.595	10542
916.708	10637
916.82	10683
916.932	10580
917.044	10634
917.156	10588
917.268	10519
917.38	10500
917.491	10436
917.603	10596
917.715	10603
917.826	10687
917.938	10523
918.049	10363
918.161	10538
918.272	10664
918.384	10664
918.495	10573
918.606	10424
918.717	10386
918.828	10504
918.939	10451
919.05	10303
919.161	10440
919.272	10249
919.383	10185
919.494	10500
919.604	10664
919.715	10436
919.826	10337
919.936	10409
920.047	10428
920.157	10428
920.267	10645
920.378	10497
920.488	10424
920.598	10603
920.708	10812
920.818	10596
920.928	10634
921.038	10790
921.148	10759
921.258	10447
921.368	10322
921.477	10303
921.587	10204
921.697	10158
921.806	10303
921.916	10067
922.025	9964
922.134	10017
922.244	9949
922.353	10071
922.462	9911
922.571	9755
922.68	9694
922.789	9713
922.898	9766
923.007	9580
923.116	9644
923.224	9751
923.333	9713
923.442	9622
923.55	9557
923.659	9580
923.767	9637
923.876	9519
923.984	9549
924.092	9485
924.201	9587
924.309	9477
924.417	9542
924.525	9458
924.633	9481
924.741	10276
924.849	9336
924.956	9393
925.064	9313
925.172	9207
925.279	9253
925.387	9363
925.494	9287
925.602	9492
925.709	9397
925.816	9249
925.924	9336
926.031	9340
926.138	9329
926.245	9370
926.352	9146
926.459	9351
926.566	9401
926.673	9237
926.779	9192
926.886	9077
926.993	9058
927.099	9043
927.206	8982
927.312	8967
927.419	9032
927.525	8986
927.631	9047
927.737	8979
927.843	8861
927.95	8796
928.056	8902
928.162	8876
928.267	8979
928.373	9580
928.479	8979
928.585	8781
928.69	8933
928.796	8956
928.901	8838
929.007	8724
929.112	8811
929.218	8788
929.323	8693
929.428	8777
929.533	8788
929.638	8720
929.743	8674
929.848	8762
929.953	8727
930.058	8629
930.163	8518
930.267	8454
930.372	8617
930.477	8419
930.581	8720
930.685	8602
930.79	8503
930.894	8492
930.998	8415
931.103	8583
931.207	8229
931.311	8195
931.415	8111
931.519	7959
931.623	7951
