Data from test_V78500241_1432.txt Node
Date: Fri Mar 25 14:43:41 CST 2022
User: usil
Spectrometer: V785-0024
Trigger mode: 0
Integration Time (sec): 4.000000E-1
Scans to average: 1
Nonlinearity correction enabled: false
Boxcar width: 0
Storing dark spectrum: false
XAxis mode: Wavelengths
Number of Pixels in Spectrum: 1024
>>>>>Begin Spectral Data<<<<<
801.071	22440
801.214	22363
801.356	22048
801.499	21975
801.641	21861
801.783	21808
801.926	21892
802.068	21812
802.211	21587
802.353	21641
802.496	21492
802.638	21268
802.78	21272
802.923	21279
803.065	21112
803.208	21009
803.35	21043
803.492	21268
803.635	21279
803.777	21093
803.919	21173
804.061	21561
804.204	21214
804.346	21089
804.488	21108
804.63	20998
804.773	21020
804.915	21043
805.057	21317
805.199	21077
805.341	21195
805.483	21249
805.626	21230
805.768	21032
805.91	21112
806.052	21127
806.194	21062
806.336	21195
806.478	21070
806.62	20990
806.762	21135
806.904	21275
807.046	21519
807.188	21466
807.33	21431
807.472	21534
807.614	21401
807.756	21431
807.898	21218
808.04	21161
808.182	21222
808.324	21294
808.465	21351
808.607	21576
808.749	21728
808.891	21781
809.033	21846
809.174	21774
809.316	21671
809.458	21686
809.6	21488
809.741	21648
809.883	21629
810.025	21797
810.166	21804
810.308	21610
810.45	21690
810.591	21473
810.733	21386
810.875	21313
811.016	21154
811.158	21233
811.299	21462
811.441	21321
811.582	21397
811.724	21123
811.865	21211
812.007	21180
812.148	21237
812.29	21363
812.431	21340
812.573	21542
812.714	21663
812.855	21774
812.997	21869
813.138	21892
813.279	21987
813.421	21713
813.562	21625
813.703	21538
813.845	21340
813.986	21154
814.127	20910
814.268	20800
814.41	20849
814.551	20876
814.692	20952
814.833	20724
814.974	20762
815.115	20773
815.256	20701
815.397	20526
815.539	20743
815.68	20541
815.821	20469
815.962	20526
816.103	20545
816.244	20301
816.385	20290
816.526	20415
816.666	20164
816.807	19993
816.948	20100
817.089	20081
817.23	20081
817.371	19982
817.512	20008
817.653	20024
817.793	19826
817.934	20035
818.075	19898
818.216	19974
818.356	19932
818.497	19723
818.638	19624
818.778	19601
818.919	19563
819.06	19635
819.2	19765
819.341	19776
819.481	19864
819.622	19921
819.762	20153
819.903	20062
820.043	20081
820.184	19871
820.324	19974
820.465	20024
820.605	19951
820.746	19822
820.886	19757
821.026	19864
821.167	19772
821.307	19955
821.447	19811
821.588	19727
821.728	19620
821.868	19480
822.008	19354
822.149	19396
822.289	19285
822.429	18966
822.569	18989
822.709	18943
822.849	18821
822.99	18852
823.13	18768
823.27	18772
823.41	18719
823.55	18547
823.69	18555
823.83	18646
823.97	18578
824.11	18471
824.25	18334
824.389	18395
824.529	18456
824.669	18399
824.809	18555
824.949	18464
825.089	18418
825.228	18426
825.368	18224
825.508	18186
825.648	18201
825.787	18247
825.927	18380
826.067	18178
826.206	18034
826.346	18270
826.485	18152
826.625	18194
826.765	18281
826.904	18186
827.044	17920
827.183	17908
827.323	17859
827.462	17942
827.601	17775
827.741	17824
827.88	17882
828.02	17786
828.159	17695
828.298	17942
828.437	17813
828.577	17771
828.716	17992
828.855	17775
828.994	17630
829.134	17611
829.273	17737
829.412	17634
829.551	17535
829.69	17608
829.829	17604
829.968	17604
830.107	17668
830.246	17676
830.385	17573
830.524	17520
830.663	17452
830.802	17387
830.941	17246
831.08	17098
831.219	17326
831.357	17337
831.496	17482
831.635	17212
831.774	17197
831.913	17048
832.051	16991
832.19	17056
832.329	16995
832.467	16930
832.606	16843
832.744	16904
832.883	16949
833.022	16782
833.16	16889
833.299	16957
833.437	16873
833.576	16930
833.714	16972
833.852	16961
833.991	16934
834.129	17006
834.267	17102
834.406	17025
834.544	17086
834.682	16976
834.821	17010
834.959	17151
835.097	16881
835.235	17113
835.373	17006
835.511	16889
835.65	16911
835.788	16816
835.926	16771
836.064	16561
836.202	16630
836.34	16980
836.478	17041
836.615	16725
836.753	16873
836.891	16858
837.029	16892
837.167	16774
837.305	16733
837.443	16801
837.58	16668
837.718	16771
837.856	16733
837.993	16755
838.131	16660
838.269	16580
838.406	16550
838.544	16626
838.681	16485
838.819	16318
838.956	16207
839.094	16303
839.231	16257
839.369	16299
839.506	16675
839.643	16542
839.781	16226
839.918	16139
840.055	16234
840.193	16382
840.33	16253
840.467	16287
840.604	16257
840.742	16470
840.879	16196
841.016	16166
841.153	16124
841.29	16413
841.427	16265
841.564	16257
841.701	16261
841.838	16166
841.975	16162
842.112	16200
842.249	16006
842.385	16048
842.522	16230
842.659	16135
842.796	15945
842.933	16063
843.069	15892
843.206	16074
843.343	16192
843.479	16044
843.616	16040
843.752	15823
843.889	15797
844.025	15998
844.162	15804
844.298	15956
844.435	15835
844.571	15816
844.708	15838
844.844	16101
844.98	15918
845.117	15956
845.253	15797
845.389	15690
845.525	15892
845.661	15880
845.798	15774
845.934	16032
846.07	15854
846.206	15918
846.342	15907
846.478	15789
846.614	15572
846.75	15515
846.886	15397
847.022	15428
847.158	15382
847.294	15329
847.429	15412
847.565	15424
847.701	15660
847.837	15169
847.972	15081
848.108	15161
848.244	15192
848.379	15077
848.515	15028
848.65	15032
848.786	15017
848.921	15024
849.057	15089
849.192	15070
849.328	14986
849.463	14998
849.598	14990
849.734	14880
849.869	14815
850.004	14731
850.14	14735
850.275	14834
850.41	14640
850.545	14727
850.68	14754
850.815	14765
850.95	14674
851.085	14914
851.22	14826
851.355	14750
851.49	14724
851.625	14705
851.76	14659
851.895	14667
852.03	14636
852.165	14804
852.299	14762
852.434	14845
852.569	14823
852.703	14735
852.838	14796
852.973	14963
853.107	14960
853.242	14739
853.376	14686
853.511	14503
853.645	14629
853.78	14746
853.914	14674
854.048	14556
854.183	14655
854.317	14640
854.451	14724
854.585	14530
854.72	14575
854.854	14579
854.988	14533
855.122	14640
855.256	14621
855.39	14549
855.524	14845
855.658	14659
855.792	14590
855.926	14716
856.06	14762
856.194	14735
856.327	14629
856.461	14659
856.595	14507
856.729	14667
856.862	14625
856.996	14678
857.13	14617
857.263	14754
857.397	14762
857.53	14621
857.664	14754
857.797	14651
857.931	14716
858.064	14674
858.197	14697
858.331	14636
858.464	14583
858.597	14526
858.731	14667
858.864	14632
858.997	14606
859.13	14640
859.263	14568
859.396	14613
859.529	14560
859.662	14587
859.795	14602
859.928	14632
860.061	14804
860.194	14743
860.327	14583
860.46	14670
860.592	14693
860.725	14708
860.858	14716
860.99	14587
861.123	14476
861.256	14617
861.388	14663
861.521	15412
861.653	14434
861.786	14511
861.918	14457
862.05	14530
862.183	14587
862.315	14602
862.447	14636
862.58	14549
862.712	14400
862.844	14385
862.976	14434
863.108	14408
863.24	14769
863.372	14317
863.504	14419
863.636	14408
863.768	14469
863.9	14385
864.032	14393
864.164	14328
864.296	14476
864.428	14499
864.559	14492
864.691	14438
864.823	14408
864.954	14431
865.086	14396
865.217	14526
865.349	14381
865.48	14358
865.612	14351
865.743	14545
865.875	14339
866.006	14267
866.137	14465
866.269	14317
866.4	14252
866.531	14225
866.662	14317
866.793	14305
866.924	14339
867.055	14370
867.186	14400
867.317	14248
867.448	14077
867.579	14286
867.71	14317
867.841	14267
867.972	14290
868.103	14328
868.233	14313
868.364	14423
868.495	14530
868.625	14537
868.756	14655
868.886	14579
869.017	14560
869.147	14724
869.278	14682
869.408	14670
869.539	14526
869.669	14663
869.799	14716
869.929	14693
870.06	14765
870.19	14868
870.32	14880
870.45	14952
870.58	14918
870.71	15070
870.84	15066
870.97	14994
871.1	14990
871.23	15195
871.36	15241
871.489	15036
871.619	15055
871.749	15157
871.879	15195
872.008	15275
872.138	15207
872.267	15226
872.397	15112
872.526	15020
872.656	15047
872.785	15043
872.915	15252
873.044	15272
873.173	15287
873.303	15184
873.432	15310
873.561	15291
873.69	15233
873.819	15264
873.948	15329
874.077	15256
874.206	15233
874.335	15123
874.464	15370
874.593	15515
874.722	15496
874.851	15717
874.979	15599
875.108	15637
875.237	15610
875.365	15473
875.494	15648
875.623	15629
875.751	15412
875.88	15705
876.008	15747
876.136	15789
876.265	16059
876.393	16162
876.521	15934
876.65	16093
876.778	16006
876.906	15979
877.034	15953
877.162	15949
877.29	15873
877.418	15964
877.546	16025
877.674	15949
877.802	16021
877.93	16112
878.058	15915
878.185	15876
878.313	15983
878.441	16013
878.568	15838
878.696	15987
878.824	16067
878.951	16109
879.079	16268
879.206	16394
879.333	16196
879.461	16276
879.588	16230
879.715	16303
879.842	16375
879.97	16230
880.097	15918
880.224	15953
880.351	15937
880.478	15968
880.605	15831
880.732	15869
880.859	16093
880.986	15857
881.112	15857
881.239	15732
881.366	15568
881.493	15530
881.619	15496
881.746	15469
881.872	15553
881.999	15488
882.125	15568
882.252	15629
882.378	15572
882.505	15679
882.631	15450
882.757	15287
882.883	15458
883.01	15397
883.136	15272
883.262	15226
883.388	15214
883.514	15294
883.64	15359
883.766	15325
883.892	15184
884.018	15161
884.143	15336
884.269	15428
884.395	15039
884.52	15001
884.646	15157
884.772	14979
884.897	14937
885.023	15017
885.148	15116
885.274	15199
885.399	15070
885.524	15123
885.65	15081
885.775	15051
885.9	15009
886.025	15188
886.15	15104
886.275	15051
886.4	14944
886.525	14971
886.65	15062
886.775	14979
886.9	15100
887.025	15192
887.149	14906
887.274	14861
887.399	14716
887.523	14796
887.648	14697
887.773	14807
887.897	14876
888.021	14925
888.146	14815
888.27	14941
888.395	15077
888.519	14868
888.643	14834
888.767	14937
888.891	14731
889.015	14693
889.139	14788
889.263	14598
889.387	14861
889.511	14929
889.635	14823
889.759	14762
889.883	14674
890.006	14807
890.13	14773
890.254	14632
890.377	14701
890.501	14446
890.624	14492
890.748	14457
890.871	14446
890.995	14343
891.118	14259
891.241	14434
891.364	14434
891.488	14583
891.611	14332
891.734	14393
891.857	14514
891.98	14358
892.103	14507
892.226	14484
892.349	14317
892.471	14225
892.594	14415
892.717	14328
892.839	14355
892.962	14431
893.085	14499
893.207	14434
893.33	14240
893.452	14374
893.575	14377
893.697	14530
893.819	14575
893.941	14568
894.064	14480
894.186	14294
894.308	14218
894.43	14606
894.552	14590
894.674	14541
894.796	14408
894.918	14313
895.04	14358
895.161	14598
895.283	14473
895.405	14313
895.526	14533
895.648	14571
895.769	14503
895.891	14530
896.012	14564
896.134	14617
896.255	14381
896.376	14583
896.498	14617
896.619	14511
896.74	14488
896.861	14678
896.982	14868
897.103	15009
897.224	14849
897.345	14750
897.466	14750
897.587	14804
897.708	14956
897.828	14937
897.949	14823
898.07	14724
898.19	14701
898.311	14937
898.431	14804
898.552	14868
898.672	14960
898.792	14982
898.913	15009
899.033	14872
899.153	14857
899.273	14648
899.393	14758
899.513	14781
899.633	14804
899.753	14777
899.873	14705
899.993	14765
900.113	14735
900.232	14648
900.352	14712
900.472	14708
900.591	14590
900.711	14594
900.83	14598
900.95	14731
901.069	14689
901.189	14594
901.308	14434
901.427	14298
901.546	14256
901.665	14328
901.784	14301
901.904	14149
902.023	14062
902.141	13902
902.26	13852
902.379	13917
902.498	13890
902.617	13822
902.735	13795
902.854	13814
902.973	13795
903.091	13567
903.21	13540
903.328	13533
903.446	13495
903.565	13438
903.683	13441
903.801	13377
903.919	13396
904.038	13346
904.156	13266
904.274	13335
904.392	13126
904.51	13156
904.627	13209
904.745	13263
904.863	13274
904.981	13034
905.098	12871
905.216	12981
905.334	12951
905.451	12932
905.569	12882
905.686	12939
905.803	12973
905.921	12749
906.038	12837
906.155	12776
906.272	12684
906.389	12669
906.506	12540
906.623	12536
906.74	12555
906.857	12521
906.974	12395
907.091	12578
907.208	12528
907.324	12544
907.441	12441
907.557	12266
907.674	12232
907.79	12216
907.907	12190
908.023	12273
908.139	12235
908.256	12311
908.372	12133
908.488	12125
908.604	12049
908.72	11969
908.836	11977
908.952	11931
909.068	11958
909.184	12030
909.3	12064
909.415	12053
909.531	11992
909.647	11779
909.762	11703
909.878	11729
909.993	11752
910.108	11672
910.224	11733
910.339	11771
910.454	11668
910.57	11516
910.685	11532
910.8	11802
910.915	11710
911.03	11642
911.145	11436
911.259	11455
911.374	11459
911.489	11410
911.604	11250
911.718	11235
911.833	11220
911.947	11162
912.062	11079
912.176	11261
912.291	11128
912.405	11147
912.519	11345
912.633	11467
912.748	11296
912.862	11140
912.976	11041
913.09	10946
913.204	11003
913.318	10987
913.431	11124
913.545	11159
913.659	11269
913.772	11071
913.886	11045
914	10866
914.113	10984
914.226	11079
914.34	11064
914.453	10847
914.566	10949
914.68	10854
914.793	10877
914.906	10759
915.019	10683
915.132	10660
915.245	10698
915.358	10694
915.47	10622
915.583	10790
915.696	10801
915.809	10843
915.921	10812
916.034	10710
916.146	10691
916.259	10626
916.371	10736
916.483	10694
916.595	10584
916.708	10683
916.82	10615
916.932	10611
917.044	10649
917.156	10561
917.268	10527
917.38	10489
917.491	10447
917.603	10500
917.715	10660
917.826	10615
917.938	10440
918.049	10341
918.161	10558
918.272	10653
918.384	10645
918.495	10470
918.606	10447
918.717	10257
918.828	10409
918.939	10424
919.05	10276
919.161	10455
919.272	10131
919.383	10291
919.494	10394
919.604	10580
919.715	10394
919.826	10344
919.936	10344
920.047	10436
920.157	10432
920.267	10573
920.378	10489
920.488	10417
920.598	10550
920.708	10717
920.818	10618
920.928	10573
921.038	10729
921.148	10656
921.258	10504
921.368	10390
921.477	10280
921.587	10249
921.697	10135
921.806	10295
921.916	10162
922.025	10048
922.134	9934
922.244	9899
922.353	9956
922.462	9865
922.571	9751
922.68	9660
922.789	9633
922.898	9682
923.007	9675
923.116	9660
923.224	9648
923.333	9633
923.442	9519
923.55	9530
923.659	9473
923.767	9545
923.876	9534
923.984	9637
924.092	9363
924.201	9564
924.309	9519
924.417	9523
924.525	9408
924.633	9492
924.741	10382
924.849	9336
924.956	9408
925.064	9340
925.172	9195
925.279	9222
925.387	9283
925.494	9321
925.602	9340
925.709	9359
925.816	9279
925.924	9374
926.031	9344
926.138	9260
926.245	9298
926.352	9188
926.459	9348
926.566	9401
926.673	9241
926.779	9093
926.886	9100
926.993	9009
927.099	8998
927.206	8990
927.312	9024
927.419	9051
927.525	9039
927.631	9017
927.737	8975
927.843	8861
927.95	8708
928.056	8937
928.162	8853
928.267	8944
928.373	9542
928.479	8990
928.585	8804
928.69	8868
928.796	8895
928.901	8746
929.007	8667
929.112	8819
929.218	8815
929.323	8667
929.428	8625
929.533	8880
929.638	8632
929.743	8632
929.848	8792
929.953	8712
930.058	8571
930.163	8499
930.267	8473
930.372	8590
930.477	8507
930.581	8648
930.685	8514
930.79	8400
930.894	8396
930.998	8434
931.103	8568
931.207	8199
931.311	8145
931.415	8035
931.519	7913
931.623	7906
