Data from test_V78500241_1636.txt Node
Date: Fri Mar 25 14:45:06 CST 2022
User: usil
Spectrometer: V785-0024
Trigger mode: 0
Integration Time (sec): 4.000000E-1
Scans to average: 1
Nonlinearity correction enabled: false
Boxcar width: 0
Storing dark spectrum: false
XAxis mode: Wavelengths
Number of Pixels in Spectrum: 1024
>>>>>Begin Spectral Data<<<<<
801.071	22325
801.214	22242
801.356	22051
801.499	21945
801.641	21823
801.783	21648
801.926	21766
802.068	21686
802.211	21675
802.353	21515
802.496	21313
802.638	21275
802.78	21142
802.923	21135
803.065	21173
803.208	20975
803.35	21081
803.492	21085
803.635	21214
803.777	21077
803.919	21150
804.061	21428
804.204	21051
804.346	21020
804.488	20975
804.63	20986
804.773	20963
804.915	20895
805.057	21165
805.199	21001
805.341	20990
805.483	21093
805.626	21039
805.768	20857
805.91	20948
806.052	20914
806.194	20845
806.336	21138
806.478	21066
806.62	20887
806.762	20941
806.904	21157
807.046	21275
807.188	21214
807.33	21313
807.472	21321
807.614	21199
807.756	21306
807.898	21127
808.04	21024
808.182	21017
808.324	20967
808.465	21230
808.607	21291
808.749	21428
808.891	21545
809.033	21572
809.174	21553
809.316	21272
809.458	21625
809.6	21393
809.741	21431
809.883	21511
810.025	21557
810.166	21492
810.308	21504
810.45	21477
810.591	21382
810.733	21283
810.875	21378
811.016	21081
811.158	21036
811.299	21233
811.441	21351
811.582	21336
811.724	21146
811.865	21104
812.007	21150
812.148	21146
812.29	21252
812.431	21348
812.573	21469
812.714	21587
812.855	21622
812.997	21694
813.138	21838
813.279	21759
813.421	21599
813.562	21542
813.703	21325
813.845	21264
813.986	21051
814.127	20910
814.268	20781
814.41	20716
814.551	20705
814.692	20648
814.833	20667
814.974	20556
815.115	20648
815.256	20556
815.397	20431
815.539	20564
815.68	20503
815.821	20339
815.962	20457
816.103	20404
816.244	20305
816.385	20153
816.526	20202
816.666	19959
816.807	19883
816.948	19925
817.089	19986
817.23	19909
817.371	19731
817.512	19738
817.653	19875
817.793	19769
817.934	19799
818.075	19909
818.216	19868
818.356	19845
818.497	19635
818.638	19533
818.778	19552
818.919	19594
819.06	19476
819.2	19651
819.341	19765
819.481	19658
819.622	19883
819.762	20058
819.903	19860
820.043	19860
820.184	19757
820.324	19742
820.465	19849
820.605	19769
820.746	19799
820.886	19616
821.026	19734
821.167	19693
821.307	19811
821.447	19795
821.588	19582
821.728	19518
821.868	19365
822.008	19225
822.149	19194
822.289	19164
822.429	18875
822.569	18859
822.709	18901
822.849	18692
822.99	18730
823.13	18734
823.27	18703
823.41	18597
823.55	18239
823.69	18631
823.83	18547
823.97	18452
824.11	18262
824.25	18289
824.389	18315
824.529	18391
824.669	18281
824.809	18399
824.949	18357
825.089	18338
825.228	18327
825.368	18133
825.508	18022
825.648	18076
825.787	18038
825.927	18152
826.067	17939
826.206	18087
826.346	18072
826.485	18159
826.625	18076
826.765	18114
826.904	18087
827.044	17908
827.183	17714
827.323	17745
827.462	17851
827.601	17775
827.741	17802
827.88	17893
828.02	17676
828.159	17764
828.298	17748
828.437	17817
828.577	17653
828.716	17863
828.855	17611
828.994	17410
829.134	17581
829.273	17524
829.412	17425
829.551	17535
829.69	17433
829.829	17581
829.968	17524
830.107	17642
830.246	17509
830.385	17402
830.524	17376
830.663	17326
830.802	17349
830.941	17117
831.08	17041
831.219	17197
831.357	17189
831.496	17349
831.635	17041
831.774	16999
831.913	17033
832.051	16858
832.19	16896
832.329	17037
832.467	16786
832.606	16896
832.744	16774
832.883	16816
833.022	16755
833.16	16843
833.299	16847
833.437	16782
833.576	16892
833.714	16828
833.852	16877
833.991	16843
834.129	16843
834.267	16885
834.406	16797
834.544	16885
834.682	16805
834.821	16778
834.959	17006
835.097	16752
835.235	16900
835.373	16919
835.511	16763
835.65	16774
835.788	16740
835.926	16615
836.064	16561
836.202	16508
836.34	16854
836.478	16858
836.615	16656
836.753	16797
836.891	16889
837.029	16729
837.167	16820
837.305	16634
837.443	16755
837.58	16474
837.718	16607
837.856	16542
837.993	16489
838.131	16660
838.269	16569
838.406	16519
838.544	16489
838.681	16363
838.819	16230
838.956	16166
839.094	16074
839.231	16295
839.369	16295
839.506	16634
839.643	16405
839.781	16150
839.918	16128
840.055	16226
840.193	16139
840.33	16139
840.467	16120
840.604	16242
840.742	16489
840.879	16006
841.016	16120
841.153	15979
841.29	16242
841.427	16200
841.564	16211
841.701	16150
841.838	15983
841.975	16177
842.112	16067
842.249	15964
842.385	15953
842.522	16139
842.659	15930
842.796	15835
842.933	15949
843.069	15918
843.206	15918
843.343	15979
843.479	15926
843.616	15926
843.752	15720
843.889	15682
844.025	15861
844.162	15766
844.298	15770
844.435	15736
844.571	15622
844.708	15690
844.844	15972
844.98	15873
845.117	15857
845.253	15785
845.389	15671
845.525	15652
845.661	15591
845.798	15618
845.934	15542
846.07	15557
846.206	15526
846.342	15705
846.478	15587
846.614	15344
846.75	15146
846.886	15287
847.022	15416
847.158	15344
847.294	15283
847.429	15329
847.565	15256
847.701	15511
847.837	15081
847.972	15013
848.108	15146
848.244	15097
848.379	14956
848.515	14845
848.65	14758
848.786	14902
848.921	14868
849.057	15047
849.192	14986
849.328	14948
849.463	14788
849.598	14765
849.734	14796
849.869	14705
850.004	14693
850.14	14678
850.275	14667
850.41	14594
850.545	14659
850.68	14686
850.815	14667
850.95	14667
851.085	14819
851.22	14659
851.355	14667
851.49	14613
851.625	14564
851.76	14594
851.895	14583
852.03	14503
852.165	14667
852.299	14697
852.434	14735
852.569	14640
852.703	14735
852.838	14686
852.973	14830
853.107	14902
853.242	14575
853.376	14552
853.511	14469
853.645	14454
853.78	14670
853.914	14610
854.048	14549
854.183	14499
854.317	14560
854.451	14598
854.585	14438
854.72	14461
854.854	14533
854.988	14381
855.122	14431
855.256	14415
855.39	14438
855.524	14552
855.658	14568
855.792	14579
855.926	14541
856.06	14533
856.194	14575
856.327	14503
856.461	14446
856.595	14389
856.729	14518
856.862	14537
856.996	14617
857.13	14560
857.263	14526
857.397	14705
857.53	14431
857.664	14610
857.797	14514
857.931	14705
858.064	14492
858.197	14670
858.331	14495
858.464	14518
858.597	14419
858.731	14484
858.864	14461
858.997	14431
859.13	14423
859.263	14587
859.396	14511
859.529	14438
859.662	14492
859.795	14454
859.928	14431
860.061	14750
860.194	14625
860.327	14454
860.46	14575
860.592	14530
860.725	14530
860.858	14602
860.99	14484
861.123	14461
861.256	14427
861.388	14514
861.521	15287
861.653	14374
861.786	14301
861.918	14374
862.05	14465
862.183	14454
862.315	14457
862.447	14484
862.58	14377
862.712	14252
862.844	14313
862.976	14278
863.108	14282
863.24	14727
863.372	14153
863.504	14309
863.636	14202
863.768	14362
863.9	14294
864.032	14252
864.164	14256
864.296	14328
864.428	14377
864.559	14355
864.691	14408
864.823	14267
864.954	14339
865.086	14324
865.217	14301
865.349	14145
865.48	14229
865.612	14282
865.743	14412
865.875	14294
866.006	14286
866.137	14252
866.269	14248
866.4	14298
866.531	14202
866.662	14168
866.793	14233
866.924	14286
867.055	14301
867.186	14176
867.317	14138
867.448	14161
867.579	14206
867.71	14107
867.841	14107
867.972	14263
868.103	14199
868.233	14218
868.364	14252
868.495	14385
868.625	14564
868.756	14651
868.886	14370
869.017	14431
869.147	14644
869.278	14602
869.408	14511
869.539	14461
869.669	14549
869.799	14533
869.929	14697
870.06	14701
870.19	14800
870.32	14910
870.45	14872
870.58	14906
870.71	15062
870.84	14948
870.97	14895
871.1	14910
871.23	14944
871.36	15062
871.489	15062
871.619	15009
871.749	14990
871.879	15192
872.008	15169
872.138	15119
872.267	15036
872.397	15036
872.526	14982
872.656	14864
872.785	14975
872.915	15089
873.044	15256
873.173	15180
873.303	15188
873.432	15199
873.561	15226
873.69	15093
873.819	15241
873.948	15188
874.077	15131
874.206	15077
874.335	15252
874.464	15256
874.593	15599
874.722	15393
874.851	15469
874.979	15443
875.108	15496
875.237	15367
875.365	15420
875.494	15439
875.623	15557
875.751	15447
875.88	15488
876.008	15595
876.136	15679
876.265	15895
876.393	16059
876.521	15949
876.65	15903
876.778	15857
876.906	15812
877.034	15797
877.162	15861
877.29	15831
877.418	15793
877.546	15838
877.674	15842
877.802	15831
877.93	15846
878.058	15812
878.185	15804
878.313	15861
878.441	15804
878.568	15713
878.696	15903
878.824	16002
878.951	15918
879.079	16109
879.206	16173
879.333	15975
879.461	15941
879.588	16055
879.715	16128
879.842	16249
879.97	16040
880.097	15751
880.224	15663
880.351	15724
880.478	15747
880.605	15656
880.732	15732
880.859	16002
880.986	15793
881.112	15770
881.239	15622
881.366	15534
881.493	15420
881.619	15317
881.746	15393
881.872	15355
881.999	15336
882.125	15283
882.252	15374
882.378	15397
882.505	15481
882.631	15378
882.757	15233
882.883	15180
883.01	15192
883.136	15058
883.262	15081
883.388	15009
883.514	15275
883.64	15195
883.766	15184
883.892	15028
884.018	15013
884.143	15161
884.269	15306
884.395	15013
884.52	14883
884.646	14952
884.772	14853
884.897	14769
885.023	14864
885.148	15070
885.274	15081
885.399	14998
885.524	14921
885.65	14994
885.775	14933
885.9	14823
886.025	15047
886.15	14914
886.275	14883
886.4	14765
886.525	14819
886.65	14811
886.775	14826
886.9	14937
887.025	15085
887.149	14834
887.274	14845
887.399	14678
887.523	14663
887.648	14731
887.773	14663
887.897	14765
888.021	14762
888.146	14655
888.27	14777
888.395	14815
888.519	14708
888.643	14826
888.767	14762
888.891	14743
889.015	14537
889.139	14617
889.263	14514
889.387	14686
889.511	14735
889.635	14785
889.759	14514
889.883	14594
890.006	14617
890.13	14629
890.254	14408
890.377	14606
890.501	14415
890.624	14393
890.748	14393
890.871	14290
890.995	14328
891.118	14191
891.241	14225
891.364	14202
891.488	14267
891.611	14206
891.734	14187
891.857	14366
891.98	14305
892.103	14332
892.226	14339
892.349	14225
892.471	14142
892.594	14218
892.717	14248
892.839	14259
892.962	14294
893.085	14320
893.207	14301
893.33	14123
893.452	14214
893.575	14339
893.697	14275
893.819	14400
893.941	14381
894.064	14450
894.186	14202
894.308	14214
894.43	14370
894.552	14488
894.674	14476
894.796	14275
894.918	14240
895.04	14286
895.161	14473
895.283	14423
895.405	14324
895.526	14362
895.648	14374
895.769	14366
895.891	14423
896.012	14541
896.134	14450
896.255	14480
896.376	14454
896.498	14488
896.619	14408
896.74	14454
896.861	14560
896.982	14773
897.103	14891
897.224	14701
897.345	14594
897.466	14663
897.587	14651
897.708	14800
897.828	14765
897.949	14594
898.07	14610
898.19	14686
898.311	14872
898.431	14724
898.552	14845
898.672	14720
898.792	14815
898.913	14804
899.033	14708
899.153	14655
899.273	14587
899.393	14598
899.513	14674
899.633	14640
899.753	14648
899.873	14651
899.993	14739
900.113	14606
900.232	14731
900.352	14598
900.472	14499
900.591	14454
900.711	14457
900.83	14469
900.95	14625
901.069	14644
901.189	14404
901.308	14218
901.427	14161
901.546	14172
901.665	14294
901.784	14176
901.904	14096
902.023	14020
902.141	13765
902.26	13799
902.379	13795
902.498	13719
902.617	13624
902.735	13936
902.854	13852
902.973	13723
903.091	13518
903.21	13449
903.328	13434
903.446	13411
903.565	13396
903.683	13354
903.801	13259
903.919	13343
904.038	13152
904.156	13129
904.274	13198
904.392	13164
904.51	12973
904.627	13206
904.745	13137
904.863	13213
904.981	12882
905.098	12783
905.216	12745
905.334	12840
905.451	12783
905.569	12802
905.686	12795
905.803	12821
905.921	12631
906.038	12741
906.155	12570
906.272	12494
906.389	12445
906.506	12509
906.623	12361
906.74	12319
906.857	12319
906.974	12369
907.091	12456
907.208	12498
907.324	12418
907.441	12239
907.557	12205
907.674	12133
907.79	12079
907.907	12106
908.023	12209
908.139	12163
908.256	12064
908.372	12087
908.488	11969
908.604	11908
908.72	11923
908.836	11912
908.952	11912
909.068	11878
909.184	12057
909.3	11920
909.415	11969
909.531	11885
909.647	11680
909.762	11646
909.878	11611
909.993	11714
910.108	11615
910.224	11592
910.339	11691
910.454	11562
910.57	11528
910.685	11463
910.8	11779
910.915	11695
911.03	11566
911.145	11383
911.259	11296
911.374	11334
911.489	11410
911.604	11280
911.718	11170
911.833	11117
911.947	11033
912.062	10953
912.176	11010
912.291	11132
912.405	11064
912.519	11254
912.633	11307
912.748	11178
912.862	11151
912.976	11037
913.09	10987
913.204	10900
913.318	10938
913.431	11083
913.545	11067
913.659	11140
913.772	10953
913.886	10930
914	10850
914.113	10904
914.226	11052
914.34	10896
914.453	10797
914.566	10900
914.68	10725
914.793	10828
914.906	10645
915.019	10611
915.132	10504
915.245	10588
915.358	10558
915.47	10622
915.583	10603
915.696	10698
915.809	10668
915.921	10740
916.034	10611
916.146	10516
916.259	10538
916.371	10637
916.483	10668
916.595	10527
916.708	10558
916.82	10512
916.932	10508
917.044	10577
917.156	10516
917.268	10409
917.38	10500
917.491	10402
917.603	10508
917.715	10630
917.826	10531
917.938	10462
918.049	10363
918.161	10485
918.272	10580
918.384	10679
918.495	10379
918.606	10284
918.717	10234
918.828	10318
918.939	10371
919.05	10188
919.161	10337
919.272	10051
919.383	10185
919.494	10318
919.604	10538
919.715	10375
919.826	10261
919.936	10234
920.047	10371
920.157	10436
920.267	10523
920.378	10303
920.488	10314
920.598	10493
920.708	10626
920.818	10489
920.928	10558
921.038	10702
921.148	10618
921.258	10367
921.368	10333
921.477	10291
921.587	10215
921.697	10097
921.806	10147
921.916	10078
922.025	9892
922.134	9884
922.244	9895
922.353	9838
922.462	9778
922.571	9778
922.68	9637
922.789	9561
922.898	9534
923.007	9511
923.116	9591
923.224	9519
923.333	9553
923.442	9504
923.55	9424
923.659	9504
923.767	9549
923.876	9408
923.984	9511
924.092	9397
924.201	9439
924.309	9428
924.417	9420
924.525	9351
924.633	9477
924.741	10158
924.849	9176
924.956	9439
925.064	9176
925.172	9116
925.279	9226
925.387	9230
925.494	9233
925.602	9447
925.709	9294
925.816	9192
925.924	9192
926.031	9275
926.138	9233
926.245	9192
926.352	9146
926.459	9253
926.566	9313
926.673	9161
926.779	9119
926.886	9116
926.993	8971
927.099	8956
927.206	8921
927.312	8838
927.419	9009
927.525	8982
927.631	8982
927.737	8872
927.843	8777
927.95	8716
928.056	8834
928.162	8853
928.267	8876
928.373	9382
928.479	8899
928.585	8689
928.69	8792
928.796	8842
928.901	8762
929.007	8670
929.112	8739
929.218	8632
929.323	8716
929.428	8648
929.533	8785
929.638	8598
929.743	8610
929.848	8720
929.953	8602
930.058	8564
930.163	8393
930.267	8492
930.372	8564
930.477	8423
930.581	8659
930.685	8549
930.79	8400
930.894	8423
930.998	8305
931.103	8522
931.207	8233
931.311	8126
931.415	8020
931.519	7883
931.623	7830
