Data from test_V78500241_3492.txt Node
Date: Fri Mar 25 14:58:01 CST 2022
User: usil
Spectrometer: V785-0024
Trigger mode: 0
Integration Time (sec): 4.000000E-1
Scans to average: 1
Nonlinearity correction enabled: false
Boxcar width: 0
Storing dark spectrum: false
XAxis mode: Wavelengths
Number of Pixels in Spectrum: 1024
>>>>>Begin Spectral Data<<<<<
801.071	21945
801.214	21869
801.356	21667
801.499	21488
801.641	21329
801.783	21344
801.926	21237
802.068	21222
802.211	21161
802.353	21047
802.496	20929
802.638	20762
802.78	20807
802.923	20689
803.065	20705
803.208	20549
803.35	20701
803.492	20708
803.635	20838
803.777	20556
803.919	20762
804.061	20925
804.204	20659
804.346	20541
804.488	20511
804.63	20579
804.773	20488
804.915	20480
805.057	20621
805.199	20442
805.341	20587
805.483	20613
805.626	20537
805.768	20556
805.91	20503
806.052	20663
806.194	20560
806.336	20651
806.478	20427
806.62	20495
806.762	20541
806.904	20651
807.046	20944
807.188	20944
807.33	20838
807.472	20952
807.614	20819
807.756	20708
807.898	20541
808.04	20537
808.182	20488
808.324	20587
808.465	20575
808.607	20845
808.749	20762
808.891	20887
809.033	21108
809.174	20811
809.316	20838
809.458	20849
809.6	20807
809.741	20906
809.883	20929
810.025	21138
810.166	21043
810.308	20971
810.45	20990
810.591	20887
810.733	20659
810.875	20583
811.016	20571
811.158	20507
811.299	20644
811.441	20731
811.582	20689
811.724	20655
811.865	20568
812.007	20648
812.148	20625
812.29	20670
812.431	20727
812.573	20944
812.714	21051
812.855	21123
812.997	21279
813.138	21275
813.279	21214
813.421	21180
813.562	21028
813.703	20944
813.845	20800
813.986	20530
814.127	20301
814.268	20248
814.41	20256
814.551	20221
814.692	20210
814.833	20100
814.974	20081
815.115	20233
815.256	19944
815.397	20142
815.539	20035
815.68	19974
815.821	19761
815.962	19868
816.103	19746
816.244	19875
816.385	19605
816.526	19491
816.666	19438
816.807	19346
816.948	19358
817.089	19438
817.23	19301
817.371	19301
817.512	19304
817.653	19369
817.793	19274
817.934	19297
818.075	19259
818.216	19297
818.356	19255
818.497	19198
818.638	19042
818.778	19057
818.919	18859
819.06	19034
819.2	19118
819.341	19213
819.481	19206
819.622	19335
819.762	19434
819.903	19411
820.043	19324
820.184	19270
820.324	19206
820.465	19324
820.605	19369
820.746	19209
820.886	19175
821.026	19228
821.167	19240
821.307	19282
821.447	19107
821.588	19168
821.728	19057
821.868	18806
822.008	18639
822.149	18741
822.289	18654
822.429	18399
822.569	18346
822.709	18365
822.849	18167
822.99	18015
823.13	18167
823.27	18114
823.41	17939
823.55	17897
823.69	17912
823.83	18026
823.97	17912
824.11	17832
824.25	17710
824.389	17665
824.529	17878
824.669	17779
824.809	17901
824.949	17916
825.089	17840
825.228	17798
825.368	17687
825.508	17551
825.648	17535
825.787	17497
825.927	17661
826.067	17353
826.206	17482
826.346	17592
826.485	17493
826.625	17623
826.765	17497
826.904	17486
827.044	17376
827.183	17349
827.323	17307
827.462	17288
827.601	17353
827.741	17227
827.88	17322
828.02	17079
828.159	17246
828.298	17296
828.437	17296
828.577	17223
828.716	17277
828.855	17277
828.994	17056
829.134	17090
829.273	17022
829.412	17041
829.551	16847
829.69	16923
829.829	17003
829.968	17052
830.107	17079
830.246	17060
830.385	17006
830.524	16908
830.663	16771
830.802	16729
830.941	16592
831.08	16691
831.219	16664
831.357	16580
831.496	16771
831.635	16561
831.774	16653
831.913	16508
832.051	16440
832.19	16478
832.329	16405
832.467	16367
832.606	16329
832.744	16348
832.883	16261
833.022	16325
833.16	16390
833.299	16375
833.437	16455
833.576	16443
833.714	16337
833.852	16432
833.991	16405
834.129	16428
834.267	16421
834.406	16325
834.544	16398
834.682	16382
834.821	16344
834.959	16538
835.097	16318
835.235	16504
835.373	16413
835.511	16493
835.65	16375
835.788	16291
835.926	16188
836.064	16032
836.202	16173
836.34	16261
836.478	16398
836.615	16253
836.753	16306
836.891	16371
837.029	16276
837.167	16284
837.305	16295
837.443	16219
837.58	16219
837.718	16249
837.856	16268
837.993	16124
838.131	16166
838.269	16063
838.406	16162
838.544	15991
838.681	15949
838.819	15865
838.956	15778
839.094	15762
839.231	15800
839.369	15998
839.506	16181
839.643	15968
839.781	15789
839.918	15732
840.055	15732
840.193	15739
840.33	15637
840.467	15755
840.604	15808
840.742	15945
840.879	15622
841.016	15618
841.153	15587
841.29	15857
841.427	15778
841.564	15751
841.701	15671
841.838	15698
841.975	15576
842.112	15660
842.249	15496
842.385	15496
842.522	15793
842.659	15576
842.796	15542
842.933	15557
843.069	15530
843.206	15500
843.343	15568
843.479	15507
843.616	15523
843.752	15355
843.889	15340
844.025	15496
844.162	15374
844.298	15256
844.435	15344
844.571	15275
844.708	15355
844.844	15481
844.98	15492
845.117	15386
845.253	15230
845.389	15245
845.525	15252
845.661	15192
845.798	15108
845.934	15150
846.07	15085
846.206	15146
846.342	15325
846.478	15104
846.614	14952
846.75	14826
846.886	14891
847.022	15013
847.158	14937
847.294	14971
847.429	14906
847.565	14826
847.701	15100
847.837	14598
847.972	14575
848.108	14705
848.244	14678
848.379	14514
848.515	14522
848.65	14415
848.786	14495
848.921	14537
849.057	14648
849.192	14610
849.328	14488
849.463	14568
849.598	14362
849.734	14450
849.869	14381
850.004	14267
850.14	14282
850.275	14229
850.41	14180
850.545	14123
850.68	14248
850.815	14161
850.95	14218
851.085	14389
851.22	14339
851.355	14294
851.49	14275
851.625	14126
851.76	14252
851.895	14202
852.03	14058
852.165	14168
852.299	14271
852.434	14278
852.569	14301
852.703	14317
852.838	14271
852.973	14389
853.107	14358
853.242	14199
853.376	14168
853.511	13986
853.645	14084
853.78	14191
853.914	14081
854.048	14050
854.183	14123
854.317	14123
854.451	14366
854.585	14100
854.72	14092
854.854	14199
854.988	14157
855.122	14073
855.256	13951
855.39	14012
855.524	14252
855.658	14202
855.792	14062
855.926	14218
856.06	14157
856.194	14294
856.327	14145
856.461	14092
856.595	14077
856.729	14054
856.862	14126
856.996	14020
857.13	14180
857.263	14263
857.397	14252
857.53	14088
857.664	14271
857.797	14229
857.931	14123
858.064	14092
858.197	14191
858.331	14111
858.464	14145
858.597	14016
858.731	14115
858.864	14164
858.997	14107
859.13	14157
859.263	14054
859.396	14240
859.529	14210
859.662	14081
859.795	14065
859.928	14164
860.061	14339
860.194	14252
860.327	14130
860.46	14138
860.592	14138
860.725	14176
860.858	14278
860.99	14126
861.123	14031
861.256	14043
861.388	14202
861.521	14834
861.653	14062
861.786	13944
861.918	14012
862.05	14107
862.183	14119
862.315	14073
862.447	14145
862.58	14073
862.712	14012
862.844	13902
862.976	13951
863.108	13887
863.24	14427
863.372	13852
863.504	13875
863.636	13928
863.768	13890
863.9	13940
864.032	13734
864.164	13871
864.296	13883
864.428	14016
864.559	14092
864.691	13986
864.823	13906
864.954	14001
865.086	13909
865.217	13928
865.349	13860
865.48	13856
865.612	13928
865.743	13917
865.875	13890
866.006	13887
866.137	13993
866.269	13967
866.4	13898
866.531	13807
866.662	13822
866.793	13784
866.924	13906
867.055	13849
867.186	13875
867.317	13795
867.448	13887
867.579	13856
867.71	13902
867.841	13906
867.972	13879
868.103	13811
868.233	13883
868.364	13898
868.495	13967
868.625	14054
868.756	14161
868.886	14081
869.017	14259
869.147	14267
869.278	14290
869.408	14149
869.539	14123
869.669	14172
869.799	14164
869.929	14256
870.06	14298
870.19	14461
870.32	14507
870.45	14473
870.58	14594
870.71	14716
870.84	14712
870.97	14575
871.1	14632
871.23	14716
871.36	14746
871.489	14610
871.619	14613
871.749	14655
871.879	14785
872.008	14868
872.138	14712
872.267	14785
872.397	14526
872.526	14568
872.656	14549
872.785	14571
872.915	14743
873.044	14823
873.173	14739
873.303	14834
873.432	14804
873.561	14925
873.69	14819
873.819	14880
873.948	14918
874.077	14815
874.206	14864
874.335	14853
874.464	14979
874.593	15089
874.722	15097
874.851	15154
874.979	15176
875.108	15135
875.237	15138
875.365	15020
875.494	15165
875.623	15211
875.751	15028
875.88	15222
876.008	15237
876.136	15268
876.265	15466
876.393	15656
876.521	15591
876.65	15606
876.778	15622
876.906	15515
877.034	15481
877.162	15492
877.29	15458
877.418	15549
877.546	15561
877.674	15405
877.802	15599
877.93	15526
878.058	15466
878.185	15374
878.313	15500
878.441	15599
878.568	15462
878.696	15393
878.824	15622
878.951	15564
879.079	15584
879.206	15861
879.333	15747
879.461	15538
879.588	15644
879.715	15736
879.842	15785
879.97	15606
880.097	15344
880.224	15340
880.351	15389
880.478	15363
880.605	15287
880.732	15279
880.859	15564
880.986	15496
881.112	15485
881.239	15348
881.366	15142
881.493	15028
881.619	15085
881.746	15104
881.872	15047
881.999	15024
882.125	14944
882.252	15066
882.378	15108
882.505	15195
882.631	14967
882.757	14807
882.883	14906
883.01	14861
883.136	14769
883.262	14708
883.388	14750
883.514	14880
883.64	14914
883.766	14762
883.892	14632
884.018	14606
884.143	14842
884.269	14960
884.395	14640
884.52	14568
884.646	14640
884.772	14533
884.897	14438
885.023	14583
885.148	14739
885.274	14788
885.399	14701
885.524	14552
885.65	14545
885.775	14545
885.9	14492
886.025	14708
886.15	14708
886.275	14488
886.4	14484
886.525	14484
886.65	14442
886.775	14488
886.9	14716
887.025	14880
887.149	14598
887.274	14366
887.399	14404
887.523	14328
887.648	14301
887.773	14298
887.897	14492
888.021	14518
888.146	14442
888.27	14507
888.395	14514
888.519	14571
888.643	14484
888.767	14431
888.891	14358
889.015	14263
889.139	14309
889.263	14161
889.387	14454
889.511	14434
889.635	14362
889.759	14256
889.883	14324
890.006	14309
890.13	14507
890.254	14244
890.377	14199
890.501	14153
890.624	13974
890.748	14054
890.871	14103
890.995	13967
891.118	13852
891.241	13982
891.364	13963
891.488	14111
891.611	14001
891.734	14008
891.857	14046
891.98	13997
892.103	14103
892.226	13913
892.349	13970
892.471	13799
892.594	13913
892.717	14035
892.839	13928
892.962	13970
893.085	14020
893.207	14001
893.33	13746
893.452	13898
893.575	14027
893.697	13955
893.819	14100
893.941	14229
894.064	14065
894.186	13887
894.308	13917
894.43	14191
894.552	14202
894.674	14176
894.796	13890
894.918	13959
895.04	14107
895.161	14145
895.283	14046
895.405	13993
895.526	14043
895.648	14126
895.769	14088
895.891	14153
896.012	14290
896.134	14187
896.255	14103
896.376	14088
896.498	14119
896.619	14126
896.74	14142
896.861	14229
896.982	14522
897.103	14716
897.224	14400
897.345	14473
897.466	14324
897.587	14438
897.708	14629
897.828	14434
897.949	14393
898.07	14263
898.19	14332
898.311	14499
898.431	14442
898.552	14530
898.672	14564
898.792	14602
898.913	14473
899.033	14415
899.153	14473
899.273	14244
899.393	14438
899.513	14305
899.633	14313
899.753	14320
899.873	14320
899.993	14499
900.113	14263
900.232	14423
900.352	14298
900.472	14248
900.591	14256
900.711	14259
900.83	14183
900.95	14286
901.069	14313
901.189	14210
901.308	13989
901.427	13807
901.546	13906
901.665	13955
901.784	13978
901.904	13753
902.023	13647
902.141	13521
902.26	13468
902.379	13510
902.498	13445
902.617	13422
902.735	13472
902.854	13392
902.973	13350
903.091	13183
903.21	13099
903.328	13175
903.446	13099
903.565	13091
903.683	13027
903.801	12996
903.919	12916
904.038	12996
904.156	12928
904.274	12852
904.392	12821
904.51	12909
904.627	12806
904.745	12909
904.863	12863
904.981	12646
905.098	12551
905.216	12593
905.334	12601
905.451	12578
905.569	12525
905.686	12650
905.803	12525
905.921	12327
906.038	12475
906.155	12399
906.272	12213
906.389	12205
906.506	12125
906.623	12129
906.74	12121
906.857	12060
906.974	12015
907.091	12186
907.208	12296
907.324	12239
907.441	11996
907.557	11927
907.674	11847
907.79	11790
907.907	11878
908.023	11977
908.139	11874
908.256	11802
908.372	11783
908.488	11824
908.604	11653
908.72	11577
908.836	11672
908.952	11695
909.068	11665
909.184	11805
909.3	11649
909.415	11726
909.531	11638
909.647	11459
909.762	11463
909.878	11345
909.993	11474
910.108	11410
910.224	11402
910.339	11444
910.454	11387
910.57	11334
910.685	11277
910.8	11524
910.915	11433
911.03	11284
911.145	11166
911.259	11121
911.374	11155
911.489	11060
911.604	10949
911.718	10885
911.833	10873
911.947	10812
912.062	10721
912.176	10869
912.291	10900
912.405	10961
912.519	11041
912.633	11098
912.748	10987
912.862	10908
912.976	10850
913.09	10729
913.204	10710
913.318	10797
913.431	10869
913.545	10854
913.659	10885
913.772	10774
913.886	10596
914	10664
914.113	10706
914.226	10774
914.34	10748
914.453	10580
914.566	10755
914.68	10577
914.793	10603
914.906	10379
915.019	10402
915.132	10310
915.245	10287
915.358	10356
915.47	10470
915.583	10337
915.696	10481
915.809	10440
915.921	10519
916.034	10348
916.146	10379
916.259	10227
916.371	10421
916.483	10329
916.595	10287
916.708	10363
916.82	10348
916.932	10287
917.044	10268
917.156	10310
917.268	10196
917.38	10227
917.491	10196
917.603	10238
917.715	10284
917.826	10310
917.938	10238
918.049	10124
918.161	10192
918.272	10379
918.384	10360
918.495	10246
918.606	10097
918.717	10128
918.828	10162
918.939	10173
919.05	10029
919.161	10090
919.272	9899
919.383	10025
919.494	10158
919.604	10402
919.715	10162
919.826	10093
919.936	10109
920.047	10177
920.157	10139
920.267	10299
920.378	10181
920.488	10185
920.598	10261
920.708	10462
920.818	10352
920.928	10268
921.038	10459
921.148	10455
921.258	10150
921.368	10128
921.477	10044
921.587	9953
921.697	9926
921.806	10051
921.916	9930
922.025	9774
922.134	9766
922.244	9614
922.353	9736
922.462	9530
922.571	9564
922.68	9435
922.789	9405
922.898	9408
923.007	9253
923.116	9454
923.224	9336
923.333	9416
923.442	9313
923.55	9283
923.659	9310
923.767	9344
923.876	9256
923.984	9253
924.092	9116
924.201	9245
924.309	9253
924.417	9230
924.525	9184
924.633	9180
924.741	9983
924.849	9066
924.956	9245
925.064	9074
925.172	8952
925.279	8971
925.387	9043
925.494	9024
925.602	9199
925.709	9123
925.816	8990
925.924	9055
926.031	9157
926.138	9032
926.245	9104
926.352	8960
926.459	9165
926.566	9195
926.673	9028
926.779	8929
926.886	8914
926.993	8766
927.099	8758
927.206	8724
927.312	8712
927.419	8830
927.525	8796
927.631	8823
927.737	8678
927.843	8689
927.95	8530
928.056	8644
928.162	8663
928.267	8758
928.373	9329
928.479	8758
928.585	8549
928.69	8625
928.796	8712
928.901	8663
929.007	8389
929.112	8598
929.218	8530
929.323	8419
929.428	8465
929.533	8610
929.638	8438
929.743	8488
929.848	8488
929.953	8431
930.058	8385
930.163	8225
930.267	8252
930.372	8377
930.477	8229
930.581	8492
930.685	8355
930.79	8111
930.894	8271
930.998	8229
931.103	8355
931.207	8001
931.311	7921
931.415	7906
931.519	7704
931.623	7708
