Data from test_V78500241_1472.txt Node
Date: Fri Mar 25 14:43:57 CST 2022
User: usil
Spectrometer: V785-0024
Trigger mode: 0
Integration Time (sec): 4.000000E-1
Scans to average: 1
Nonlinearity correction enabled: false
Boxcar width: 0
Storing dark spectrum: false
XAxis mode: Wavelengths
Number of Pixels in Spectrum: 1024
>>>>>Begin Spectral Data<<<<<
801.071	22523
801.214	22314
801.356	22070
801.499	22021
801.641	21827
801.783	21823
801.926	21724
802.068	21682
802.211	21568
802.353	21739
802.496	21382
802.638	21306
802.78	21211
802.923	21085
803.065	21089
803.208	21112
803.35	21112
803.492	21112
803.635	21351
803.777	21009
803.919	21199
804.061	21545
804.204	21241
804.346	21093
804.488	21077
804.63	21085
804.773	21104
804.915	21009
805.057	21207
805.199	20891
805.341	21142
805.483	21093
805.626	21066
805.768	20967
805.91	21100
806.052	21036
806.194	20998
806.336	21184
806.478	20975
806.62	20971
806.762	21062
806.904	21161
807.046	21416
807.188	21401
807.33	21317
807.472	21507
807.614	21416
807.756	21431
807.898	21325
808.04	21184
808.182	21211
808.324	21272
808.465	21279
808.607	21583
808.749	21679
808.891	21793
809.033	21644
809.174	21739
809.316	21660
809.458	21580
809.6	21450
809.741	21603
809.883	21671
810.025	21728
810.166	21530
810.308	21663
810.45	21534
810.591	21363
810.733	21389
810.875	21298
811.016	21150
811.158	21070
811.299	21355
811.441	21351
811.582	21363
811.724	21264
811.865	21283
812.007	21207
812.148	21146
812.29	21355
812.431	21454
812.573	21519
812.714	21732
812.855	21644
812.997	21808
813.138	21926
813.279	21899
813.421	21656
813.562	21671
813.703	21488
813.845	21370
813.986	21066
814.127	20967
814.268	20750
814.41	20773
814.551	20830
814.692	20838
814.833	20765
814.974	20788
815.115	20849
815.256	20629
815.397	20587
815.539	20659
815.68	20629
815.821	20461
815.962	20473
816.103	20431
816.244	20286
816.385	20225
816.526	20202
816.666	20100
816.807	19898
816.948	20058
817.089	20012
817.23	19898
817.371	19932
817.512	19909
817.653	19936
817.793	19860
817.934	19978
818.075	19967
818.216	19986
818.356	19875
818.497	19712
818.638	19548
818.778	19734
818.919	19537
819.06	19674
819.2	19731
819.341	19742
819.481	19822
819.622	19902
819.762	20142
819.903	20138
820.043	19887
820.184	19830
820.324	19932
820.465	19860
820.605	19978
820.746	19871
820.886	19772
821.026	19959
821.167	19906
821.307	19944
821.447	19875
821.588	19799
821.728	19658
821.868	19457
822.008	19350
822.149	19194
822.289	19190
822.429	19027
822.569	19038
822.709	18939
822.849	18897
822.99	18886
823.13	18814
823.27	18730
823.41	18585
823.55	18498
823.69	18612
823.83	18578
823.97	18540
824.11	18426
824.25	18346
824.389	18239
824.529	18464
824.669	18445
824.809	18467
824.949	18513
825.089	18452
825.228	18304
825.368	18239
825.508	18171
825.648	18174
825.787	18155
825.927	18247
826.067	18072
826.206	18095
826.346	18114
826.485	18144
826.625	18216
826.765	18163
826.904	18262
827.044	17878
827.183	17828
827.323	17843
827.462	17859
827.601	17745
827.741	17843
827.88	17878
828.02	17748
828.159	17836
828.298	17912
828.437	17851
828.577	17802
828.716	17912
828.855	17771
828.994	17630
829.134	17581
829.273	17665
829.412	17505
829.551	17471
829.69	17570
829.829	17558
829.968	17661
830.107	17551
830.246	17604
830.385	17661
830.524	17493
830.663	17406
830.802	17326
830.941	17227
831.08	17170
831.219	17204
831.357	17208
831.496	17372
831.635	17258
831.774	17117
831.913	17121
832.051	16976
832.19	17014
832.329	17025
832.467	16995
832.606	16850
832.744	16778
832.883	16793
833.022	16828
833.16	16820
833.299	16896
833.437	16816
833.576	16961
833.714	16976
833.852	16968
833.991	16854
834.129	17075
834.267	17048
834.406	16946
834.544	16976
834.682	16869
834.821	16968
834.959	17025
835.097	16999
835.235	17090
835.373	16881
835.511	16881
835.65	16866
835.788	16786
835.926	16630
836.064	16630
836.202	16672
836.34	16786
836.478	16881
836.615	16812
836.753	16816
836.891	16866
837.029	16889
837.167	16755
837.305	16744
837.443	16721
837.58	16622
837.718	16733
837.856	16717
837.993	16542
838.131	16656
838.269	16702
838.406	16577
838.544	16561
838.681	16382
838.819	16394
838.956	16188
839.094	16097
839.231	16234
839.369	16382
839.506	16641
839.643	16497
839.781	16348
839.918	16284
840.055	16337
840.193	16246
840.33	16276
840.467	16242
840.604	16280
840.742	16459
840.879	16017
841.016	16169
841.153	16063
841.29	16295
841.427	16382
841.564	16303
841.701	16230
841.838	16162
841.975	16124
842.112	16120
842.249	15926
842.385	15979
842.522	16131
842.659	16131
842.796	16048
842.933	16036
843.069	15994
843.206	15915
843.343	16048
843.479	15945
843.616	16044
843.752	15854
843.889	15846
844.025	15922
844.162	15743
844.298	15975
844.435	15713
844.571	15762
844.708	15918
844.844	15964
844.98	15956
845.117	15911
845.253	15850
845.389	15751
845.525	15835
845.661	15797
845.798	15800
845.934	15907
846.07	15800
846.206	15873
846.342	15964
846.478	15819
846.614	15561
846.75	15405
846.886	15310
847.022	15439
847.158	15272
847.294	15435
847.429	15332
847.565	15401
847.701	15519
847.837	15093
847.972	15058
848.108	15226
848.244	15112
848.379	14944
848.515	14910
848.65	14914
848.786	14906
848.921	15051
849.057	15100
849.192	15066
849.328	14979
849.463	14986
849.598	14876
849.734	14941
849.869	14792
850.004	14735
850.14	14686
850.275	14773
850.41	14720
850.545	14648
850.68	14731
850.815	14686
850.95	14724
851.085	14914
851.22	14819
851.355	14739
851.49	14667
851.625	14613
851.76	14781
851.895	14640
852.03	14503
852.165	14708
852.299	14849
852.434	14872
852.569	14651
852.703	14720
852.838	14788
852.973	14933
853.107	14800
853.242	14655
853.376	14556
853.511	14480
853.645	14530
853.78	14678
853.914	14629
854.048	14606
854.183	14518
854.317	14621
854.451	14697
854.585	14686
854.72	14564
854.854	14720
854.988	14560
855.122	14568
855.256	14465
855.39	14575
855.524	14674
855.658	14712
855.792	14575
855.926	14594
856.06	14564
856.194	14765
856.327	14610
856.461	14495
856.595	14514
856.729	14446
856.862	14701
856.996	14617
857.13	14651
857.263	14823
857.397	14674
857.53	14556
857.664	14678
857.797	14674
857.931	14674
858.064	14629
858.197	14659
858.331	14537
858.464	14476
858.597	14408
858.731	14556
858.864	14587
858.997	14610
859.13	14552
859.263	14636
859.396	14716
859.529	14564
859.662	14644
859.795	14522
859.928	14625
860.061	14682
860.194	14686
860.327	14602
860.46	14461
860.592	14743
860.725	14739
860.858	14739
860.99	14606
861.123	14473
861.256	14552
861.388	14579
861.521	15157
861.653	14484
861.786	14328
861.918	14412
862.05	14621
862.183	14503
862.315	14610
862.447	14625
862.58	14473
862.712	14412
862.844	14320
862.976	14355
863.108	14370
863.24	14830
863.372	14278
863.504	14488
863.636	14263
863.768	14522
863.9	14362
864.032	14256
864.164	14343
864.296	14400
864.428	14518
864.559	14412
864.691	14518
864.823	14396
864.954	14370
865.086	14351
865.217	14396
865.349	14263
865.48	14336
865.612	14370
865.743	14446
865.875	14294
866.006	14339
866.137	14366
866.269	14374
866.4	14324
866.531	14267
866.662	14332
866.793	14278
866.924	14221
867.055	14355
867.186	14263
867.317	14313
867.448	14206
867.579	14476
867.71	14210
867.841	14275
867.972	14381
868.103	14290
868.233	14389
868.364	14286
868.495	14358
868.625	14537
868.756	14617
868.886	14461
869.017	14480
869.147	14724
869.278	14632
869.408	14629
869.539	14533
869.669	14644
869.799	14556
869.929	14788
870.06	14606
870.19	14956
870.32	14891
870.45	14921
870.58	14956
870.71	15097
870.84	15081
870.97	15047
871.1	14994
871.23	15249
871.36	15161
871.489	15081
871.619	15112
871.749	15203
871.879	15256
872.008	15272
872.138	15165
872.267	15161
872.397	15066
872.526	15028
872.656	14899
872.785	15074
872.915	15222
873.044	15363
873.173	15192
873.303	15165
873.432	15116
873.561	15294
873.69	15226
873.819	15252
873.948	15332
874.077	15298
874.206	15184
874.335	15180
874.464	15367
874.593	15534
874.722	15401
874.851	15553
874.979	15584
875.108	15519
875.237	15473
875.365	15450
875.494	15450
875.623	15622
875.751	15610
875.88	15625
876.008	15656
876.136	15709
876.265	15975
876.393	16010
876.521	16010
876.65	16109
876.778	15964
876.906	15975
877.034	15835
877.162	15861
877.29	15835
877.418	16006
877.546	16040
877.674	15956
877.802	15941
877.93	15934
878.058	15876
878.185	15918
878.313	16036
878.441	15934
878.568	15812
878.696	15979
878.824	16010
878.951	16048
879.079	16230
879.206	16375
879.333	16150
879.461	16162
879.588	16257
879.715	16291
879.842	16299
879.97	16071
880.097	15915
880.224	15888
880.351	15876
880.478	15869
880.605	15732
880.732	15698
880.859	16154
880.986	15797
881.112	15846
881.239	15698
881.366	15603
881.493	15553
881.619	15515
881.746	15492
881.872	15473
881.999	15477
882.125	15435
882.252	15469
882.378	15545
882.505	15622
882.631	15374
882.757	15237
882.883	15310
883.01	15272
883.136	15218
883.262	15157
883.388	15146
883.514	15359
883.64	15306
883.766	15180
883.892	15108
884.018	15165
884.143	15268
884.269	15420
884.395	15150
884.52	14967
884.646	15112
884.772	14967
884.897	15005
885.023	14937
885.148	15112
885.274	15157
885.399	15077
885.524	14990
885.65	14971
885.775	15013
885.9	15024
886.025	15123
886.15	15074
886.275	14933
886.4	14963
886.525	14944
886.65	14895
886.775	14872
886.9	15135
887.025	15176
887.149	14986
887.274	14754
887.399	14792
887.523	14769
887.648	14735
887.773	14682
887.897	14906
888.021	14842
888.146	14746
888.27	14910
888.395	14933
888.519	14826
888.643	14838
888.767	14891
888.891	14785
889.015	14575
889.139	14735
889.263	14712
889.387	14727
889.511	14880
889.635	14807
889.759	14655
889.883	14667
890.006	14705
890.13	14708
890.254	14629
890.377	14518
890.501	14480
890.624	14427
890.748	14632
890.871	14427
890.995	14286
891.118	14336
891.241	14328
891.364	14233
891.488	14522
891.611	14412
891.734	14412
891.857	14442
891.98	14377
892.103	14511
892.226	14404
892.349	14317
892.471	14130
892.594	14347
892.717	14355
892.839	14419
892.962	14278
893.085	14404
893.207	14294
893.33	14195
893.452	14278
893.575	14294
893.697	14370
893.819	14484
893.941	14560
894.064	14362
894.186	14355
894.308	14328
894.43	14457
894.552	14556
894.674	14473
894.796	14290
894.918	14400
895.04	14240
895.161	14514
895.283	14454
895.405	14400
895.526	14404
895.648	14457
895.769	14469
895.891	14495
896.012	14514
896.134	14473
896.255	14560
896.376	14571
896.498	14492
896.619	14606
896.74	14503
896.861	14560
896.982	14948
897.103	14994
897.224	14826
897.345	14746
897.466	14754
897.587	14765
897.708	14826
897.828	14758
897.949	14754
898.07	14632
898.19	14769
898.311	14872
898.431	14769
898.552	14868
898.672	14826
898.792	14910
898.913	14967
899.033	14849
899.153	14689
899.273	14590
899.393	14659
899.513	14773
899.633	14720
899.753	14632
899.873	14613
899.993	14720
900.113	14587
900.232	14830
900.352	14708
900.472	14670
900.591	14552
900.711	14636
900.83	14587
900.95	14621
901.069	14625
901.189	14495
901.308	14305
901.427	14172
901.546	14237
901.665	14339
901.784	14248
901.904	14206
902.023	14081
902.141	13871
902.26	13902
902.379	13932
902.498	13830
902.617	13734
902.735	13795
902.854	13738
902.973	13746
903.091	13540
903.21	13483
903.328	13556
903.446	13483
903.565	13422
903.683	13373
903.801	13308
903.919	13327
904.038	13403
904.156	13293
904.274	13209
904.392	13251
904.51	13240
904.627	13156
904.745	13354
904.863	13293
904.981	12966
905.098	12935
905.216	12844
905.334	12943
905.451	12859
905.569	12852
905.686	12875
905.803	12901
905.921	12662
906.038	12852
906.155	12753
906.272	12627
906.389	12662
906.506	12498
906.623	12464
906.74	12494
906.857	12334
906.974	12338
907.091	12521
907.208	12513
907.324	12456
907.441	12395
907.557	12167
907.674	12216
907.79	12194
907.907	12175
908.023	12213
908.139	12243
908.256	12114
908.372	12091
908.488	12117
908.604	11969
908.72	11946
908.836	12049
908.952	11969
909.068	11980
909.184	12026
909.3	12041
909.415	12026
909.531	11950
909.647	11805
909.762	11786
909.878	11684
909.993	11783
910.108	11668
910.224	11741
910.339	11707
910.454	11573
910.57	11585
910.685	11497
910.8	11786
910.915	11699
911.03	11615
911.145	11535
911.259	11444
911.374	11429
911.489	11391
911.604	11273
911.718	11235
911.833	11143
911.947	11056
912.062	10968
912.176	11113
912.291	11341
912.405	11258
912.519	11368
912.633	11337
912.748	11288
912.862	11239
912.976	11090
913.09	10968
913.204	10923
913.318	11056
913.431	11147
913.545	11155
913.659	11261
913.772	11037
913.886	10927
914	10930
914.113	11033
914.226	11014
914.34	10949
914.453	10831
914.566	11102
914.68	10919
914.793	10885
914.906	10733
915.019	10611
915.132	10580
915.245	10694
915.358	10736
915.47	10710
915.583	10672
915.696	10733
915.809	10809
915.921	10824
916.034	10660
916.146	10618
916.259	10626
916.371	10763
916.483	10702
916.595	10653
916.708	10607
916.82	10630
916.932	10592
917.044	10603
917.156	10504
917.268	10478
917.38	10500
917.491	10432
917.603	10413
917.715	10641
917.826	10630
917.938	10504
918.049	10440
918.161	10542
918.272	10664
918.384	10626
918.495	10599
918.606	10356
918.717	10280
918.828	10348
918.939	10363
919.05	10257
919.161	10424
919.272	10166
919.383	10272
919.494	10417
919.604	10649
919.715	10375
919.826	10329
919.936	10341
920.047	10478
920.157	10428
920.267	10561
920.378	10436
920.488	10344
920.598	10649
920.708	10755
920.818	10550
920.928	10653
921.038	10736
921.148	10725
921.258	10485
921.368	10341
921.477	10276
921.587	10246
921.697	10128
921.806	10253
921.916	10166
922.025	9987
922.134	9975
922.244	9941
922.353	9998
922.462	9812
922.571	9804
922.68	9557
922.789	9549
922.898	9740
923.007	9564
923.116	9690
923.224	9618
923.333	9610
923.442	9500
923.55	9466
923.659	9496
923.767	9614
923.876	9416
923.984	9580
924.092	9389
924.201	9447
924.309	9458
924.417	9507
924.525	9397
924.633	9481
924.741	10318
924.849	9195
924.956	9355
925.064	9268
925.172	9226
925.279	9188
925.387	9279
925.494	9256
925.602	9393
925.709	9348
925.816	9237
925.924	9226
926.031	9298
926.138	9355
926.245	9359
926.352	9195
926.459	9393
926.566	9405
926.673	9253
926.779	9112
926.886	9119
926.993	8986
927.099	9013
927.206	8937
927.312	8895
927.419	9020
927.525	9005
927.631	9017
927.737	8910
927.843	8910
927.95	8731
928.056	8857
928.162	8895
928.267	8971
928.373	9561
928.479	8914
928.585	8746
928.69	8899
928.796	8925
928.901	8766
929.007	8670
929.112	8743
929.218	8746
929.323	8754
929.428	8617
929.533	8872
929.638	8632
929.743	8678
929.848	8750
929.953	8648
930.058	8678
930.163	8446
930.267	8446
930.372	8625
930.477	8419
930.581	8697
930.685	8606
930.79	8442
930.894	8438
930.998	8434
931.103	8537
931.207	8180
931.311	8115
931.415	8081
931.519	7879
931.623	7898
