Data from test_V78500241_2983.txt Node
Date: Fri Mar 25 14:54:29 CST 2022
User: usil
Spectrometer: V785-0024
Trigger mode: 0
Integration Time (sec): 4.000000E-1
Scans to average: 1
Nonlinearity correction enabled: false
Boxcar width: 0
Storing dark spectrum: false
XAxis mode: Wavelengths
Number of Pixels in Spectrum: 1024
>>>>>Begin Spectral Data<<<<<
801.071	21975
801.214	22021
801.356	21739
801.499	21644
801.641	21477
801.783	21485
801.926	21443
802.068	21428
802.211	21348
802.353	21222
802.496	21070
802.638	20990
802.78	20941
802.923	20834
803.065	20765
803.208	20655
803.35	20785
803.492	20815
803.635	20918
803.777	20743
803.919	20982
804.061	21157
804.204	20937
804.346	20750
804.488	20701
804.63	20765
804.773	20598
804.915	20746
805.057	20864
805.199	20720
805.341	20697
805.483	20819
805.626	20811
805.768	20651
805.91	20746
806.052	20739
806.194	20560
806.336	20864
806.478	20659
806.62	20708
806.762	20674
806.904	20998
807.046	21066
807.188	21032
807.33	21028
807.472	20952
807.614	21039
807.756	20921
807.898	20804
808.04	20804
808.182	20773
808.324	20781
808.465	20853
808.607	20952
808.749	21157
808.891	21230
809.033	21256
809.174	21260
809.316	21081
809.458	21055
809.6	21093
809.741	21070
809.883	21180
810.025	21374
810.166	21287
810.308	21321
810.45	21230
810.591	21001
810.733	20933
810.875	20899
811.016	20739
811.158	20689
811.299	20872
811.441	20956
811.582	21009
811.724	20948
811.865	20864
812.007	20902
812.148	20845
812.29	20899
812.431	20963
812.573	21165
812.714	21161
812.855	21325
812.997	21492
813.138	21568
813.279	21450
813.421	21431
813.562	21302
813.703	21100
813.845	21043
813.986	20625
814.127	20583
814.268	20503
814.41	20446
814.551	20488
814.692	20476
814.833	20237
814.974	20309
815.115	20396
815.256	20309
815.397	20343
815.539	20267
815.68	20210
815.821	20077
815.962	20035
816.103	20065
816.244	19967
816.385	19936
816.526	19864
816.666	19643
816.807	19518
816.948	19578
817.089	19586
817.23	19616
817.371	19559
817.512	19502
817.653	19525
817.793	19563
817.934	19445
818.075	19518
818.216	19491
818.356	19521
818.497	19301
818.638	19232
818.778	19270
818.919	19293
819.06	19194
819.2	19316
819.341	19426
819.481	19392
819.622	19643
819.762	19791
819.903	19639
820.043	19502
820.184	19552
820.324	19460
820.465	19552
820.605	19514
820.746	19529
820.886	19343
821.026	19388
821.167	19483
821.307	19548
821.447	19415
821.588	19266
821.728	19187
821.868	19042
822.008	18863
822.149	18928
822.289	18856
822.429	18650
822.569	18532
822.709	18593
822.849	18464
822.99	18448
823.13	18342
823.27	18205
823.41	18300
823.55	18220
823.69	18201
823.83	18251
823.97	18095
824.11	17996
824.25	17889
824.389	17973
824.529	18060
824.669	18007
824.809	18060
824.949	18053
825.089	17996
825.228	17969
825.368	17863
825.508	17805
825.648	17843
825.787	17726
825.927	17764
826.067	17691
826.206	17581
826.346	17699
826.485	17859
826.625	17779
826.765	17992
826.904	17779
827.044	17600
827.183	17364
827.323	17391
827.462	17532
827.601	17307
827.741	17440
827.88	17436
828.02	17284
828.159	17345
828.298	17478
828.437	17554
828.577	17436
828.716	17455
828.855	17402
828.994	17208
829.134	17170
829.273	17189
829.412	17025
829.551	17155
829.69	17090
829.829	17140
829.968	17311
830.107	17280
830.246	17212
830.385	17174
830.524	17102
830.663	16942
830.802	16908
830.941	16866
831.08	16740
831.219	16930
831.357	16790
831.496	16949
831.635	16771
831.774	16668
831.913	16706
832.051	16558
832.19	16500
832.329	16565
832.467	16546
832.606	16428
832.744	16413
832.883	16402
833.022	16451
833.16	16443
833.299	16485
833.437	16504
833.576	16516
833.714	16599
833.852	16542
833.991	16523
834.129	16508
834.267	16546
834.406	16432
834.544	16512
834.682	16546
834.821	16485
834.959	16721
835.097	16459
835.235	16649
835.373	16508
835.511	16451
835.65	16485
835.788	16409
835.926	16314
836.064	16314
836.202	16261
836.34	16371
836.478	16493
836.615	16424
836.753	16322
836.891	16443
837.029	16432
837.167	16344
837.305	16322
837.443	16341
837.58	16238
837.718	16379
837.856	16261
837.993	16150
838.131	16310
838.269	16246
838.406	16318
838.544	16162
838.681	16040
838.819	15956
838.956	15797
839.094	15751
839.231	15895
839.369	16071
839.506	16196
839.643	16051
839.781	15880
839.918	15705
840.055	15850
840.193	15823
840.33	15816
840.467	15888
840.604	15827
840.742	16063
840.879	15660
841.016	15766
841.153	15709
841.29	15884
841.427	15892
841.564	15880
841.701	15755
841.838	15789
841.975	15641
842.112	15717
842.249	15610
842.385	15553
842.522	15701
842.659	15618
842.796	15515
842.933	15652
843.069	15580
843.206	15614
843.343	15584
843.479	15580
843.616	15629
843.752	15469
843.889	15454
844.025	15530
844.162	15348
844.298	15481
844.435	15382
844.571	15325
844.708	15492
844.844	15488
844.98	15549
845.117	15397
845.253	15378
845.389	15287
845.525	15302
845.661	15230
845.798	15188
845.934	15272
846.07	15127
846.206	15195
846.342	15313
846.478	15237
846.614	15024
846.75	15039
846.886	14933
847.022	15062
847.158	14925
847.294	14975
847.429	14933
847.565	15005
847.701	15226
847.837	14724
847.972	14674
848.108	14762
848.244	14758
848.379	14571
848.515	14442
848.65	14511
848.786	14590
848.921	14473
849.057	14621
849.192	14667
849.328	14533
849.463	14613
849.598	14511
849.734	14473
849.869	14396
850.004	14366
850.14	14393
850.275	14301
850.41	14286
850.545	14305
850.68	14328
850.815	14286
850.95	14454
851.085	14571
851.22	14473
851.355	14301
851.49	14301
851.625	14240
851.76	14206
851.895	14237
852.03	14123
852.165	14294
852.299	14324
852.434	14328
852.569	14347
852.703	14385
852.838	14461
852.973	14488
853.107	14476
853.242	14290
853.376	14286
853.511	13868
853.645	14145
853.78	14309
853.914	14210
854.048	14164
854.183	14168
854.317	14164
854.451	14339
854.585	14195
854.72	14172
854.854	14305
854.988	14157
855.122	14191
855.256	14027
855.39	14256
855.524	14164
855.658	14180
855.792	14187
855.926	14233
856.06	14271
856.194	14313
856.327	14218
856.461	14134
856.595	14130
856.729	14130
856.862	14355
856.996	14218
857.13	14252
857.263	14278
857.397	14275
857.53	14214
857.664	14187
857.797	14244
857.931	14248
858.064	14370
858.197	14374
858.331	14195
858.464	14126
858.597	13982
858.731	14202
858.864	14168
858.997	14130
859.13	14210
859.263	14210
859.396	14263
859.529	14149
859.662	14191
859.795	14126
859.928	14202
860.061	14396
860.194	14278
860.327	14240
860.46	14126
860.592	14347
860.725	14324
860.858	14259
860.99	14119
861.123	14031
861.256	14142
861.388	14225
861.521	14937
861.653	14130
861.786	13978
861.918	14039
862.05	14103
862.183	14161
862.315	14073
862.447	14153
862.58	14199
862.712	14081
862.844	13909
862.976	14103
863.108	14050
863.24	14484
863.372	13879
863.504	14020
863.636	13936
863.768	13967
863.9	13963
864.032	13940
864.164	13909
864.296	14008
864.428	14039
864.559	13989
864.691	14054
864.823	13951
864.954	13982
865.086	14084
865.217	13940
865.349	13875
865.48	13921
865.612	13936
865.743	14123
865.875	13967
866.006	13879
866.137	13944
866.269	13913
866.4	13974
866.531	13982
866.662	13883
866.793	13875
866.924	13887
867.055	13936
867.186	13875
867.317	13871
867.448	13894
867.579	13875
867.71	13936
867.841	13833
867.972	13921
868.103	13868
868.233	13944
868.364	13833
868.495	14050
868.625	14172
868.756	14355
868.886	14081
869.017	14176
869.147	14271
869.278	14294
869.408	14244
869.539	14168
869.669	14339
869.799	14244
869.929	14336
870.06	14324
870.19	14522
870.32	14495
870.45	14583
870.58	14480
870.71	14762
870.84	14610
870.97	14667
871.1	14492
871.23	14788
871.36	14781
871.489	14651
871.619	14754
871.749	14807
871.879	14868
872.008	14952
872.138	14773
872.267	14819
872.397	14686
872.526	14579
872.656	14613
872.785	14769
872.915	14906
873.044	14910
873.173	14941
873.303	14929
873.432	14845
873.561	14994
873.69	14918
873.819	14853
873.948	14876
874.077	14849
874.206	14815
874.335	14853
874.464	15032
874.593	15070
874.722	15077
874.851	15165
874.979	15176
875.108	15138
875.237	15135
875.365	15081
875.494	15043
875.623	15268
875.751	15184
875.88	15222
876.008	15291
876.136	15351
876.265	15652
876.393	15686
876.521	15713
876.65	15561
876.778	15538
876.906	15542
877.034	15458
877.162	15637
877.29	15530
877.418	15580
877.546	15580
877.674	15633
877.802	15526
877.93	15572
878.058	15439
878.185	15435
878.313	15488
878.441	15526
878.568	15454
878.696	15530
878.824	15625
878.951	15580
879.079	15671
879.206	15918
879.333	15724
879.461	15553
879.588	15709
879.715	15717
879.842	15850
879.97	15675
880.097	15416
880.224	15447
880.351	15500
880.478	15389
880.605	15412
880.732	15393
880.859	15679
880.986	15329
881.112	15519
881.239	15382
881.366	15233
881.493	15188
881.619	15020
881.746	15131
881.872	15108
881.999	15089
882.125	15055
882.252	15131
882.378	15195
882.505	15230
882.631	15051
882.757	14902
882.883	14956
883.01	14979
883.136	14762
883.262	14765
883.388	14712
883.514	14960
883.64	14880
883.766	14842
883.892	14716
884.018	14746
884.143	14944
884.269	14941
884.395	14670
884.52	14648
884.646	14568
884.772	14556
884.897	14537
885.023	14617
885.148	14701
885.274	14883
885.399	14716
885.524	14594
885.65	14571
885.775	14750
885.9	14568
886.025	14769
886.15	14705
886.275	14545
886.4	14476
886.525	14598
886.65	14587
886.775	14530
886.9	14689
887.025	14777
887.149	14705
887.274	14438
887.399	14434
887.523	14469
887.648	14366
887.773	14400
887.897	14488
888.021	14480
888.146	14389
888.27	14511
888.395	14533
888.519	14564
888.643	14450
888.767	14488
888.891	14404
889.015	14256
889.139	14328
889.263	14214
889.387	14324
889.511	14518
889.635	14503
889.759	14294
889.883	14275
890.006	14252
890.13	14400
890.254	14225
890.377	14199
890.501	14058
890.624	14134
890.748	14168
890.871	14046
890.995	13986
891.118	13928
891.241	13913
891.364	13982
891.488	14092
891.611	14092
891.734	14024
891.857	14088
891.98	14001
892.103	14183
892.226	14016
892.349	13955
892.471	13917
892.594	13993
892.717	13970
892.839	13986
892.962	13947
893.085	14115
893.207	13928
893.33	13913
893.452	13932
893.575	14081
893.697	13944
893.819	14221
893.941	14168
894.064	14107
894.186	13978
894.308	14024
894.43	14130
894.552	14317
894.674	14187
894.796	13967
894.918	14054
895.04	14058
895.161	14199
895.283	14138
895.405	13928
895.526	14153
895.648	14123
895.769	14164
895.891	14210
896.012	14237
896.134	14210
896.255	14100
896.376	14138
896.498	14214
896.619	14259
896.74	14248
896.861	14199
896.982	14617
897.103	14667
897.224	14537
897.345	14461
897.466	14476
897.587	14434
897.708	14442
897.828	14499
897.949	14476
898.07	14278
898.19	14412
898.311	14682
898.431	14450
898.552	14480
898.672	14613
898.792	14617
898.913	14526
899.033	14446
899.153	14339
899.273	14313
899.393	14366
899.513	14404
899.633	14400
899.753	14457
899.873	14438
899.993	14385
900.113	14396
900.232	14495
900.352	14465
900.472	14263
900.591	14130
900.711	14298
900.83	14168
900.95	14301
901.069	14362
901.189	14210
901.308	13989
901.427	14065
901.546	13875
901.665	13894
901.784	13947
901.904	13845
902.023	13761
902.141	13525
902.26	13563
902.379	13518
902.498	13552
902.617	13510
902.735	13624
902.854	13590
902.973	13502
903.091	13259
903.21	13282
903.328	13331
903.446	13228
903.565	13164
903.683	13190
903.801	13046
903.919	13168
904.038	13118
904.156	12886
904.274	13072
904.392	12954
904.51	12935
904.627	13000
904.745	12962
904.863	12985
904.981	12764
905.098	12646
905.216	12631
905.334	12665
905.451	12589
905.569	12597
905.686	12658
905.803	12654
905.921	12494
906.038	12639
906.155	12490
906.272	12399
906.389	12270
906.506	12224
906.623	12247
906.74	12235
906.857	12098
906.974	12144
907.091	12315
907.208	12384
907.324	12190
907.441	12114
907.557	11973
907.674	11992
907.79	11973
907.907	12038
908.023	12030
908.139	12015
908.256	11908
908.372	11950
908.488	11965
908.604	11714
908.72	11718
908.836	11737
908.952	11684
909.068	11710
909.184	11790
909.3	11676
909.415	11843
909.531	11718
909.647	11554
909.762	11512
909.878	11535
909.993	11493
910.108	11516
910.224	11474
910.339	11459
910.454	11410
910.57	11356
910.685	11284
910.8	11611
910.915	11463
911.03	11345
911.145	11296
911.259	11151
911.374	11174
911.489	11136
911.604	11090
911.718	10953
911.833	10915
911.947	10889
912.062	10805
912.176	10908
912.291	11018
912.405	10915
912.519	11189
912.633	11170
912.748	10984
912.862	10980
912.976	10835
913.09	10744
913.204	10782
913.318	10850
913.431	10980
913.545	10866
913.659	10904
913.772	10839
913.886	10660
914	10679
914.113	10782
914.226	10862
914.34	10885
914.453	10569
914.566	10809
914.68	10687
914.793	10607
914.906	10432
915.019	10451
915.132	10451
915.245	10443
915.358	10455
915.47	10504
915.583	10500
915.696	10558
915.809	10550
915.921	10489
916.034	10478
916.146	10455
916.259	10360
916.371	10451
916.483	10436
916.595	10318
916.708	10436
916.82	10409
916.932	10455
917.044	10356
917.156	10352
917.268	10306
917.38	10238
917.491	10348
917.603	10325
917.715	10310
917.826	10386
917.938	10238
918.049	10185
918.161	10291
918.272	10474
918.384	10459
918.495	10314
918.606	10169
918.717	10097
918.828	10120
918.939	10177
919.05	10128
919.161	10196
919.272	9983
919.383	10067
919.494	10246
919.604	10390
919.715	10143
919.826	10154
919.936	10162
920.047	10272
920.157	10150
920.267	10405
920.378	10238
920.488	10295
920.598	10398
920.708	10603
920.818	10341
920.928	10367
921.038	10516
921.148	10470
921.258	10242
921.368	10112
921.477	10055
921.587	10010
921.697	9983
921.806	10044
921.916	9892
922.025	9766
922.134	9778
922.244	9740
922.353	9743
922.462	9633
922.571	9614
922.68	9447
922.789	9435
922.898	9507
923.007	9382
923.116	9545
923.224	9389
923.333	9420
923.442	9310
923.55	9298
923.659	9370
923.767	9428
923.876	9306
923.984	9420
924.092	9287
924.201	9317
924.309	9310
924.417	9287
924.525	9306
924.633	9363
924.741	10139
924.849	9058
924.956	9203
925.064	9066
925.172	8994
925.279	9123
925.387	9135
925.494	9081
925.602	9283
925.709	9184
925.816	9032
925.924	9116
926.031	9230
926.138	9127
926.245	9123
926.352	9066
926.459	9154
926.566	9218
926.673	9131
926.779	8941
926.886	8960
926.993	8925
927.099	8766
927.206	8735
927.312	8811
927.419	8906
927.525	8777
927.631	8842
927.737	8739
927.843	8724
927.95	8610
928.056	8708
928.162	8663
928.267	8769
928.373	9233
928.479	8826
928.585	8514
928.69	8682
928.796	8796
928.901	8640
929.007	8499
929.112	8594
929.218	8674
929.323	8606
929.428	8480
929.533	8678
929.638	8587
929.743	8514
929.848	8598
929.953	8461
930.058	8362
930.163	8343
930.267	8351
930.372	8389
930.477	8309
930.581	8522
930.685	8374
930.79	8240
930.894	8221
930.998	8199
931.103	8385
931.207	8100
931.311	7951
931.415	7917
931.519	7757
931.623	7811
