Data from test_V78500241_3126.txt Node
Date: Fri Mar 25 14:55:28 CST 2022
User: usil
Spectrometer: V785-0024
Trigger mode: 0
Integration Time (sec): 4.000000E-1
Scans to average: 1
Nonlinearity correction enabled: false
Boxcar width: 0
Storing dark spectrum: false
XAxis mode: Wavelengths
Number of Pixels in Spectrum: 1024
>>>>>Begin Spectral Data<<<<<
801.071	21956
801.214	21857
801.356	21644
801.499	21591
801.641	21359
801.783	21291
801.926	21519
802.068	21332
802.211	21237
802.353	21157
802.496	21009
802.638	20811
802.78	20838
802.923	20834
803.065	20743
803.208	20705
803.35	20708
803.492	20781
803.635	20811
803.777	20731
803.919	20845
804.061	21100
804.204	20758
804.346	20648
804.488	20689
804.63	20754
804.773	20613
804.915	20632
805.057	20670
805.199	20629
805.341	20686
805.483	20693
805.626	20739
805.768	20606
805.91	20644
806.052	20693
806.194	20507
806.336	20724
806.478	20632
806.62	20568
806.762	20625
806.904	20800
807.046	21001
807.188	20929
807.33	20937
807.472	21131
807.614	20944
807.756	20823
807.898	20686
808.04	20613
808.182	20651
808.324	20697
808.465	20678
808.607	20982
808.749	21058
808.891	21108
809.033	21199
809.174	21062
809.316	21051
809.458	20883
809.6	20921
809.741	21036
809.883	20979
810.025	21123
810.166	21135
810.308	21108
810.45	21108
810.591	21024
810.733	20895
810.875	20849
811.016	20621
811.158	20724
811.299	20769
811.441	20880
811.582	20864
811.724	20758
811.865	20655
812.007	20750
812.148	20689
812.29	20819
812.431	20994
812.573	21024
812.714	20994
812.855	21237
812.997	21431
813.138	21504
813.279	21408
813.421	21291
813.562	21363
813.703	21013
813.845	20868
813.986	20621
814.127	20495
814.268	20355
814.41	20476
814.551	20252
814.692	20442
814.833	20240
814.974	20244
815.115	20218
815.256	20164
815.397	20172
815.539	20077
815.68	20005
815.821	19989
815.962	20043
816.103	20008
816.244	19959
816.385	19769
816.526	19704
816.666	19567
816.807	19426
816.948	19518
817.089	19571
817.23	19460
817.371	19441
817.512	19335
817.653	19464
817.793	19365
817.934	19537
818.075	19449
818.216	19453
818.356	19407
818.497	19240
818.638	19141
818.778	19168
818.919	19129
819.06	19004
819.2	19213
819.341	19346
819.481	19304
819.622	19411
819.762	19639
819.903	19548
820.043	19445
820.184	19407
820.324	19487
820.465	19491
820.605	19468
820.746	19339
820.886	19324
821.026	19358
821.167	19403
821.307	19491
821.447	19362
821.588	19160
821.728	19137
821.868	18958
822.008	18825
822.149	18776
822.289	18779
822.429	18471
822.569	18483
822.709	18376
822.849	18296
822.99	18452
823.13	18281
823.27	18311
823.41	18182
823.55	18110
823.69	18190
823.83	18102
823.97	18079
824.11	17912
824.25	17961
824.389	17802
824.529	17927
824.669	17855
824.809	17969
824.949	18060
825.089	17923
825.228	17843
825.368	17676
825.508	17642
825.648	17638
825.787	17767
825.927	17805
826.067	17668
826.206	17699
826.346	17657
826.485	17623
826.625	17596
826.765	17779
826.904	17687
827.044	17353
827.183	17284
827.323	17391
827.462	17349
827.601	17379
827.741	17364
827.88	17372
828.02	17208
828.159	17269
828.298	17379
828.437	17372
828.577	17307
828.716	17459
828.855	17398
828.994	17060
829.134	17086
829.273	17083
829.412	17189
829.551	17033
829.69	17060
829.829	17121
829.968	17269
830.107	17029
830.246	17155
830.385	17098
830.524	17079
830.663	16858
830.802	16904
830.941	16622
831.08	16672
831.219	16771
831.357	16869
831.496	16957
831.635	16797
831.774	16660
831.913	16542
832.051	16500
832.19	16440
832.329	16558
832.467	16424
832.606	16398
832.744	16402
832.883	16272
833.022	16310
833.16	16382
833.299	16424
833.437	16394
833.576	16428
833.714	16409
833.852	16470
833.991	16599
834.129	16508
834.267	16542
834.406	16512
834.544	16523
834.682	16466
834.821	16474
834.959	16611
835.097	16455
835.235	16504
835.373	16413
835.511	16421
835.65	16268
835.788	16363
835.926	16249
836.064	16196
836.202	16200
836.34	16421
836.478	16398
836.615	16276
836.753	16348
836.891	16417
837.029	16398
837.167	16356
837.305	16303
837.443	16226
837.58	16131
837.718	16348
837.856	16291
837.993	16131
838.131	16219
838.269	16097
838.406	16200
838.544	16154
838.681	15964
838.819	15934
838.956	15797
839.094	15804
839.231	15797
839.369	15941
839.506	16204
839.643	16086
839.781	15770
839.918	15800
840.055	15770
840.193	15785
840.33	15644
840.467	15774
840.604	15895
840.742	16173
840.879	15686
841.016	15644
841.153	15610
841.29	15876
841.427	15842
841.564	15800
841.701	15755
841.838	15759
841.975	15595
842.112	15682
842.249	15549
842.385	15530
842.522	15766
842.659	15701
842.796	15545
842.933	15519
843.069	15530
843.206	15492
843.343	15717
843.479	15557
843.616	15553
843.752	15344
843.889	15450
844.025	15542
844.162	15393
844.298	15458
844.435	15329
844.571	15218
844.708	15329
844.844	15450
844.98	15485
845.117	15428
845.253	15298
845.389	15264
845.525	15287
845.661	15188
845.798	15272
845.934	15123
846.07	15112
846.206	15203
846.342	15272
846.478	15237
846.614	14971
846.75	14960
846.886	14800
847.022	14967
847.158	14975
847.294	14910
847.429	14967
847.565	14933
847.701	15100
847.837	14693
847.972	14587
848.108	14705
848.244	14819
848.379	14594
848.515	14495
848.65	14484
848.786	14473
848.921	14450
849.057	14564
849.192	14545
849.328	14503
849.463	14507
849.598	14434
849.734	14480
849.869	14442
850.004	14347
850.14	14305
850.275	14355
850.41	14286
850.545	14282
850.68	14317
850.815	14282
850.95	14343
851.085	14404
851.22	14377
851.355	14248
851.49	14271
851.625	14351
851.76	14206
851.895	14161
852.03	14149
852.165	14412
852.299	14313
852.434	14298
852.569	14263
852.703	14332
852.838	14328
852.973	14454
853.107	14446
853.242	14256
853.376	14153
853.511	14027
853.645	14183
853.78	14252
853.914	14073
854.048	14248
854.183	14100
854.317	14202
854.451	14229
854.585	14252
854.72	14142
854.854	14244
854.988	14001
855.122	14111
855.256	13906
855.39	14176
855.524	14286
855.658	14301
855.792	14153
855.926	14210
856.06	14214
856.194	14225
856.327	14180
856.461	14016
856.595	14092
856.729	14138
856.862	14225
856.996	14138
857.13	14172
857.263	14298
857.397	14305
857.53	14187
857.664	14271
857.797	14256
857.931	14290
858.064	14290
858.197	14275
858.331	14119
858.464	14100
858.597	14054
858.731	14161
858.864	14172
858.997	14142
859.13	14176
859.263	14111
859.396	14263
859.529	14195
859.662	13967
859.795	14058
859.928	14119
860.061	14343
860.194	14355
860.327	14225
860.46	14145
860.592	14275
860.725	14233
860.858	14244
860.99	14142
861.123	14054
861.256	14088
861.388	14138
861.521	14887
861.653	13997
861.786	13951
861.918	14005
862.05	13997
862.183	14100
862.315	14157
862.447	14187
862.58	14050
862.712	13947
862.844	13811
862.976	14039
863.108	13989
863.24	14290
863.372	13841
863.504	13932
863.636	13894
863.768	13944
863.9	14008
864.032	13864
864.164	13826
864.296	13940
864.428	14039
864.559	14012
864.691	14126
864.823	14012
864.954	13951
865.086	14012
865.217	13917
865.349	13849
865.48	13909
865.612	14039
865.743	14119
865.875	13974
866.006	13883
866.137	13887
866.269	13932
866.4	13974
866.531	13849
866.662	13890
866.793	13849
866.924	13913
867.055	14001
867.186	14027
867.317	13830
867.448	13845
867.579	13826
867.71	13925
867.841	13883
867.972	13898
868.103	13963
868.233	14035
868.364	14031
868.495	13967
868.625	14149
868.756	14202
868.886	14164
869.017	14134
869.147	14195
869.278	14183
869.408	14199
869.539	14233
869.669	14282
869.799	14301
869.929	14267
870.06	14229
870.19	14564
870.32	14549
870.45	14465
870.58	14617
870.71	14674
870.84	14655
870.97	14530
871.1	14564
871.23	14819
871.36	14788
871.489	14674
871.619	14743
871.749	14663
871.879	14708
872.008	14845
872.138	14800
872.267	14701
872.397	14579
872.526	14579
872.656	14583
872.785	14632
872.915	14880
873.044	14895
873.173	14811
873.303	14914
873.432	14925
873.561	14883
873.69	14910
873.819	14701
873.948	14941
874.077	14845
874.206	14868
874.335	14906
874.464	15009
874.593	15123
874.722	15077
874.851	15108
874.979	15146
875.108	15173
875.237	15047
875.365	15001
875.494	15093
875.623	15275
875.751	15058
875.88	15237
876.008	15283
876.136	15367
876.265	15599
876.393	15610
876.521	15641
876.65	15576
876.778	15564
876.906	15496
877.034	15458
877.162	15591
877.29	15568
877.418	15599
877.546	15538
877.674	15481
877.802	15667
877.93	15458
878.058	15534
878.185	15439
878.313	15564
878.441	15610
878.568	15389
878.696	15466
878.824	15568
878.951	15549
879.079	15770
879.206	15949
879.333	15698
879.461	15610
879.588	15690
879.715	15797
879.842	15850
879.97	15576
880.097	15336
880.224	15336
880.351	15572
880.478	15405
880.605	15393
880.732	15351
880.859	15679
880.986	15382
881.112	15424
881.239	15329
881.366	15142
881.493	15127
881.619	15062
881.746	15108
881.872	15112
881.999	15009
882.125	15070
882.252	15093
882.378	15100
882.505	15192
882.631	15009
882.757	14941
882.883	14941
883.01	14929
883.136	14811
883.262	14777
883.388	14746
883.514	14910
883.64	14906
883.766	14800
883.892	14575
884.018	14785
884.143	14864
884.269	14982
884.395	14629
884.52	14667
884.646	14526
884.772	14408
884.897	14526
885.023	14613
885.148	14705
885.274	14754
885.399	14678
885.524	14571
885.65	14583
885.775	14594
885.9	14545
886.025	14727
886.15	14644
886.275	14568
886.4	14560
886.525	14617
886.65	14545
886.775	14499
886.9	14655
887.025	14864
887.149	14514
887.274	14408
887.399	14427
887.523	14438
887.648	14393
887.773	14412
887.897	14526
888.021	14404
888.146	14381
888.27	14488
888.395	14590
888.519	14442
888.643	14507
888.767	14423
888.891	14415
889.015	14267
889.139	14351
889.263	14225
889.387	14396
889.511	14419
889.635	14442
889.759	14358
889.883	14271
890.006	14259
890.13	14404
890.254	14259
890.377	14221
890.501	14077
890.624	14058
890.748	14134
890.871	14008
890.995	14020
891.118	13928
891.241	13993
891.364	13963
891.488	14039
891.611	13932
891.734	14020
891.857	14088
891.98	13978
892.103	14115
892.226	14058
892.349	13951
892.471	13871
892.594	13898
892.717	14027
892.839	14039
892.962	14092
893.085	13982
893.207	14065
893.33	13951
893.452	13909
893.575	13997
893.697	13963
893.819	14062
893.941	14138
894.064	14142
894.186	13955
894.308	13932
894.43	14111
894.552	14145
894.674	14153
894.796	13947
894.918	13959
895.04	14043
895.161	14149
895.283	14058
895.405	14016
895.526	14111
895.648	14111
895.769	14134
895.891	14153
896.012	14214
896.134	14142
896.255	14237
896.376	14172
896.498	14077
896.619	14157
896.74	14073
896.861	14191
896.982	14465
897.103	14560
897.224	14389
897.345	14415
897.466	14313
897.587	14393
897.708	14526
897.828	14457
897.949	14374
898.07	14328
898.19	14294
898.311	14530
898.431	14385
898.552	14454
898.672	14590
898.792	14598
898.913	14514
899.033	14499
899.153	14431
899.273	14313
899.393	14320
899.513	14381
899.633	14240
899.753	14427
899.873	14374
899.993	14408
900.113	14324
900.232	14320
900.352	14332
900.472	14206
900.591	14195
900.711	14275
900.83	14073
900.95	14278
901.069	14347
901.189	14202
901.308	13989
901.427	13830
901.546	13868
901.665	13925
901.784	13921
901.904	13837
902.023	13738
902.141	13556
902.26	13510
902.379	13571
902.498	13301
902.617	13445
902.735	13495
902.854	13460
902.973	13453
903.091	13259
903.21	13168
903.328	13206
903.446	13061
903.565	13042
903.683	13046
903.801	13065
903.919	13088
904.038	13072
904.156	12856
904.274	13027
904.392	12878
904.51	12795
904.627	12859
904.745	12932
904.863	12867
904.981	12673
905.098	12509
905.216	12574
905.334	12616
905.451	12623
905.569	12555
905.686	12593
905.803	12513
905.921	12346
906.038	12448
906.155	12380
906.272	12266
906.389	12369
906.506	12140
906.623	12163
906.74	12076
906.857	11977
906.974	12068
907.091	12064
907.208	12292
907.324	12224
907.441	12022
907.557	11832
907.674	11874
907.79	11882
907.907	11863
908.023	11828
908.139	11969
908.256	11870
908.372	11851
908.488	11813
908.604	11684
908.72	11604
908.836	11611
908.952	11729
909.068	11684
909.184	11783
909.3	11604
909.415	11684
909.531	11638
909.647	11440
909.762	11490
909.878	11364
909.993	11379
910.108	11505
910.224	11345
910.339	11421
910.454	11410
910.57	11261
910.685	11246
910.8	11512
910.915	11341
911.03	11334
911.145	11124
911.259	11140
911.374	11094
911.489	11033
911.604	10953
911.718	10965
911.833	10942
911.947	10820
912.062	10782
912.176	10908
912.291	10801
912.405	10847
912.519	11075
912.633	11045
912.748	10965
912.862	10900
912.976	10729
913.09	10702
913.204	10748
913.318	10744
913.431	10900
913.545	10953
913.659	10961
913.772	10820
913.886	10660
914	10721
914.113	10759
914.226	10824
914.34	10687
914.453	10580
914.566	10634
914.68	10493
914.793	10634
914.906	10455
915.019	10489
915.132	10428
915.245	10398
915.358	10466
915.47	10504
915.583	10500
915.696	10474
915.809	10519
915.921	10554
916.034	10367
916.146	10413
916.259	10371
916.371	10481
916.483	10459
916.595	10394
916.708	10413
916.82	10405
916.932	10371
917.044	10352
917.156	10436
917.268	10253
917.38	10318
917.491	10318
917.603	10367
917.715	10295
917.826	10409
917.938	10246
918.049	10181
918.161	10333
918.272	10432
918.384	10466
918.495	10303
918.606	10227
918.717	10082
918.828	10150
918.939	10215
919.05	10112
919.161	10105
919.272	10002
919.383	10040
919.494	10249
919.604	10284
919.715	10169
919.826	10105
919.936	10082
920.047	10219
920.157	10318
920.267	10375
920.378	10291
920.488	10169
920.598	10409
920.708	10508
920.818	10409
920.928	10287
921.038	10497
921.148	10474
921.258	10215
921.368	10196
921.477	10067
921.587	10120
921.697	9972
921.806	9991
921.916	9926
922.025	9797
922.134	9709
922.244	9713
922.353	9827
922.462	9656
922.571	9568
922.68	9424
922.789	9504
922.898	9488
923.007	9405
923.116	9477
923.224	9393
923.333	9401
923.442	9378
923.55	9279
923.659	9237
923.767	9336
923.876	9317
923.984	9389
924.092	9272
924.201	9355
924.309	9344
924.417	9218
924.525	9264
924.633	9272
924.741	10196
924.849	9039
924.956	9222
925.064	9142
925.172	8948
925.279	9020
925.387	9055
925.494	9077
925.602	9211
925.709	9195
925.816	9108
925.924	9100
926.031	9203
926.138	9131
926.245	9116
926.352	8975
926.459	9119
926.566	9203
926.673	8990
926.779	8944
926.886	8948
926.993	8781
927.099	8804
927.206	8773
927.312	8804
927.419	8895
927.525	8727
927.631	8883
927.737	8674
927.843	8648
927.95	8583
928.056	8655
928.162	8697
928.267	8800
928.373	9294
928.479	8819
928.585	8575
928.69	8743
928.796	8686
928.901	8674
929.007	8530
929.112	8594
929.218	8583
929.323	8488
929.428	8511
929.533	8686
929.638	8457
929.743	8518
929.848	8556
929.953	8412
930.058	8454
930.163	8195
930.267	8336
930.372	8412
930.477	8221
930.581	8545
930.685	8419
930.79	8256
930.894	8256
930.998	8267
931.103	8377
931.207	8046
931.311	8043
931.415	7982
931.519	7723
931.623	7757
