Data from test_V78500241_1030.txt Node
Date: Fri Mar 25 14:40:53 CST 2022
User: usil
Spectrometer: V785-0024
Trigger mode: 0
Integration Time (sec): 4.000000E-1
Scans to average: 1
Nonlinearity correction enabled: false
Boxcar width: 0
Storing dark spectrum: false
XAxis mode: Wavelengths
Number of Pixels in Spectrum: 1024
>>>>>Begin Spectral Data<<<<<
801.071	22991
801.214	22790
801.356	22603
801.499	22421
801.641	22379
801.783	22276
801.926	22226
802.068	22280
802.211	22177
802.353	22048
802.496	21785
802.638	21755
802.78	21648
802.923	21793
803.065	21603
803.208	21667
803.35	21667
803.492	21728
803.635	21728
803.777	21675
803.919	21854
804.061	22010
804.204	21663
804.346	21618
804.488	21405
804.63	21549
804.773	21488
804.915	21583
805.057	21701
805.199	21496
805.341	21576
805.483	21705
805.626	21618
805.768	21717
805.91	21591
806.052	21705
806.194	21549
806.336	21747
806.478	21587
806.62	21561
806.762	21694
806.904	21873
807.046	22067
807.188	21960
807.33	22017
807.472	22032
807.614	22013
807.756	22093
807.898	21907
808.04	21975
808.182	22063
808.324	22246
808.465	22440
808.607	22573
808.749	22847
808.891	22991
809.033	23010
809.174	22793
809.316	22626
809.458	22527
809.6	22344
809.741	22417
809.883	22234
810.025	22466
810.166	22402
810.308	22185
810.45	22265
810.591	22306
810.733	21979
810.875	21975
811.016	21831
811.158	21759
811.299	21945
811.441	22032
811.582	21880
811.724	21842
811.865	21812
812.007	21804
812.148	21743
812.29	21637
812.431	21953
812.573	22177
812.714	22246
812.855	22470
812.997	22417
813.138	22546
813.279	22451
813.421	22261
813.562	22215
813.703	22219
813.845	21972
813.986	21705
814.127	21500
814.268	21401
814.41	21310
814.551	21237
814.692	21393
814.833	21230
814.974	21260
815.115	21279
815.256	21218
815.397	21283
815.539	21188
815.68	21157
815.821	20994
815.962	21043
816.103	20948
816.244	20868
816.385	20724
816.526	20823
816.666	20659
816.807	20480
816.948	20667
817.089	20689
817.23	20549
817.371	20492
817.512	20533
817.653	20476
817.793	20450
817.934	20488
818.075	20537
818.216	20526
818.356	20396
818.497	20305
818.638	20138
818.778	20126
818.919	20199
819.06	20229
819.2	20214
819.341	20427
819.481	20218
819.622	20461
819.762	20807
819.903	20492
820.043	20560
820.184	20408
820.324	20457
820.465	20526
820.605	20530
820.746	20518
820.886	20328
821.026	20317
821.167	20454
821.307	20511
821.447	20275
821.588	20233
821.728	20073
821.868	20077
822.008	19799
822.149	19742
822.289	19864
822.429	19514
822.569	19537
822.709	19506
822.849	19327
822.99	19396
823.13	19236
823.27	19438
823.41	19168
823.55	19072
823.69	19110
823.83	19118
823.97	19103
824.11	18928
824.25	18867
824.389	19012
824.529	18993
824.669	18935
824.809	18985
824.949	19012
825.089	18924
825.228	19019
825.368	18768
825.508	18703
825.648	18768
825.787	18749
825.927	18802
826.067	18829
826.206	18688
826.346	18711
826.485	18639
826.625	18688
826.765	18802
826.904	18768
827.044	18635
827.183	18414
827.323	18315
827.462	18502
827.601	18418
827.741	18506
827.88	18338
828.02	18308
828.159	18353
828.298	18494
828.437	18498
828.577	18433
828.716	18494
828.855	18338
828.994	18152
829.134	18060
829.273	18110
829.412	18144
829.551	18140
829.69	18114
829.829	18133
829.968	18247
830.107	18270
830.246	18152
830.385	18019
830.524	18022
830.663	17977
830.802	17946
830.941	17840
831.08	17779
831.219	17847
831.357	17863
831.496	17931
831.635	17684
831.774	17699
831.913	17604
832.051	17611
832.19	17509
832.329	17646
832.467	17638
832.606	17505
832.744	17436
832.883	17532
833.022	17459
833.16	17353
833.299	17471
833.437	17459
833.576	17425
833.714	17589
833.852	17509
833.991	17543
834.129	17528
834.267	17657
834.406	17627
834.544	17558
834.682	17604
834.821	17448
834.959	17543
835.097	17471
835.235	17566
835.373	17509
835.511	17505
835.65	17364
835.788	17497
835.926	17330
836.064	17200
836.202	17181
836.34	17444
836.478	17417
836.615	17345
836.753	17395
836.891	17471
837.029	17471
837.167	17322
837.305	17223
837.443	17277
837.58	17185
837.718	17311
837.856	17223
837.993	17223
838.131	17307
838.269	17113
838.406	17239
838.544	17121
838.681	16968
838.819	16877
838.956	16782
839.094	16771
839.231	16706
839.369	16930
839.506	17216
839.643	16984
839.781	16812
839.918	16786
840.055	16729
840.193	16892
840.33	16782
840.467	16797
840.604	16797
840.742	17033
840.879	16641
841.016	16717
841.153	16641
841.29	16957
841.427	16900
841.564	16896
841.701	16797
841.838	16725
841.975	16675
842.112	16577
842.249	16561
842.385	16538
842.522	16805
842.659	16542
842.796	16550
842.933	16634
843.069	16478
843.206	16565
843.343	16596
843.479	16561
843.616	16611
843.752	16265
843.889	16371
844.025	16497
844.162	16219
844.298	16382
844.435	16306
844.571	16272
844.708	16333
844.844	16508
844.98	16558
845.117	16611
845.253	16436
845.389	16451
845.525	16489
845.661	16634
845.798	16805
845.934	17083
846.07	17151
846.206	17181
846.342	17162
846.478	16729
846.614	16291
846.75	16059
846.886	15956
847.022	15994
847.158	15983
847.294	15964
847.429	15934
847.565	15854
847.701	16150
847.837	15686
847.972	15572
848.108	15732
848.244	15675
848.379	15549
848.515	15564
848.65	15561
848.786	15469
848.921	15485
849.057	15466
849.192	15587
849.328	15519
849.463	15450
849.598	15507
849.734	15389
849.869	15332
850.004	15252
850.14	15310
850.275	15317
850.41	15195
850.545	15214
850.68	15176
850.815	15325
850.95	15230
851.085	15389
851.22	15340
851.355	15268
851.49	15233
851.625	15264
851.76	15199
851.895	15108
852.03	15009
852.165	15192
852.299	15222
852.434	15260
852.569	15192
852.703	15302
852.838	15439
852.973	15412
853.107	15374
853.242	15192
853.376	15123
853.511	15009
853.645	15203
853.78	15264
853.914	15116
854.048	15112
854.183	15233
854.317	15195
854.451	15268
854.585	15119
854.72	15123
854.854	15249
854.988	15032
855.122	15176
855.256	14994
855.39	15108
855.524	15138
855.658	15119
855.792	15093
855.926	15176
856.06	15112
856.194	15249
856.327	15055
856.461	15161
856.595	15119
856.729	14994
856.862	15241
856.996	15062
857.13	15089
857.263	15165
857.397	15321
857.53	15112
857.664	15233
857.797	15154
857.931	15317
858.064	15150
858.197	15260
858.331	15051
858.464	15089
858.597	15024
858.731	14986
858.864	15127
858.997	15112
859.13	15157
859.263	15058
859.396	15195
859.529	15119
859.662	15093
859.795	15005
859.928	15184
860.061	15272
860.194	15241
860.327	15188
860.46	15062
860.592	15298
860.725	15264
860.858	15310
860.99	15142
861.123	14975
861.256	15028
861.388	15093
861.521	15755
861.653	14941
861.786	14921
861.918	15017
862.05	15051
862.183	15055
862.315	15135
862.447	15055
862.58	15039
862.712	14853
862.844	14804
862.976	14891
863.108	14979
863.24	15211
863.372	14735
863.504	14758
863.636	14800
863.768	14941
863.9	14872
864.032	14735
864.164	14758
864.296	14891
864.428	14967
864.559	14925
864.691	14918
864.823	14910
864.954	14891
865.086	14910
865.217	14921
865.349	14853
865.48	14823
865.612	14796
865.743	14918
865.875	14967
866.006	14735
866.137	14819
866.269	14842
866.4	14902
866.531	14781
866.662	14811
866.793	14819
866.924	14845
867.055	14804
867.186	14887
867.317	14815
867.448	14769
867.579	14788
867.71	14686
867.841	14674
867.972	14819
868.103	14815
868.233	14800
868.364	14880
868.495	14914
868.625	14975
868.756	15127
868.886	14975
869.017	15108
869.147	15192
869.278	15180
869.408	15066
869.539	15055
869.669	15260
869.799	15116
869.929	15157
870.06	15230
870.19	15511
870.32	15523
870.45	15439
870.58	15511
870.71	15587
870.84	15618
870.97	15504
871.1	15458
871.23	15713
871.36	15686
871.489	15603
871.619	15667
871.749	15705
871.879	15808
872.008	15865
872.138	15724
872.267	15694
872.397	15530
872.526	15469
872.656	15572
872.785	15641
872.915	15690
873.044	15838
873.173	15709
873.303	15819
873.432	15755
873.561	15865
873.69	15831
873.819	15770
873.948	15888
874.077	15736
874.206	15770
874.335	15781
874.464	15854
874.593	16074
874.722	15915
874.851	16261
874.979	16090
875.108	16131
875.237	16048
875.365	15983
875.494	16040
875.623	16238
875.751	16040
875.88	16116
876.008	16207
876.136	16322
876.265	16443
876.393	16656
876.521	16584
876.65	16519
876.778	16538
876.906	16481
877.034	16447
877.162	16462
877.29	16428
877.418	16523
877.546	16565
877.674	16519
877.802	16451
877.93	16512
878.058	16615
878.185	16516
878.313	16558
878.441	16584
878.568	16424
878.696	16535
878.824	16611
878.951	16710
879.079	16904
879.206	17067
879.333	17113
879.461	17010
879.588	17071
879.715	17143
879.842	17280
879.97	16938
880.097	16683
880.224	16546
880.351	16592
880.478	16546
880.605	16519
880.732	16440
880.859	16702
880.986	16519
881.112	16466
881.239	16402
881.366	16257
881.493	16154
881.619	16101
881.746	16063
881.872	16090
881.999	16051
882.125	16017
882.252	16238
882.378	16135
882.505	16291
882.631	16029
882.757	15949
882.883	15934
883.01	15949
883.136	15892
883.262	15854
883.388	15854
883.514	15945
883.64	15953
883.766	15827
883.892	15759
884.018	15770
884.143	15975
884.269	15861
884.395	15690
884.52	15618
884.646	15663
884.772	15580
884.897	15595
885.023	15690
885.148	15747
885.274	15842
885.399	15641
885.524	15641
885.65	15557
885.775	15682
885.9	15568
886.025	15785
886.15	15629
886.275	15572
886.4	15447
886.525	15545
886.65	15473
886.775	15435
886.9	15614
887.025	15732
887.149	15591
887.274	15477
887.399	15374
887.523	15287
887.648	15336
887.773	15298
887.897	15462
888.021	15435
888.146	15287
888.27	15428
888.395	15526
888.519	15507
888.643	15485
888.767	15439
888.891	15329
889.015	15131
889.139	15287
889.263	15211
889.387	15272
889.511	15351
889.635	15329
889.759	15203
889.883	15157
890.006	15211
890.13	15264
890.254	15150
890.377	15123
890.501	14868
890.624	14899
890.748	14963
890.871	14971
890.995	14895
891.118	14807
891.241	14857
891.364	14834
891.488	14895
891.611	14834
891.734	14838
891.857	15020
891.98	14823
892.103	14887
892.226	14967
892.349	14792
892.471	14724
892.594	14796
892.717	14826
892.839	14864
892.962	14864
893.085	14845
893.207	14804
893.33	14804
893.452	14693
893.575	14963
893.697	14868
893.819	14994
893.941	15001
894.064	14986
894.186	14830
894.308	14834
894.43	15001
894.552	14925
894.674	15058
894.796	14739
894.918	14883
895.04	14861
895.161	14921
895.283	14994
895.405	14872
895.526	14857
895.648	14963
895.769	14914
895.891	14941
896.012	15142
896.134	15043
896.255	15043
896.376	14921
896.498	14986
896.619	15013
896.74	15043
896.861	15009
896.982	15321
897.103	15382
897.224	15264
897.345	15283
897.466	15089
897.587	15424
897.708	15321
897.828	15283
897.949	15230
898.07	15055
898.19	15211
898.311	15397
898.431	15245
898.552	15302
898.672	15420
898.792	15462
898.913	15408
899.033	15249
899.153	15081
899.273	15207
899.393	15249
899.513	15135
899.633	15100
899.753	15226
899.873	15165
899.993	15226
900.113	15131
900.232	15199
900.352	15150
900.472	15108
900.591	15005
900.711	15020
900.83	14967
900.95	15085
901.069	15173
901.189	14876
901.308	14781
901.427	14644
901.546	14807
901.665	14712
901.784	14689
901.904	14488
902.023	14511
902.141	14347
902.26	14195
902.379	14377
902.498	14286
902.617	14191
902.735	14362
902.854	14313
902.973	14210
903.091	13894
903.21	14020
903.328	13947
903.446	13871
903.565	13795
903.683	13860
903.801	13666
903.919	13830
904.038	13757
904.156	13609
904.274	13647
904.392	13567
904.51	13529
904.627	13666
904.745	13651
904.863	13658
904.981	13449
905.098	13255
905.216	13289
905.334	13331
905.451	13301
905.569	13217
905.686	13312
905.803	13282
905.921	13042
906.038	13171
906.155	13175
906.272	12996
906.389	13057
906.506	12844
906.623	12840
906.74	12814
906.857	12703
906.974	12741
907.091	12897
907.208	13031
907.324	12852
907.441	12764
907.557	12601
907.674	12578
907.79	12620
907.907	12475
908.023	12578
908.139	12719
908.256	12585
908.372	12540
908.488	12486
908.604	12372
908.72	12289
908.836	12437
908.952	12300
909.068	12380
909.184	12445
909.3	12456
909.415	12399
909.531	12388
909.647	12152
909.762	12102
909.878	12015
909.993	12182
910.108	12041
910.224	12011
910.339	12057
910.454	11942
910.57	11965
910.685	11851
910.8	12216
910.915	12136
911.03	11980
911.145	11847
911.259	11779
911.374	11813
911.489	11771
911.604	11668
911.718	11581
911.833	11615
911.947	11436
912.062	11406
912.176	11539
912.291	11516
912.405	11535
912.519	11745
912.633	11699
912.748	11558
912.862	11604
912.976	11417
913.09	11322
913.204	11337
913.318	11433
913.431	11512
913.545	11535
913.659	11547
913.772	11433
913.886	11315
914	11223
914.113	11372
914.226	11421
914.34	11345
914.453	11242
914.566	11402
914.68	11223
914.793	11174
914.906	11124
915.019	10968
915.132	10995
915.245	11033
915.358	11067
915.47	11079
915.583	11083
915.696	11086
915.809	11231
915.921	11174
916.034	11010
916.146	10953
916.259	10930
916.371	11086
916.483	11006
916.595	10942
916.708	11025
916.82	10900
916.932	10908
917.044	10957
917.156	10942
917.268	10850
917.38	10862
917.491	10793
917.603	10862
917.715	10881
917.826	10904
917.938	10816
918.049	10740
918.161	10828
918.272	11022
918.384	11003
918.495	10850
918.606	10656
918.717	10675
918.828	10767
918.939	10611
919.05	10588
919.161	10675
919.272	10527
919.383	10615
919.494	10771
919.604	10877
919.715	10774
919.826	10565
919.936	10725
920.047	10733
920.157	10714
920.267	10885
920.378	10725
920.488	10759
920.598	10892
920.708	11025
920.818	10915
920.928	10965
921.038	11079
921.148	11075
921.258	10733
921.368	10645
921.477	10615
921.587	10531
921.697	10375
921.806	10615
921.916	10443
922.025	10265
922.134	10215
922.244	10223
922.353	10291
922.462	10120
922.571	10044
922.68	9953
922.789	9873
922.898	9926
923.007	9895
923.116	9968
923.224	9915
923.333	9915
923.442	9831
923.55	9861
923.659	9873
923.767	9888
923.876	9762
923.984	9838
924.092	9789
924.201	9766
924.309	9808
924.417	9793
924.525	9732
924.633	9804
924.741	10592
924.849	9534
924.956	9728
925.064	9603
925.172	9496
925.279	9526
925.387	9530
925.494	9545
925.602	9667
925.709	9663
925.816	9523
925.924	9530
926.031	9568
926.138	9515
926.245	9584
926.352	9485
926.459	9606
926.566	9568
926.673	9473
926.779	9344
926.886	9386
926.993	9298
927.099	9272
927.206	9195
927.312	9203
927.419	9291
927.525	9256
927.631	9325
927.737	9161
927.843	9169
927.95	9032
928.056	9119
928.162	9154
928.267	9169
928.373	9816
928.479	9245
928.585	9074
928.69	9165
928.796	9188
928.901	9062
929.007	8906
929.112	9146
929.218	8979
929.323	8998
929.428	8956
929.533	9081
929.638	8921
929.743	8967
929.848	8994
929.953	8864
930.058	8857
930.163	8674
930.267	8724
930.372	8815
930.477	8636
930.581	8902
930.685	8731
930.79	8659
930.894	8697
930.998	8667
931.103	8724
931.207	8518
931.311	8389
931.415	8294
931.519	8142
931.623	8096
