Data from test_V78500241_3496.txt Node
Date: Fri Mar 25 14:58:03 CST 2022
User: usil
Spectrometer: V785-0024
Trigger mode: 0
Integration Time (sec): 4.000000E-1
Scans to average: 1
Nonlinearity correction enabled: false
Boxcar width: 0
Storing dark spectrum: false
XAxis mode: Wavelengths
Number of Pixels in Spectrum: 1024
>>>>>Begin Spectral Data<<<<<
801.071	21987
801.214	21903
801.356	21538
801.499	21473
801.641	21287
801.783	21317
801.926	21298
802.068	21203
802.211	21157
802.353	21089
802.496	20899
802.638	20708
802.78	20735
802.923	20659
803.065	20598
803.208	20442
803.35	20537
803.492	20613
803.635	20594
803.777	20689
803.919	20678
804.061	20845
804.204	20537
804.346	20594
804.488	20503
804.63	20682
804.773	20530
804.915	20659
805.057	20590
805.199	20473
805.341	20629
805.483	20686
805.626	20579
805.768	20492
805.91	20549
806.052	20511
806.194	20298
806.336	20667
806.478	20434
806.62	20431
806.762	20473
806.904	20765
807.046	20944
807.188	20895
807.33	20876
807.472	20883
807.614	20750
807.756	20644
807.898	20670
808.04	20434
808.182	20549
808.324	20583
808.465	20587
808.607	20788
808.749	20792
808.891	20990
809.033	21093
809.174	21028
809.316	20781
809.458	20842
809.6	20762
809.741	20933
809.883	20921
810.025	20971
810.166	21005
810.308	20960
810.45	20880
810.591	20781
810.733	20857
810.875	20678
811.016	20609
811.158	20480
811.299	20682
811.441	20765
811.582	20716
811.724	20629
811.865	20507
812.007	20518
812.148	20522
812.29	20670
812.431	20823
812.573	20925
812.714	21070
812.855	20986
812.997	21112
813.138	21256
813.279	21237
813.421	21199
813.562	21077
813.703	20929
813.845	20746
813.986	20522
814.127	20301
814.268	20142
814.41	20294
814.551	20206
814.692	20221
814.833	20092
814.974	20115
815.115	20187
815.256	19928
815.397	20084
815.539	20005
815.68	19868
815.821	19795
815.962	19940
816.103	19875
816.244	19700
816.385	19575
816.526	19529
816.666	19457
816.807	19198
816.948	19335
817.089	19491
817.23	19327
817.371	19346
817.512	19240
817.653	19270
817.793	19148
817.934	19206
818.075	19240
818.216	19301
818.356	19324
818.497	19057
818.638	18958
818.778	18863
818.919	18901
819.06	19000
819.2	19160
819.341	18996
819.481	19225
819.622	19392
819.762	19422
819.903	19430
820.043	19388
820.184	19339
820.324	19217
820.465	19202
820.605	19198
820.746	19171
820.886	19050
821.026	19327
821.167	19255
821.307	19232
821.447	19148
821.588	19008
821.728	18939
821.868	18859
822.008	18646
822.149	18726
822.289	18623
822.429	18448
822.569	18384
822.709	18334
822.849	18262
822.99	18194
823.13	18178
823.27	18121
823.41	17920
823.55	17912
823.69	17973
823.83	18064
823.97	17889
824.11	17760
824.25	17714
824.389	17737
824.529	17882
824.669	17604
824.809	17855
824.949	17809
825.089	17840
825.228	17642
825.368	17596
825.508	17528
825.648	17699
825.787	17611
825.927	17566
826.067	17436
826.206	17528
826.346	17642
826.485	17608
826.625	17566
826.765	17676
826.904	17551
827.044	17250
827.183	17254
827.323	17208
827.462	17277
827.601	17258
827.741	17155
827.88	17307
828.02	17132
828.159	17159
828.298	17223
828.437	17334
828.577	17124
828.716	17318
828.855	17208
828.994	17166
829.134	16968
829.273	16942
829.412	16995
829.551	16911
829.69	16949
829.829	17045
829.968	17045
830.107	17094
830.246	16991
830.385	17006
830.524	16885
830.663	16839
830.802	16691
830.941	16683
831.08	16573
831.219	16679
831.357	16641
831.496	16824
831.635	16523
831.774	16542
831.913	16398
832.051	16398
832.19	16329
832.329	16493
832.467	16424
832.606	16223
832.744	16322
832.883	16322
833.022	16246
833.16	16272
833.299	16322
833.437	16352
833.576	16402
833.714	16318
833.852	16386
833.991	16421
834.129	16474
834.267	16344
834.406	16436
834.544	16413
834.682	16417
834.821	16325
834.959	16428
835.097	16318
835.235	16394
835.373	16375
835.511	16379
835.65	16261
835.788	16371
835.926	16006
836.064	16105
836.202	16150
836.34	16322
836.478	16310
836.615	16177
836.753	16268
836.891	16417
837.029	16390
837.167	16173
837.305	16177
837.443	16246
837.58	16135
837.718	16303
837.856	16109
837.993	16071
838.131	16181
838.269	16166
838.406	16154
838.544	15979
838.681	15873
838.819	15816
838.956	15724
839.094	15778
839.231	15823
839.369	15873
839.506	16090
839.643	15960
839.781	15732
839.918	15797
840.055	15762
840.193	15705
840.33	15679
840.467	15762
840.604	15698
840.742	16040
840.879	15618
841.016	15660
841.153	15739
841.29	15804
841.427	15762
841.564	15835
841.701	15827
841.838	15610
841.975	15599
842.112	15671
842.249	15511
842.385	15488
842.522	15724
842.659	15397
842.796	15469
842.933	15530
843.069	15420
843.206	15389
843.343	15614
843.479	15420
843.616	15519
843.752	15245
843.889	15283
844.025	15519
844.162	15241
844.298	15424
844.435	15386
844.571	15340
844.708	15389
844.844	15492
844.98	15351
845.117	15420
845.253	15279
845.389	15123
845.525	15237
845.661	15211
845.798	15058
845.934	15135
846.07	15043
846.206	15184
846.342	15195
846.478	15112
846.614	14975
846.75	14910
846.886	14918
847.022	14971
847.158	14944
847.294	14895
847.429	14921
847.565	14845
847.701	15157
847.837	14697
847.972	14598
848.108	14648
848.244	14579
848.379	14454
848.515	14495
848.65	14438
848.786	14495
848.921	14419
849.057	14503
849.192	14518
849.328	14476
849.463	14518
849.598	14377
849.734	14324
849.869	14336
850.004	14103
850.14	14240
850.275	14294
850.41	14145
850.545	14252
850.68	14206
850.815	14278
850.95	14202
851.085	14465
851.22	14339
851.355	14248
851.49	14214
851.625	14153
851.76	14199
851.895	14187
852.03	14073
852.165	14202
852.299	14290
852.434	14313
852.569	14294
852.703	14332
852.838	14370
852.973	14366
853.107	14400
853.242	14157
853.376	14157
853.511	13917
853.645	14123
853.78	14286
853.914	13997
854.048	14046
854.183	14069
854.317	14126
854.451	14248
854.585	14069
854.72	14081
854.854	14187
854.988	13955
855.122	14164
855.256	14024
855.39	14050
855.524	14084
855.658	14134
855.792	14138
855.926	14134
856.06	14115
856.194	14195
856.327	14130
856.461	14058
856.595	13940
856.729	14111
856.862	14290
856.996	14176
857.13	14183
857.263	14229
857.397	14111
857.53	14054
857.664	14195
857.797	14286
857.931	14191
858.064	14134
858.197	14149
858.331	14081
858.464	14103
858.597	13989
858.731	14100
858.864	14153
858.997	14161
859.13	14149
859.263	14142
859.396	14168
859.529	14065
859.662	14161
859.795	14168
859.928	14130
860.061	14202
860.194	14221
860.327	14115
860.46	14096
860.592	14294
860.725	14202
860.858	14202
860.99	14134
861.123	14111
861.256	14031
861.388	14191
861.521	14727
861.653	14005
861.786	13944
861.918	14005
862.05	13951
862.183	14130
862.315	14134
862.447	14058
862.58	14100
862.712	13906
862.844	13780
862.976	13974
863.108	14062
863.24	14343
863.372	13868
863.504	13947
863.636	13814
863.768	13890
863.9	13947
864.032	13799
864.164	13818
864.296	13894
864.428	14027
864.559	13993
864.691	13959
864.823	13913
864.954	14001
865.086	13967
865.217	13967
865.349	13784
865.48	13875
865.612	13955
865.743	13917
865.875	13852
866.006	13826
866.137	13898
866.269	13776
866.4	13811
866.531	13887
866.662	13742
866.793	13753
866.924	13860
867.055	13974
867.186	13803
867.317	13967
867.448	13750
867.579	13780
867.71	13814
867.841	13833
867.972	13947
868.103	13845
868.233	13868
868.364	13826
868.495	13932
868.625	14164
868.756	14130
868.886	14084
869.017	14069
869.147	14282
869.278	14328
869.408	14107
869.539	14187
869.669	14073
869.799	14202
869.929	14252
870.06	14332
870.19	14526
870.32	14450
870.45	14476
870.58	14537
870.71	14560
870.84	14701
870.97	14492
871.1	14503
871.23	14716
871.36	14819
871.489	14640
871.619	14743
871.749	14746
871.879	14697
872.008	14876
872.138	14792
872.267	14781
872.397	14621
872.526	14606
872.656	14579
872.785	14575
872.915	14727
873.044	14876
873.173	14830
873.303	14880
873.432	14899
873.561	14887
873.69	14937
873.819	14750
873.948	14876
874.077	14823
874.206	14731
874.335	14872
874.464	14994
874.593	15089
874.722	14986
874.851	15112
874.979	15131
875.108	15199
875.237	15070
875.365	15032
875.494	15112
875.623	15218
875.751	15165
875.88	15138
876.008	15173
876.136	15298
876.265	15511
876.393	15572
876.521	15667
876.65	15671
876.778	15507
876.906	15496
877.034	15443
877.162	15564
877.29	15534
877.418	15515
877.546	15534
877.674	15428
877.802	15488
877.93	15557
878.058	15443
878.185	15469
878.313	15507
878.441	15507
878.568	15359
878.696	15450
878.824	15629
878.951	15614
879.079	15671
879.206	15945
879.333	15713
879.461	15568
879.588	15656
879.715	15682
879.842	15789
879.97	15622
880.097	15405
880.224	15393
880.351	15488
880.478	15348
880.605	15378
880.732	15348
880.859	15580
880.986	15329
881.112	15408
881.239	15310
881.366	15157
881.493	15097
881.619	14994
881.746	15043
881.872	15062
881.999	14963
882.125	15089
882.252	15104
882.378	15146
882.505	15157
882.631	14929
882.757	14785
882.883	14952
883.01	14788
883.136	14739
883.262	14701
883.388	14663
883.514	14880
883.64	14902
883.766	14807
883.892	14727
884.018	14727
884.143	14944
884.269	14925
884.395	14530
884.52	14549
884.646	14560
884.772	14469
884.897	14518
885.023	14636
885.148	14678
885.274	14716
885.399	14590
885.524	14549
885.65	14571
885.775	14613
885.9	14533
886.025	14632
886.15	14674
886.275	14564
886.4	14522
886.525	14530
886.65	14522
886.775	14492
886.9	14655
887.025	14773
887.149	14556
887.274	14358
887.399	14370
887.523	14294
887.648	14267
887.773	14317
887.897	14488
888.021	14408
888.146	14415
888.27	14571
888.395	14522
888.519	14400
888.643	14473
888.767	14476
888.891	14450
889.015	14206
889.139	14275
889.263	14172
889.387	14317
889.511	14438
889.635	14400
889.759	14225
889.883	14240
890.006	14195
890.13	14381
890.254	14218
890.377	14233
890.501	14077
890.624	13989
890.748	14103
890.871	13989
890.995	13906
891.118	13890
891.241	13963
891.364	13959
891.488	14050
891.611	14062
891.734	13947
891.857	14130
891.98	14050
892.103	14077
892.226	14092
892.349	13959
892.471	13811
892.594	13894
892.717	13978
892.839	13925
892.962	13947
893.085	13936
893.207	13959
893.33	13928
893.452	13818
893.575	13978
893.697	13928
893.819	14058
893.941	14172
894.064	14119
894.186	13940
894.308	13871
894.43	14115
894.552	14164
894.674	14168
894.796	13883
894.918	13921
895.04	13978
895.161	14138
895.283	14107
895.405	14077
895.526	13944
895.648	14138
895.769	14126
895.891	14142
896.012	14191
896.134	14176
896.255	14153
896.376	14142
896.498	14065
896.619	14183
896.74	14142
896.861	14199
896.982	14575
897.103	14594
897.224	14469
897.345	14434
897.466	14301
897.587	14393
897.708	14499
897.828	14438
897.949	14374
898.07	14336
898.19	14400
898.311	14587
898.431	14473
898.552	14450
898.672	14495
898.792	14598
898.913	14495
899.033	14305
899.153	14278
899.273	14229
899.393	14362
899.513	14415
899.633	14412
899.753	14317
899.873	14309
899.993	14336
900.113	14355
900.232	14385
900.352	14320
900.472	14210
900.591	14168
900.711	14218
900.83	14130
900.95	14176
901.069	14336
901.189	14126
901.308	13898
901.427	13883
901.546	13974
901.665	13928
901.784	13936
901.904	13776
902.023	13727
902.141	13487
902.26	13464
902.379	13487
902.498	13441
902.617	13350
902.735	13472
902.854	13540
902.973	13251
903.091	13194
903.21	13164
903.328	13137
903.446	13118
903.565	13019
903.683	12985
903.801	12840
903.919	13015
904.038	12977
904.156	12897
904.274	12981
904.392	12882
904.51	12825
904.627	12776
904.745	13000
904.863	12985
904.981	12681
905.098	12540
905.216	12570
905.334	12639
905.451	12623
905.569	12517
905.686	12639
905.803	12532
905.921	12414
906.038	12467
906.155	12471
906.272	12285
906.389	12391
906.506	12144
906.623	12114
906.74	12125
906.857	12030
906.974	12171
907.091	12247
907.208	12232
907.324	12243
907.441	12083
907.557	11942
907.674	11916
907.79	11828
907.907	11893
908.023	11935
908.139	11935
908.256	11980
908.372	11870
908.488	11771
908.604	11707
908.72	11649
908.836	11638
908.952	11642
909.068	11688
909.184	11733
909.3	11737
909.415	11707
909.531	11748
909.647	11547
909.762	11490
909.878	11459
909.993	11452
910.108	11406
910.224	11410
910.339	11452
910.454	11421
910.57	11387
910.685	11242
910.8	11585
910.915	11463
911.03	11334
911.145	11220
911.259	11178
911.374	11159
911.489	11064
911.604	11079
911.718	10896
911.833	10930
911.947	10778
912.062	10656
912.176	10904
912.291	10862
912.405	10873
912.519	11155
912.633	11181
912.748	11003
912.862	10923
912.976	10850
913.09	10660
913.204	10786
913.318	10767
913.431	10942
913.545	10961
913.659	10877
913.772	10831
913.886	10694
914	10771
914.113	10698
914.226	10797
914.34	10824
914.453	10573
914.566	10630
914.68	10710
914.793	10607
914.906	10447
915.019	10367
915.132	10325
915.245	10481
915.358	10402
915.47	10470
915.583	10386
915.696	10497
915.809	10554
915.921	10580
916.034	10356
916.146	10367
916.259	10417
916.371	10535
916.483	10497
916.595	10337
916.708	10333
916.82	10379
916.932	10314
917.044	10402
917.156	10333
917.268	10207
917.38	10249
917.491	10287
917.603	10306
917.715	10337
917.826	10390
917.938	10196
918.049	10116
918.161	10242
918.272	10421
918.384	10382
918.495	10314
918.606	10105
918.717	10051
918.828	10181
918.939	10112
919.05	10093
919.161	10154
919.272	9945
919.383	9983
919.494	10223
919.604	10390
919.715	10200
919.826	10002
919.936	10166
920.047	10166
920.157	10196
920.267	10360
920.378	10230
920.488	10082
920.598	10367
920.708	10538
920.818	10291
920.928	10318
921.038	10523
921.148	10432
921.258	10192
921.368	10173
921.477	9975
921.587	9991
921.697	9926
921.806	9994
921.916	9876
922.025	9789
922.134	9774
922.244	9644
922.353	9781
922.462	9675
922.571	9568
922.68	9294
922.789	9454
922.898	9443
923.007	9393
923.116	9439
923.224	9412
923.333	9386
923.442	9336
923.55	9264
923.659	9313
923.767	9367
923.876	9237
923.984	9340
924.092	9161
924.201	9325
924.309	9222
924.417	9317
924.525	9214
924.633	9283
924.741	10025
924.849	9081
924.956	9241
925.064	9055
925.172	8956
925.279	9043
925.387	9131
925.494	9123
925.602	9207
925.709	9123
925.816	9039
925.924	9138
926.031	9192
926.138	9089
926.245	9150
926.352	8952
926.459	9104
926.566	9123
926.673	9077
926.779	8910
926.886	8887
926.993	8834
927.099	8800
927.206	8731
927.312	8804
927.419	8876
927.525	8777
927.631	8701
927.737	8766
927.843	8701
927.95	8537
928.056	8754
928.162	8697
928.267	8796
928.373	9348
928.479	8788
928.585	8537
928.69	8682
928.796	8705
928.901	8629
929.007	8511
929.112	8670
929.218	8632
929.323	8583
929.428	8476
929.533	8667
929.638	8454
929.743	8465
929.848	8480
929.953	8518
930.058	8358
930.163	8233
930.267	8195
930.372	8434
930.477	8290
930.581	8541
930.685	8324
930.79	8210
930.894	8298
930.998	8191
931.103	8385
931.207	8031
931.311	7955
931.415	7917
931.519	7753
931.623	7700
