Data from test_V78500241_2509.txt Node
Date: Fri Mar 25 14:51:11 CST 2022
User: usil
Spectrometer: V785-0024
Trigger mode: 0
Integration Time (sec): 4.000000E-1
Scans to average: 1
Nonlinearity correction enabled: false
Boxcar width: 0
Storing dark spectrum: false
XAxis mode: Wavelengths
Number of Pixels in Spectrum: 1024
>>>>>Begin Spectral Data<<<<<
801.071	22017
801.214	21911
801.356	21728
801.499	21641
801.641	21477
801.783	21428
801.926	21488
802.068	21447
802.211	21329
802.353	21279
802.496	21017
802.638	20914
802.78	20906
802.923	20792
803.065	20727
803.208	20758
803.35	20788
803.492	20792
803.635	20979
803.777	20826
803.919	20857
804.061	21074
804.204	20743
804.346	20762
804.488	20640
804.63	20804
804.773	20648
804.915	20587
805.057	20769
805.199	20708
805.341	20621
805.483	20777
805.626	20754
805.768	20678
805.91	20632
806.052	20663
806.194	20564
806.336	20773
806.478	20655
806.62	20640
806.762	20621
806.904	20887
807.046	21028
807.188	20998
807.33	21051
807.472	21039
807.614	20819
807.756	20796
807.898	20693
808.04	20663
808.182	20625
808.324	20727
808.465	20830
808.607	20918
808.749	20990
808.891	21116
809.033	21188
809.174	21214
809.316	21005
809.458	21116
809.6	21051
809.741	21081
809.883	21112
810.025	21188
810.166	21192
810.308	21123
810.45	20990
810.591	21142
810.733	20967
810.875	20724
811.016	20773
811.158	20594
811.299	20800
811.441	21013
811.582	20925
811.724	20948
811.865	20754
812.007	20758
812.148	20674
812.29	20872
812.431	20925
812.573	21192
812.714	21199
812.855	21203
812.997	21416
813.138	21519
813.279	21515
813.421	21245
813.562	21165
813.703	20998
813.845	20975
813.986	20663
814.127	20518
814.268	20442
814.41	20263
814.551	20381
814.692	20412
814.833	20324
814.974	20324
815.115	20362
815.256	20172
815.397	20172
815.539	20157
815.68	20172
815.821	20035
815.962	20043
816.103	19963
816.244	19944
816.385	19841
816.526	19928
816.666	19731
816.807	19723
816.948	19620
817.089	19677
817.23	19624
817.371	19472
817.512	19468
817.653	19449
817.793	19358
817.934	19407
818.075	19514
818.216	19487
818.356	19445
818.497	19324
818.638	19141
818.778	19255
818.919	19194
819.06	19175
819.2	19312
819.341	19358
819.481	19297
819.622	19502
819.762	19624
819.903	19681
820.043	19548
820.184	19540
820.324	19441
820.465	19506
820.605	19518
820.746	19502
820.886	19373
821.026	19441
821.167	19403
821.307	19422
821.447	19225
821.588	19415
821.728	19213
821.868	18973
822.008	18863
822.149	18905
822.289	18821
822.429	18570
822.569	18509
822.709	18521
822.849	18308
822.99	18296
823.13	18308
823.27	18338
823.41	18167
823.55	18163
823.69	18117
823.83	18254
823.97	18152
824.11	17885
824.25	17908
824.389	17927
824.529	18003
824.669	17863
824.809	18095
824.949	18060
825.089	18011
825.228	17843
825.368	17737
825.508	17786
825.648	17786
825.787	17817
825.927	17779
826.067	17676
826.206	17680
826.346	17687
826.485	17798
826.625	17733
826.765	17741
826.904	17729
827.044	17509
827.183	17463
827.323	17391
827.462	17364
827.601	17425
827.741	17372
827.88	17387
828.02	17280
828.159	17383
828.298	17341
828.437	17471
828.577	17467
828.716	17596
828.855	17387
828.994	17220
829.134	17071
829.273	17307
829.412	17143
829.551	17010
829.69	17071
829.829	17181
829.968	17261
830.107	17239
830.246	17170
830.385	17064
830.524	17029
830.663	16938
830.802	16862
830.941	16763
831.08	16653
831.219	16866
831.357	16930
831.496	17029
831.635	16664
831.774	16634
831.913	16706
832.051	16641
832.19	16596
832.329	16740
832.467	16504
832.606	16379
832.744	16512
832.883	16459
833.022	16504
833.16	16497
833.299	16478
833.437	16489
833.576	16500
833.714	16546
833.852	16485
833.991	16565
834.129	16607
834.267	16603
834.406	16459
834.544	16523
834.682	16565
834.821	16626
834.959	16637
835.097	16519
835.235	16542
835.373	16493
835.511	16508
835.65	16398
835.788	16424
835.926	16287
836.064	16226
836.202	16276
836.34	16394
836.478	16516
836.615	16443
836.753	16436
836.891	16618
837.029	16447
837.167	16382
837.305	16352
837.443	16356
837.58	16367
837.718	16394
837.856	16234
837.993	16284
838.131	16329
838.269	16257
838.406	16261
838.544	16215
838.681	16124
838.819	16021
838.956	15842
839.094	15865
839.231	16063
839.369	16051
839.506	16177
839.643	16097
839.781	15759
839.918	15766
840.055	15930
840.193	15926
840.33	15831
840.467	15865
840.604	15842
840.742	16029
840.879	15698
841.016	15720
841.153	15778
841.29	15998
841.427	15930
841.564	15941
841.701	15903
841.838	15861
841.975	15732
842.112	15701
842.249	15622
842.385	15568
842.522	15819
842.659	15641
842.796	15686
842.933	15595
843.069	15622
843.206	15625
843.343	15797
843.479	15686
843.616	15557
843.752	15416
843.889	15431
844.025	15530
844.162	15488
844.298	15568
844.435	15447
844.571	15412
844.708	15553
844.844	15610
844.98	15515
845.117	15557
845.253	15405
845.389	15340
845.525	15344
845.661	15249
845.798	15173
845.934	15199
846.07	15180
846.206	15256
846.342	15401
846.478	15249
846.614	15047
846.75	14986
846.886	14975
847.022	15207
847.158	14956
847.294	15005
847.429	15097
847.565	14963
847.701	15256
847.837	14689
847.972	14758
848.108	14819
848.244	14887
848.379	14663
848.515	14629
848.65	14579
848.786	14659
848.921	14568
849.057	14758
849.192	14648
849.328	14663
849.463	14667
849.598	14594
849.734	14583
849.869	14355
850.004	14374
850.14	14313
850.275	14370
850.41	14320
850.545	14267
850.68	14294
850.815	14476
850.95	14343
851.085	14640
851.22	14480
851.355	14305
851.49	14267
851.625	14290
851.76	14301
851.895	14271
852.03	14153
852.165	14313
852.299	14381
852.434	14423
852.569	14362
852.703	14469
852.838	14450
852.973	14549
853.107	14541
853.242	14332
853.376	14244
853.511	14195
853.645	14145
853.78	14370
853.914	14313
854.048	14157
854.183	14138
854.317	14218
854.451	14301
854.585	14320
854.72	14225
854.854	14355
854.988	14145
855.122	14187
855.256	14111
855.39	14142
855.524	14244
855.658	14286
855.792	14351
855.926	14313
856.06	14336
856.194	14374
856.327	14195
856.461	14149
856.595	14142
856.729	14199
856.862	14294
856.996	14221
857.13	14233
857.263	14427
857.397	14317
857.53	14290
857.664	14404
857.797	14298
857.931	14370
858.064	14210
858.197	14286
858.331	14244
858.464	14244
858.597	14073
858.731	14157
858.864	14294
858.997	14157
859.13	14305
859.263	14233
859.396	14324
859.529	14233
859.662	14153
859.795	14164
859.928	14286
860.061	14434
860.194	14408
860.327	14202
860.46	14233
860.592	14278
860.725	14351
860.858	14305
860.99	14221
861.123	14069
861.256	14096
861.388	14256
861.521	14792
861.653	14161
861.786	14069
861.918	14130
862.05	14039
862.183	14180
862.315	14313
862.447	14149
862.58	14126
862.712	14035
862.844	13940
862.976	14046
863.108	13997
863.24	14336
863.372	13947
863.504	14016
863.636	13967
863.768	14062
863.9	14008
864.032	14077
864.164	13936
864.296	14020
864.428	14161
864.559	14100
864.691	14153
864.823	14039
864.954	14035
865.086	14062
865.217	14012
865.349	13928
865.48	14024
865.612	13944
865.743	14107
865.875	14035
866.006	13970
866.137	14005
866.269	14065
866.4	13993
866.531	13947
866.662	13951
866.793	13913
866.924	13917
867.055	13993
867.186	13921
867.317	13963
867.448	13921
867.579	13947
867.71	13974
867.841	13947
867.972	14043
868.103	13909
868.233	14027
868.364	14138
868.495	14092
868.625	14119
868.756	14294
868.886	14183
869.017	14199
869.147	14370
869.278	14301
869.408	14278
869.539	14286
869.669	14400
869.799	14347
869.929	14347
870.06	14305
870.19	14579
870.32	14610
870.45	14640
870.58	14670
870.71	14716
870.84	14819
870.97	14724
871.1	14644
871.23	14788
871.36	14891
871.489	14773
871.619	14815
871.749	14830
871.879	14781
872.008	14952
872.138	14914
872.267	14880
872.397	14621
872.526	14648
872.656	14697
872.785	14689
872.915	14811
873.044	15005
873.173	14921
873.303	14967
873.432	14807
873.561	14998
873.69	14918
873.819	14910
873.948	15024
874.077	14891
874.206	14861
874.335	14864
874.464	15020
874.593	15226
874.722	15112
874.851	15226
874.979	15336
875.108	15256
875.237	15093
875.365	15207
875.494	15112
875.623	15325
875.751	15264
875.88	15237
876.008	15344
876.136	15412
876.265	15572
876.393	15759
876.521	15713
876.65	15739
876.778	15739
876.906	15580
877.034	15614
877.162	15591
877.29	15625
877.418	15614
877.546	15694
877.674	15690
877.802	15682
877.93	15660
878.058	15606
878.185	15466
878.313	15587
878.441	15584
878.568	15481
878.696	15530
878.824	15507
878.951	15690
879.079	15846
879.206	15873
879.333	15869
879.461	15675
879.588	15671
879.715	15857
879.842	15953
879.97	15705
880.097	15488
880.224	15473
880.351	15568
880.478	15511
880.605	15485
880.732	15450
880.859	15709
880.986	15561
881.112	15500
881.239	15382
881.366	15283
881.493	15237
881.619	15100
881.746	15176
881.872	15192
881.999	15036
882.125	15127
882.252	15226
882.378	15112
882.505	15283
882.631	15077
882.757	14937
882.883	15055
883.01	14994
883.136	14918
883.262	14876
883.388	14762
883.514	15047
883.64	14971
883.766	15043
883.892	14777
884.018	14918
884.143	15013
884.269	15051
884.395	14701
884.52	14667
884.646	14651
884.772	14632
884.897	14526
885.023	14621
885.148	14781
885.274	14872
885.399	14800
885.524	14644
885.65	14617
885.775	14796
885.9	14708
886.025	14773
886.15	14743
886.275	14724
886.4	14465
886.525	14560
886.65	14651
886.775	14598
886.9	14762
887.025	14857
887.149	14708
887.274	14469
887.399	14522
887.523	14507
887.648	14434
887.773	14461
887.897	14606
888.021	14621
888.146	14415
888.27	14610
888.395	14602
888.519	14594
888.643	14575
888.767	14617
888.891	14381
889.015	14351
889.139	14438
889.263	14431
889.387	14499
889.511	14575
889.635	14476
889.759	14419
889.883	14336
890.006	14355
890.13	14526
890.254	14263
890.377	14320
890.501	14229
890.624	14107
890.748	14187
890.871	14130
890.995	13989
891.118	13947
891.241	14046
891.364	13993
891.488	14240
891.611	14100
891.734	14012
891.857	14164
891.98	13974
892.103	14210
892.226	14088
892.349	14153
892.471	13875
892.594	14084
892.717	14111
892.839	14054
892.962	14088
893.085	14088
893.207	14103
893.33	13989
893.452	13917
893.575	14111
893.697	14012
893.819	14248
893.941	14320
894.064	14183
894.186	14039
894.308	14005
894.43	14218
894.552	14263
894.674	14221
894.796	14092
894.918	14138
895.04	14142
895.161	14286
895.283	14126
895.405	14134
895.526	14142
895.648	14100
895.769	14164
895.891	14298
896.012	14248
896.134	14206
896.255	14256
896.376	14161
896.498	14252
896.619	14317
896.74	14298
896.861	14263
896.982	14568
897.103	14754
897.224	14514
897.345	14434
897.466	14492
897.587	14556
897.708	14590
897.828	14507
897.949	14533
898.07	14351
898.19	14431
898.311	14507
898.431	14492
898.552	14571
898.672	14674
898.792	14724
898.913	14552
899.033	14526
899.153	14446
899.273	14286
899.393	14381
899.513	14400
899.633	14492
899.753	14457
899.873	14393
899.993	14473
900.113	14423
900.232	14522
900.352	14415
900.472	14366
900.591	14229
900.711	14351
900.83	14195
900.95	14389
901.069	14408
901.189	14252
901.308	14130
901.427	13997
901.546	13970
901.665	13978
901.784	14001
901.904	13864
902.023	13795
902.141	13586
902.26	13582
902.379	13605
902.498	13571
902.617	13457
902.735	13632
902.854	13495
902.973	13556
903.091	13266
903.21	13221
903.328	13274
903.446	13278
903.565	13057
903.683	13156
903.801	13015
903.919	13046
904.038	13061
904.156	12981
904.274	12970
904.392	12791
904.51	12993
904.627	12932
904.745	12913
904.863	12993
904.981	12787
905.098	12635
905.216	12654
905.334	12654
905.451	12669
905.569	12593
905.686	12707
905.803	12665
905.921	12483
906.038	12544
906.155	12525
906.272	12323
906.389	12395
906.506	12220
906.623	12224
906.74	12224
906.857	12121
906.974	12148
907.091	12315
907.208	12384
907.324	12296
907.441	12148
907.557	11882
907.674	11969
907.79	11908
907.907	11916
908.023	11954
908.139	11996
908.256	11889
908.372	11939
908.488	11920
908.604	11767
908.72	11665
908.836	11737
908.952	11668
909.068	11737
909.184	11798
909.3	11726
909.415	11786
909.531	11714
909.647	11512
909.762	11509
909.878	11467
909.993	11493
910.108	11448
910.224	11467
910.339	11505
910.454	11436
910.57	11406
910.685	11318
910.8	11554
910.915	11512
911.03	11387
911.145	11204
911.259	11212
911.374	11166
911.489	11052
911.604	11105
911.718	10995
911.833	10991
911.947	10847
912.062	10759
912.176	10934
912.291	10953
912.405	10968
912.519	11071
912.633	11178
912.748	11060
912.862	10991
912.976	10774
913.09	10706
913.204	10786
913.318	10854
913.431	10949
913.545	10915
913.659	11014
913.772	10881
913.886	10729
914	10679
914.113	10866
914.226	10843
914.34	10767
914.453	10637
914.566	10767
914.68	10698
914.793	10691
914.906	10466
915.019	10417
915.132	10363
915.245	10527
915.358	10485
915.47	10424
915.583	10466
915.696	10527
915.809	10546
915.921	10607
916.034	10386
916.146	10375
916.259	10333
916.371	10504
916.483	10481
916.595	10504
916.708	10417
916.82	10394
916.932	10409
917.044	10462
917.156	10379
917.268	10306
917.38	10265
917.491	10295
917.603	10337
917.715	10402
917.826	10424
917.938	10272
918.049	10169
918.161	10306
918.272	10474
918.384	10337
918.495	10287
918.606	10192
918.717	10147
918.828	10139
918.939	10177
919.05	10120
919.161	10143
919.272	9930
919.383	10010
919.494	10230
919.604	10428
919.715	10211
919.826	10143
919.936	10143
920.047	10166
920.157	10188
920.267	10341
920.378	10276
920.488	10204
920.598	10382
920.708	10550
920.818	10341
920.928	10436
921.038	10538
921.148	10527
921.258	10204
921.368	10162
921.477	10036
921.587	10013
921.697	9911
921.806	10078
921.916	9975
922.025	9819
922.134	9762
922.244	9698
922.353	9781
922.462	9637
922.571	9622
922.68	9473
922.789	9340
922.898	9450
923.007	9389
923.116	9408
923.224	9447
923.333	9420
923.442	9374
923.55	9332
923.659	9359
923.767	9408
923.876	9348
923.984	9344
924.092	9294
924.201	9306
924.309	9340
924.417	9336
924.525	9370
924.633	9260
924.741	10261
924.849	9165
924.956	9173
925.064	9066
925.172	8994
925.279	9089
925.387	9089
925.494	9112
925.602	9233
925.709	9161
925.816	9001
925.924	9093
926.031	9184
926.138	9043
926.245	9108
926.352	9032
926.459	9119
926.566	9184
926.673	9017
926.779	8979
926.886	8925
926.993	8826
927.099	8853
927.206	8777
927.312	8777
927.419	8891
927.525	8842
927.631	8849
927.737	8712
927.843	8670
927.95	8533
928.056	8712
928.162	8746
928.267	8788
928.373	9382
928.479	8754
928.585	8659
928.69	8667
928.796	8800
928.901	8602
929.007	8476
929.112	8670
929.218	8606
929.323	8526
929.428	8537
929.533	8644
929.638	8484
929.743	8499
929.848	8575
929.953	8476
930.058	8438
930.163	8240
930.267	8282
930.372	8465
930.477	8267
930.581	8503
930.685	8434
930.79	8248
930.894	8301
930.998	8210
931.103	8355
931.207	8054
931.311	7959
931.415	8008
931.519	7750
931.623	7750
