Data from test_V78500241_769.txt Node
Date: Fri Mar 25 14:39:04 CST 2022
User: usil
Spectrometer: V785-0024
Trigger mode: 0
Integration Time (sec): 4.000000E-1
Scans to average: 1
Nonlinearity correction enabled: false
Boxcar width: 0
Storing dark spectrum: false
XAxis mode: Wavelengths
Number of Pixels in Spectrum: 1024
>>>>>Begin Spectral Data<<<<<
801.071	27013
801.214	26724
801.356	26457
801.499	26442
801.641	26199
801.783	26267
801.926	26256
802.068	26161
802.211	26084
802.353	25925
802.496	25845
802.638	25708
802.78	25761
802.923	25799
803.065	25620
803.208	25731
803.35	25795
803.492	25772
803.635	25887
803.777	25833
803.919	25856
804.061	26229
804.204	25944
804.346	25906
804.488	25955
804.63	25966
804.773	25978
804.915	26161
805.057	26328
805.199	26263
805.341	26339
805.483	26412
805.626	26465
805.768	26484
805.91	26598
806.052	26606
806.194	26819
806.336	27036
806.478	27226
806.62	27268
806.762	27595
806.904	27987
807.046	28523
807.188	28721
807.33	29178
807.472	29798
807.614	30338
807.756	31384
807.898	32431
808.04	33758
808.182	35779
808.324	38282
808.465	41136
808.607	44396
808.749	47239
808.891	48817
809.033	49027
809.174	47596
809.316	44648
809.458	41341
809.6	38107
809.741	35417
809.883	33393
810.025	31928
810.166	30730
810.308	29954
810.45	29345
810.591	28805
810.733	28386
810.875	27861
811.016	27561
811.158	27348
811.299	27321
811.441	27351
811.582	27222
811.724	26971
811.865	26788
812.007	26636
812.148	26617
812.29	26659
812.431	26625
812.573	26686
812.714	26697
812.855	26830
812.997	26944
813.138	26918
813.279	26693
813.421	26651
813.562	26568
813.703	26514
813.845	26256
813.986	25928
814.127	25582
814.268	25594
814.41	25449
814.551	25502
814.692	25434
814.833	25285
814.974	25297
815.115	25324
815.256	25198
815.397	25221
815.539	25217
815.68	24875
815.821	24992
815.962	24932
816.103	24848
816.244	24711
816.385	24585
816.526	24627
816.666	24471
816.807	24342
816.948	24315
817.089	24410
817.23	24224
817.371	24353
817.512	24239
817.653	24281
817.793	24136
817.934	24220
818.075	24285
818.216	24121
818.356	24235
818.497	24057
818.638	23863
818.778	23931
818.919	23901
819.06	23889
819.2	23931
819.341	24083
819.481	24076
819.622	24216
819.762	24357
819.903	24213
820.043	24273
820.184	24072
820.324	24133
820.465	24106
820.605	24015
820.746	24034
820.886	23783
821.026	23954
821.167	23927
821.307	23980
821.447	23798
821.588	23843
821.728	23638
821.868	23577
822.008	23311
822.149	23284
822.289	23246
822.429	23010
822.569	22869
822.709	22987
822.849	22850
822.99	22721
823.13	22668
823.27	22691
823.41	22611
823.55	22485
823.69	22607
823.83	22527
823.97	22409
824.11	22424
824.25	22246
824.389	22116
824.529	22375
824.669	22322
824.809	22466
824.949	22360
825.089	22382
825.228	22322
825.368	22086
825.508	22169
825.648	22162
825.787	22162
825.927	22101
826.067	22013
826.206	22021
826.346	22078
826.485	22074
826.625	21941
826.765	22143
826.904	22086
827.044	21854
827.183	21800
827.323	21564
827.462	21789
827.601	21675
827.741	21667
827.88	21762
828.02	21610
828.159	21705
828.298	21675
828.437	21671
828.577	21663
828.716	21667
828.855	21663
828.994	21348
829.134	21447
829.273	21473
829.412	21389
829.551	21264
829.69	21389
829.829	21382
829.968	21435
830.107	21523
830.246	21310
830.385	21431
830.524	21310
830.663	21214
830.802	20998
830.941	21051
831.08	21024
831.219	20918
831.357	21001
831.496	21176
831.635	20960
831.774	20765
831.913	20773
832.051	20906
832.19	20819
832.329	20914
832.467	20921
832.606	20735
832.744	20743
832.883	20895
833.022	20963
833.16	21169
833.299	21047
833.437	21245
833.576	21275
833.714	21545
833.852	21819
833.991	21774
834.129	21945
834.267	21915
834.406	21888
834.544	21816
834.682	21667
834.821	21557
834.959	21526
835.097	21207
835.235	21256
835.373	21302
835.511	21047
835.65	20849
835.788	20735
835.926	20552
836.064	20571
836.202	20556
836.34	20648
836.478	20655
836.615	20549
836.753	20552
836.891	20644
837.029	20507
837.167	20389
837.305	20469
837.443	20332
837.58	20355
837.718	20351
837.856	20309
837.993	20275
838.131	20271
838.269	20259
838.406	20362
838.544	20119
838.681	19989
838.819	19917
838.956	19830
839.094	19852
839.231	19841
839.369	19944
839.506	20046
839.643	20069
839.781	19917
839.918	19868
840.055	19704
840.193	19731
840.33	19689
840.467	19700
840.604	19723
840.742	19959
840.879	19575
841.016	19715
841.153	19658
841.29	19780
841.427	19715
841.564	19605
841.701	19742
841.838	19708
841.975	19712
842.112	19700
842.249	19529
842.385	19529
842.522	19674
842.659	19647
842.796	19445
842.933	19605
843.069	19556
843.206	19594
843.343	19715
843.479	19651
843.616	19750
843.752	19590
843.889	19609
844.025	19731
844.162	19723
844.298	19921
844.435	19932
844.571	20081
844.708	20461
844.844	20830
844.98	21245
845.117	21941
845.253	22824
845.389	24627
845.525	28051
845.661	33656
845.798	40329
845.934	45310
846.07	47155
846.206	45679
846.342	41242
846.478	34683
846.614	28797
846.75	25148
846.886	22949
847.022	21637
847.158	20655
847.294	20191
847.429	19837
847.565	19635
847.701	19609
847.837	19164
847.972	18875
848.108	19072
848.244	18905
848.379	18681
848.515	18658
848.65	18616
848.786	18604
848.921	18589
849.057	18635
849.192	18661
849.328	18448
849.463	18426
849.598	18437
849.734	18388
849.869	18323
850.004	18194
850.14	18171
850.275	18186
850.41	18087
850.545	18182
850.68	18117
850.815	18152
850.95	18224
851.085	18460
851.22	18372
851.355	18064
851.49	18057
851.625	18102
851.76	18079
851.895	18091
852.03	18041
852.165	18171
852.299	18155
852.434	18266
852.569	18232
852.703	18243
852.838	18334
852.973	18483
853.107	18467
853.242	18327
853.376	18197
853.511	18064
853.645	18285
853.78	18384
853.914	18365
854.048	18479
854.183	18410
854.317	18483
854.451	18574
854.585	18559
854.72	18410
854.854	18456
854.988	18357
855.122	18361
855.256	18072
855.39	18228
855.524	18254
855.658	18148
855.792	18258
855.926	18213
856.06	18083
856.194	18197
856.327	18060
856.461	18034
856.595	18026
856.729	17980
856.862	18133
856.996	17999
857.13	18129
857.263	18079
857.397	18049
857.53	17980
857.664	17969
857.797	18049
857.931	18011
858.064	17939
858.197	18060
858.331	17969
858.464	17775
858.597	17863
858.731	17889
858.864	17851
858.997	17802
859.13	17802
859.263	17935
859.396	17958
859.529	17859
859.662	17832
859.795	17828
859.928	17969
860.061	18057
860.194	17999
860.327	17802
860.46	17821
860.592	17893
860.725	17969
860.858	17885
860.99	17760
861.123	17737
861.256	17707
861.388	17859
861.521	18475
861.653	17821
861.786	17604
861.918	17668
862.05	17752
862.183	17756
862.315	17870
862.447	17840
862.58	17726
862.712	17570
862.844	17543
862.976	17577
863.108	17562
863.24	18083
863.372	17421
863.504	17501
863.636	17528
863.768	17524
863.9	17524
864.032	17459
864.164	17535
864.296	17611
864.428	17611
864.559	17627
864.691	17524
864.823	17444
864.954	17482
865.086	17505
865.217	17387
865.349	17372
865.48	17425
865.612	17337
865.743	17695
865.875	17551
866.006	17414
866.137	17459
866.269	17512
866.4	17455
866.531	17356
866.662	17239
866.793	17337
866.924	17455
867.055	17467
867.186	17383
867.317	17292
867.448	17307
867.579	17322
867.71	17311
867.841	17318
867.972	17425
868.103	17326
868.233	17387
868.364	17490
868.495	17619
868.625	17699
868.756	17665
868.886	17726
869.017	17653
869.147	17786
869.278	17786
869.408	17684
869.539	17608
869.669	17737
869.799	17737
869.929	17783
870.06	17783
870.19	18068
870.32	17996
870.45	18095
870.58	18060
870.71	18258
870.84	18159
870.97	18110
871.1	18194
871.23	18410
871.36	18399
871.489	18285
871.619	18281
871.749	18452
871.879	18448
872.008	18448
872.138	18460
872.267	18445
872.397	18201
872.526	18239
872.656	18388
872.785	18334
872.915	18525
873.044	18635
873.173	18620
873.303	18597
873.432	18574
873.561	18734
873.69	18623
873.819	18734
873.948	18650
874.077	18738
874.206	18787
874.335	18711
874.464	18829
874.593	19076
874.722	19027
874.851	19255
874.979	19236
875.108	19194
875.237	19225
875.365	19217
875.494	19339
875.623	19476
875.751	19396
875.88	19495
876.008	19586
876.136	19670
876.265	19982
876.393	20218
876.521	20062
876.65	20145
876.778	20218
876.906	20267
877.034	20122
877.162	20298
877.29	20351
877.418	20461
877.546	20590
877.674	20693
877.802	20754
877.93	20891
878.058	20925
878.185	21161
878.313	21519
878.441	21835
878.568	22067
878.696	22713
878.824	23627
878.951	24597
879.079	26142
879.206	28249
879.333	30053
879.461	31841
879.588	32876
879.715	32899
879.842	32107
879.97	30315
880.097	28074
880.224	26541
880.351	25415
880.478	24494
880.605	23855
880.732	23707
880.859	23490
880.986	23223
881.112	23098
881.239	23029
881.366	22763
881.493	22752
881.619	22512
881.746	22710
881.872	22660
881.999	22603
882.125	22713
882.252	22786
882.378	22843
882.505	22995
882.631	22763
882.757	22778
882.883	22748
883.01	22816
883.136	22694
883.262	22573
883.388	22489
883.514	22569
883.64	22691
883.766	22569
883.892	22470
884.018	22466
884.143	22447
884.269	22694
884.395	22371
884.52	22375
884.646	22508
884.772	22447
884.897	22337
885.023	22478
885.148	22557
885.274	22500
885.399	22344
885.524	22112
885.65	21983
885.775	21956
885.9	21865
886.025	21827
886.15	21629
886.275	21325
886.4	21146
886.525	21131
886.65	20925
886.775	20800
886.9	20880
887.025	20891
887.149	20598
887.274	20298
887.399	20259
887.523	20062
887.648	19898
887.773	19852
887.897	20058
888.021	19940
888.146	19689
888.27	19811
888.395	19616
888.519	19658
888.643	19597
888.767	19674
888.891	19411
889.015	19491
889.139	19221
889.263	19202
889.387	19247
889.511	19320
889.635	19236
889.759	19012
889.883	19027
890.006	19103
890.13	19080
890.254	18920
890.377	18939
890.501	18749
890.624	18642
890.748	18661
890.871	18441
890.995	18486
891.118	18384
891.241	18414
891.364	18273
891.488	18376
891.611	18342
891.734	18285
891.857	18292
891.98	18258
892.103	18201
892.226	18228
892.349	17973
892.471	17935
892.594	18003
892.717	18015
892.839	17984
892.962	17996
893.085	18041
893.207	17904
893.33	17718
893.452	17817
893.575	17931
893.697	17805
893.819	17889
893.941	18022
894.064	17946
894.186	17642
894.308	17710
894.43	17741
894.552	17813
894.674	17687
894.796	17592
894.918	17676
895.04	17509
895.161	17642
895.283	17486
895.405	17444
895.526	17600
895.648	17455
895.769	17535
895.891	17589
896.012	17573
896.134	17570
896.255	17501
896.376	17520
896.498	17482
896.619	17509
896.74	17463
896.861	17638
896.982	17767
897.103	17939
897.224	17821
897.345	17661
897.466	17512
897.587	17619
897.708	17703
897.828	17775
897.949	17566
898.07	17486
898.19	17592
898.311	17779
898.431	17756
898.552	17596
898.672	17676
898.792	17741
898.913	17691
899.033	17562
899.153	17493
899.273	17421
899.393	17524
899.513	17478
899.633	17539
899.753	17516
899.873	17429
899.993	17482
900.113	17379
900.232	17471
900.352	17406
900.472	17337
900.591	17250
900.711	17330
900.83	17258
900.95	17280
901.069	17387
901.189	17166
901.308	16957
901.427	16725
901.546	16850
901.665	16869
901.784	16892
901.904	16706
902.023	16611
902.141	16478
902.26	16447
902.379	16417
902.498	16325
902.617	16249
902.735	16451
902.854	16276
902.973	16280
903.091	16032
903.21	15994
903.328	16067
903.446	15846
903.565	15770
903.683	15823
903.801	15568
903.919	15732
904.038	15652
904.156	15603
904.274	15667
904.392	15488
904.51	15496
904.627	15507
904.745	15580
904.863	15523
904.981	15291
905.098	15222
905.216	15184
905.334	15173
905.451	15237
905.569	15184
905.686	15218
905.803	15135
905.921	14887
906.038	15104
906.155	14902
906.272	14864
906.389	14872
906.506	14746
906.623	14678
906.74	14674
906.857	14617
906.974	14640
907.091	14667
907.208	14785
907.324	14701
907.441	14541
907.557	14358
907.674	14404
907.79	14351
907.907	14320
908.023	14412
908.139	14431
908.256	14267
908.372	14172
908.488	14256
908.604	14088
908.72	14081
908.836	14138
908.952	13982
909.068	14126
909.184	14225
909.3	14145
909.415	14142
909.531	14069
909.647	13959
909.762	13852
909.878	13776
909.993	13883
910.108	13864
910.224	13830
910.339	13871
910.454	13731
910.57	13715
910.685	13582
910.8	13849
910.915	13826
911.03	13677
911.145	13597
911.259	13518
911.374	13499
911.489	13434
911.604	13365
911.718	13259
911.833	13251
911.947	13107
912.062	13012
912.176	13137
912.291	13297
912.405	13194
912.519	13335
912.633	13392
912.748	13282
912.862	13198
912.976	13061
913.09	12954
913.204	13091
913.318	13065
913.431	13122
913.545	13149
913.659	13202
913.772	13099
913.886	12928
914	13034
914.113	13072
914.226	13057
914.34	13004
914.453	12928
914.566	13015
914.68	12905
914.793	12837
914.906	12665
915.019	12585
915.132	12525
915.245	12730
915.358	12692
915.47	12681
915.583	12688
915.696	12703
915.809	12837
915.921	12779
916.034	12703
916.146	12623
916.259	12566
916.371	12665
916.483	12722
916.595	12582
916.708	12559
916.82	12620
916.932	12601
917.044	12574
917.156	12498
917.268	12460
917.38	12437
917.491	12429
917.603	12429
917.715	12517
917.826	12467
917.938	12388
918.049	12197
918.161	12346
918.272	12521
918.384	12540
918.495	12437
918.606	12205
918.717	12209
918.828	12235
918.939	12194
919.05	12076
919.161	12163
919.272	11980
919.383	12083
919.494	12277
919.604	12315
919.715	12136
919.826	11992
919.936	12182
920.047	12330
920.157	12224
920.267	12403
920.378	12201
920.488	12133
920.598	12273
920.708	12532
920.818	12258
920.928	12380
921.038	12544
921.148	12502
921.258	12110
921.368	12091
921.477	12003
921.587	11904
921.697	11737
921.806	11882
921.916	11798
922.025	11726
922.134	11562
922.244	11539
922.353	11665
922.462	11474
922.571	11440
922.68	11280
922.789	11299
922.898	11231
923.007	11136
923.116	11292
923.224	11334
923.333	11296
923.442	11178
923.55	11159
923.659	11246
923.767	11181
923.876	11014
923.984	11109
924.092	11124
924.201	11117
924.309	11098
924.417	11121
924.525	11006
924.633	11003
924.741	11813
924.849	10831
924.956	11014
925.064	10820
925.172	10714
925.279	10843
925.387	10866
925.494	10816
925.602	10930
925.709	10858
925.816	10801
925.924	10828
926.031	10820
926.138	10782
926.245	10797
926.352	10683
926.459	10847
926.566	10896
926.673	10790
926.779	10615
926.886	10653
926.993	10489
927.099	10470
927.206	10428
927.312	10386
927.419	10493
927.525	10481
927.631	10504
927.737	10432
927.843	10280
927.95	10181
928.056	10352
928.162	10280
928.267	10409
928.373	10927
928.479	10421
928.585	10204
928.69	10344
928.796	10329
928.901	10246
929.007	10032
929.112	10215
929.218	10166
929.323	10139
929.428	10097
929.533	10242
929.638	10071
929.743	10116
929.848	10230
929.953	10078
930.058	9998
930.163	9827
930.267	9804
930.372	9983
930.477	9827
930.581	10078
930.685	9941
930.79	9831
930.894	9800
930.998	9656
931.103	9903
931.207	9526
931.311	9481
931.415	9450
931.519	9233
931.623	9222
