Data from test_V78500241_2705.txt Node
Date: Fri Mar 25 14:52:33 CST 2022
User: usil
Spectrometer: V785-0024
Trigger mode: 0
Integration Time (sec): 4.000000E-1
Scans to average: 1
Nonlinearity correction enabled: false
Boxcar width: 0
Storing dark spectrum: false
XAxis mode: Wavelengths
Number of Pixels in Spectrum: 1024
>>>>>Begin Spectral Data<<<<<
801.071	22101
801.214	21903
801.356	21534
801.499	21534
801.641	21336
801.783	21260
801.926	21264
802.068	21329
802.211	21291
802.353	21058
802.496	20956
802.638	20925
802.78	20758
802.923	20842
803.065	20644
803.208	20720
803.35	20617
803.492	20842
803.635	20830
803.777	20765
803.919	20750
804.061	20990
804.204	20743
804.346	20625
804.488	20583
804.63	20769
804.773	20602
804.915	20632
805.057	20708
805.199	20640
805.341	20724
805.483	20739
805.626	20724
805.768	20659
805.91	20701
806.052	20667
806.194	20476
806.336	20754
806.478	20648
806.62	20617
806.762	20655
806.904	20826
807.046	20933
807.188	20956
807.33	20979
807.472	20929
807.614	20887
807.756	20899
807.898	20632
808.04	20545
808.182	20632
808.324	20667
808.465	20636
808.607	20929
808.749	21074
808.891	21100
809.033	21180
809.174	20975
809.316	20883
809.458	20941
809.6	20861
809.741	20948
809.883	21070
810.025	21093
810.166	21005
810.308	21112
810.45	21066
810.591	20948
810.733	20792
810.875	20853
811.016	20598
811.158	20598
811.299	20830
811.441	20868
811.582	20861
811.724	20735
811.865	20739
812.007	20609
812.148	20743
812.29	20819
812.431	20895
812.573	21001
812.714	21020
812.855	21260
812.997	21336
813.138	21496
813.279	21348
813.421	21329
813.562	21214
813.703	20933
813.845	20948
813.986	20609
814.127	20476
814.268	20339
814.41	20419
814.551	20244
814.692	20431
814.833	20248
814.974	20233
815.115	20225
815.256	20100
815.397	20046
815.539	20161
815.68	19989
815.821	19982
815.962	19978
816.103	19959
816.244	19864
816.385	19655
816.526	19788
816.666	19666
816.807	19487
816.948	19559
817.089	19556
817.23	19529
817.371	19460
817.512	19445
817.653	19445
817.793	19396
817.934	19411
818.075	19381
818.216	19396
818.356	19362
818.497	19274
818.638	19118
818.778	19133
818.919	19091
819.06	19133
819.2	19221
819.341	19419
819.481	19289
819.622	19445
819.762	19628
819.903	19635
820.043	19480
820.184	19392
820.324	19400
820.465	19533
820.605	19407
820.746	19377
820.886	19266
821.026	19335
821.167	19411
821.307	19445
821.447	19312
821.588	19190
821.728	19122
821.868	19061
822.008	18715
822.149	18852
822.289	18848
822.429	18566
822.569	18357
822.709	18498
822.849	18395
822.99	18334
823.13	18194
823.27	18258
823.41	18216
823.55	18098
823.69	18121
823.83	18121
823.97	18091
824.11	17920
824.25	17882
824.389	17840
824.529	17843
824.669	17961
824.809	18038
824.949	18083
825.089	17912
825.228	17840
825.368	17703
825.508	17726
825.648	17745
825.787	17771
825.927	17691
826.067	17691
826.206	17619
826.346	17786
826.485	17619
826.625	17783
826.765	17786
826.904	17653
827.044	17532
827.183	17372
827.323	17398
827.462	17391
827.601	17368
827.741	17440
827.88	17433
828.02	17197
828.159	17364
828.298	17372
828.437	17417
828.577	17341
828.716	17505
828.855	17258
828.994	17246
829.134	17189
829.273	17151
829.412	17242
829.551	17048
829.69	17117
829.829	17162
829.968	17292
830.107	17181
830.246	17220
830.385	17109
830.524	16991
830.663	16946
830.802	16900
830.941	16748
831.08	16744
831.219	16828
831.357	16831
831.496	17010
831.635	16786
831.774	16748
831.913	16603
832.051	16565
832.19	16573
832.329	16577
832.467	16432
832.606	16470
832.744	16405
832.883	16455
833.022	16466
833.16	16508
833.299	16466
833.437	16440
833.576	16561
833.714	16538
833.852	16531
833.991	16565
834.129	16527
834.267	16599
834.406	16489
834.544	16603
834.682	16489
834.821	16588
834.959	16626
835.097	16363
835.235	16615
835.373	16500
835.511	16542
835.65	16398
835.788	16394
835.926	16303
836.064	16158
836.202	16333
836.34	16504
836.478	16584
836.615	16394
836.753	16379
836.891	16443
837.029	16436
837.167	16405
837.305	16337
837.443	16325
837.58	16367
837.718	16322
837.856	16223
837.993	16242
838.131	16436
838.269	16169
838.406	16169
838.544	16185
838.681	16067
838.819	16071
838.956	15823
839.094	15781
839.231	15934
839.369	16040
839.506	16280
839.643	16116
839.781	15880
839.918	15831
840.055	15915
840.193	15751
840.33	15781
840.467	15918
840.604	15945
840.742	16017
840.879	15732
841.016	15751
841.153	15800
841.29	15876
841.427	15975
841.564	15907
841.701	15755
841.838	15819
841.975	15846
842.112	15739
842.249	15622
842.385	15618
842.522	15861
842.659	15618
842.796	15614
842.933	15637
843.069	15614
843.206	15542
843.343	15682
843.479	15694
843.616	15675
843.752	15485
843.889	15477
844.025	15610
844.162	15344
844.298	15561
844.435	15504
844.571	15405
844.708	15530
844.844	15629
844.98	15603
845.117	15675
845.253	15393
845.389	15340
845.525	15363
845.661	15321
845.798	15249
845.934	15306
846.07	15218
846.206	15298
846.342	15424
846.478	15241
846.614	15066
846.75	15017
846.886	15024
847.022	15173
847.158	14967
847.294	15047
847.429	15039
847.565	15001
847.701	15241
847.837	14727
847.972	14678
848.108	14796
848.244	14731
848.379	14594
848.515	14655
848.65	14564
848.786	14632
848.921	14598
849.057	14674
849.192	14670
849.328	14636
849.463	14579
849.598	14552
849.734	14469
849.869	14480
850.004	14355
850.14	14355
850.275	14408
850.41	14362
850.545	14381
850.68	14427
850.815	14415
850.95	14434
851.085	14507
851.22	14469
851.355	14362
851.49	14385
851.625	14290
851.76	14393
851.895	14263
852.03	14298
852.165	14339
852.299	14347
852.434	14461
852.569	14476
852.703	14423
852.838	14404
852.973	14530
853.107	14511
853.242	14393
853.376	14157
853.511	14161
853.645	14221
853.78	14389
853.914	14309
854.048	14275
854.183	14286
854.317	14294
854.451	14393
854.585	14183
854.72	14229
854.854	14320
854.988	14088
855.122	14229
855.256	14126
855.39	14298
855.524	14381
855.658	14275
855.792	14324
855.926	14263
856.06	14275
856.194	14328
856.327	14202
856.461	14081
856.595	14180
856.729	14100
856.862	14355
856.996	14336
857.13	14423
857.263	14473
857.397	14301
857.53	14286
857.664	14370
857.797	14256
857.931	14374
858.064	14263
858.197	14385
858.331	14237
858.464	14271
858.597	14142
858.731	14191
858.864	14240
858.997	14225
859.13	14355
859.263	14263
859.396	14339
859.529	14298
859.662	14153
859.795	14218
859.928	14294
860.061	14415
860.194	14454
860.327	14259
860.46	14278
860.592	14469
860.725	14419
860.858	14362
860.99	14233
861.123	14100
861.256	14183
861.388	14233
861.521	14819
861.653	14084
861.786	14084
861.918	14115
862.05	14233
862.183	14233
862.315	14301
862.447	14248
862.58	14256
862.712	14024
862.844	13906
862.976	14005
863.108	14081
863.24	14473
863.372	14031
863.504	14039
863.636	13970
863.768	14176
863.9	13982
864.032	13982
864.164	14031
864.296	14043
864.428	14020
864.559	14134
864.691	14107
864.823	14183
864.954	13997
865.086	14088
865.217	14012
865.349	13856
865.48	14081
865.612	14058
865.743	14111
865.875	13947
866.006	13944
866.137	14039
866.269	13997
866.4	13978
866.531	14043
866.662	13921
866.793	13860
866.924	14012
867.055	13978
867.186	14005
867.317	13959
867.448	14020
867.579	13982
867.71	13936
867.841	13913
867.972	13944
868.103	13967
868.233	14001
868.364	14077
868.495	14123
868.625	14187
868.756	14339
868.886	14168
869.017	14240
869.147	14381
869.278	14454
869.408	14275
869.539	14199
869.669	14358
869.799	14305
869.929	14339
870.06	14343
870.19	14590
870.32	14613
870.45	14545
870.58	14632
870.71	14731
870.84	14781
870.97	14743
871.1	14621
871.23	14895
871.36	14925
871.489	14724
871.619	14834
871.749	14819
871.879	14891
872.008	15020
872.138	14929
872.267	14777
872.397	14750
872.526	14708
872.656	14632
872.785	14785
872.915	14925
873.044	14963
873.173	14872
873.303	14948
873.432	15043
873.561	14914
873.69	14883
873.819	14883
873.948	14960
874.077	14910
874.206	14902
874.335	14853
874.464	15070
874.593	15176
874.722	15112
874.851	15214
874.979	15294
875.108	15165
875.237	15233
875.365	15112
875.494	15207
875.623	15264
875.751	15142
875.88	15230
876.008	15268
876.136	15401
876.265	15599
876.393	15804
876.521	15698
876.65	15770
876.778	15686
876.906	15595
877.034	15591
877.162	15526
877.29	15545
877.418	15694
877.546	15774
877.674	15610
877.802	15679
877.93	15705
878.058	15557
878.185	15496
878.313	15660
878.441	15606
878.568	15496
878.696	15561
878.824	15720
878.951	15781
879.079	15778
879.206	16074
879.333	15823
879.461	15637
879.588	15816
879.715	15793
879.842	15846
879.97	15652
880.097	15557
880.224	15500
880.351	15534
880.478	15485
880.605	15481
880.732	15405
880.859	15736
880.986	15454
881.112	15492
881.239	15370
881.366	15169
881.493	15226
881.619	15097
881.746	15119
881.872	15154
881.999	15173
882.125	15100
882.252	15245
882.378	15180
882.505	15260
882.631	15047
882.757	14975
882.883	15104
883.01	14956
883.136	15032
883.262	14807
883.388	14815
883.514	14906
883.64	15013
883.766	14998
883.892	14804
884.018	14804
884.143	14902
884.269	15032
884.395	14659
884.52	14640
884.646	14682
884.772	14590
884.897	14625
885.023	14697
885.148	14807
885.274	14861
885.399	14750
885.524	14575
885.65	14769
885.775	14640
885.9	14655
886.025	14769
886.15	14689
886.275	14617
886.4	14537
886.525	14560
886.65	14606
886.775	14632
886.9	14758
887.025	14811
887.149	14701
887.274	14564
887.399	14431
887.523	14412
887.648	14530
887.773	14423
887.897	14469
888.021	14571
888.146	14473
888.27	14495
888.395	14590
888.519	14552
888.643	14598
888.767	14594
888.891	14457
889.015	14336
889.139	14446
889.263	14404
889.387	14560
889.511	14533
889.635	14492
889.759	14381
889.883	14412
890.006	14301
890.13	14450
890.254	14309
890.377	14206
890.501	14134
890.624	14142
890.748	14286
890.871	14130
890.995	14111
891.118	13936
891.241	14084
891.364	14027
891.488	14176
891.611	14100
891.734	14073
891.857	14088
891.98	14016
892.103	14081
892.226	14187
892.349	14058
892.471	13917
892.594	13989
892.717	14016
892.839	14058
892.962	14043
893.085	14115
893.207	14008
893.33	14008
893.452	14031
893.575	14168
893.697	13932
893.819	14267
893.941	14256
894.064	14221
894.186	14027
894.308	14008
894.43	14252
894.552	14195
894.674	14180
894.796	14027
894.918	14263
895.04	14062
895.161	14225
895.283	14278
895.405	14050
895.526	14119
895.648	14248
895.769	14214
895.891	14282
896.012	14389
896.134	14263
896.255	14221
896.376	14248
896.498	14252
896.619	14313
896.74	14202
896.861	14320
896.982	14503
897.103	14746
897.224	14526
897.345	14465
897.466	14454
897.587	14507
897.708	14606
897.828	14560
897.949	14446
898.07	14385
898.19	14476
898.311	14571
898.431	14495
898.552	14549
898.672	14659
898.792	14659
898.913	14629
899.033	14507
899.153	14450
899.273	14313
899.393	14332
899.513	14427
899.633	14461
899.753	14423
899.873	14427
899.993	14446
900.113	14389
900.232	14484
900.352	14404
900.472	14374
900.591	14214
900.711	14305
900.83	14210
900.95	14320
901.069	14309
901.189	14286
901.308	14062
901.427	13947
901.546	14016
901.665	13970
901.784	13970
901.904	13947
902.023	13761
902.141	13533
902.26	13582
902.379	13670
902.498	13537
902.617	13556
902.735	13575
902.854	13548
902.973	13510
903.091	13354
903.21	13266
903.328	13240
903.446	13198
903.565	13023
903.683	13126
903.801	13091
903.919	13034
904.038	13027
904.156	12924
904.274	12954
904.392	12856
904.51	12848
904.627	12875
904.745	13012
904.863	12958
904.981	12757
905.098	12620
905.216	12646
905.334	12696
905.451	12642
905.569	12521
905.686	12631
905.803	12665
905.921	12460
906.038	12521
906.155	12445
906.272	12327
906.389	12296
906.506	12155
906.623	12205
906.74	12091
906.857	12133
906.974	12125
907.091	12315
907.208	12308
907.324	12285
907.441	12167
907.557	11999
907.674	11863
907.79	11946
907.907	11942
908.023	11927
908.139	11916
908.256	11931
908.372	11908
908.488	11874
908.604	11809
908.72	11737
908.836	11703
908.952	11699
909.068	11630
909.184	11798
909.3	11703
909.415	11920
909.531	11771
909.647	11543
909.762	11611
909.878	11493
909.993	11520
910.108	11505
910.224	11414
910.339	11543
910.454	11417
910.57	11330
910.685	11250
910.8	11551
910.915	11490
911.03	11360
911.145	11269
911.259	11239
911.374	11159
911.489	11121
911.604	11117
911.718	10938
911.833	10949
911.947	10828
912.062	10710
912.176	10904
912.291	10911
912.405	10919
912.519	11181
912.633	11185
912.748	11010
912.862	10995
912.976	10793
913.09	10721
913.204	10771
913.318	10816
913.431	10972
913.545	10938
913.659	10961
913.772	10835
913.886	10778
914	10668
914.113	10858
914.226	10778
914.34	10797
914.453	10729
914.566	10752
914.68	10649
914.793	10637
914.906	10462
915.019	10478
915.132	10341
915.245	10489
915.358	10443
915.47	10424
915.583	10440
915.696	10569
915.809	10565
915.921	10519
916.034	10466
916.146	10478
916.259	10428
916.371	10447
916.483	10508
916.595	10386
916.708	10443
916.82	10394
916.932	10394
917.044	10405
917.156	10310
917.268	10261
917.38	10280
917.491	10223
917.603	10348
917.715	10360
917.826	10371
917.938	10223
918.049	10181
918.161	10310
918.272	10459
918.384	10481
918.495	10333
918.606	10147
918.717	10131
918.828	10196
918.939	10227
919.05	10044
919.161	10204
919.272	9937
919.383	9972
919.494	10253
919.604	10367
919.715	10276
919.826	10082
919.936	10143
920.047	10219
920.157	10234
920.267	10447
920.378	10276
920.488	10223
920.598	10382
920.708	10512
920.818	10405
920.928	10466
921.038	10493
921.148	10550
921.258	10318
921.368	10128
921.477	10051
921.587	9975
921.697	9903
921.806	10048
921.916	9960
922.025	9835
922.134	9732
922.244	9671
922.353	9850
922.462	9629
922.571	9606
922.68	9431
922.789	9416
922.898	9393
923.007	9481
923.116	9428
923.224	9424
923.333	9408
923.442	9321
923.55	9363
923.659	9313
923.767	9317
923.876	9302
923.984	9363
924.092	9180
924.201	9291
924.309	9306
924.417	9275
924.525	9192
924.633	9218
924.741	10010
924.849	9051
924.956	9230
925.064	9123
925.172	9005
925.279	9043
925.387	9214
925.494	9039
925.602	9321
925.709	9195
925.816	9047
925.924	9127
926.031	9192
926.138	9093
926.245	9154
926.352	9055
926.459	9184
926.566	9233
926.673	9127
926.779	8921
926.886	8948
926.993	8925
927.099	8800
927.206	8766
927.312	8754
927.419	8845
927.525	8815
927.631	8800
927.737	8781
927.843	8735
927.95	8613
928.056	8686
928.162	8693
928.267	8743
928.373	9287
928.479	8807
928.585	8583
928.69	8720
928.796	8689
928.901	8663
929.007	8442
929.112	8739
929.218	8648
929.323	8545
929.428	8583
929.533	8655
929.638	8465
929.743	8476
929.848	8549
929.953	8522
930.058	8438
930.163	8252
930.267	8317
930.372	8488
930.477	8328
930.581	8461
930.685	8366
930.79	8195
930.894	8279
930.998	8195
931.103	8355
931.207	8027
931.311	7936
931.415	7940
931.519	7715
931.623	7681
