Data from test_V78500241_1232.txt Node
Date: Fri Mar 25 14:42:17 CST 2022
User: usil
Spectrometer: V785-0024
Trigger mode: 0
Integration Time (sec): 4.000000E-1
Scans to average: 1
Nonlinearity correction enabled: false
Boxcar width: 0
Storing dark spectrum: false
XAxis mode: Wavelengths
Number of Pixels in Spectrum: 1024
>>>>>Begin Spectral Data<<<<<
801.071	22386
801.214	22333
801.356	22055
801.499	21892
801.641	21816
801.783	21778
801.926	21698
802.068	21629
802.211	21603
802.353	21557
802.496	21154
802.638	21237
802.78	21252
802.923	21264
803.065	21112
803.208	21093
803.35	21013
803.492	21218
803.635	21146
803.777	21020
803.919	21169
804.061	21397
804.204	21116
804.346	21150
804.488	20929
804.63	21036
804.773	20815
804.915	21066
805.057	21138
805.199	20982
805.341	21028
805.483	21245
805.626	21119
805.768	20944
805.91	20986
806.052	20902
806.194	20880
806.336	21138
806.478	20956
806.62	20948
806.762	21066
806.904	21104
807.046	21545
807.188	21367
807.33	21313
807.472	21355
807.614	21306
807.756	21416
807.898	21165
808.04	21100
808.182	21188
808.324	21176
808.465	21146
808.607	21192
808.749	21367
808.891	21583
809.033	21675
809.174	21485
809.316	21462
809.458	21405
809.6	21412
809.741	21504
809.883	21469
810.025	21549
810.166	21606
810.308	21698
810.45	21428
810.591	21428
810.733	21302
810.875	21287
811.016	21085
811.158	20982
811.299	21161
811.441	21374
811.582	21279
811.724	21135
811.865	21188
812.007	21325
812.148	21169
812.29	21154
812.431	21340
812.573	21405
812.714	21606
812.855	21679
812.997	21705
813.138	21865
813.279	21622
813.421	21606
813.562	21701
813.703	21507
813.845	21355
813.986	20979
814.127	20868
814.268	20769
814.41	20716
814.551	20739
814.692	20830
814.833	20708
814.974	20678
815.115	20629
815.256	20465
815.397	20674
815.539	20590
815.68	20492
815.821	20396
815.962	20499
816.103	20396
816.244	20248
816.385	20180
816.526	20145
816.666	20027
816.807	19936
816.948	19944
817.089	19970
817.23	19913
817.371	19906
817.512	19750
817.653	19708
817.793	19799
817.934	19871
818.075	19944
818.216	19795
818.356	19864
818.497	19666
818.638	19529
818.778	19521
818.919	19647
819.06	19514
819.2	19769
819.341	19753
819.481	19864
819.622	19784
819.762	20088
819.903	20054
820.043	19997
820.184	19921
820.324	19913
820.465	19871
820.605	19849
820.746	19765
820.886	19818
821.026	19799
821.167	19833
821.307	19845
821.447	19750
821.588	19639
821.728	19582
821.868	19282
822.008	19335
822.149	19221
822.289	19179
822.429	19088
822.569	18947
822.709	19012
822.849	18772
822.99	18753
823.13	18768
823.27	18635
823.41	18547
823.55	18448
823.69	18593
823.83	18536
823.97	18467
824.11	18407
824.25	18391
824.389	18445
824.529	18506
824.669	18384
824.809	18456
824.949	18422
825.089	18456
825.228	18296
825.368	18239
825.508	18167
825.648	18209
825.787	18247
825.927	18216
826.067	18140
826.206	18034
826.346	18194
826.485	18194
826.625	18064
826.765	18228
826.904	18060
827.044	17901
827.183	17821
827.323	17733
827.462	17901
827.601	17802
827.741	17767
827.88	17885
828.02	17771
828.159	17767
828.298	17901
828.437	17977
828.577	17733
828.716	17992
828.855	17783
828.994	17604
829.134	17684
829.273	17623
829.412	17585
829.551	17573
829.69	17585
829.829	17577
829.968	17786
830.107	17532
830.246	17684
830.385	17566
830.524	17482
830.663	17459
830.802	17258
830.941	17345
831.08	17140
831.219	17303
831.357	17254
831.496	17318
831.635	17189
831.774	17185
831.913	17098
832.051	16934
832.19	17060
832.329	17052
832.467	16908
832.606	16961
832.744	16965
832.883	16965
833.022	16946
833.16	16900
833.299	16923
833.437	17006
833.576	17071
833.714	16862
833.852	17033
833.991	17045
834.129	17018
834.267	17022
834.406	16911
834.544	16999
834.682	17098
834.821	16877
834.959	17155
835.097	16934
835.235	16999
835.373	17022
835.511	17014
835.65	16793
835.788	16835
835.926	16862
836.064	16679
836.202	16748
836.34	16809
836.478	16923
836.615	16877
836.753	16976
836.891	16995
837.029	16847
837.167	16904
837.305	16820
837.443	16771
837.58	16797
837.718	16782
837.856	16801
837.993	16687
838.131	16752
838.269	16683
838.406	16580
838.544	16599
838.681	16466
838.819	16402
838.956	16337
839.094	16234
839.231	16295
839.369	16367
839.506	16653
839.643	16550
839.781	16318
839.918	16226
840.055	16363
840.193	16242
840.33	16272
840.467	16284
840.604	16322
840.742	16561
840.879	16166
841.016	16135
841.153	16226
841.29	16432
841.427	16356
841.564	16424
841.701	16295
841.838	16280
841.975	16124
842.112	16204
842.249	16192
842.385	16032
842.522	16268
842.659	16196
842.796	16067
842.933	15975
843.069	16006
843.206	16025
843.343	16204
843.479	16082
843.616	16078
843.752	15922
843.889	15846
844.025	16051
844.162	15778
844.298	15937
844.435	15804
844.571	15762
844.708	15884
844.844	16105
844.98	16078
845.117	15960
845.253	15915
845.389	15774
845.525	15793
845.661	15812
845.798	15793
845.934	15793
846.07	15644
846.206	15819
846.342	15861
846.478	15720
846.614	15534
846.75	15420
846.886	15412
847.022	15447
847.158	15439
847.294	15466
847.429	15469
847.565	15424
847.701	15660
847.837	15173
847.972	15142
848.108	15226
848.244	15329
848.379	15062
848.515	15013
848.65	15009
848.786	14929
848.921	15024
849.057	15070
849.192	15119
849.328	15028
849.463	15070
849.598	14925
849.734	14998
849.869	14933
850.004	14796
850.14	14853
850.275	14765
850.41	14769
850.545	14667
850.68	14735
850.815	14746
850.95	14811
851.085	14941
851.22	15013
851.355	14727
851.49	14716
851.625	14750
851.76	14842
851.895	14636
852.03	14552
852.165	14758
852.299	14845
852.434	14887
852.569	14864
852.703	14823
852.838	14944
852.973	14906
853.107	14899
853.242	14667
853.376	14632
853.511	14632
853.645	14682
853.78	14853
853.914	14648
854.048	14712
854.183	14651
854.317	14682
854.451	14842
854.585	14686
854.72	14693
854.854	14785
854.988	14549
855.122	14701
855.256	14522
855.39	14720
855.524	14724
855.658	14674
855.792	14689
855.926	14708
856.06	14598
856.194	14849
856.327	14606
856.461	14651
856.595	14610
856.729	14621
856.862	14735
856.996	14689
857.13	14689
857.263	14735
857.397	14743
857.53	14640
857.664	14777
857.797	14724
857.931	14823
858.064	14781
858.197	14823
858.331	14659
858.464	14636
858.597	14518
858.731	14655
858.864	14606
858.997	14632
859.13	14720
859.263	14697
859.396	14762
859.529	14571
859.662	14636
859.795	14606
859.928	14689
860.061	14811
860.194	14807
860.327	14735
860.46	14606
860.592	14773
860.725	14731
860.858	14815
860.99	14625
861.123	14693
861.256	14583
861.388	14545
861.521	15382
861.653	14522
861.786	14465
861.918	14507
862.05	14541
862.183	14659
862.315	14568
862.447	14678
862.58	14579
862.712	14461
862.844	14317
862.976	14568
863.108	14457
863.24	14921
863.372	14343
863.504	14404
863.636	14488
863.768	14522
863.9	14480
864.032	14355
864.164	14438
864.296	14389
864.428	14549
864.559	14366
864.691	14503
864.823	14480
864.954	14484
865.086	14511
865.217	14438
865.349	14393
865.48	14419
865.612	14389
865.743	14484
865.875	14526
866.006	14370
866.137	14396
866.269	14374
866.4	14393
866.531	14415
866.662	14355
866.793	14351
866.924	14469
867.055	14434
867.186	14309
867.317	14389
867.448	14370
867.579	14412
867.71	14259
867.841	14324
867.972	14377
868.103	14301
868.233	14423
868.364	14507
868.495	14480
868.625	14724
868.756	14678
868.886	14560
869.017	14598
869.147	14811
869.278	14712
869.408	14621
869.539	14530
869.669	14792
869.799	14621
869.929	14792
870.06	14773
870.19	14853
870.32	14948
870.45	14952
870.58	15093
870.71	15176
870.84	15249
870.97	14986
871.1	15024
871.23	15214
871.36	15306
871.489	15150
871.619	15233
871.749	15180
871.879	15226
872.008	15321
872.138	15275
872.267	15211
872.397	15195
872.526	15150
872.656	15112
872.785	15252
872.915	15302
873.044	15302
873.173	15348
873.303	15336
873.432	15397
873.561	15428
873.69	15222
873.819	15291
873.948	15336
874.077	15374
874.206	15233
874.335	15363
874.464	15428
874.593	15580
874.722	15584
874.851	15682
874.979	15587
875.108	15671
875.237	15542
875.365	15477
875.494	15534
875.623	15660
875.751	15614
875.88	15656
876.008	15724
876.136	15819
876.265	16101
876.393	16154
876.521	16181
876.65	16166
876.778	16074
876.906	15926
877.034	15934
877.162	15979
877.29	15949
877.418	16032
877.546	16063
877.674	16055
877.802	16097
877.93	16040
878.058	15991
878.185	15895
878.313	16051
878.441	15987
878.568	15838
878.696	16040
878.824	16010
878.951	16200
879.079	16162
879.206	16379
879.333	16150
879.461	16143
879.588	16219
879.715	16249
879.842	16310
879.97	16112
880.097	15953
880.224	15876
880.351	15972
880.478	15922
880.605	15823
880.732	15865
880.859	16162
880.986	15994
881.112	15774
881.239	15724
881.366	15660
881.493	15584
881.619	15431
881.746	15553
881.872	15568
881.999	15458
882.125	15481
882.252	15587
882.378	15576
882.505	15838
882.631	15473
882.757	15359
882.883	15450
883.01	15302
883.136	15340
883.262	15222
883.388	15272
883.514	15428
883.64	15458
883.766	15332
883.892	15279
884.018	15249
884.143	15321
884.269	15523
884.395	15093
884.52	15051
884.646	14967
884.772	15085
884.897	15005
885.023	15055
885.148	15176
885.274	15211
885.399	15222
885.524	15074
885.65	15104
885.775	15146
885.9	15123
886.025	15245
886.15	15116
886.275	14990
886.4	14952
886.525	15020
886.65	14990
886.775	15032
886.9	15154
887.025	15313
887.149	15070
887.274	14876
887.399	14883
887.523	14902
887.648	14861
887.773	14788
887.897	14952
888.021	14944
888.146	14815
888.27	14910
888.395	15093
888.519	15036
888.643	14948
888.767	14857
888.891	14750
889.015	14724
889.139	14716
889.263	14781
889.387	14902
889.511	14918
889.635	14785
889.759	14659
889.883	14682
890.006	14727
890.13	14819
890.254	14617
890.377	14697
890.501	14575
890.624	14545
890.748	14590
890.871	14442
890.995	14366
891.118	14336
891.241	14343
891.364	14385
891.488	14488
891.611	14301
891.734	14389
891.857	14400
891.98	14450
892.103	14484
892.226	14454
892.349	14480
892.471	14275
892.594	14389
892.717	14408
892.839	14358
892.962	14442
893.085	14465
893.207	14427
893.33	14332
893.452	14336
893.575	14537
893.697	14374
893.819	14636
893.941	14617
894.064	14617
894.186	14454
894.308	14393
894.43	14492
894.552	14686
894.674	14617
894.796	14351
894.918	14438
895.04	14404
895.161	14518
895.283	14526
895.405	14476
895.526	14484
895.648	14423
895.769	14522
895.891	14579
896.012	14594
896.134	14648
896.255	14511
896.376	14564
896.498	14606
896.619	14583
896.74	14549
896.861	14689
896.982	14883
897.103	15024
897.224	14975
897.345	14811
897.466	14811
897.587	14979
897.708	14967
897.828	14883
897.949	14838
898.07	14720
898.19	14777
898.311	15043
898.431	14792
898.552	14914
898.672	15142
898.792	15001
898.913	15020
899.033	14800
899.153	14857
899.273	14670
899.393	14712
899.513	14686
899.633	14811
899.753	14826
899.873	14674
899.993	14788
900.113	14716
900.232	14762
900.352	14773
900.472	14644
900.591	14731
900.711	14720
900.83	14667
900.95	14720
901.069	14720
901.189	14575
901.308	14332
901.427	14301
901.546	14301
901.665	14339
901.784	14393
901.904	14168
902.023	14069
902.141	13845
902.26	13856
902.379	13974
902.498	13864
902.617	13830
902.735	13879
902.854	13803
902.973	13776
903.091	13556
903.21	13597
903.328	13540
903.446	13457
903.565	13449
903.683	13396
903.801	13339
903.919	13392
904.038	13369
904.156	13232
904.274	13297
904.392	13209
904.51	13206
904.627	13194
904.745	13251
904.863	13384
904.981	12996
905.098	13038
905.216	12905
905.334	12985
905.451	12863
905.569	12905
905.686	12882
905.803	12905
905.921	12669
906.038	12825
906.155	12715
906.272	12620
906.389	12711
906.506	12574
906.623	12509
906.74	12547
906.857	12361
906.974	12384
907.091	12608
907.208	12654
907.324	12506
907.441	12410
907.557	12277
907.674	12300
907.79	12163
907.907	12144
908.023	12311
908.139	12357
908.256	12277
908.372	12121
908.488	12228
908.604	11980
908.72	11939
908.836	12011
908.952	12003
909.068	11980
909.184	12197
909.3	12041
909.415	12095
909.531	12038
909.647	11802
909.762	11718
909.878	11760
909.993	11817
910.108	11798
910.224	11821
910.339	11756
910.454	11752
910.57	11638
910.685	11600
910.8	11851
910.915	11783
911.03	11680
911.145	11573
911.259	11433
911.374	11452
911.489	11402
911.604	11368
911.718	11258
911.833	11227
911.947	11159
912.062	11109
912.176	11181
912.291	11322
912.405	11204
912.519	11436
912.633	11429
912.748	11315
912.862	11280
912.976	11140
913.09	11014
913.204	11086
913.318	11124
913.431	11231
913.545	11181
913.659	11277
913.772	11128
913.886	11033
914	10908
914.113	11132
914.226	11098
914.34	11052
914.453	10915
914.566	11102
914.68	10862
914.793	10915
914.906	10797
915.019	10687
915.132	10641
915.245	10706
915.358	10767
915.47	10691
915.583	10752
915.696	10778
915.809	10900
915.921	10835
916.034	10725
916.146	10694
916.259	10641
916.371	10889
916.483	10653
916.595	10546
916.708	10611
916.82	10675
916.932	10656
917.044	10634
917.156	10637
917.268	10519
917.38	10527
917.491	10554
917.603	10531
917.715	10603
917.826	10626
917.938	10527
918.049	10443
918.161	10523
918.272	10736
918.384	10660
918.495	10542
918.606	10504
918.717	10348
918.828	10523
918.939	10512
919.05	10337
919.161	10466
919.272	10272
919.383	10363
919.494	10500
919.604	10702
919.715	10459
919.826	10325
919.936	10390
920.047	10558
920.157	10417
920.267	10645
920.378	10455
920.488	10421
920.598	10622
920.708	10759
920.818	10698
920.928	10626
921.038	10702
921.148	10771
921.258	10402
921.368	10417
921.477	10325
921.587	10337
921.697	10204
921.806	10352
921.916	10173
922.025	9960
922.134	9983
922.244	9930
922.353	10055
922.462	9880
922.571	9869
922.68	9648
922.789	9705
922.898	9667
923.007	9633
923.116	9682
923.224	9660
923.333	9671
923.442	9488
923.55	9549
923.659	9618
923.767	9622
923.876	9542
923.984	9622
924.092	9523
924.201	9576
924.309	9587
924.417	9618
924.525	9507
924.633	9454
924.741	10227
924.849	9325
924.956	9397
925.064	9351
925.172	9233
925.279	9291
925.387	9408
925.494	9329
925.602	9458
925.709	9450
925.816	9173
925.924	9302
926.031	9424
926.138	9317
926.245	9393
926.352	9283
926.459	9332
926.566	9420
926.673	9260
926.779	9184
926.886	9188
926.993	9028
927.099	9036
927.206	8990
927.312	8986
927.419	9066
927.525	8994
927.631	9070
927.737	8998
927.843	8933
927.95	8811
928.056	8883
928.162	9009
928.267	8952
928.373	9564
928.479	8952
928.585	8781
928.69	8933
928.796	8990
928.901	8876
929.007	8716
929.112	8845
929.218	8800
929.323	8773
929.428	8754
929.533	8842
929.638	8701
929.743	8750
929.848	8785
929.953	8693
930.058	8606
930.163	8469
930.267	8560
930.372	8720
930.477	8526
930.581	8705
930.685	8541
930.79	8454
930.894	8457
930.998	8473
931.103	8556
931.207	8267
931.311	8172
931.415	8130
931.519	7898
931.623	7932
