Data from test_V78500241_3281.txt Node
Date: Fri Mar 25 14:56:33 CST 2022
User: usil
Spectrometer: V785-0024
Trigger mode: 0
Integration Time (sec): 4.000000E-1
Scans to average: 1
Nonlinearity correction enabled: false
Boxcar width: 0
Storing dark spectrum: false
XAxis mode: Wavelengths
Number of Pixels in Spectrum: 1024
>>>>>Begin Spectral Data<<<<<
801.071	22074
801.214	21922
801.356	21717
801.499	21519
801.641	21416
801.783	21405
801.926	21462
802.068	21298
802.211	21313
802.353	21127
802.496	21009
802.638	20861
802.78	20750
802.923	20670
803.065	20606
803.208	20716
803.35	20796
803.492	20785
803.635	20872
803.777	20845
803.919	20769
804.061	20967
804.204	20849
804.346	20613
804.488	20488
804.63	20670
804.773	20613
804.915	20609
805.057	20716
805.199	20423
805.341	20708
805.483	20678
805.626	20754
805.768	20446
805.91	20617
806.052	20552
806.194	20396
806.336	20792
806.478	20560
806.62	20590
806.762	20644
806.904	20785
807.046	20941
807.188	20876
807.33	20963
807.472	20902
807.614	20800
807.756	20842
807.898	20705
808.04	20655
808.182	20720
808.324	20587
808.465	20693
808.607	20891
808.749	20986
808.891	21066
809.033	21154
809.174	21001
809.316	20830
809.458	20948
809.6	20811
809.741	21055
809.883	21020
810.025	21028
810.166	21112
810.308	21116
810.45	21112
810.591	21024
810.733	20948
810.875	20735
811.016	20518
811.158	20655
811.299	20686
811.441	20921
811.582	20845
811.724	20830
811.865	20663
812.007	20579
812.148	20769
812.29	20689
812.431	20895
812.573	21024
812.714	21074
812.855	21264
812.997	21389
813.138	21469
813.279	21249
813.421	21203
813.562	21013
813.703	21001
813.845	20914
813.986	20484
814.127	20480
814.268	20339
814.41	20233
814.551	20282
814.692	20275
814.833	20271
814.974	20172
815.115	20275
815.256	20103
815.397	20107
815.539	20202
815.68	20024
815.821	19906
815.962	20058
816.103	19951
816.244	19837
816.385	19841
816.526	19742
816.666	19544
816.807	19422
816.948	19464
817.089	19586
817.23	19529
817.371	19301
817.512	19392
817.653	19247
817.793	19411
817.934	19324
818.075	19293
818.216	19358
818.356	19304
818.497	19225
818.638	19095
818.778	19065
818.919	19126
819.06	19091
819.2	19236
819.341	19255
819.481	19240
819.622	19457
819.762	19559
819.903	19392
820.043	19381
820.184	19407
820.324	19327
820.465	19407
820.605	19381
820.746	19411
820.886	19209
821.026	19438
821.167	19247
821.307	19358
821.447	19213
821.588	19179
821.728	19057
821.868	18897
822.008	18814
822.149	18840
822.289	18646
822.429	18479
822.569	18407
822.709	18426
822.849	18209
822.99	18251
823.13	18235
823.27	18216
823.41	18076
823.55	18114
823.69	18163
823.83	18106
823.97	18133
824.11	17832
824.25	17866
824.389	17817
824.529	17988
824.669	17802
824.809	17950
824.949	17996
825.089	17923
825.228	17843
825.368	17646
825.508	17741
825.648	17630
825.787	17703
825.927	17680
826.067	17589
826.206	17638
826.346	17581
826.485	17687
826.625	17566
826.765	17813
826.904	17634
827.044	17421
827.183	17349
827.323	17227
827.462	17391
827.601	17414
827.741	17345
827.88	17273
828.02	17292
828.159	17254
828.298	17223
828.437	17345
828.577	17280
828.716	17421
828.855	17330
828.994	17105
829.134	17208
829.273	17052
829.412	17098
829.551	17018
829.69	17147
829.829	17083
829.968	17220
830.107	17155
830.246	17174
830.385	17060
830.524	16938
830.663	16953
830.802	16866
830.941	16736
831.08	16733
831.219	16721
831.357	16725
831.496	16934
831.635	16691
831.774	16599
831.913	16691
832.051	16504
832.19	16481
832.329	16535
832.467	16341
832.606	16261
832.744	16356
832.883	16432
833.022	16382
833.16	16405
833.299	16478
833.437	16546
833.576	16394
833.714	16455
833.852	16504
833.991	16466
834.129	16531
834.267	16512
834.406	16432
834.544	16485
834.682	16478
834.821	16417
834.959	16577
835.097	16360
835.235	16554
835.373	16413
835.511	16451
835.65	16428
835.788	16352
835.926	16192
836.064	16238
836.202	16246
836.34	16508
836.478	16424
836.615	16280
836.753	16352
836.891	16478
837.029	16432
837.167	16234
837.305	16249
837.443	16314
837.58	16253
837.718	16238
837.856	16238
837.993	16150
838.131	16242
838.269	16071
838.406	16188
838.544	16135
838.681	16074
838.819	15926
838.956	15899
839.094	15816
839.231	15876
839.369	15945
839.506	16223
839.643	16025
839.781	15850
839.918	15781
840.055	15778
840.193	15660
840.33	15785
840.467	15759
840.604	15827
840.742	16032
840.879	15671
841.016	15762
841.153	15686
841.29	15873
841.427	15888
841.564	15854
841.701	15705
841.838	15789
841.975	15724
842.112	15679
842.249	15572
842.385	15564
842.522	15713
842.659	15603
842.796	15469
842.933	15545
843.069	15507
843.206	15542
843.343	15671
843.479	15584
843.616	15511
843.752	15439
843.889	15351
844.025	15443
844.162	15363
844.298	15530
844.435	15416
844.571	15233
844.708	15389
844.844	15515
844.98	15511
845.117	15401
845.253	15382
845.389	15283
845.525	15226
845.661	15241
845.798	15184
845.934	15199
846.07	15112
846.206	15070
846.342	15245
846.478	15157
846.614	15043
846.75	14914
846.886	14891
847.022	15150
847.158	14891
847.294	14967
847.429	14864
847.565	14925
847.701	15199
847.837	14777
847.972	14640
848.108	14750
848.244	14765
848.379	14575
848.515	14610
848.65	14530
848.786	14526
848.921	14427
849.057	14617
849.192	14537
849.328	14514
849.463	14442
849.598	14492
849.734	14552
849.869	14450
850.004	14309
850.14	14400
850.275	14351
850.41	14252
850.545	14252
850.68	14271
850.815	14278
850.95	14313
851.085	14495
851.22	14408
851.355	14298
851.49	14301
851.625	14290
851.76	14256
851.895	14183
852.03	14218
852.165	14202
852.299	14328
852.434	14339
852.569	14355
852.703	14301
852.838	14446
852.973	14423
853.107	14400
853.242	14362
853.376	14142
853.511	14107
853.645	14111
853.78	14305
853.914	14244
854.048	14206
854.183	14115
854.317	14237
854.451	14415
854.585	14244
854.72	14183
854.854	14195
854.988	14142
855.122	14050
855.256	14077
855.39	14172
855.524	14237
855.658	14202
855.792	14176
855.926	14191
856.06	14256
856.194	14358
856.327	14244
856.461	14024
856.595	14130
856.729	14119
856.862	14233
856.996	14282
857.13	14210
857.263	14195
857.397	14336
857.53	14202
857.664	14256
857.797	14195
857.931	14294
858.064	14195
858.197	14305
858.331	14111
858.464	14065
858.597	14081
858.731	14180
858.864	14107
858.997	14153
859.13	14145
859.263	14088
859.396	14210
859.529	14103
859.662	14134
859.795	14084
859.928	14233
860.061	14278
860.194	14358
860.327	14180
860.46	14161
860.592	14309
860.725	14317
860.858	14317
860.99	14164
861.123	14077
861.256	14176
861.388	14172
861.521	14979
861.653	14119
861.786	14130
861.918	14050
862.05	14073
862.183	14111
862.315	14191
862.447	14130
862.58	14103
862.712	14012
862.844	13879
862.976	13989
863.108	13982
863.24	14393
863.372	13799
863.504	13925
863.636	14024
863.768	13921
863.9	13974
864.032	13970
864.164	13917
864.296	13947
864.428	14008
864.559	14054
864.691	14046
864.823	14043
864.954	13970
865.086	13951
865.217	13906
865.349	13894
865.48	13917
865.612	13955
865.743	14142
865.875	13909
866.006	13932
866.137	13913
866.269	13864
866.4	13928
866.531	13871
866.662	13807
866.793	13830
866.924	13890
867.055	13967
867.186	13906
867.317	13883
867.448	13852
867.579	13955
867.71	13871
867.841	13780
867.972	13997
868.103	13940
868.233	13955
868.364	13909
868.495	13970
868.625	14149
868.756	14229
868.886	14069
869.017	14187
869.147	14366
869.278	14355
869.408	14183
869.539	14233
869.669	14267
869.799	14244
869.929	14336
870.06	14301
870.19	14469
870.32	14511
870.45	14503
870.58	14739
870.71	14731
870.84	14625
870.97	14617
871.1	14533
871.23	14834
871.36	14819
871.489	14594
871.619	14765
871.749	14864
871.879	14746
872.008	14849
872.138	14815
872.267	14849
872.397	14632
872.526	14518
872.656	14552
872.785	14686
872.915	14807
873.044	14857
873.173	14830
873.303	14834
873.432	14868
873.561	14872
873.69	14899
873.819	14838
873.948	14941
874.077	14804
874.206	14876
874.335	14887
874.464	15020
874.593	15157
874.722	15020
874.851	15233
874.979	15142
875.108	15348
875.237	15093
875.365	15066
875.494	15245
875.623	15237
875.751	15116
875.88	15214
876.008	15279
876.136	15397
876.265	15599
876.393	15720
876.521	15679
876.65	15591
876.778	15587
876.906	15477
877.034	15496
877.162	15561
877.29	15473
877.418	15530
877.546	15580
877.674	15561
877.802	15526
877.93	15557
878.058	15515
878.185	15488
878.313	15553
878.441	15576
878.568	15416
878.696	15477
878.824	15633
878.951	15580
879.079	15755
879.206	15846
879.333	15713
879.461	15656
879.588	15648
879.715	15751
879.842	15759
879.97	15682
880.097	15454
880.224	15378
880.351	15466
880.478	15420
880.605	15431
880.732	15435
880.859	15633
880.986	15424
881.112	15557
881.239	15310
881.366	15233
881.493	15119
881.619	15165
881.746	15062
881.872	15157
881.999	14990
882.125	15017
882.252	15157
882.378	15100
882.505	15279
882.631	14982
882.757	14895
882.883	14971
883.01	14921
883.136	14902
883.262	14823
883.388	14769
883.514	14952
883.64	14891
883.766	14792
883.892	14727
884.018	14705
884.143	14914
884.269	14990
884.395	14682
884.52	14613
884.646	14587
884.772	14549
884.897	14522
885.023	14610
885.148	14716
885.274	14815
885.399	14689
885.524	14701
885.65	14689
885.775	14613
885.9	14503
886.025	14750
886.15	14583
886.275	14571
886.4	14438
886.525	14651
886.65	14518
886.775	14583
886.9	14758
887.025	14876
887.149	14613
887.274	14518
887.399	14431
887.523	14393
887.648	14358
887.773	14415
887.897	14442
888.021	14461
888.146	14351
888.27	14541
888.395	14610
888.519	14473
888.643	14438
888.767	14396
888.891	14324
889.015	14214
889.139	14286
889.263	14282
889.387	14389
889.511	14507
889.635	14423
889.759	14351
889.883	14267
890.006	14438
890.13	14469
890.254	14180
890.377	14233
890.501	14111
890.624	14096
890.748	14183
890.871	14062
890.995	13989
891.118	13830
891.241	14001
891.364	14027
891.488	14153
891.611	13871
891.734	14043
891.857	13993
891.98	13917
892.103	14069
892.226	14153
892.349	13978
892.471	13799
892.594	13928
892.717	13993
892.839	14046
892.962	14001
893.085	13993
893.207	14050
893.33	13860
893.452	13940
893.575	14077
893.697	14001
893.819	14221
893.941	14199
894.064	14100
894.186	14001
894.308	13902
894.43	14153
894.552	14256
894.674	14168
894.796	13925
894.918	14103
895.04	14035
895.161	14164
895.283	14103
895.405	14073
895.526	14107
895.648	14084
895.769	14149
895.891	14240
896.012	14248
896.134	14218
896.255	14092
896.376	14176
896.498	14225
896.619	14199
896.74	14180
896.861	14244
896.982	14503
897.103	14625
897.224	14514
897.345	14469
897.466	14298
897.587	14362
897.708	14537
897.828	14461
897.949	14412
898.07	14278
898.19	14469
898.311	14560
898.431	14492
898.552	14590
898.672	14625
898.792	14655
898.913	14568
899.033	14511
899.153	14465
899.273	14298
899.393	14370
899.513	14370
899.633	14366
899.753	14374
899.873	14324
899.993	14507
900.113	14415
900.232	14431
900.352	14415
900.472	14237
900.591	14202
900.711	14202
900.83	14286
900.95	14362
901.069	14351
901.189	14157
901.308	13925
901.427	13852
901.546	13928
901.665	13917
901.784	13944
901.904	13830
902.023	13715
902.141	13537
902.26	13495
902.379	13483
902.498	13483
902.617	13460
902.735	13502
902.854	13483
902.973	13430
903.091	13244
903.21	13206
903.328	13206
903.446	13171
903.565	13050
903.683	13069
903.801	12973
903.919	13057
904.038	13031
904.156	12833
904.274	13004
904.392	12833
904.51	12760
904.627	12848
904.745	13042
904.863	12943
904.981	12681
905.098	12532
905.216	12650
905.334	12646
905.451	12585
905.569	12494
905.686	12662
905.803	12563
905.921	12445
906.038	12467
906.155	12441
906.272	12369
906.389	12350
906.506	12224
906.623	12175
906.74	12034
906.857	11988
906.974	12148
907.091	12182
907.208	12361
907.324	12235
907.441	12148
907.557	11935
907.674	11927
907.79	11790
907.907	11916
908.023	11904
908.139	11908
908.256	11942
908.372	11878
908.488	11786
908.604	11699
908.72	11649
908.836	11627
908.952	11585
909.068	11646
909.184	11775
909.3	11729
909.415	11726
909.531	11699
909.647	11516
909.762	11398
909.878	11341
909.993	11421
910.108	11364
910.224	11490
910.339	11486
910.454	11277
910.57	11246
910.685	11265
910.8	11509
910.915	11429
911.03	11250
911.145	11121
911.259	11166
911.374	11075
911.489	11086
911.604	11071
911.718	10900
911.833	10885
911.947	10759
912.062	10687
912.176	10866
912.291	10911
912.405	10866
912.519	11136
912.633	11178
912.748	10919
912.862	10953
912.976	10820
913.09	10694
913.204	10797
913.318	10740
913.431	10908
913.545	10824
913.659	10892
913.772	10759
913.886	10683
914	10660
914.113	10771
914.226	10778
914.34	10752
914.453	10580
914.566	10744
914.68	10645
914.793	10538
914.906	10451
915.019	10424
915.132	10322
915.245	10409
915.358	10459
915.47	10306
915.583	10436
915.696	10470
915.809	10611
915.921	10523
916.034	10413
916.146	10356
916.259	10398
916.371	10489
916.483	10440
916.595	10265
916.708	10272
916.82	10306
916.932	10333
917.044	10306
917.156	10352
917.268	10185
917.38	10261
917.491	10253
917.603	10284
917.715	10223
917.826	10363
917.938	10227
918.049	10120
918.161	10219
918.272	10459
918.384	10413
918.495	10287
918.606	10074
918.717	10078
918.828	10188
918.939	10139
919.05	10048
919.161	10105
919.272	9937
919.383	9934
919.494	10227
919.604	10322
919.715	10150
919.826	10055
919.936	10120
920.047	10215
920.157	10154
920.267	10303
920.378	10169
920.488	10120
920.598	10318
920.708	10512
920.818	10348
920.928	10318
921.038	10489
921.148	10462
921.258	10211
921.368	10036
921.477	10063
921.587	10055
921.697	9888
921.806	10048
921.916	9831
922.025	9720
922.134	9751
922.244	9599
922.353	9698
922.462	9667
922.571	9481
922.68	9431
922.789	9401
922.898	9412
923.007	9348
923.116	9393
923.224	9408
923.333	9454
923.442	9306
923.55	9226
923.659	9370
923.767	9359
923.876	9233
923.984	9321
924.092	9233
924.201	9214
924.309	9253
924.417	9325
924.525	9131
924.633	9199
924.741	10147
924.849	9013
924.956	9230
925.064	9043
925.172	8918
925.279	9058
925.387	9150
925.494	9093
925.602	9150
925.709	9123
925.816	8994
925.924	9093
926.031	9066
926.138	9097
926.245	9127
926.352	8944
926.459	9070
926.566	9108
926.673	9051
926.779	8853
926.886	8906
926.993	8720
927.099	8796
927.206	8697
927.312	8754
927.419	8815
927.525	8750
927.631	8823
927.737	8731
927.843	8629
927.95	8594
928.056	8651
928.162	8667
928.267	8712
928.373	9256
928.479	8746
928.585	8507
928.69	8610
928.796	8697
928.901	8556
929.007	8473
929.112	8541
929.218	8533
929.323	8537
929.428	8461
929.533	8602
929.638	8374
929.743	8476
929.848	8480
929.953	8469
930.058	8389
930.163	8267
930.267	8328
930.372	8419
930.477	8267
930.581	8389
930.685	8385
930.79	8210
930.894	8218
930.998	8195
931.103	8339
931.207	8031
931.311	7955
931.415	7913
931.519	7719
931.623	7704
