Data from test_V78500241_3355.txt Node
Date: Fri Mar 25 14:57:04 CST 2022
User: usil
Spectrometer: V785-0024
Trigger mode: 0
Integration Time (sec): 4.000000E-1
Scans to average: 1
Nonlinearity correction enabled: false
Boxcar width: 0
Storing dark spectrum: false
XAxis mode: Wavelengths
Number of Pixels in Spectrum: 1024
>>>>>Begin Spectral Data<<<<<
801.071	21945
801.214	21800
801.356	21561
801.499	21587
801.641	21431
801.783	21283
801.926	21393
802.068	21378
802.211	21241
802.353	21093
802.496	20807
802.638	20819
802.78	20739
802.923	20750
803.065	20629
803.208	20480
803.35	20720
803.492	20743
803.635	20693
803.777	20587
803.919	20720
804.061	21119
804.204	20609
804.346	20583
804.488	20651
804.63	20667
804.773	20564
804.915	20492
805.057	20613
805.199	20461
805.341	20609
805.483	20533
805.626	20530
805.768	20507
805.91	20579
806.052	20545
806.194	20412
806.336	20682
806.478	20404
806.62	20393
806.762	20602
806.904	20720
807.046	20868
807.188	20785
807.33	20880
807.472	20887
807.614	20708
807.756	20705
807.898	20716
808.04	20632
808.182	20446
808.324	20727
808.465	20682
808.607	20895
808.749	21039
808.891	21028
809.033	21036
809.174	20944
809.316	20914
809.458	20769
809.6	20864
809.741	20906
809.883	20963
810.025	21013
810.166	21009
810.308	20967
810.45	21032
810.591	20914
810.733	20720
810.875	20705
811.016	20651
811.158	20454
811.299	20659
811.441	20762
811.582	20811
811.724	20648
811.865	20549
812.007	20606
812.148	20651
812.29	20735
812.431	20925
812.573	20891
812.714	21017
812.855	21116
812.997	21188
813.138	21336
813.279	21119
813.421	21287
813.562	20994
813.703	20941
813.845	20765
813.986	20461
814.127	20313
814.268	20252
814.41	20199
814.551	20263
814.692	20278
814.833	20259
814.974	20161
815.115	20267
815.256	19982
815.397	20149
815.539	20065
815.68	19841
815.821	19807
815.962	19917
816.103	19982
816.244	19742
816.385	19704
816.526	19700
816.666	19430
816.807	19388
816.948	19430
817.089	19407
817.23	19419
817.371	19331
817.512	19236
817.653	19327
817.793	19209
817.934	19304
818.075	19350
818.216	19274
818.356	19225
818.497	19133
818.638	19084
818.778	18981
818.919	18989
819.06	19080
819.2	19221
819.341	19148
819.481	19236
819.622	19270
819.762	19506
819.903	19381
820.043	19403
820.184	19293
820.324	19369
820.465	19285
820.605	19396
820.746	19293
820.886	19190
821.026	19293
821.167	19339
821.307	19320
821.447	19308
821.588	19122
821.728	18954
821.868	18837
822.008	18848
822.149	18764
822.289	18700
822.429	18399
822.569	18418
822.709	18407
822.849	18292
822.99	18369
823.13	18163
823.27	18133
823.41	18102
823.55	17897
823.69	18041
823.83	18148
823.97	17912
824.11	17882
824.25	17687
824.389	17901
824.529	17916
824.669	17786
824.809	17912
824.949	17942
825.089	17863
825.228	17794
825.368	17695
825.508	17589
825.648	17634
825.787	17619
825.927	17672
826.067	17467
826.206	17543
826.346	17547
826.485	17608
826.625	17592
826.765	17585
826.904	17558
827.044	17429
827.183	17231
827.323	17140
827.462	17402
827.601	17326
827.741	17254
827.88	17197
828.02	17166
828.159	17185
828.298	17311
828.437	17239
828.577	17246
828.716	17395
828.855	17235
828.994	17086
829.134	16987
829.273	17067
829.412	17121
829.551	17025
829.69	17033
829.829	16968
829.968	17102
830.107	17105
830.246	17048
830.385	16911
830.524	16911
830.663	16850
830.802	16805
830.941	16725
831.08	16717
831.219	16706
831.357	16729
831.496	16889
831.635	16694
831.774	16561
831.913	16485
832.051	16405
832.19	16421
832.329	16584
832.467	16409
832.606	16223
832.744	16318
832.883	16272
833.022	16303
833.16	16314
833.299	16493
833.437	16341
833.576	16436
833.714	16379
833.852	16432
833.991	16424
834.129	16478
834.267	16470
834.406	16394
834.544	16424
834.682	16363
834.821	16360
834.959	16615
835.097	16390
835.235	16558
835.373	16531
835.511	16424
835.65	16352
835.788	16318
835.926	16044
836.064	16116
836.202	16169
836.34	16363
836.478	16386
836.615	16246
836.753	16215
836.891	16379
837.029	16337
837.167	16413
837.305	16295
837.443	16204
837.58	16109
837.718	16352
837.856	16272
837.993	16124
838.131	16143
838.269	16139
838.406	16166
838.544	16109
838.681	15854
838.819	15850
838.956	15766
839.094	15778
839.231	15759
839.369	15865
839.506	16185
839.643	15998
839.781	15816
839.918	15652
840.055	15823
840.193	15766
840.33	15797
840.467	15873
840.604	15800
840.742	16036
840.879	15641
841.016	15580
841.153	15633
841.29	15838
841.427	15747
841.564	15751
841.701	15755
841.838	15701
841.975	15599
842.112	15625
842.249	15542
842.385	15576
842.522	15739
842.659	15644
842.796	15431
842.933	15572
843.069	15542
843.206	15561
843.343	15622
843.479	15549
843.616	15523
843.752	15317
843.889	15329
844.025	15469
844.162	15302
844.298	15310
844.435	15401
844.571	15298
844.708	15382
844.844	15477
844.98	15534
845.117	15374
845.253	15268
845.389	15207
845.525	15230
845.661	15218
845.798	15169
845.934	15249
846.07	15176
846.206	15180
846.342	15237
846.478	15131
846.614	14948
846.75	14811
846.886	14891
847.022	14944
847.158	14891
847.294	14849
847.429	14895
847.565	14891
847.701	15074
847.837	14678
847.972	14746
848.108	14804
848.244	14743
848.379	14617
848.515	14469
848.65	14492
848.786	14530
848.921	14545
849.057	14606
849.192	14587
849.328	14571
849.463	14526
849.598	14484
849.734	14484
849.869	14370
850.004	14328
850.14	14332
850.275	14317
850.41	14077
850.545	14191
850.68	14176
850.815	14347
850.95	14347
851.085	14488
851.22	14381
851.355	14320
851.49	14225
851.625	14210
851.76	14202
851.895	14164
852.03	14149
852.165	14252
852.299	14263
852.434	14389
852.569	14282
852.703	14389
852.838	14313
852.973	14423
853.107	14370
853.242	14225
853.376	14111
853.511	14027
853.645	14103
853.78	14199
853.914	14199
854.048	14191
854.183	14130
854.317	14157
854.451	14301
854.585	14084
854.72	14168
854.854	14187
854.988	14046
855.122	14138
855.256	13951
855.39	14229
855.524	14298
855.658	14191
855.792	14164
855.926	14248
856.06	14176
856.194	14275
856.327	14130
856.461	14073
856.595	14100
856.729	14046
856.862	14275
856.996	14153
857.13	14301
857.263	14294
857.397	14240
857.53	14142
857.664	14229
857.797	14294
857.931	14176
858.064	14202
858.197	14233
858.331	14115
858.464	14149
858.597	14016
858.731	14195
858.864	14103
858.997	14115
859.13	14123
859.263	14191
859.396	14210
859.529	14123
859.662	13982
859.795	14096
859.928	14278
860.061	14317
860.194	14343
860.327	14225
860.46	14092
860.592	14278
860.725	14263
860.858	14225
860.99	14187
861.123	14107
861.256	14054
861.388	14180
861.521	15009
861.653	13947
861.786	14012
861.918	13974
862.05	14046
862.183	14096
862.315	14187
862.447	14161
862.58	14073
862.712	13986
862.844	13955
862.976	13913
863.108	14008
863.24	14419
863.372	13852
863.504	13913
863.636	13871
863.768	14005
863.9	14031
864.032	13830
864.164	13833
864.296	13951
864.428	14081
864.559	14039
864.691	14024
864.823	14005
864.954	13875
865.086	13947
865.217	13849
865.349	13860
865.48	13852
865.612	13978
865.743	14043
865.875	13974
866.006	13894
866.137	13894
866.269	13955
866.4	13845
866.531	13841
866.662	13913
866.793	13894
866.924	13814
867.055	13951
867.186	13974
867.317	13864
867.448	13841
867.579	13890
867.71	13788
867.841	13837
867.972	13921
868.103	13989
868.233	13959
868.364	13951
868.495	13993
868.625	14164
868.756	14301
868.886	14103
869.017	14107
869.147	14294
869.278	14252
869.408	14107
869.539	14275
869.669	14267
869.799	14240
869.929	14381
870.06	14298
870.19	14507
870.32	14526
870.45	14454
870.58	14621
870.71	14670
870.84	14686
870.97	14579
871.1	14427
871.23	14750
871.36	14842
871.489	14606
871.619	14777
871.749	14792
871.879	14632
872.008	14944
872.138	14762
872.267	14819
872.397	14640
872.526	14613
872.656	14587
872.785	14651
872.915	14868
873.044	14845
873.173	14815
873.303	14861
873.432	14826
873.561	14857
873.69	14838
873.819	14804
873.948	14857
874.077	14895
874.206	14853
874.335	14849
874.464	15047
874.593	15150
874.722	15062
874.851	15135
874.979	15207
875.108	15230
875.237	15085
875.365	15024
875.494	15176
875.623	15138
875.751	15100
875.88	15192
876.008	15237
876.136	15287
876.265	15561
876.393	15766
876.521	15625
876.65	15637
876.778	15599
876.906	15587
877.034	15515
877.162	15492
877.29	15492
877.418	15557
877.546	15542
877.674	15591
877.802	15595
877.93	15610
878.058	15405
878.185	15481
878.313	15542
878.441	15526
878.568	15401
878.696	15496
878.824	15591
878.951	15587
879.079	15686
879.206	15838
879.333	15785
879.461	15591
879.588	15641
879.715	15743
879.842	15907
879.97	15641
880.097	15424
880.224	15439
880.351	15397
880.478	15462
880.605	15481
880.732	15317
880.859	15671
880.986	15412
881.112	15496
881.239	15268
881.366	15180
881.493	15218
881.619	14906
881.746	15154
881.872	15097
881.999	15032
882.125	15020
882.252	15043
882.378	15138
882.505	15230
882.631	15009
882.757	14781
882.883	14998
883.01	14902
883.136	14769
883.262	14651
883.388	14743
883.514	14910
883.64	14872
883.766	14838
883.892	14762
884.018	14735
884.143	14895
884.269	15009
884.395	14606
884.52	14560
884.646	14594
884.772	14575
884.897	14495
885.023	14674
885.148	14796
885.274	14735
885.399	14682
885.524	14583
885.65	14590
885.775	14678
885.9	14636
886.025	14769
886.15	14693
886.275	14492
886.4	14423
886.525	14598
886.65	14617
886.775	14678
886.9	14735
887.025	14876
887.149	14629
887.274	14461
887.399	14442
887.523	14366
887.648	14389
887.773	14339
887.897	14476
888.021	14415
888.146	14370
888.27	14484
888.395	14484
888.519	14408
888.643	14503
888.767	14511
888.891	14237
889.015	14286
889.139	14366
889.263	14259
889.387	14396
889.511	14450
889.635	14309
889.759	14244
889.883	14252
890.006	14336
890.13	14503
890.254	14218
890.377	14221
890.501	14092
890.624	14088
890.748	14191
890.871	14081
890.995	13921
891.118	13894
891.241	13974
891.364	14039
891.488	14065
891.611	14088
891.734	13974
891.857	14077
891.98	14024
892.103	14016
892.226	13997
892.349	13997
892.471	13890
892.594	14054
892.717	14039
892.839	13970
892.962	13928
893.085	13997
893.207	14069
893.33	13841
893.452	13997
893.575	14020
893.697	14005
893.819	14168
893.941	14256
894.064	14187
894.186	14012
894.308	13974
894.43	14199
894.552	14233
894.674	14195
894.796	13982
894.918	14103
895.04	14054
895.161	14088
895.283	14180
895.405	14035
895.526	14123
895.648	14069
895.769	14164
895.891	14199
896.012	14252
896.134	14317
896.255	14282
896.376	14240
896.498	14168
896.619	14252
896.74	14271
896.861	14225
896.982	14552
897.103	14629
897.224	14476
897.345	14408
897.466	14442
897.587	14317
897.708	14549
897.828	14537
897.949	14427
898.07	14412
898.19	14362
898.311	14651
898.431	14594
898.552	14549
898.672	14693
898.792	14697
898.913	14625
899.033	14484
899.153	14396
899.273	14358
899.393	14282
899.513	14381
899.633	14404
899.753	14423
899.873	14385
899.993	14488
900.113	14427
900.232	14389
900.352	14355
900.472	14347
900.591	14225
900.711	14343
900.83	14210
900.95	14454
901.069	14396
901.189	14214
901.308	14012
901.427	13928
901.546	13909
901.665	13909
901.784	13947
901.904	13833
902.023	13715
902.141	13590
902.26	13537
902.379	13601
902.498	13529
902.617	13540
902.735	13537
902.854	13510
902.973	13438
903.091	13251
903.21	13289
903.328	13301
903.446	13114
903.565	13031
903.683	13053
903.801	13091
903.919	13019
904.038	13023
904.156	12894
904.274	13000
904.392	12935
904.51	12852
904.627	12840
904.745	12981
904.863	12935
904.981	12738
905.098	12620
905.216	12582
905.334	12745
905.451	12646
905.569	12601
905.686	12582
905.803	12715
905.921	12528
906.038	12525
906.155	12441
906.272	12224
906.389	12384
906.506	12239
906.623	12144
906.74	12133
906.857	12121
906.974	12079
907.091	12216
907.208	12308
907.324	12167
907.441	12163
907.557	12019
907.674	11908
907.79	11923
907.907	11950
908.023	12045
908.139	11923
908.256	11916
908.372	11836
908.488	11805
908.604	11691
908.72	11642
908.836	11688
908.952	11710
909.068	11703
909.184	11851
909.3	11718
909.415	11703
909.531	11703
909.647	11516
909.762	11379
909.878	11497
909.993	11509
910.108	11429
910.224	11410
910.339	11436
910.454	11356
910.57	11387
910.685	11265
910.8	11585
910.915	11429
911.03	11326
911.145	11181
911.259	11143
911.374	11231
911.489	11071
911.604	11037
911.718	10934
911.833	10934
911.947	10904
912.062	10717
912.176	10801
912.291	10957
912.405	10942
912.519	11094
912.633	11121
912.748	11018
912.862	10980
912.976	10748
913.09	10748
913.204	10748
913.318	10782
913.431	10877
913.545	10900
913.659	10938
913.772	10774
913.886	10729
914	10729
914.113	10824
914.226	10866
914.34	10710
914.453	10687
914.566	10679
914.68	10615
914.793	10607
914.906	10436
915.019	10375
915.132	10386
915.245	10493
915.358	10451
915.47	10538
915.583	10474
915.696	10546
915.809	10455
915.921	10645
916.034	10432
916.146	10314
916.259	10398
916.371	10459
916.483	10470
916.595	10382
916.708	10329
916.82	10348
916.932	10360
917.044	10348
917.156	10234
917.268	10261
917.38	10242
917.491	10238
917.603	10314
917.715	10394
917.826	10333
917.938	10234
918.049	10185
918.161	10211
918.272	10371
918.384	10409
918.495	10310
918.606	10242
918.717	10090
918.828	10173
918.939	10139
919.05	9968
919.161	10147
919.272	9998
919.383	10048
919.494	10162
919.604	10363
919.715	10158
919.826	10169
919.936	10067
920.047	10162
920.157	10223
920.267	10451
920.378	10101
920.488	10181
920.598	10352
920.708	10538
920.818	10466
920.928	10405
921.038	10558
921.148	10485
921.258	10253
921.368	10082
921.477	10082
921.587	9998
921.697	9899
921.806	10013
921.916	9941
922.025	9793
922.134	9846
922.244	9709
922.353	9740
922.462	9713
922.571	9580
922.68	9462
922.789	9344
922.898	9454
923.007	9363
923.116	9428
923.224	9450
923.333	9420
923.442	9344
923.55	9268
923.659	9332
923.767	9393
923.876	9256
923.984	9332
924.092	9241
924.201	9321
924.309	9359
924.417	9298
924.525	9226
924.633	9291
924.741	10181
924.849	9093
924.956	9253
925.064	9058
925.172	8979
925.279	8990
925.387	9131
925.494	9116
925.602	9222
925.709	9165
925.816	9047
925.924	9062
926.031	9237
926.138	9093
926.245	9142
926.352	8982
926.459	9253
926.566	9188
926.673	9020
926.779	8956
926.886	8979
926.993	8792
927.099	8838
927.206	8739
927.312	8762
927.419	8861
927.525	8842
927.631	8804
927.737	8785
927.843	8693
927.95	8594
928.056	8663
928.162	8697
928.267	8781
928.373	9393
928.479	8815
928.585	8568
928.69	8674
928.796	8758
928.901	8632
929.007	8503
929.112	8613
929.218	8579
929.323	8522
929.428	8556
929.533	8598
929.638	8442
929.743	8503
929.848	8587
929.953	8473
930.058	8488
930.163	8218
930.267	8339
930.372	8377
930.477	8294
930.581	8446
930.685	8328
930.79	8187
930.894	8225
930.998	8218
931.103	8347
931.207	7947
931.311	7989
931.415	7852
931.519	7712
931.623	7765
