Data from test_V78500241_2609.txt Node
Date: Fri Mar 25 14:51:52 CST 2022
User: usil
Spectrometer: V785-0024
Trigger mode: 0
Integration Time (sec): 4.000000E-1
Scans to average: 1
Nonlinearity correction enabled: false
Boxcar width: 0
Storing dark spectrum: false
XAxis mode: Wavelengths
Number of Pixels in Spectrum: 1024
>>>>>Begin Spectral Data<<<<<
801.071	21956
801.214	21827
801.356	21762
801.499	21614
801.641	21313
801.783	21466
801.926	21416
802.068	21359
802.211	21291
802.353	21138
802.496	20864
802.638	20994
802.78	20796
802.923	20792
803.065	20606
803.208	20613
803.35	20758
803.492	20960
803.635	20781
803.777	20727
803.919	20880
804.061	21104
804.204	20743
804.346	20644
804.488	20629
804.63	20640
804.773	20579
804.915	20674
805.057	20735
805.199	20571
805.341	20708
805.483	20735
805.626	20644
805.768	20571
805.91	20606
806.052	20522
806.194	20549
806.336	20701
806.478	20492
806.62	20488
806.762	20640
806.904	20800
807.046	21036
807.188	20910
807.33	20948
807.472	21009
807.614	20918
807.756	20887
807.898	20762
808.04	20689
808.182	20606
808.324	20587
808.465	20724
808.607	20975
808.749	21001
808.891	21085
809.033	21112
809.174	21089
809.316	21024
809.458	21074
809.6	20910
809.741	21066
809.883	20982
810.025	21119
810.166	21192
810.308	21055
810.45	20982
810.591	20921
810.733	20758
810.875	20819
811.016	20651
811.158	20579
811.299	20823
811.441	20785
811.582	20842
811.724	20845
811.865	20807
812.007	20708
812.148	20583
812.29	20720
812.431	20876
812.573	21013
812.714	21062
812.855	21207
812.997	21378
813.138	21336
813.279	21294
813.421	21241
813.562	21131
813.703	20971
813.845	20842
813.986	20499
814.127	20362
814.268	20427
814.41	20339
814.551	20164
814.692	20351
814.833	20252
814.974	20271
815.115	20259
815.256	20088
815.397	20054
815.539	20062
815.68	20016
815.821	19951
815.962	20058
816.103	19932
816.244	19799
816.385	19693
816.526	19632
816.666	19613
816.807	19480
816.948	19460
817.089	19559
817.23	19506
817.371	19441
817.512	19396
817.653	19407
817.793	19411
817.934	19339
818.075	19449
818.216	19407
818.356	19358
818.497	19114
818.638	19171
818.778	19122
818.919	19137
819.06	19103
819.2	19232
819.341	19350
819.481	19358
819.622	19441
819.762	19521
819.903	19453
820.043	19468
820.184	19369
820.324	19236
820.465	19563
820.605	19251
820.746	19331
820.886	19285
821.026	19327
821.167	19407
821.307	19460
821.447	19263
821.588	19236
821.728	19095
821.868	18909
822.008	18837
822.149	18833
822.289	18757
822.429	18601
822.569	18536
822.709	18536
822.849	18460
822.99	18262
823.13	18273
823.27	18369
823.41	18083
823.55	18034
823.69	18174
823.83	18178
823.97	18121
824.11	17855
824.25	17866
824.389	17897
824.529	17999
824.669	17904
824.809	17977
824.949	17901
825.089	17954
825.228	17939
825.368	17756
825.508	17714
825.648	17748
825.787	17809
825.927	17836
826.067	17661
826.206	17687
826.346	17687
826.485	17722
826.625	17714
826.765	17752
826.904	17649
827.044	17509
827.183	17414
827.323	17356
827.462	17395
827.601	17349
827.741	17296
827.88	17395
828.02	17261
828.159	17376
828.298	17455
828.437	17433
828.577	17334
828.716	17356
828.855	17288
828.994	17170
829.134	17121
829.273	17113
829.412	17136
829.551	17014
829.69	17208
829.829	17246
829.968	17235
830.107	17166
830.246	17151
830.385	17117
830.524	17067
830.663	16934
830.802	16934
830.941	16691
831.08	16717
831.219	16782
831.357	16774
831.496	16953
831.635	16831
831.774	16656
831.913	16618
832.051	16588
832.19	16603
832.329	16542
832.467	16447
832.606	16424
832.744	16462
832.883	16462
833.022	16405
833.16	16447
833.299	16459
833.437	16527
833.576	16504
833.714	16504
833.852	16451
833.991	16504
834.129	16653
834.267	16474
834.406	16535
834.544	16546
834.682	16504
834.821	16535
834.959	16656
835.097	16443
835.235	16561
835.373	16592
835.511	16474
835.65	16375
835.788	16409
835.926	16249
836.064	16268
836.202	16360
836.34	16462
836.478	16459
836.615	16337
836.753	16398
836.891	16466
837.029	16474
837.167	16417
837.305	16325
837.443	16306
837.58	16166
837.718	16402
837.856	16352
837.993	16303
838.131	16226
838.269	16154
838.406	16139
838.544	16215
838.681	16048
838.819	16036
838.956	15972
839.094	15762
839.231	15846
839.369	16017
839.506	16143
839.643	16036
839.781	15911
839.918	15762
840.055	15953
840.193	15785
840.33	15831
840.467	15808
840.604	15937
840.742	16116
840.879	15698
841.016	15797
841.153	15762
841.29	15945
841.427	15892
841.564	15861
841.701	15937
841.838	15865
841.975	15781
842.112	15724
842.249	15728
842.385	15682
842.522	15816
842.659	15743
842.796	15633
842.933	15743
843.069	15542
843.206	15675
843.343	15667
843.479	15705
843.616	15709
843.752	15488
843.889	15435
844.025	15622
844.162	15473
844.298	15500
844.435	15504
844.571	15332
844.708	15496
844.844	15515
844.98	15504
845.117	15504
845.253	15477
845.389	15431
845.525	15374
845.661	15325
845.798	15252
845.934	15382
846.07	15176
846.206	15245
846.342	15348
846.478	15287
846.614	15047
846.75	14994
846.886	15005
847.022	15154
847.158	15009
847.294	15127
847.429	14948
847.565	15062
847.701	15188
847.837	14769
847.972	14773
848.108	14853
848.244	14762
848.379	14724
848.515	14602
848.65	14587
848.786	14750
848.921	14610
849.057	14712
849.192	14716
849.328	14564
849.463	14640
849.598	14564
849.734	14530
849.869	14457
850.004	14351
850.14	14412
850.275	14427
850.41	14202
850.545	14317
850.68	14278
850.815	14400
850.95	14389
851.085	14564
851.22	14446
851.355	14427
851.49	14313
851.625	14404
851.76	14351
851.895	14355
852.03	14164
852.165	14339
852.299	14400
852.434	14415
852.569	14393
852.703	14450
852.838	14450
852.973	14659
853.107	14560
853.242	14400
853.376	14267
853.511	14100
853.645	14142
853.78	14393
853.914	14259
854.048	14233
854.183	14282
854.317	14237
854.451	14492
854.585	14183
854.72	14267
854.854	14294
854.988	14092
855.122	14240
855.256	14142
855.39	14199
855.524	14286
855.658	14263
855.792	14317
855.926	14355
856.06	14317
856.194	14343
856.327	14111
856.461	14096
856.595	14164
856.729	14180
856.862	14282
856.996	14180
857.13	14374
857.263	14271
857.397	14404
857.53	14271
857.664	14324
857.797	14290
857.931	14362
858.064	14244
858.197	14381
858.331	14278
858.464	14218
858.597	14130
858.731	14206
858.864	14199
858.997	14298
859.13	14214
859.263	14244
859.396	14256
859.529	14275
859.662	14298
859.795	14191
859.928	14221
860.061	14446
860.194	14400
860.327	14263
860.46	14267
860.592	14298
860.725	14514
860.858	14355
860.99	14206
861.123	14096
861.256	14119
861.388	14130
861.521	14826
861.653	14077
861.786	14119
861.918	13993
862.05	14111
862.183	14248
862.315	14259
862.447	14332
862.58	14176
862.712	13989
862.844	13955
862.976	14096
863.108	14062
863.24	14473
863.372	14050
863.504	13940
863.636	14088
863.768	14058
863.9	14088
864.032	13951
864.164	13940
864.296	14012
864.428	14138
864.559	14096
864.691	14149
864.823	14077
864.954	14008
865.086	14084
865.217	14020
865.349	14035
865.48	13993
865.612	14046
865.743	14130
865.875	13963
866.006	14001
866.137	13936
866.269	14031
866.4	14031
866.531	14020
866.662	13986
866.793	13917
866.924	14005
867.055	14031
867.186	14016
867.317	13871
867.448	13967
867.579	13909
867.71	13811
867.841	13932
867.972	14012
868.103	14119
868.233	13986
868.364	14020
868.495	14081
868.625	14225
868.756	14370
868.886	14168
869.017	14218
869.147	14332
869.278	14339
869.408	14267
869.539	14278
869.669	14347
869.799	14248
869.929	14385
870.06	14442
870.19	14514
870.32	14495
870.45	14712
870.58	14686
870.71	14716
870.84	14758
870.97	14682
871.1	14670
871.23	14689
871.36	14746
871.489	14746
871.619	14853
871.749	14819
871.879	14891
872.008	14960
872.138	14853
872.267	14743
872.397	14758
872.526	14644
872.656	14731
872.785	14743
872.915	14925
873.044	14872
873.173	14857
873.303	14948
873.432	14899
873.561	14971
873.69	14895
873.819	14872
873.948	15017
874.077	14899
874.206	14891
874.335	14868
874.464	15119
874.593	15222
874.722	15081
874.851	15207
874.979	15260
875.108	15294
875.237	15165
875.365	15112
875.494	15233
875.623	15382
875.751	15123
875.88	15283
876.008	15382
876.136	15458
876.265	15671
876.393	15827
876.521	15762
876.65	15774
876.778	15595
876.906	15538
877.034	15576
877.162	15595
877.29	15644
877.418	15507
877.546	15618
877.674	15705
877.802	15568
877.93	15675
878.058	15538
878.185	15466
878.313	15755
878.441	15526
878.568	15538
878.696	15564
878.824	15584
878.951	15781
879.079	15781
879.206	15998
879.333	15838
879.461	15648
879.588	15690
879.715	15808
879.842	15911
879.97	15686
880.097	15500
880.224	15447
880.351	15443
880.478	15462
880.605	15477
880.732	15492
880.859	15686
880.986	15572
881.112	15561
881.239	15428
881.366	15275
881.493	15203
881.619	15077
881.746	15214
881.872	15047
881.999	15119
882.125	15123
882.252	15184
882.378	15218
882.505	15294
882.631	15199
882.757	14883
882.883	14990
883.01	14952
883.136	14910
883.262	14788
883.388	14819
883.514	15066
883.64	15043
883.766	14895
883.892	14792
884.018	14811
884.143	14921
884.269	14990
884.395	14693
884.52	14693
884.646	14731
884.772	14575
884.897	14495
885.023	14663
885.148	14735
885.274	14864
885.399	14705
885.524	14602
885.65	14625
885.775	14610
885.9	14644
886.025	14792
886.15	14727
886.275	14617
886.4	14541
886.525	14610
886.65	14632
886.775	14560
886.9	14735
887.025	14861
887.149	14716
887.274	14621
887.399	14503
887.523	14511
887.648	14457
887.773	14492
887.897	14450
888.021	14518
888.146	14434
888.27	14667
888.395	14655
888.519	14556
888.643	14514
888.767	14530
888.891	14393
889.015	14343
889.139	14324
889.263	14309
889.387	14473
889.511	14541
889.635	14507
889.759	14393
889.883	14313
890.006	14461
890.13	14461
890.254	14351
890.377	14244
890.501	14134
890.624	14054
890.748	14263
890.871	14111
890.995	14069
891.118	14069
891.241	14069
891.364	14092
891.488	14221
891.611	14153
891.734	14043
891.857	14183
891.98	14054
892.103	13993
892.226	14062
892.349	14039
892.471	13925
892.594	13967
892.717	14020
892.839	14031
892.962	14077
893.085	14138
893.207	14069
893.33	13890
893.452	13993
893.575	14088
893.697	14081
893.819	14138
893.941	14282
894.064	14218
894.186	14035
894.308	13913
894.43	14145
894.552	14267
894.674	14275
894.796	14012
894.918	13978
895.04	14206
895.161	14210
895.283	14248
895.405	14062
895.526	14084
895.648	14180
895.769	14275
895.891	14221
896.012	14332
896.134	14309
896.255	14332
896.376	14210
896.498	14199
896.619	14282
896.74	14153
896.861	14298
896.982	14651
897.103	14765
897.224	14484
897.345	14457
897.466	14393
897.587	14495
897.708	14560
897.828	14594
897.949	14461
898.07	14385
898.19	14450
898.311	14655
898.431	14469
898.552	14533
898.672	14648
898.792	14720
898.913	14655
899.033	14549
899.153	14358
899.273	14332
899.393	14377
899.513	14434
899.633	14438
899.753	14370
899.873	14362
899.993	14484
900.113	14396
900.232	14503
900.352	14385
900.472	14282
900.591	14206
900.711	14336
900.83	14252
900.95	14320
901.069	14415
901.189	14191
901.308	14024
901.427	13925
901.546	14031
901.665	13989
901.784	14054
901.904	13860
902.023	13917
902.141	13601
902.26	13464
902.379	13655
902.498	13658
902.617	13487
902.735	13559
902.854	13674
902.973	13487
903.091	13301
903.21	13209
903.328	13304
903.446	13137
903.565	13133
903.683	13236
903.801	12962
903.919	13171
904.038	13076
904.156	13000
904.274	13000
904.392	12924
904.51	12932
904.627	12981
904.745	13015
904.863	12981
904.981	12669
905.098	12585
905.216	12673
905.334	12692
905.451	12665
905.569	12532
905.686	12646
905.803	12642
905.921	12384
906.038	12502
906.155	12452
906.272	12315
906.389	12346
906.506	12258
906.623	12152
906.74	12205
906.857	12095
906.974	12095
907.091	12334
907.208	12311
907.324	12296
907.441	12106
907.557	11996
907.674	11988
907.79	11874
907.907	11923
908.023	11996
908.139	11912
908.256	11923
908.372	11832
908.488	11802
908.604	11684
908.72	11684
908.836	11649
908.952	11653
909.068	11684
909.184	11775
909.3	11779
909.415	11794
909.531	11718
909.647	11570
909.762	11554
909.878	11467
909.993	11452
910.108	11448
910.224	11421
910.339	11520
910.454	11471
910.57	11292
910.685	11235
910.8	11570
910.915	11493
911.03	11364
911.145	11121
911.259	11162
911.374	11174
911.489	11109
911.604	11170
911.718	10953
911.833	10976
911.947	10866
912.062	10805
912.176	10965
912.291	10877
912.405	10934
912.519	11124
912.633	11143
912.748	11090
912.862	10946
912.976	10717
913.09	10691
913.204	10774
913.318	10824
913.431	10908
913.545	10900
913.659	10896
913.772	10831
913.886	10782
914	10736
914.113	10774
914.226	10877
914.34	10736
914.453	10740
914.566	10850
914.68	10683
914.793	10691
914.906	10466
915.019	10424
915.132	10382
915.245	10341
915.358	10428
915.47	10459
915.583	10497
915.696	10474
915.809	10550
915.921	10615
916.034	10432
916.146	10386
916.259	10394
916.371	10554
916.483	10550
916.595	10424
916.708	10409
916.82	10352
916.932	10280
917.044	10413
917.156	10390
917.268	10303
917.38	10322
917.491	10207
917.603	10291
917.715	10356
917.826	10344
917.938	10265
918.049	10200
918.161	10287
918.272	10443
918.384	10459
918.495	10272
918.606	10234
918.717	10051
918.828	10192
918.939	10177
919.05	10105
919.161	10078
919.272	10013
919.383	10021
919.494	10223
919.604	10428
919.715	10173
919.826	10074
919.936	10166
920.047	10261
920.157	10154
920.267	10356
920.378	10188
920.488	10162
920.598	10386
920.708	10478
920.818	10352
920.928	10417
921.038	10577
921.148	10390
921.258	10200
921.368	10082
921.477	10040
921.587	9979
921.697	9926
921.806	10025
921.916	9975
922.025	9720
922.134	9747
922.244	9740
922.353	9812
922.462	9671
922.571	9652
922.68	9420
922.789	9367
922.898	9439
923.007	9420
923.116	9447
923.224	9450
923.333	9420
923.442	9321
923.55	9310
923.659	9355
923.767	9340
923.876	9294
923.984	9363
924.092	9207
924.201	9313
924.309	9291
924.417	9313
924.525	9241
924.633	9249
924.741	10010
924.849	9081
924.956	9207
925.064	9032
925.172	8986
925.279	9077
925.387	9100
925.494	9131
925.602	9188
925.709	9195
925.816	9032
925.924	9100
926.031	9146
926.138	9131
926.245	9138
926.352	8975
926.459	9165
926.566	9249
926.673	9017
926.779	8979
926.886	8929
926.993	8891
927.099	8811
927.206	8701
927.312	8883
927.419	8880
927.525	8834
927.631	8891
927.737	8762
927.843	8659
927.95	8640
928.056	8644
928.162	8674
928.267	8750
928.373	9298
928.479	8800
928.585	8575
928.69	8678
928.796	8743
928.901	8590
929.007	8480
929.112	8583
929.218	8625
929.323	8552
929.428	8514
929.533	8735
929.638	8473
929.743	8522
929.848	8571
929.953	8503
930.058	8431
930.163	8275
930.267	8271
930.372	8404
930.477	8206
930.581	8511
930.685	8355
930.79	8206
930.894	8202
930.998	8183
931.103	8408
931.207	7989
931.311	7944
931.415	7898
931.519	7769
931.623	7704
