Data from test_V78500241_1107.txt Node
Date: Fri Mar 25 14:41:25 CST 2022
User: usil
Spectrometer: V785-0024
Trigger mode: 0
Integration Time (sec): 4.000000E-1
Scans to average: 1
Nonlinearity correction enabled: false
Boxcar width: 0
Storing dark spectrum: false
XAxis mode: Wavelengths
Number of Pixels in Spectrum: 1024
>>>>>Begin Spectral Data<<<<<
801.071	22771
801.214	22592
801.356	22367
801.499	22177
801.641	22036
801.783	21987
801.926	22116
802.068	21846
802.211	21865
802.353	21785
802.496	21530
802.638	21488
802.78	21504
802.923	21405
803.065	21313
803.208	21203
803.35	21386
803.492	21450
803.635	21568
803.777	21488
803.919	21374
804.061	21625
804.204	21306
804.346	21378
804.488	21291
804.63	21214
804.773	21218
804.915	21241
805.057	21374
805.199	21344
805.341	21397
805.483	21321
805.626	21241
805.768	21272
805.91	21336
806.052	21386
806.194	21211
806.336	21473
806.478	21260
806.62	21249
806.762	21454
806.904	21420
807.046	21762
807.188	21568
807.33	21629
807.472	21751
807.614	21564
807.756	21732
807.898	21637
808.04	21500
808.182	21614
808.324	21545
808.465	21622
808.607	21915
808.749	22162
808.891	22116
809.033	22246
809.174	22135
809.316	22013
809.458	21945
809.6	21778
809.741	21869
809.883	21854
810.025	21994
810.166	21899
810.308	21960
810.45	21869
810.591	21755
810.733	21698
810.875	21492
811.016	21408
811.158	21561
811.299	21633
811.441	21477
811.582	21686
811.724	21504
811.865	21447
812.007	21488
812.148	21458
812.29	21561
812.431	21713
812.573	21762
812.714	21964
812.855	22036
812.997	21899
813.138	22177
813.279	22048
813.421	21960
813.562	21857
813.703	21759
813.845	21660
813.986	21367
814.127	21074
814.268	21116
814.41	21123
814.551	21085
814.692	21005
814.833	20998
814.974	20929
815.115	21001
815.256	20910
815.397	20910
815.539	20804
815.68	20781
815.821	20667
815.962	20773
816.103	20667
816.244	20613
816.385	20446
816.526	20480
816.666	20317
816.807	20187
816.948	20256
817.089	20362
817.23	20278
817.371	20218
817.512	20271
817.653	20092
817.793	20103
817.934	20149
818.075	20161
818.216	20229
818.356	20054
818.497	19940
818.638	19784
818.778	19868
818.919	19750
819.06	19947
819.2	19967
819.341	19986
819.481	20065
819.622	20180
819.762	20465
819.903	20267
820.043	20229
820.184	20164
820.324	20240
820.465	20278
820.605	20161
820.746	20176
820.886	20008
821.026	20084
821.167	20073
821.307	20176
821.447	20024
821.588	19959
821.728	19860
821.868	19753
822.008	19457
822.149	19594
822.289	19510
822.429	19392
822.569	19255
822.709	19358
822.849	19126
822.99	18966
823.13	19076
823.27	18924
823.41	18890
823.55	18779
823.69	18730
823.83	18738
823.97	18825
824.11	18650
824.25	18711
824.389	18639
824.529	18711
824.669	18669
824.809	18772
824.949	18642
825.089	18589
825.228	18627
825.368	18578
825.508	18395
825.648	18509
825.787	18589
825.927	18467
826.067	18414
826.206	18327
826.346	18460
826.485	18357
826.625	18369
826.765	18536
826.904	18475
827.044	18159
827.183	18129
827.323	18140
827.462	18235
827.601	18041
827.741	18125
827.88	18125
828.02	18076
828.159	18098
828.298	18110
828.437	18220
828.577	17965
828.716	18239
828.855	18144
828.994	17973
829.134	17977
829.273	17840
829.412	17935
829.551	17794
829.69	17843
829.829	17855
829.968	17946
830.107	17870
830.246	17942
830.385	17748
830.524	17760
830.663	17691
830.802	17684
830.941	17440
831.08	17349
831.219	17562
831.357	17547
831.496	17653
831.635	17478
831.774	17421
831.913	17280
832.051	17330
832.19	17197
832.329	17334
832.467	17273
832.606	17185
832.744	17143
832.883	17170
833.022	17079
833.16	17235
833.299	17269
833.437	17174
833.576	17102
833.714	17261
833.852	17288
833.991	17334
834.129	17395
834.267	17261
834.406	17174
834.544	17326
834.682	17372
834.821	17193
834.959	17486
835.097	17155
835.235	17417
835.373	17334
835.511	17322
835.65	17121
835.788	17102
835.926	17010
836.064	16976
836.202	16942
836.34	17147
836.478	17197
836.615	17143
836.753	17067
836.891	17193
837.029	17254
837.167	17227
837.305	17067
837.443	16995
837.58	16942
837.718	17090
837.856	17014
837.993	16968
838.131	16972
838.269	16889
838.406	16972
838.544	16801
838.681	16679
838.819	16675
838.956	16538
839.094	16535
839.231	16630
839.369	16748
839.506	16923
839.643	16809
839.781	16546
839.918	16485
840.055	16679
840.193	16459
840.33	16603
840.467	16481
840.604	16504
840.742	16805
840.879	16394
841.016	16386
841.153	16443
841.29	16675
841.427	16478
841.564	16500
841.701	16554
841.838	16489
841.975	16417
842.112	16432
842.249	16348
842.385	16242
842.522	16466
842.659	16295
842.796	16249
842.933	16287
843.069	16223
843.206	16246
843.343	16352
843.479	16223
843.616	16276
843.752	16097
843.889	16169
844.025	16238
844.162	16074
844.298	16303
844.435	16169
844.571	16059
844.708	16272
844.844	16341
844.98	16196
845.117	16181
845.253	16131
845.389	16040
845.525	16200
845.661	16276
845.798	16112
845.934	16424
846.07	16306
846.206	16344
846.342	16352
846.478	16010
846.614	15827
846.75	15728
846.886	15648
847.022	15842
847.158	15644
847.294	15789
847.429	15682
847.565	15663
847.701	15869
847.837	15397
847.972	15359
848.108	15473
848.244	15462
848.379	15329
848.515	15294
848.65	15214
848.786	15211
848.921	15272
849.057	15386
849.192	15306
849.328	15336
849.463	15264
849.598	15131
849.734	15131
849.869	15028
850.004	15097
850.14	15028
850.275	15001
850.41	15013
850.545	15020
850.68	15013
850.815	15074
850.95	14967
851.085	15192
851.22	15116
851.355	15017
851.49	14967
851.625	14971
851.76	14967
851.895	14853
852.03	14948
852.165	14979
852.299	15070
852.434	15081
852.569	15058
852.703	15077
852.838	15051
852.973	15169
853.107	15062
853.242	14937
853.376	14826
853.511	14762
853.645	14830
853.78	14929
853.914	14941
854.048	14948
854.183	14921
854.317	14891
854.451	15013
854.585	14887
854.72	14811
854.854	14982
854.988	14815
855.122	14880
855.256	14785
855.39	14880
855.524	14914
855.658	14982
855.792	14910
855.926	14929
856.06	14990
856.194	14982
856.327	14872
856.461	14819
856.595	14792
856.729	14811
856.862	14956
856.996	14769
857.13	14994
857.263	15055
857.397	15062
857.53	14891
857.664	14933
857.797	14982
857.931	14979
858.064	14921
858.197	15032
858.331	14838
858.464	14876
858.597	14785
858.731	14902
858.864	14933
858.997	14815
859.13	14868
859.263	14899
859.396	14971
859.529	14777
859.662	14895
859.795	14838
859.928	14925
860.061	15017
860.194	15093
860.327	14887
860.46	14773
860.592	14986
860.725	15036
860.858	15036
860.99	14895
861.123	14861
861.256	14868
861.388	14880
861.521	15606
861.653	14815
861.786	14674
861.918	14727
862.05	14773
862.183	14807
862.315	14823
862.447	14861
862.58	14914
862.712	14632
862.844	14613
862.976	14716
863.108	14792
863.24	15173
863.372	14533
863.504	14663
863.636	14495
863.768	14632
863.9	14568
864.032	14602
864.164	14644
864.296	14678
864.428	14754
864.559	14727
864.691	14777
864.823	14712
864.954	14716
865.086	14697
865.217	14610
865.349	14522
865.48	14625
865.612	14701
865.743	14754
865.875	14678
866.006	14598
866.137	14674
866.269	14701
866.4	14686
866.531	14511
866.662	14571
866.793	14537
866.924	14473
867.055	14602
867.186	14701
867.317	14632
867.448	14583
867.579	14530
867.71	14556
867.841	14545
867.972	14678
868.103	14552
868.233	14670
868.364	14590
868.495	14758
868.625	14925
868.756	14952
868.886	14785
869.017	14921
869.147	14982
869.278	15005
869.408	14880
869.539	14956
869.669	14994
869.799	14902
869.929	15024
870.06	14963
870.19	15123
870.32	15066
870.45	15336
870.58	15233
870.71	15374
870.84	15363
870.97	15294
871.1	15237
871.23	15416
871.36	15458
871.489	15420
871.619	15389
871.749	15435
871.879	15454
872.008	15557
872.138	15553
872.267	15439
872.397	15355
872.526	15336
872.656	15260
872.785	15291
872.915	15545
873.044	15599
873.173	15504
873.303	15519
873.432	15523
873.561	15591
873.69	15553
873.819	15641
873.948	15610
874.077	15580
874.206	15504
874.335	15618
874.464	15637
874.593	15785
874.722	15770
874.851	15888
874.979	15892
875.108	15876
875.237	15724
875.365	15736
875.494	15800
875.623	15827
875.751	15865
875.88	15869
876.008	15991
876.136	16051
876.265	16272
876.393	16546
876.521	16314
876.65	16272
876.778	16329
876.906	16272
877.034	16242
877.162	16322
877.29	16204
877.418	16261
877.546	16333
877.674	16280
877.802	16272
877.93	16333
878.058	16249
878.185	16166
878.313	16295
878.441	16276
878.568	16143
878.696	16325
878.824	16276
878.951	16462
879.079	16497
879.206	16656
879.333	16694
879.461	16538
879.588	16649
879.715	16592
879.842	16725
879.97	16603
880.097	16284
880.224	16181
880.351	16185
880.478	16257
880.605	16112
880.732	16166
880.859	16470
880.986	16173
881.112	16196
881.239	16109
881.366	15972
881.493	15865
881.619	15778
881.746	15892
881.872	15835
881.999	15728
882.125	15899
882.252	15823
882.378	15842
882.505	15983
882.631	15857
882.757	15660
882.883	15690
883.01	15663
883.136	15614
883.262	15644
883.388	15485
883.514	15720
883.64	15717
883.766	15584
883.892	15492
884.018	15382
884.143	15610
884.269	15713
884.395	15340
884.52	15302
884.646	15401
884.772	15287
884.897	15218
885.023	15348
885.148	15374
885.274	15568
885.399	15382
885.524	15310
885.65	15428
885.775	15294
885.9	15405
886.025	15447
886.15	15401
886.275	15416
886.4	15264
886.525	15275
886.65	15272
886.775	15294
886.9	15443
887.025	15580
887.149	15272
887.274	15161
887.399	15161
887.523	15127
887.648	15093
887.773	15062
887.897	15146
888.021	15104
888.146	14975
888.27	15310
888.395	15283
888.519	15192
888.643	15203
888.767	15173
888.891	15070
889.015	14891
889.139	15100
889.263	14921
889.387	15180
889.511	15116
889.635	15093
889.759	14918
889.883	14921
890.006	14990
890.13	15100
890.254	14979
890.377	14925
890.501	14769
890.624	14648
890.748	14853
890.871	14807
890.995	14598
891.118	14651
891.241	14697
891.364	14667
891.488	14758
891.611	14693
891.734	14712
891.857	14762
891.98	14712
892.103	14800
892.226	14686
892.349	14674
892.471	14457
892.594	14640
892.717	14670
892.839	14632
892.962	14689
893.085	14606
893.207	14617
893.33	14590
893.452	14625
893.575	14667
893.697	14689
893.819	14773
893.941	14834
894.064	14758
894.186	14625
894.308	14602
894.43	14720
894.552	14853
894.674	14800
894.796	14724
894.918	14693
895.04	14716
895.161	14796
895.283	14670
895.405	14625
895.526	14792
895.648	14701
895.769	14800
895.891	14785
896.012	14899
896.134	14796
896.255	14899
896.376	14800
896.498	14842
896.619	14849
896.74	14830
896.861	14925
896.982	15207
897.103	15325
897.224	15157
897.345	15070
897.466	15100
897.587	14982
897.708	15249
897.828	15058
897.949	15066
898.07	14994
898.19	15024
898.311	15180
898.431	15017
898.552	15135
898.672	15203
898.792	15233
898.913	15211
899.033	15161
899.153	15005
899.273	14933
899.393	14960
899.513	15028
899.633	14975
899.753	14956
899.873	14891
899.993	15047
900.113	14929
900.232	14952
900.352	14941
900.472	14830
900.591	14872
900.711	14853
900.83	14777
900.95	14937
901.069	14853
901.189	14864
901.308	14564
901.427	14495
901.546	14480
901.665	14518
901.784	14526
901.904	14438
902.023	14275
902.141	14172
902.26	14153
902.379	14180
902.498	13978
902.617	13951
902.735	14050
902.854	14008
902.973	14035
903.091	13799
903.21	13811
903.328	13734
903.446	13727
903.565	13601
903.683	13662
903.801	13548
903.919	13636
904.038	13689
904.156	13502
904.274	13510
904.392	13460
904.51	13434
904.627	13343
904.745	13445
904.863	13464
904.981	13263
905.098	13168
905.216	13129
905.334	13209
905.451	13190
905.569	13160
905.686	13217
905.803	13069
905.921	12947
906.038	12989
906.155	12928
906.272	12840
906.389	12852
906.506	12688
906.623	12703
906.74	12677
906.857	12597
906.974	12570
907.091	12764
907.208	12753
907.324	12791
907.441	12642
907.557	12475
907.674	12418
907.79	12445
907.907	12490
908.023	12376
908.139	12456
908.256	12384
908.372	12414
908.488	12391
908.604	12110
908.72	12175
908.836	12232
908.952	12175
909.068	12239
909.184	12380
909.3	12209
909.415	12277
909.531	12209
909.647	12045
909.762	11984
909.878	12057
909.993	12007
910.108	11958
910.224	11954
910.339	11954
910.454	11874
910.57	11805
910.685	11745
910.8	12068
910.915	12038
911.03	11794
911.145	11646
911.259	11722
911.374	11695
911.489	11699
911.604	11558
911.718	11474
911.833	11429
911.947	11330
912.062	11284
912.176	11372
912.291	11463
912.405	11345
912.519	11532
912.633	11570
912.748	11589
912.862	11395
912.976	11242
913.09	11159
913.204	11273
913.318	11360
913.431	11368
913.545	11391
913.659	11414
913.772	11284
913.886	11242
914	11067
914.113	11250
914.226	11376
914.34	11254
914.453	11083
914.566	11185
914.68	11140
914.793	11143
914.906	10972
915.019	10908
915.132	10847
915.245	10942
915.358	10957
915.47	10896
915.583	10927
915.696	10968
915.809	10995
915.921	11022
916.034	10866
916.146	10881
916.259	10801
916.371	10930
916.483	10934
916.595	10725
916.708	10801
916.82	10835
916.932	10900
917.044	10771
917.156	10797
917.268	10622
917.38	10683
917.491	10672
917.603	10801
917.715	10824
917.826	10778
917.938	10725
918.049	10580
918.161	10577
918.272	10847
918.384	10873
918.495	10626
918.606	10554
918.717	10466
918.828	10599
918.939	10588
919.05	10519
919.161	10538
919.272	10402
919.383	10546
919.494	10664
919.604	10774
919.715	10565
919.826	10554
919.936	10565
920.047	10694
920.157	10554
920.267	10778
920.378	10679
920.488	10558
920.598	10778
920.708	10904
920.818	10805
920.928	10717
921.038	10889
921.148	10942
921.258	10622
921.368	10637
921.477	10402
921.587	10413
921.697	10398
921.806	10493
921.916	10325
922.025	10169
922.134	10188
922.244	10040
922.353	10158
922.462	10010
922.571	9987
922.68	9797
922.789	9720
922.898	9880
923.007	9732
923.116	9857
923.224	9759
923.333	9850
923.442	9686
923.55	9644
923.659	9660
923.767	9736
923.876	9682
923.984	9743
924.092	9587
924.201	9679
924.309	9671
924.417	9652
924.525	9629
924.633	9660
924.741	10603
924.849	9424
924.956	9648
925.064	9439
925.172	9416
925.279	9538
925.387	9477
925.494	9492
925.602	9572
925.709	9568
925.816	9397
925.924	9496
926.031	9572
926.138	9500
926.245	9519
926.352	9401
926.459	9500
926.566	9534
926.673	9447
926.779	9294
926.886	9302
926.993	9241
927.099	9100
927.206	9135
927.312	9116
927.419	9207
927.525	9150
927.631	9199
927.737	9043
927.843	9043
927.95	8979
928.056	9058
928.162	9127
928.267	9138
928.373	9720
928.479	9146
928.585	8887
928.69	9028
928.796	9089
928.901	9001
929.007	8777
929.112	9036
929.218	9032
929.323	8849
929.428	8857
929.533	9043
929.638	8796
929.743	8739
929.848	8906
929.953	8876
930.058	8735
930.163	8621
930.267	8632
930.372	8807
930.477	8579
930.581	8830
930.685	8674
930.79	8556
930.894	8579
930.998	8556
931.103	8708
931.207	8374
931.311	8259
931.415	8256
931.519	8069
931.623	8043
