Data from test_V78500241_2435.txt Node
Date: Fri Mar 25 14:50:40 CST 2022
User: usil
Spectrometer: V785-0024
Trigger mode: 0
Integration Time (sec): 4.000000E-1
Scans to average: 1
Nonlinearity correction enabled: false
Boxcar width: 0
Storing dark spectrum: false
XAxis mode: Wavelengths
Number of Pixels in Spectrum: 1024
>>>>>Begin Spectral Data<<<<<
801.071	22128
801.214	21956
801.356	21804
801.499	21625
801.641	21629
801.783	21447
801.926	21408
802.068	21447
802.211	21443
802.353	21306
802.496	20960
802.638	21032
802.78	20864
802.923	20826
803.065	20792
803.208	20883
803.35	20864
803.492	20853
803.635	20944
803.777	20834
803.919	20823
804.061	21214
804.204	20952
804.346	20785
804.488	20640
804.63	20632
804.773	20648
804.915	20716
805.057	20777
805.199	20697
805.341	20720
805.483	20914
805.626	20762
805.768	20693
805.91	20868
806.052	20769
806.194	20708
806.336	20910
806.478	20617
806.62	20720
806.762	20636
806.904	20929
807.046	21138
807.188	21066
807.33	21081
807.472	21123
807.614	20986
807.756	20975
807.898	20861
808.04	20788
808.182	20762
808.324	20891
808.465	20826
808.607	21146
808.749	21142
808.891	21199
809.033	21226
809.174	21176
809.316	21055
809.458	21017
809.6	21020
809.741	21169
809.883	21070
810.025	21325
810.166	21287
810.308	21161
810.45	21211
810.591	21108
810.733	21154
810.875	20944
811.016	20819
811.158	20724
811.299	20864
811.441	20887
811.582	20902
811.724	20868
811.865	20834
812.007	20857
812.148	20849
812.29	20872
812.431	21093
812.573	21192
812.714	21264
812.855	21351
812.997	21264
813.138	21496
813.279	21549
813.421	21359
813.562	21241
813.703	21173
813.845	21070
813.986	20834
814.127	20579
814.268	20434
814.41	20518
814.551	20412
814.692	20484
814.833	20419
814.974	20427
815.115	20377
815.256	20214
815.397	20214
815.539	20210
815.68	20126
815.821	20027
815.962	20130
816.103	20149
816.244	20092
816.385	19951
816.526	19799
816.666	19677
816.807	19495
816.948	19635
817.089	19715
817.23	19734
817.371	19533
817.512	19430
817.653	19537
817.793	19499
817.934	19590
818.075	19563
818.216	19521
818.356	19445
818.497	19453
818.638	19175
818.778	19099
818.919	19217
819.06	19160
819.2	19339
819.341	19373
819.481	19293
819.622	19616
819.762	19811
819.903	19685
820.043	19719
820.184	19635
820.324	19491
820.465	19533
820.605	19529
820.746	19499
820.886	19343
821.026	19544
821.167	19445
821.307	19487
821.447	19476
821.588	19354
821.728	19152
821.868	19027
822.008	18962
822.149	19034
822.289	18920
822.429	18715
822.569	18574
822.709	18692
822.849	18410
822.99	18388
823.13	18376
823.27	18429
823.41	18258
823.55	18152
823.69	18338
823.83	18327
823.97	18167
824.11	18011
824.25	17893
824.389	17996
824.529	18106
824.669	17996
824.809	18068
824.949	18072
825.089	18057
825.228	17984
825.368	17786
825.508	17737
825.648	17889
825.787	17824
825.927	17923
826.067	17775
826.206	17691
826.346	17775
826.485	17783
826.625	17790
826.765	17824
826.904	17824
827.044	17600
827.183	17558
827.323	17406
827.462	17756
827.601	17448
827.741	17581
827.88	17417
828.02	17353
828.159	17429
828.298	17596
828.437	17528
828.577	17482
828.716	17619
828.855	17429
828.994	17155
829.134	17212
829.273	17337
829.412	17178
829.551	17151
829.69	17220
829.829	17322
829.968	17334
830.107	17372
830.246	17265
830.385	17170
830.524	17143
830.663	17128
830.802	16927
830.941	16927
831.08	16812
831.219	16919
831.357	16965
831.496	17064
831.635	16862
831.774	16748
831.913	16763
832.051	16641
832.19	16637
832.329	16736
832.467	16596
832.606	16611
832.744	16531
832.883	16569
833.022	16390
833.16	16485
833.299	16569
833.437	16531
833.576	16573
833.714	16641
833.852	16660
833.991	16603
834.129	16679
834.267	16679
834.406	16630
834.544	16603
834.682	16634
834.821	16542
834.959	16767
835.097	16691
835.235	16668
835.373	16668
835.511	16565
835.65	16527
835.788	16489
835.926	16314
836.064	16276
836.202	16394
836.34	16538
836.478	16717
836.615	16443
836.753	16573
836.891	16649
837.029	16538
837.167	16512
837.305	16405
837.443	16367
837.58	16371
837.718	16455
837.856	16481
837.993	16325
838.131	16356
838.269	16337
838.406	16337
838.544	16211
838.681	16093
838.819	15972
838.956	15926
839.094	15979
839.231	15983
839.369	16010
839.506	16253
839.643	16086
839.781	15842
839.918	15895
840.055	15983
840.193	15937
840.33	15998
840.467	15854
840.604	15911
840.742	16223
840.879	15732
841.016	15812
841.153	15698
841.29	15934
841.427	16021
841.564	15975
841.701	15953
841.838	15797
841.975	15789
842.112	15876
842.249	15720
842.385	15667
842.522	15907
842.659	15747
842.796	15717
842.933	15690
843.069	15641
843.206	15713
843.343	15747
843.479	15709
843.616	15701
843.752	15454
843.889	15454
844.025	15682
844.162	15439
844.298	15580
844.435	15473
844.571	15351
844.708	15538
844.844	15629
844.98	15599
845.117	15580
845.253	15492
845.389	15344
845.525	15264
845.661	15435
845.798	15298
845.934	15340
846.07	15268
846.206	15329
846.342	15420
846.478	15252
846.614	15017
846.75	14956
846.886	15036
847.022	15154
847.158	15055
847.294	15017
847.429	15055
847.565	15055
847.701	15355
847.837	14815
847.972	14724
848.108	14899
848.244	14918
848.379	14800
848.515	14598
848.65	14629
848.786	14571
848.921	14632
849.057	14701
849.192	14830
849.328	14731
849.463	14625
849.598	14712
849.734	14571
849.869	14473
850.004	14404
850.14	14552
850.275	14461
850.41	14347
850.545	14320
850.68	14427
850.815	14396
850.95	14362
851.085	14644
851.22	14530
851.355	14412
851.49	14393
851.625	14377
851.76	14457
851.895	14438
852.03	14381
852.165	14377
852.299	14358
852.434	14377
852.569	14484
852.703	14454
852.838	14541
852.973	14594
853.107	14606
853.242	14355
853.376	14275
853.511	14202
853.645	14244
853.78	14343
853.914	14225
854.048	14286
854.183	14202
854.317	14290
854.451	14434
854.585	14370
854.72	14286
854.854	14324
854.988	14191
855.122	14263
855.256	14214
855.39	14218
855.524	14366
855.658	14214
855.792	14263
855.926	14366
856.06	14339
856.194	14476
856.327	14301
856.461	14301
856.595	14168
856.729	14218
856.862	14465
856.996	14275
857.13	14389
857.263	14400
857.397	14389
857.53	14290
857.664	14355
857.797	14336
857.931	14400
858.064	14336
858.197	14480
858.331	14313
858.464	14256
858.597	14149
858.731	14275
858.864	14351
858.997	14256
859.13	14305
859.263	14374
859.396	14370
859.529	14309
859.662	14240
859.795	14263
859.928	14275
860.061	14469
860.194	14377
860.327	14389
860.46	14221
860.592	14393
860.725	14396
860.858	14400
860.99	14252
861.123	14267
861.256	14202
861.388	14176
861.521	14994
861.653	14130
861.786	14134
861.918	14142
862.05	14164
862.183	14176
862.315	14221
862.447	14221
862.58	14240
862.712	14069
862.844	13951
862.976	14134
863.108	14103
863.24	14370
863.372	13989
863.504	14107
863.636	14024
863.768	14111
863.9	14092
864.032	13944
864.164	14012
864.296	14043
864.428	14172
864.559	14138
864.691	14115
864.823	14157
864.954	14069
865.086	14187
865.217	14088
865.349	14035
865.48	14126
865.612	14073
865.743	14183
865.875	14054
866.006	13955
866.137	14024
866.269	14005
866.4	14016
866.531	14046
866.662	13887
866.793	14054
866.924	13928
867.055	14031
867.186	14046
867.317	13932
867.448	13967
867.579	13944
867.71	14027
867.841	13906
867.972	14149
868.103	13982
868.233	14142
868.364	14073
868.495	14031
868.625	14221
868.756	14317
868.886	14153
869.017	14275
869.147	14419
869.278	14381
869.408	14286
869.539	14396
869.669	14370
869.799	14419
869.929	14469
870.06	14434
870.19	14651
870.32	14651
870.45	14769
870.58	14663
870.71	14743
870.84	14830
870.97	14667
871.1	14758
871.23	14864
871.36	14906
871.489	14864
871.619	14937
871.749	14883
871.879	14883
872.008	14986
872.138	14925
872.267	14857
872.397	14819
872.526	14754
872.656	14648
872.785	14762
872.915	14883
873.044	14971
873.173	14967
873.303	14948
873.432	14960
873.561	14975
873.69	14967
873.819	14937
873.948	15047
874.077	14994
874.206	14876
874.335	14914
874.464	15085
874.593	15241
874.722	15188
874.851	15260
874.979	15237
875.108	15363
875.237	15268
875.365	15138
875.494	15180
875.623	15291
875.751	15237
875.88	15382
876.008	15393
876.136	15450
876.265	15637
876.393	15838
876.521	15800
876.65	15842
876.778	15675
876.906	15656
877.034	15504
877.162	15610
877.29	15637
877.418	15637
877.546	15633
877.674	15641
877.802	15690
877.93	15656
878.058	15561
878.185	15549
878.313	15698
878.441	15755
878.568	15447
878.696	15523
878.824	15671
878.951	15785
879.079	15915
879.206	15930
879.333	15857
879.461	15667
879.588	15751
879.715	15831
879.842	15945
879.97	15819
880.097	15485
880.224	15526
880.351	15557
880.478	15553
880.605	15435
880.732	15549
880.859	15656
880.986	15603
881.112	15545
881.239	15310
881.366	15321
881.493	15131
881.619	15138
881.746	15188
881.872	15199
881.999	15112
882.125	15157
882.252	15195
882.378	15287
882.505	15313
882.631	15260
882.757	15043
882.883	15077
883.01	14963
883.136	14921
883.262	14891
883.388	14796
883.514	14982
883.64	15017
883.766	14937
883.892	14804
884.018	14746
884.143	14994
884.269	15146
884.395	14743
884.52	14640
884.646	14743
884.772	14503
884.897	14610
885.023	14659
885.148	14777
885.274	14834
885.399	14815
885.524	14686
885.65	14727
885.775	14731
885.9	14644
886.025	14769
886.15	14769
886.275	14682
886.4	14648
886.525	14640
886.65	14670
886.775	14594
886.9	14826
887.025	14895
887.149	14659
887.274	14473
887.399	14526
887.523	14530
887.648	14389
887.773	14488
887.897	14503
888.021	14621
888.146	14530
888.27	14606
888.395	14594
888.519	14579
888.643	14549
888.767	14560
888.891	14389
889.015	14381
889.139	14442
889.263	14332
889.387	14438
889.511	14594
889.635	14492
889.759	14374
889.883	14404
890.006	14473
890.13	14503
890.254	14267
890.377	14358
890.501	14183
890.624	14142
890.748	14202
890.871	14149
890.995	14043
891.118	14027
891.241	14043
891.364	14020
891.488	14164
891.611	14100
891.734	14100
891.857	14153
891.98	14054
892.103	14225
892.226	14077
892.349	14145
892.471	13917
892.594	13989
892.717	14119
892.839	14161
892.962	14130
893.085	14172
893.207	14024
893.33	14020
893.452	14035
893.575	14153
893.697	13978
893.819	14218
893.941	14263
894.064	14187
894.186	14008
894.308	14054
894.43	14248
894.552	14381
894.674	14305
894.796	14092
894.918	14084
895.04	14043
895.161	14218
895.283	14176
895.405	14115
895.526	14157
895.648	14240
895.769	14157
895.891	14221
896.012	14332
896.134	14313
896.255	14263
896.376	14244
896.498	14214
896.619	14271
896.74	14328
896.861	14324
896.982	14697
897.103	14686
897.224	14590
897.345	14507
897.466	14385
897.587	14492
897.708	14606
897.828	14655
897.949	14530
898.07	14450
898.19	14488
898.311	14640
898.431	14560
898.552	14651
898.672	14689
898.792	14769
898.913	14632
899.033	14507
899.153	14431
899.273	14374
899.393	14503
899.513	14412
899.633	14495
899.753	14423
899.873	14446
899.993	14461
900.113	14465
900.232	14419
900.352	14434
900.472	14396
900.591	14301
900.711	14381
900.83	14332
900.95	14427
901.069	14488
901.189	14290
901.308	14054
901.427	13951
901.546	14046
901.665	14081
901.784	14050
901.904	13932
902.023	13791
902.141	13567
902.26	13582
902.379	13613
902.498	13537
902.617	13582
902.735	13651
902.854	13578
902.973	13468
903.091	13221
903.21	13388
903.328	13316
903.446	13270
903.565	13122
903.683	13190
903.801	13057
903.919	13088
904.038	13099
904.156	13053
904.274	13065
904.392	12993
904.51	12920
904.627	12924
904.745	13034
904.863	12996
904.981	12844
905.098	12582
905.216	12707
905.334	12612
905.451	12623
905.569	12650
905.686	12642
905.803	12734
905.921	12582
906.038	12616
906.155	12555
906.272	12334
906.389	12380
906.506	12224
906.623	12232
906.74	12148
906.857	12076
906.974	12148
907.091	12235
907.208	12372
907.324	12388
907.441	12133
907.557	12041
907.674	11965
907.79	11843
907.907	12060
908.023	12022
908.139	12038
908.256	11958
908.372	11897
908.488	11904
908.604	11729
908.72	11737
908.836	11786
908.952	11718
909.068	11748
909.184	11870
909.3	11676
909.415	11790
909.531	11908
909.647	11554
909.762	11547
909.878	11509
909.993	11520
910.108	11543
910.224	11440
910.339	11573
910.454	11417
910.57	11387
910.685	11250
910.8	11600
910.915	11516
911.03	11387
911.145	11189
911.259	11250
911.374	11216
911.489	11155
911.604	11022
911.718	10995
911.833	10984
911.947	10877
912.062	10835
912.176	11018
912.291	10889
912.405	10984
912.519	11094
912.633	11162
912.748	11056
912.862	11014
912.976	10927
913.09	10755
913.204	10873
913.318	10771
913.431	10965
913.545	10953
913.659	10930
913.772	10824
913.886	10805
914	10736
914.113	10778
914.226	10892
914.34	10778
914.453	10637
914.566	10820
914.68	10630
914.793	10656
914.906	10405
915.019	10470
915.132	10367
915.245	10455
915.358	10535
915.47	10428
915.583	10516
915.696	10546
915.809	10634
915.921	10656
916.034	10455
916.146	10504
916.259	10428
916.371	10462
916.483	10470
916.595	10352
916.708	10405
916.82	10455
916.932	10409
917.044	10394
917.156	10333
917.268	10322
917.38	10257
917.491	10276
917.603	10306
917.715	10394
917.826	10333
917.938	10257
918.049	10223
918.161	10337
918.272	10440
918.384	10497
918.495	10257
918.606	10207
918.717	10116
918.828	10200
918.939	10192
919.05	10185
919.161	10150
919.272	9983
919.383	10097
919.494	10246
919.604	10417
919.715	10204
919.826	10120
919.936	10207
920.047	10333
920.157	10230
920.267	10356
920.378	10196
920.488	10166
920.598	10348
920.708	10561
920.818	10398
920.928	10363
921.038	10592
921.148	10550
921.258	10204
921.368	10116
921.477	10071
921.587	10074
921.697	9926
921.806	10101
921.916	9975
922.025	9827
922.134	9751
922.244	9675
922.353	9804
922.462	9656
922.571	9614
922.68	9507
922.789	9462
922.898	9469
923.007	9428
923.116	9496
923.224	9492
923.333	9389
923.442	9351
923.55	9344
923.659	9332
923.767	9386
923.876	9313
923.984	9325
924.092	9313
924.201	9317
924.309	9279
924.417	9332
924.525	9313
924.633	9291
924.741	10032
924.849	9135
924.956	9226
925.064	9055
925.172	9039
925.279	9066
925.387	9127
925.494	9093
925.602	9272
925.709	9226
925.816	9051
925.924	9150
926.031	9233
926.138	9123
926.245	9135
926.352	9028
926.459	9207
926.566	9291
926.673	9127
926.779	8967
926.886	8963
926.993	8876
927.099	8880
927.206	8762
927.312	8792
927.419	8834
927.525	8842
927.631	8876
927.737	8678
927.843	8762
927.95	8602
928.056	8788
928.162	8766
928.267	8792
928.373	9370
928.479	8853
928.585	8636
928.69	8705
928.796	8762
928.901	8632
929.007	8488
929.112	8659
929.218	8598
929.323	8575
929.428	8499
929.533	8712
929.638	8473
929.743	8480
929.848	8579
929.953	8552
930.058	8469
930.163	8305
930.267	8339
930.372	8507
930.477	8320
930.581	8503
930.685	8385
930.79	8305
930.894	8320
930.998	8225
931.103	8351
931.207	8119
931.311	8024
931.415	7894
931.519	7765
931.623	7719
