Data from test_V78500241_2129.txt Node
Date: Fri Mar 25 14:48:32 CST 2022
User: usil
Spectrometer: V785-0024
Trigger mode: 0
Integration Time (sec): 4.000000E-1
Scans to average: 1
Nonlinearity correction enabled: false
Boxcar width: 0
Storing dark spectrum: false
XAxis mode: Wavelengths
Number of Pixels in Spectrum: 1024
>>>>>Begin Spectral Data<<<<<
801.071	22147
801.214	22090
801.356	21827
801.499	21633
801.641	21545
801.783	21534
801.926	21576
802.068	21443
802.211	21313
802.353	21291
802.496	21009
802.638	21066
802.78	21013
802.923	20762
803.065	20739
803.208	20895
803.35	20773
803.492	21009
803.635	21047
803.777	20906
803.919	20804
804.061	21161
804.204	20956
804.346	20785
804.488	20640
804.63	20674
804.773	20629
804.915	20781
805.057	20838
805.199	20663
805.341	20754
805.483	20872
805.626	20773
805.768	20678
805.91	20693
806.052	20785
806.194	20617
806.336	20815
806.478	20743
806.62	20735
806.762	20838
806.904	20929
807.046	21142
807.188	20963
807.33	21169
807.472	20941
807.614	20914
807.756	21005
807.898	20815
808.04	20857
808.182	20834
808.324	20948
808.465	20811
808.607	20944
808.749	21237
808.891	21150
809.033	21226
809.174	21154
809.316	21116
809.458	21176
809.6	21116
809.741	21165
809.883	21180
810.025	21241
810.166	21298
810.308	21370
810.45	21199
810.591	21131
810.733	21077
810.875	20967
811.016	20792
811.158	20765
811.299	21009
811.441	21032
811.582	20921
811.724	20918
811.865	20929
812.007	20895
812.148	20921
812.29	20891
812.431	20963
812.573	21275
812.714	21378
812.855	21408
812.997	21466
813.138	21564
813.279	21420
813.421	21340
813.562	21298
813.703	21184
813.845	20944
813.986	20712
814.127	20655
814.268	20549
814.41	20594
814.551	20377
814.692	20431
814.833	20377
814.974	20442
815.115	20385
815.256	20282
815.397	20263
815.539	20233
815.68	20301
815.821	20153
815.962	20161
816.103	20103
816.244	20050
816.385	19890
816.526	19852
816.666	19799
816.807	19540
816.948	19734
817.089	19696
817.23	19609
817.371	19544
817.512	19537
817.653	19594
817.793	19476
817.934	19578
818.075	19609
818.216	19586
818.356	19487
818.497	19320
818.638	19373
818.778	19183
818.919	19236
819.06	19343
819.2	19308
819.341	19392
819.481	19533
819.622	19578
819.762	19685
819.903	19807
820.043	19632
820.184	19605
820.324	19556
820.465	19548
820.605	19624
820.746	19609
820.886	19324
821.026	19559
821.167	19449
821.307	19677
821.447	19514
821.588	19343
821.728	19175
821.868	19137
822.008	19034
822.149	18958
822.289	18913
822.429	18681
822.569	18700
822.709	18665
822.849	18334
822.99	18414
823.13	18414
823.27	18429
823.41	18247
823.55	18273
823.69	18270
823.83	18251
823.97	18289
824.11	18038
824.25	17950
824.389	18011
824.529	18068
824.669	17984
824.809	18190
824.949	18110
825.089	18091
825.228	17961
825.368	17851
825.508	17885
825.648	17855
825.787	17843
825.927	17863
826.067	17798
826.206	17737
826.346	17866
826.485	17802
826.625	17767
826.765	17802
826.904	17809
827.044	17649
827.183	17600
827.323	17493
827.462	17642
827.601	17615
827.741	17581
827.88	17463
828.02	17429
828.159	17421
828.298	17414
828.437	17532
828.577	17387
828.716	17592
828.855	17474
828.994	17353
829.134	17299
829.273	17258
829.412	17208
829.551	17181
829.69	17231
829.829	17372
829.968	17330
830.107	17273
830.246	17280
830.385	17280
830.524	17189
830.663	17098
830.802	16968
830.941	16889
831.08	16725
831.219	16831
831.357	16889
831.496	17090
831.635	16835
831.774	16774
831.913	16713
832.051	16626
832.19	16660
832.329	16801
832.467	16584
832.606	16493
832.744	16519
832.883	16428
833.022	16489
833.16	16683
833.299	16641
833.437	16596
833.576	16634
833.714	16599
833.852	16759
833.991	16618
834.129	16706
834.267	16550
834.406	16546
834.544	16672
834.682	16584
834.821	16607
834.959	16774
835.097	16687
835.235	16672
835.373	16573
835.511	16603
835.65	16561
835.788	16523
835.926	16272
836.064	16322
836.202	16360
836.34	16538
836.478	16558
836.615	16493
836.753	16554
836.891	16596
837.029	16455
837.167	16569
837.305	16451
837.443	16432
837.58	16352
837.718	16413
837.856	16367
837.993	16394
838.131	16474
838.269	16295
838.406	16261
838.544	16280
838.681	16291
838.819	15979
838.956	16017
839.094	15846
839.231	15972
839.369	16006
839.506	16246
839.643	16124
839.781	15991
839.918	15873
840.055	15983
840.193	16002
840.33	15827
840.467	15903
840.604	15960
840.742	16196
840.879	15800
841.016	15793
841.153	15922
841.29	16048
841.427	15972
841.564	15960
841.701	16013
841.838	15899
841.975	15793
842.112	15819
842.249	15762
842.385	15622
842.522	15895
842.659	15679
842.796	15587
842.933	15766
843.069	15637
843.206	15663
843.343	15690
843.479	15663
843.616	15766
843.752	15519
843.889	15564
844.025	15633
844.162	15462
844.298	15610
844.435	15641
844.571	15454
844.708	15614
844.844	15679
844.98	15629
845.117	15614
845.253	15443
845.389	15363
845.525	15424
845.661	15500
845.798	15374
845.934	15359
846.07	15180
846.206	15294
846.342	15443
846.478	15336
846.614	15062
846.75	15020
846.886	15051
847.022	15108
847.158	15055
847.294	15047
847.429	15081
847.565	15028
847.701	15302
847.837	14731
847.972	14834
848.108	14861
848.244	14895
848.379	14625
848.515	14667
848.65	14579
848.786	14602
848.921	14667
849.057	14629
849.192	14674
849.328	14708
849.463	14697
849.598	14564
849.734	14533
849.869	14541
850.004	14434
850.14	14465
850.275	14427
850.41	14343
850.545	14465
850.68	14339
850.815	14400
850.95	14461
851.085	14545
851.22	14568
851.355	14438
851.49	14370
851.625	14404
851.76	14328
851.895	14389
852.03	14256
852.165	14473
852.299	14488
852.434	14526
852.569	14415
852.703	14503
852.838	14465
852.973	14526
853.107	14526
853.242	14507
853.376	14313
853.511	14161
853.645	14252
853.78	14400
853.914	14301
854.048	14290
854.183	14229
854.317	14259
854.451	14419
854.585	14267
854.72	14233
854.854	14347
854.988	14195
855.122	14191
855.256	14168
855.39	14336
855.524	14396
855.658	14339
855.792	14324
855.926	14324
856.06	14431
856.194	14381
856.327	14240
856.461	14294
856.595	14263
856.729	14301
856.862	14381
856.996	14358
857.13	14454
857.263	14404
857.397	14438
857.53	14393
857.664	14381
857.797	14362
857.931	14389
858.064	14324
858.197	14362
858.331	14248
858.464	14183
858.597	14054
858.731	14298
858.864	14256
858.997	14271
859.13	14275
859.263	14351
859.396	14358
859.529	14294
859.662	14282
859.795	14290
859.928	14442
860.061	14484
860.194	14415
860.327	14347
860.46	14351
860.592	14347
860.725	14473
860.858	14374
860.99	14313
861.123	14225
861.256	14183
861.388	14252
861.521	14963
861.653	14286
861.786	14145
861.918	14168
862.05	14267
862.183	14240
862.315	14298
862.447	14343
862.58	14191
862.712	14088
862.844	14058
862.976	14176
863.108	14103
863.24	14381
863.372	14035
863.504	14096
863.636	14115
863.768	14172
863.9	14164
864.032	13986
864.164	14077
864.296	14134
864.428	14248
864.559	14149
864.691	14195
864.823	14103
864.954	14172
865.086	14161
865.217	14164
865.349	14107
865.48	14168
865.612	14012
865.743	14248
865.875	14069
866.006	14005
866.137	14115
866.269	14073
866.4	14043
866.531	14088
866.662	14119
866.793	14024
866.924	14119
867.055	14130
867.186	14081
867.317	14024
867.448	14001
867.579	14077
867.71	13974
867.841	14054
867.972	14138
868.103	14039
868.233	14115
868.364	14058
868.495	14202
868.625	14286
868.756	14442
868.886	14328
869.017	14381
869.147	14431
869.278	14465
869.408	14393
869.539	14339
869.669	14465
869.799	14412
869.929	14476
870.06	14503
870.19	14659
870.32	14686
870.45	14629
870.58	14800
870.71	14925
870.84	14819
870.97	14712
871.1	14819
871.23	14941
871.36	14921
871.489	14876
871.619	14826
871.749	14914
871.879	15058
872.008	15047
872.138	14872
872.267	14937
872.397	14807
872.526	14769
872.656	14773
872.785	14720
872.915	15024
873.044	14941
873.173	14910
873.303	14994
873.432	14975
873.561	15142
873.69	14994
873.819	15024
873.948	15112
874.077	14975
874.206	15001
874.335	15051
874.464	15154
874.593	15393
874.722	15176
874.851	15378
874.979	15332
875.108	15340
875.237	15237
875.365	15195
875.494	15237
875.623	15317
875.751	15298
875.88	15378
876.008	15412
876.136	15515
876.265	15717
876.393	15918
876.521	15857
876.65	15774
876.778	15804
876.906	15663
877.034	15614
877.162	15774
877.29	15599
877.418	15713
877.546	15717
877.674	15774
877.802	15800
877.93	15717
878.058	15667
878.185	15751
878.313	15755
878.441	15759
878.568	15526
878.696	15679
878.824	15789
878.951	15705
879.079	15903
879.206	16063
879.333	15918
879.461	15781
879.588	15915
879.715	15911
879.842	16002
879.97	15808
880.097	15549
880.224	15564
880.351	15663
880.478	15564
880.605	15553
880.732	15618
880.859	15781
880.986	15599
881.112	15515
881.239	15412
881.366	15268
881.493	15336
881.619	15222
881.746	15169
881.872	15203
881.999	15275
882.125	15119
882.252	15317
882.378	15260
882.505	15397
882.631	15180
882.757	15036
882.883	15180
883.01	15036
883.136	14906
883.262	14845
883.388	14883
883.514	15074
883.64	15036
883.766	15020
883.892	14769
884.018	14906
884.143	15089
884.269	15211
884.395	14762
884.52	14678
884.646	14842
884.772	14731
884.897	14670
885.023	14762
885.148	14781
885.274	14914
885.399	14804
885.524	14663
885.65	14716
885.775	14720
885.9	14777
886.025	14853
886.15	14849
886.275	14682
886.4	14610
886.525	14727
886.65	14785
886.775	14621
886.9	14788
887.025	14960
887.149	14697
887.274	14644
887.399	14579
887.523	14549
887.648	14533
887.773	14518
887.897	14644
888.021	14625
888.146	14461
888.27	14613
888.395	14773
888.519	14682
888.643	14590
888.767	14689
888.891	14492
889.015	14423
889.139	14495
889.263	14370
889.387	14556
889.511	14556
889.635	14537
889.759	14385
889.883	14518
890.006	14454
890.13	14537
890.254	14313
890.377	14389
890.501	14221
890.624	14229
890.748	14336
890.871	14088
890.995	14100
891.118	14050
891.241	14107
891.364	14103
891.488	14309
891.611	14084
891.734	14123
891.857	14195
891.98	14130
892.103	14218
892.226	14084
892.349	14199
892.471	14065
892.594	14195
892.717	14065
892.839	14107
892.962	14153
893.085	14199
893.207	14134
893.33	14062
893.452	14088
893.575	14366
893.697	14123
893.819	14298
893.941	14355
894.064	14282
894.186	14161
894.308	14050
894.43	14282
894.552	14298
894.674	14256
894.796	14206
894.918	14111
895.04	14138
895.161	14187
895.283	14237
895.405	14168
895.526	14259
895.648	14210
895.769	14362
895.891	14278
896.012	14450
896.134	14393
896.255	14229
896.376	14237
896.498	14294
896.619	14396
896.74	14404
896.861	14336
896.982	14621
897.103	14838
897.224	14720
897.345	14541
897.466	14507
897.587	14602
897.708	14754
897.828	14602
897.949	14564
898.07	14381
898.19	14594
898.311	14708
898.431	14549
898.552	14686
898.672	14686
898.792	14712
898.913	14636
899.033	14594
899.153	14511
899.273	14484
899.393	14484
899.513	14549
899.633	14613
899.753	14583
899.873	14461
899.993	14568
900.113	14541
900.232	14663
900.352	14457
900.472	14396
900.591	14347
900.711	14404
900.83	14336
900.95	14446
901.069	14434
901.189	14301
901.308	14046
901.427	14073
901.546	14084
901.665	14115
901.784	14050
901.904	14065
902.023	13807
902.141	13636
902.26	13525
902.379	13677
902.498	13563
902.617	13590
902.735	13670
902.854	13662
902.973	13529
903.091	13339
903.21	13293
903.328	13354
903.446	13285
903.565	13198
903.683	13198
903.801	13050
903.919	13175
904.038	13110
904.156	13000
904.274	13099
904.392	13065
904.51	12973
904.627	12947
904.745	13080
904.863	12993
904.981	12779
905.098	12654
905.216	12662
905.334	12684
905.451	12692
905.569	12707
905.686	12844
905.803	12768
905.921	12563
906.038	12608
906.155	12513
906.272	12445
906.389	12418
906.506	12254
906.623	12296
906.74	12330
906.857	12163
906.974	12194
907.091	12315
907.208	12445
907.324	12365
907.441	12216
907.557	12083
907.674	12125
907.79	11946
907.907	12015
908.023	12159
908.139	12022
908.256	12019
908.372	11889
908.488	11935
908.604	11775
908.72	11737
908.836	11779
908.952	11745
909.068	11847
909.184	11874
909.3	11802
909.415	11866
909.531	11805
909.647	11554
909.762	11516
909.878	11615
909.993	11524
910.108	11577
910.224	11493
910.339	11543
910.454	11501
910.57	11341
910.685	11414
910.8	11642
910.915	11596
911.03	11368
911.145	11170
911.259	11273
911.374	11250
911.489	11178
911.604	11147
911.718	11018
911.833	10980
911.947	10797
912.062	10854
912.176	11029
912.291	11022
912.405	10984
912.519	11212
912.633	11250
912.748	11075
912.862	11003
912.976	10892
913.09	10755
913.204	10828
913.318	10896
913.431	11003
913.545	10987
913.659	11037
913.772	10854
913.886	10809
914	10805
914.113	10820
914.226	10900
914.34	10820
914.453	10691
914.566	10881
914.68	10759
914.793	10797
914.906	10596
915.019	10470
915.132	10462
915.245	10481
915.358	10512
915.47	10580
915.583	10573
915.696	10558
915.809	10675
915.921	10645
916.034	10523
916.146	10402
916.259	10447
916.371	10489
916.483	10504
916.595	10421
916.708	10447
916.82	10424
916.932	10386
917.044	10367
917.156	10443
917.268	10303
917.38	10440
917.491	10322
917.603	10337
917.715	10455
917.826	10405
917.938	10299
918.049	10234
918.161	10382
918.272	10569
918.384	10367
918.495	10352
918.606	10230
918.717	10204
918.828	10192
918.939	10223
919.05	10116
919.161	10204
919.272	10063
919.383	10154
919.494	10314
919.604	10462
919.715	10246
919.826	10166
919.936	10238
920.047	10421
920.157	10181
920.267	10485
920.378	10352
920.488	10337
920.598	10451
920.708	10588
920.818	10478
920.928	10405
921.038	10550
921.148	10527
921.258	10314
921.368	10166
921.477	10036
921.587	10131
921.697	9972
921.806	10154
921.916	10025
922.025	9911
922.134	9827
922.244	9751
922.353	9823
922.462	9717
922.571	9667
922.68	9549
922.789	9443
922.898	9568
923.007	9443
923.116	9469
923.224	9435
923.333	9488
923.442	9374
923.55	9367
923.659	9428
923.767	9439
923.876	9325
923.984	9450
924.092	9306
924.201	9431
924.309	9401
924.417	9310
924.525	9378
924.633	9313
924.741	10234
924.849	9188
924.956	9245
925.064	9146
925.172	9039
925.279	9108
925.387	9135
925.494	9074
925.602	9253
925.709	9184
925.816	9028
925.924	9138
926.031	9237
926.138	9230
926.245	9264
926.352	9055
926.459	9214
926.566	9245
926.673	9180
926.779	9058
926.886	9032
926.993	8963
927.099	8826
927.206	8868
927.312	8781
927.419	8929
927.525	8857
927.631	8880
927.737	8754
927.843	8750
927.95	8697
928.056	8750
928.162	8792
928.267	8766
928.373	9329
928.479	8902
928.585	8655
928.69	8758
928.796	8743
928.901	8678
929.007	8522
929.112	8720
929.218	8651
929.323	8655
929.428	8552
929.533	8701
929.638	8598
929.743	8575
929.848	8697
929.953	8602
930.058	8530
930.163	8324
930.267	8393
930.372	8526
930.477	8347
930.581	8545
930.685	8514
930.79	8290
930.894	8339
930.998	8343
931.103	8434
931.207	8092
931.311	8103
931.415	8046
931.519	7845
931.623	7788
