Data from test_V78500241_3628.txt Node
Date: Fri Mar 25 14:58:58 CST 2022
User: usil
Spectrometer: V785-0024
Trigger mode: 0
Integration Time (sec): 4.000000E-1
Scans to average: 1
Nonlinearity correction enabled: false
Boxcar width: 0
Storing dark spectrum: false
XAxis mode: Wavelengths
Number of Pixels in Spectrum: 1024
>>>>>Begin Spectral Data<<<<<
801.071	21857
801.214	21736
801.356	21492
801.499	21477
801.641	21279
801.783	21294
801.926	21256
802.068	21230
802.211	21123
802.353	21062
802.496	20929
802.638	20739
802.78	20720
802.923	20708
803.065	20552
803.208	20526
803.35	20564
803.492	20773
803.635	20842
803.777	20617
803.919	20625
804.061	20891
804.204	20735
804.346	20545
804.488	20583
804.63	20503
804.773	20431
804.915	20587
805.057	20613
805.199	20446
805.341	20465
805.483	20629
805.626	20648
805.768	20446
805.91	20518
806.052	20560
806.194	20518
806.336	20655
806.478	20454
806.62	20427
806.762	20590
806.904	20667
807.046	20864
807.188	20880
807.33	20834
807.472	20880
807.614	20773
807.756	20625
807.898	20625
808.04	20571
808.182	20522
808.324	20571
808.465	20583
808.607	20826
808.749	20941
808.891	20925
809.033	21001
809.174	20960
809.316	20868
809.458	20861
809.6	20872
809.741	20914
809.883	20902
810.025	21043
810.166	20941
810.308	20960
810.45	21043
810.591	20857
810.733	20686
810.875	20606
811.016	20522
811.158	20621
811.299	20609
811.441	20823
811.582	20800
811.724	20708
811.865	20450
812.007	20499
812.148	20632
812.29	20636
812.431	20701
812.573	21100
812.714	20876
812.855	21070
812.997	21233
813.138	21359
813.279	21218
813.421	21150
813.562	21074
813.703	20845
813.845	20743
813.986	20434
814.127	20294
814.268	20229
814.41	20202
814.551	20039
814.692	20199
814.833	20069
814.974	20100
815.115	20210
815.256	20054
815.397	20130
815.539	20016
815.68	19989
815.821	19909
815.962	20005
816.103	19814
816.244	19689
816.385	19620
816.526	19712
816.666	19324
816.807	19388
816.948	19476
817.089	19377
817.23	19350
817.371	19274
817.512	19179
817.653	19194
817.793	19213
817.934	19320
818.075	19274
818.216	19251
818.356	19225
818.497	19168
818.638	18939
818.778	18981
818.919	18951
819.06	19061
819.2	19042
819.341	19198
819.481	19179
819.622	19335
819.762	19480
819.903	19304
820.043	19304
820.184	19274
820.324	19168
820.465	19236
820.605	19327
820.746	19217
820.886	19076
821.026	19274
821.167	19171
821.307	19346
821.447	19206
821.588	19118
821.728	18970
821.868	18700
822.008	18631
822.149	18631
822.289	18555
822.429	18353
822.569	18388
822.709	18361
822.849	18076
822.99	18232
823.13	18163
823.27	18136
823.41	17958
823.55	17904
823.69	17931
823.83	17927
823.97	17954
824.11	17764
824.25	17699
824.389	17790
824.529	17832
824.669	17752
824.809	17874
824.949	17832
825.089	17866
825.228	17748
825.368	17543
825.508	17634
825.648	17608
825.787	17512
825.927	17646
826.067	17608
826.206	17459
826.346	17547
826.485	17547
826.625	17474
826.765	17570
826.904	17532
827.044	17330
827.183	17303
827.323	17109
827.462	17208
827.601	17220
827.741	17280
827.88	17189
828.02	16946
828.159	17212
828.298	17200
828.437	17284
828.577	17246
828.716	17315
828.855	17071
828.994	16961
829.134	16915
829.273	16949
829.412	16862
829.551	16900
829.69	16904
829.829	17029
829.968	17071
830.107	17037
830.246	16957
830.385	17045
830.524	16835
830.663	16869
830.802	16752
830.941	16611
831.08	16542
831.219	16755
831.357	16679
831.496	16854
831.635	16694
831.774	16592
831.913	16523
832.051	16455
832.19	16398
832.329	16508
832.467	16421
832.606	16242
832.744	16196
832.883	16261
833.022	16200
833.16	16318
833.299	16325
833.437	16265
833.576	16421
833.714	16314
833.852	16379
833.991	16337
834.129	16447
834.267	16481
834.406	16443
834.544	16421
834.682	16352
834.821	16428
834.959	16577
835.097	16303
835.235	16470
835.373	16341
835.511	16417
835.65	16253
835.788	16246
835.926	16166
836.064	16082
836.202	16154
836.34	16265
836.478	16287
836.615	16234
836.753	16230
836.891	16394
837.029	16314
837.167	16314
837.305	16246
837.443	16211
837.58	16135
837.718	16181
837.856	16219
837.993	16116
838.131	16147
838.269	16105
838.406	16067
838.544	16059
838.681	15888
838.819	15808
838.956	15736
839.094	15717
839.231	15774
839.369	15797
839.506	16086
839.643	16051
839.781	15800
839.918	15644
840.055	15747
840.193	15797
840.33	15709
840.467	15641
840.604	15835
840.742	15888
840.879	15656
841.016	15595
841.153	15709
841.29	15823
841.427	15667
841.564	15720
841.701	15781
841.838	15686
841.975	15656
842.112	15507
842.249	15576
842.385	15431
842.522	15629
842.659	15599
842.796	15553
842.933	15542
843.069	15401
843.206	15393
843.343	15549
843.479	15564
843.616	15610
843.752	15260
843.889	15294
844.025	15405
844.162	15260
844.298	15348
844.435	15279
844.571	15245
844.708	15428
844.844	15424
844.98	15511
845.117	15386
845.253	15173
845.389	15070
845.525	15237
845.661	15252
845.798	15024
845.934	15070
846.07	15013
846.206	15077
846.342	15207
846.478	15123
846.614	14910
846.75	14769
846.886	14861
847.022	14982
847.158	14796
847.294	14929
847.429	14861
847.565	14788
847.701	15085
847.837	14678
847.972	14514
848.108	14693
848.244	14598
848.379	14533
848.515	14434
848.65	14404
848.786	14442
848.921	14450
849.057	14469
849.192	14610
849.328	14454
849.463	14412
849.598	14355
849.734	14381
849.869	14282
850.004	14267
850.14	14214
850.275	14286
850.41	14065
850.545	14183
850.68	14229
850.815	14271
850.95	14233
851.085	14374
851.22	14294
851.355	14237
851.49	14187
851.625	14142
851.76	14244
851.895	14172
852.03	14035
852.165	14214
852.299	14195
852.434	14423
852.569	14229
852.703	14374
852.838	14275
852.973	14461
853.107	14438
853.242	14271
853.376	14123
853.511	14012
853.645	14012
853.78	14237
853.914	14062
854.048	14100
854.183	14065
854.317	14065
854.451	14210
854.585	14134
854.72	14134
854.854	14229
854.988	14050
855.122	14103
855.256	13986
855.39	14123
855.524	14256
855.658	14134
855.792	14145
855.926	14210
856.06	14210
856.194	14145
856.327	14145
856.461	14043
856.595	14024
856.729	14084
856.862	14305
856.996	14271
857.13	14157
857.263	14229
857.397	14210
857.53	14161
857.664	14157
857.797	14233
857.931	14282
858.064	14199
858.197	14267
858.331	14157
858.464	14039
858.597	13940
858.731	14134
858.864	14058
858.997	14123
859.13	14119
859.263	14130
859.396	14199
859.529	14202
859.662	14191
859.795	14073
859.928	14123
860.061	14305
860.194	14286
860.327	14225
860.46	14183
860.592	14271
860.725	14218
860.858	14278
860.99	14062
861.123	14134
861.256	14054
861.388	14126
861.521	14941
861.653	13963
861.786	14020
861.918	13982
862.05	14096
862.183	14168
862.315	14153
862.447	14195
862.58	14119
862.712	13944
862.844	13993
862.976	13970
863.108	14016
863.24	14298
863.372	13906
863.504	13917
863.636	13947
863.768	14005
863.9	13940
864.032	13932
864.164	13909
864.296	13932
864.428	14043
864.559	14027
864.691	14050
864.823	14008
864.954	13917
865.086	13902
865.217	13883
865.349	13883
865.48	13879
865.612	13993
865.743	14107
865.875	14012
866.006	13890
866.137	13898
866.269	13898
866.4	13890
866.531	13841
866.662	13799
866.793	13871
866.924	13879
867.055	13860
867.186	13860
867.317	13928
867.448	13849
867.579	13830
867.71	13925
867.841	13856
867.972	13967
868.103	13871
868.233	13883
868.364	13868
868.495	14027
868.625	14202
868.756	14263
868.886	14050
869.017	14157
869.147	14172
869.278	14256
869.408	14161
869.539	14043
869.669	14248
869.799	14168
869.929	14313
870.06	14229
870.19	14503
870.32	14434
870.45	14514
870.58	14545
870.71	14716
870.84	14659
870.97	14583
871.1	14511
871.23	14724
871.36	14834
871.489	14674
871.619	14708
871.749	14826
871.879	14739
872.008	14857
872.138	14746
872.267	14785
872.397	14667
872.526	14545
872.656	14606
872.785	14617
872.915	14800
873.044	14895
873.173	14872
873.303	14826
873.432	14815
873.561	14861
873.69	14853
873.819	14826
873.948	14864
874.077	14788
874.206	14769
874.335	14937
874.464	14971
874.593	15108
874.722	14944
874.851	15085
874.979	15169
875.108	15222
875.237	15100
875.365	15005
875.494	15127
875.623	15218
875.751	15173
875.88	15249
876.008	15321
876.136	15355
876.265	15572
876.393	15629
876.521	15595
876.65	15694
876.778	15606
876.906	15511
877.034	15469
877.162	15462
877.29	15492
877.418	15545
877.546	15523
877.674	15553
877.802	15496
877.93	15538
878.058	15553
878.185	15488
878.313	15545
878.441	15599
878.568	15359
878.696	15530
878.824	15599
878.951	15618
879.079	15694
879.206	15892
879.333	15755
879.461	15561
879.588	15671
879.715	15728
879.842	15880
879.97	15572
880.097	15466
880.224	15389
880.351	15412
880.478	15466
880.605	15310
880.732	15279
880.859	15606
880.986	15412
881.112	15462
881.239	15298
881.366	15233
881.493	15089
881.619	14963
881.746	15093
881.872	15070
881.999	14986
882.125	14975
882.252	15020
882.378	15062
882.505	15249
882.631	15001
882.757	14781
882.883	14887
883.01	14937
883.136	14785
883.262	14705
883.388	14705
883.514	14868
883.64	14895
883.766	14864
883.892	14712
884.018	14651
884.143	14891
884.269	14918
884.395	14708
884.52	14606
884.646	14636
884.772	14499
884.897	14545
885.023	14526
885.148	14674
885.274	14724
885.399	14590
885.524	14610
885.65	14606
885.775	14629
885.9	14507
886.025	14667
886.15	14579
886.275	14518
886.4	14484
886.525	14545
886.65	14454
886.775	14495
886.9	14629
887.025	14861
887.149	14537
887.274	14400
887.399	14301
887.523	14400
887.648	14370
887.773	14210
887.897	14461
888.021	14507
888.146	14328
888.27	14488
888.395	14499
888.519	14473
888.643	14507
888.767	14404
888.891	14370
889.015	14290
889.139	14263
889.263	14324
889.387	14442
889.511	14537
889.635	14385
889.759	14309
889.883	14237
890.006	14282
890.13	14415
890.254	14187
890.377	14336
890.501	14069
890.624	14001
890.748	14119
890.871	14020
890.995	13997
891.118	13852
891.241	13993
891.364	13955
891.488	14043
891.611	13997
891.734	13947
891.857	14046
891.98	14012
892.103	14073
892.226	14077
892.349	13982
892.471	13803
892.594	14005
892.717	13993
892.839	13959
892.962	14065
893.085	14027
893.207	13864
893.33	13837
893.452	13799
893.575	13989
893.697	13947
893.819	14157
893.941	14168
894.064	14168
894.186	14054
894.308	13970
894.43	14008
894.552	14229
894.674	14172
894.796	13860
894.918	14050
895.04	14024
895.161	14046
895.283	14142
895.405	13913
895.526	14138
895.648	14084
895.769	14119
895.891	14103
896.012	14119
896.134	14168
896.255	14077
896.376	14100
896.498	14149
896.619	14187
896.74	14161
896.861	14309
896.982	14549
897.103	14617
897.224	14434
897.345	14408
897.466	14275
897.587	14404
897.708	14522
897.828	14351
897.949	14374
898.07	14275
898.19	14385
898.311	14571
898.431	14412
898.552	14511
898.672	14549
898.792	14587
898.913	14564
899.033	14457
899.153	14301
899.273	14218
899.393	14389
899.513	14320
899.633	14336
899.753	14370
899.873	14282
899.993	14446
900.113	14278
900.232	14309
900.352	14347
900.472	14301
900.591	14138
900.711	14301
900.83	14138
900.95	14313
901.069	14317
901.189	14191
901.308	13909
901.427	13879
901.546	13875
901.665	13822
901.784	13997
901.904	13719
902.023	13719
902.141	13537
902.26	13483
902.379	13666
902.498	13483
902.617	13480
902.735	13544
902.854	13430
902.973	13422
903.091	13228
903.21	13114
903.328	13244
903.446	13088
903.565	13080
903.683	13080
903.801	12954
903.919	13072
904.038	12947
904.156	12916
904.274	12806
904.392	12844
904.51	12848
904.627	12844
904.745	12928
904.863	12848
904.981	12700
905.098	12471
905.216	12490
905.334	12513
905.451	12448
905.569	12490
905.686	12521
905.803	12612
905.921	12445
906.038	12460
906.155	12391
906.272	12281
906.389	12346
906.506	12102
906.623	12228
906.74	12076
906.857	12068
906.974	12060
907.091	12232
907.208	12247
907.324	12136
907.441	12049
907.557	11999
907.674	11916
907.79	11809
907.907	11821
908.023	11901
908.139	11897
908.256	11836
908.372	11817
908.488	11748
908.604	11665
908.72	11619
908.836	11672
908.952	11642
909.068	11611
909.184	11767
909.3	11562
909.415	11714
909.531	11668
909.647	11436
909.762	11467
909.878	11376
909.993	11440
910.108	11402
910.224	11341
910.339	11398
910.454	11315
910.57	11284
910.685	11246
910.8	11440
910.915	11440
911.03	11315
911.145	11170
911.259	11064
911.374	11094
911.489	11079
911.604	10927
911.718	10915
911.833	10835
911.947	10809
912.062	10694
912.176	10828
912.291	10793
912.405	10869
912.519	11045
912.633	11124
912.748	10915
912.862	10892
912.976	10755
913.09	10656
913.204	10771
913.318	10748
913.431	10835
913.545	10889
913.659	10946
913.772	10782
913.886	10656
914	10645
914.113	10793
914.226	10873
914.34	10683
914.453	10558
914.566	10752
914.68	10584
914.793	10569
914.906	10360
915.019	10367
915.132	10325
915.245	10367
915.358	10402
915.47	10436
915.583	10413
915.696	10481
915.809	10592
915.921	10523
916.034	10386
916.146	10333
916.259	10261
916.371	10493
916.483	10333
916.595	10306
916.708	10409
916.82	10257
916.932	10295
917.044	10261
917.156	10249
917.268	10166
917.38	10135
917.491	10223
917.603	10215
917.715	10303
917.826	10303
917.938	10207
918.049	10105
918.161	10234
918.272	10424
918.384	10421
918.495	10246
918.606	10143
918.717	10120
918.828	10204
918.939	10154
919.05	10002
919.161	10036
919.272	9960
919.383	10101
919.494	10185
919.604	10333
919.715	10112
919.826	10044
919.936	10059
920.047	10204
920.157	10044
920.267	10352
920.378	10177
920.488	10150
920.598	10318
920.708	10546
920.818	10322
920.928	10306
921.038	10428
921.148	10394
921.258	10196
921.368	10166
921.477	9953
921.587	9991
921.697	9873
921.806	9998
921.916	9831
922.025	9656
922.134	9705
922.244	9641
922.353	9671
922.462	9538
922.571	9477
922.68	9374
922.789	9367
922.898	9386
923.007	9348
923.116	9424
923.224	9325
923.333	9340
923.442	9264
923.55	9203
923.659	9253
923.767	9332
923.876	9203
923.984	9340
924.092	9241
924.201	9241
924.309	9272
924.417	9302
924.525	9218
924.633	9222
924.741	9937
924.849	9074
924.956	9207
925.064	8952
925.172	9028
925.279	9070
925.387	9081
925.494	8986
925.602	9150
925.709	9157
925.816	8982
925.924	9089
926.031	9154
926.138	9043
926.245	9066
926.352	9001
926.459	9127
926.566	9169
926.673	9020
926.779	8960
926.886	8842
926.993	8724
927.099	8682
927.206	8716
927.312	8686
927.419	8777
927.525	8792
927.631	8785
927.737	8758
927.843	8682
927.95	8552
928.056	8602
928.162	8640
928.267	8720
928.373	9161
928.479	8724
928.585	8571
928.69	8705
928.796	8712
928.901	8590
929.007	8404
929.112	8613
929.218	8575
929.323	8461
929.428	8419
929.533	8556
929.638	8457
929.743	8499
929.848	8461
929.953	8533
930.058	8377
930.163	8164
930.267	8256
930.372	8358
930.477	8183
930.581	8438
930.685	8286
930.79	8157
930.894	8225
930.998	8206
931.103	8419
931.207	7959
931.311	8008
931.415	7849
931.519	7693
931.623	7674
