Data from test_V78500241_2098.txt Node
Date: Fri Mar 25 14:48:19 CST 2022
User: usil
Spectrometer: V785-0024
Trigger mode: 0
Integration Time (sec): 4.000000E-1
Scans to average: 1
Nonlinearity correction enabled: false
Boxcar width: 0
Storing dark spectrum: false
XAxis mode: Wavelengths
Number of Pixels in Spectrum: 1024
>>>>>Begin Spectral Data<<<<<
801.071	22078
801.214	21937
801.356	21755
801.499	21732
801.641	21439
801.783	21526
801.926	21447
802.068	21473
802.211	21313
802.353	21260
802.496	21055
802.638	20895
802.78	20918
802.923	20781
803.065	20807
803.208	20807
803.35	20857
803.492	20944
803.635	20933
803.777	20887
803.919	20899
804.061	21226
804.204	20830
804.346	20880
804.488	20670
804.63	20796
804.773	20606
804.915	20659
805.057	20800
805.199	20697
805.341	20762
805.483	20921
805.626	20921
805.768	20606
805.91	20777
806.052	20708
806.194	20644
806.336	20956
806.478	20773
806.62	20609
806.762	20762
806.904	20963
807.046	21211
807.188	21138
807.33	21081
807.472	21062
807.614	21005
807.756	20952
807.898	20914
808.04	20686
808.182	20777
808.324	20891
808.465	20823
808.607	20952
808.749	21161
808.891	21165
809.033	21397
809.174	21291
809.316	21165
809.458	21161
809.6	21207
809.741	21096
809.883	21302
810.025	21283
810.166	21370
810.308	21245
810.45	21188
810.591	21055
810.733	21066
810.875	20982
811.016	20864
811.158	20807
811.299	20937
811.441	20986
811.582	20994
811.724	20807
811.865	20910
812.007	20792
812.148	20876
812.29	20815
812.431	21020
812.573	21233
812.714	21325
812.855	21348
812.997	21462
813.138	21652
813.279	21496
813.421	21359
813.562	21359
813.703	21203
813.845	21077
813.986	20769
814.127	20640
814.268	20522
814.41	20457
814.551	20381
814.692	20526
814.833	20385
814.974	20355
815.115	20336
815.256	20256
815.397	20221
815.539	20320
815.68	20240
815.821	20180
815.962	20111
816.103	20145
816.244	19970
816.385	19849
816.526	19932
816.666	19727
816.807	19620
816.948	19677
817.089	19727
817.23	19616
817.371	19624
817.512	19548
817.653	19571
817.793	19586
817.934	19696
818.075	19700
818.216	19594
818.356	19586
818.497	19521
818.638	19285
818.778	19312
818.919	19164
819.06	19282
819.2	19499
819.341	19441
819.481	19449
819.622	19620
819.762	19769
819.903	19761
820.043	19597
820.184	19658
820.324	19632
820.465	19590
820.605	19521
820.746	19518
820.886	19388
821.026	19556
821.167	19567
821.307	19582
821.447	19529
821.588	19453
821.728	19293
821.868	19133
822.008	19000
822.149	18947
822.289	18852
822.429	18730
822.569	18722
822.709	18669
822.849	18467
822.99	18418
823.13	18410
823.27	18372
823.41	18315
823.55	18182
823.69	18296
823.83	18262
823.97	18194
824.11	18091
824.25	17992
824.389	18091
824.529	18125
824.669	17999
824.809	18285
824.949	18060
825.089	18117
825.228	17996
825.368	17931
825.508	17832
825.648	17927
825.787	17882
825.927	17961
826.067	17805
826.206	17767
826.346	17794
826.485	17855
826.625	17805
826.765	17958
826.904	17843
827.044	17691
827.183	17562
827.323	17551
827.462	17532
827.601	17589
827.741	17490
827.88	17478
828.02	17398
828.159	17398
828.298	17535
828.437	17501
828.577	17364
828.716	17657
828.855	17535
828.994	17288
829.134	17277
829.273	17395
829.412	17231
829.551	17147
829.69	17147
829.829	17269
829.968	17414
830.107	17326
830.246	17261
830.385	17265
830.524	17200
830.663	17109
830.802	16995
830.941	16866
831.08	16843
831.219	16919
831.357	16949
831.496	17041
831.635	16942
831.774	16850
831.913	16843
832.051	16725
832.19	16736
832.329	16725
832.467	16622
832.606	16493
832.744	16535
832.883	16630
833.022	16630
833.16	16641
833.299	16615
833.437	16546
833.576	16675
833.714	16649
833.852	16649
833.991	16584
834.129	16675
834.267	16763
834.406	16622
834.544	16733
834.682	16588
834.821	16618
834.959	16725
835.097	16554
835.235	16725
835.373	16622
835.511	16626
835.65	16523
835.788	16577
835.926	16382
836.064	16432
836.202	16409
836.34	16584
836.478	16607
836.615	16512
836.753	16588
836.891	16599
837.029	16626
837.167	16531
837.305	16523
837.443	16379
837.58	16363
837.718	16455
837.856	16417
837.993	16394
838.131	16291
838.269	16276
838.406	16386
838.544	16306
838.681	16105
838.819	16044
838.956	15956
839.094	15945
839.231	15956
839.369	16074
839.506	16287
839.643	16188
839.781	16002
839.918	15816
840.055	16036
840.193	15964
840.33	15918
840.467	16025
840.604	15979
840.742	16303
840.879	15846
841.016	15892
841.153	15857
841.29	16093
841.427	16029
841.564	15918
841.701	16025
841.838	16059
841.975	15819
842.112	15823
842.249	15762
842.385	15732
842.522	15903
842.659	15743
842.796	15682
842.933	15542
843.069	15667
843.206	15629
843.343	15766
843.479	15720
843.616	15808
843.752	15572
843.889	15572
844.025	15755
844.162	15488
844.298	15561
844.435	15606
844.571	15477
844.708	15542
844.844	15606
844.98	15701
845.117	15618
845.253	15538
845.389	15401
845.525	15477
845.661	15431
845.798	15370
845.934	15382
846.07	15302
846.206	15382
846.342	15447
846.478	15317
846.614	15093
846.75	15131
846.886	15055
847.022	15268
847.158	15062
847.294	15135
847.429	15055
847.565	15135
847.701	15233
847.837	14883
847.972	14769
848.108	14823
848.244	14845
848.379	14758
848.515	14705
848.65	14640
848.786	14735
848.921	14697
849.057	14739
849.192	14758
849.328	14663
849.463	14659
849.598	14617
849.734	14655
849.869	14518
850.004	14469
850.14	14564
850.275	14393
850.41	14431
850.545	14461
850.68	14461
850.815	14598
850.95	14465
851.085	14632
851.22	14552
851.355	14461
851.49	14522
851.625	14533
851.76	14377
851.895	14374
852.03	14282
852.165	14457
852.299	14579
852.434	14484
852.569	14514
852.703	14450
852.838	14514
852.973	14629
853.107	14560
853.242	14381
853.376	14271
853.511	14210
853.645	14225
853.78	14514
853.914	14351
854.048	14286
854.183	14351
854.317	14259
854.451	14488
854.585	14343
854.72	14347
854.854	14351
854.988	14305
855.122	14358
855.256	14180
855.39	14381
855.524	14473
855.658	14457
855.792	14423
855.926	14351
856.06	14393
856.194	14446
856.327	14320
856.461	14130
856.595	14183
856.729	14317
856.862	14492
856.996	14358
857.13	14374
857.263	14427
857.397	14533
857.53	14389
857.664	14347
857.797	14389
857.931	14511
858.064	14275
858.197	14457
858.331	14309
858.464	14320
858.597	14183
858.731	14404
858.864	14358
858.997	14275
859.13	14358
859.263	14454
859.396	14351
859.529	14396
859.662	14275
859.795	14233
859.928	14328
860.061	14461
860.194	14431
860.327	14324
860.46	14259
860.592	14526
860.725	14541
860.858	14457
860.99	14301
861.123	14328
861.256	14240
861.388	14332
861.521	14834
861.653	14199
861.786	14138
861.918	14202
862.05	14320
862.183	14366
862.315	14278
862.447	14396
862.58	14286
862.712	14088
862.844	14046
862.976	14149
863.108	14168
863.24	14480
863.372	13989
863.504	14111
863.636	14096
863.768	14130
863.9	14145
864.032	14031
864.164	14111
864.296	14157
864.428	14187
864.559	14142
864.691	14195
864.823	14168
864.954	14092
865.086	14180
865.217	14119
865.349	13974
865.48	13974
865.612	14062
865.743	14282
865.875	14111
866.006	14115
866.137	14081
866.269	14119
866.4	14092
866.531	14069
866.662	14005
866.793	14016
866.924	14069
867.055	14176
867.186	14031
867.317	13997
867.448	13993
867.579	13928
867.71	13951
867.841	14058
867.972	14054
868.103	14043
868.233	14073
868.364	14039
868.495	14103
868.625	14336
868.756	14446
868.886	14286
869.017	14282
869.147	14408
869.278	14488
869.408	14400
869.539	14431
869.669	14419
869.799	14461
869.929	14533
870.06	14450
870.19	14651
870.32	14617
870.45	14659
870.58	14705
870.71	14891
870.84	14800
870.97	14705
871.1	14651
871.23	15001
871.36	14887
871.489	14933
871.619	14857
871.749	14921
871.879	15058
872.008	15081
872.138	14941
872.267	14948
872.397	14788
872.526	14769
872.656	14720
872.785	14727
872.915	14914
873.044	15119
873.173	15001
873.303	15013
873.432	15036
873.561	15058
873.69	15077
873.819	14994
873.948	15039
874.077	14998
874.206	14982
874.335	15020
874.464	15180
874.593	15298
874.722	15252
874.851	15291
874.979	15294
875.108	15363
875.237	15264
875.365	15283
875.494	15218
875.623	15298
875.751	15294
875.88	15332
876.008	15424
876.136	15515
876.265	15751
876.393	15785
876.521	15827
876.65	15751
876.778	15785
876.906	15690
877.034	15648
877.162	15728
877.29	15675
877.418	15747
877.546	15694
877.674	15713
877.802	15682
877.93	15652
878.058	15701
878.185	15663
878.313	15694
878.441	15618
878.568	15492
878.696	15595
878.824	15648
878.951	15850
879.079	15945
879.206	15998
879.333	15876
879.461	15816
879.588	15759
879.715	15857
879.842	16063
879.97	15797
880.097	15648
880.224	15614
880.351	15542
880.478	15481
880.605	15549
880.732	15485
880.859	15816
880.986	15755
881.112	15614
881.239	15424
881.366	15389
881.493	15272
881.619	15249
881.746	15283
881.872	15184
881.999	15157
882.125	15241
882.252	15302
882.378	15317
882.505	15378
882.631	15127
882.757	15032
882.883	15043
883.01	14990
883.136	14948
883.262	14956
883.388	14895
883.514	14952
883.64	15024
883.766	14994
883.892	14902
884.018	14929
884.143	14960
884.269	15127
884.395	14773
884.52	14876
884.646	14746
884.772	14712
884.897	14689
885.023	14762
885.148	14823
885.274	14910
885.399	14796
885.524	14857
885.65	14773
885.775	14811
885.9	14743
886.025	14910
886.15	14853
886.275	14689
886.4	14663
886.525	14648
886.65	14762
886.775	14701
886.9	14842
887.025	14979
887.149	14750
887.274	14613
887.399	14396
887.523	14617
887.648	14541
887.773	14590
887.897	14659
888.021	14762
888.146	14526
888.27	14663
888.395	14682
888.519	14686
888.643	14556
888.767	14686
888.891	14427
889.015	14499
889.139	14454
889.263	14389
889.387	14552
889.511	14686
889.635	14518
889.759	14457
889.883	14511
890.006	14499
890.13	14514
890.254	14347
890.377	14438
890.501	14305
890.624	14202
890.748	14362
890.871	14294
890.995	14126
891.118	14050
891.241	14157
891.364	14149
891.488	14301
891.611	14199
891.734	14210
891.857	14180
891.98	14111
892.103	14244
892.226	14240
892.349	14062
892.471	14092
892.594	14172
892.717	14176
892.839	14221
892.962	14123
893.085	14256
893.207	14138
893.33	14054
893.452	13997
893.575	14210
893.697	14180
893.819	14278
893.941	14351
894.064	14301
894.186	14168
894.308	14142
894.43	14328
894.552	14332
894.674	14278
894.796	14107
894.918	14313
895.04	14294
895.161	14324
895.283	14305
895.405	14191
895.526	14305
895.648	14252
895.769	14271
895.891	14343
896.012	14355
896.134	14404
896.255	14332
896.376	14259
896.498	14286
896.619	14484
896.74	14301
896.861	14427
896.982	14621
897.103	14792
897.224	14526
897.345	14518
897.466	14587
897.587	14552
897.708	14705
897.828	14629
897.949	14587
898.07	14423
898.19	14499
898.311	14785
898.431	14606
898.552	14682
898.672	14716
898.792	14781
898.913	14720
899.033	14541
899.153	14518
899.273	14454
899.393	14507
899.513	14636
899.633	14526
899.753	14495
899.873	14530
899.993	14507
900.113	14533
900.232	14575
900.352	14499
900.472	14476
900.591	14347
900.711	14431
900.83	14389
900.95	14438
901.069	14492
901.189	14305
901.308	14035
901.427	13921
901.546	14039
901.665	14081
901.784	14088
901.904	13967
902.023	13921
902.141	13738
902.26	13670
902.379	13616
902.498	13632
902.617	13658
902.735	13655
902.854	13662
902.973	13514
903.091	13400
903.21	13343
903.328	13354
903.446	13335
903.565	13240
903.683	13251
903.801	13122
903.919	13225
904.038	13126
904.156	13072
904.274	13076
904.392	13042
904.51	13034
904.627	13031
904.745	13031
904.863	13187
904.981	12741
905.098	12745
905.216	12726
905.334	12730
905.451	12783
905.569	12635
905.686	12726
905.803	12662
905.921	12555
906.038	12608
906.155	12555
906.272	12418
906.389	12509
906.506	12330
906.623	12292
906.74	12243
906.857	12197
906.974	12190
907.091	12323
907.208	12460
907.324	12323
907.441	12251
907.557	12114
907.674	12053
907.79	11927
907.907	11927
908.023	12140
908.139	11980
908.256	12041
908.372	11961
908.488	11920
908.604	11885
908.72	11786
908.836	11798
908.952	11722
909.068	11840
909.184	11942
909.3	11718
909.415	11828
909.531	11843
909.647	11638
909.762	11573
909.878	11600
909.993	11547
910.108	11585
910.224	11592
910.339	11478
910.454	11410
910.57	11493
910.685	11364
910.8	11684
910.915	11608
911.03	11490
911.145	11368
911.259	11315
911.374	11239
911.489	11204
911.604	11121
911.718	11121
911.833	11018
911.947	10957
912.062	10866
912.176	11033
912.291	11090
912.405	10995
912.519	11216
912.633	11284
912.748	11117
912.862	11090
912.976	10938
913.09	10850
913.204	10904
913.318	10869
913.431	10953
913.545	11006
913.659	11052
913.772	10816
913.886	10714
914	10767
914.113	10847
914.226	10949
914.34	10862
914.453	10771
914.566	10869
914.68	10740
914.793	10702
914.906	10626
915.019	10462
915.132	10466
915.245	10554
915.358	10558
915.47	10584
915.583	10546
915.696	10584
915.809	10660
915.921	10668
916.034	10394
916.146	10516
916.259	10459
916.371	10527
916.483	10519
916.595	10402
916.708	10470
916.82	10470
916.932	10481
917.044	10485
917.156	10337
917.268	10356
917.38	10421
917.491	10382
917.603	10413
917.715	10432
917.826	10402
917.938	10299
918.049	10299
918.161	10356
918.272	10489
918.384	10474
918.495	10322
918.606	10173
918.717	10215
918.828	10322
918.939	10246
919.05	10143
919.161	10234
919.272	9983
919.383	10082
919.494	10310
919.604	10455
919.715	10234
919.826	10223
919.936	10284
920.047	10386
920.157	10238
920.267	10481
920.378	10272
920.488	10181
920.598	10470
920.708	10618
920.818	10485
920.928	10535
921.038	10618
921.148	10565
921.258	10352
921.368	10227
921.477	10173
921.587	10181
921.697	10021
921.806	10185
921.916	10002
922.025	9831
922.134	9743
922.244	9797
922.353	9804
922.462	9663
922.571	9595
922.68	9515
922.789	9553
922.898	9469
923.007	9488
923.116	9561
923.224	9553
923.333	9523
923.442	9363
923.55	9370
923.659	9374
923.767	9492
923.876	9408
923.984	9469
924.092	9310
924.201	9408
924.309	9367
924.417	9424
924.525	9283
924.633	9321
924.741	10227
924.849	9188
924.956	9340
925.064	9195
925.172	9142
925.279	9150
925.387	9260
925.494	9199
925.602	9272
925.709	9211
925.816	9077
925.924	9188
926.031	9237
926.138	9154
926.245	9211
926.352	9089
926.459	9222
926.566	9256
926.673	9093
926.779	8967
926.886	8979
926.993	8944
927.099	8823
927.206	8762
927.312	8823
927.419	8941
927.525	8823
927.631	8891
927.737	8746
927.843	8701
927.95	8655
928.056	8750
928.162	8743
928.267	8906
928.373	9420
928.479	8891
928.585	8625
928.69	8720
928.796	8766
928.901	8758
929.007	8545
929.112	8682
929.218	8659
929.323	8564
929.428	8587
929.533	8743
929.638	8473
929.743	8579
929.848	8678
929.953	8598
930.058	8488
930.163	8313
930.267	8324
930.372	8522
930.477	8301
930.581	8564
930.685	8476
930.79	8282
930.894	8313
930.998	8279
931.103	8396
931.207	8039
931.311	8073
931.415	7883
931.519	7776
931.623	7795
