Data from test_V78500241_3224.txt Node
Date: Fri Mar 25 14:56:09 CST 2022
User: usil
Spectrometer: V785-0024
Trigger mode: 0
Integration Time (sec): 4.000000E-1
Scans to average: 1
Nonlinearity correction enabled: false
Boxcar width: 0
Storing dark spectrum: false
XAxis mode: Wavelengths
Number of Pixels in Spectrum: 1024
>>>>>Begin Spectral Data<<<<<
801.071	21975
801.214	21766
801.356	21587
801.499	21538
801.641	21408
801.783	21443
801.926	21466
802.068	21302
802.211	21226
802.353	21150
802.496	20895
802.638	20830
802.78	20815
802.923	20724
803.065	20549
803.208	20568
803.35	20655
803.492	20895
803.635	20830
803.777	20674
803.919	20811
804.061	20910
804.204	20746
804.346	20526
804.488	20583
804.63	20583
804.773	20644
804.915	20625
805.057	20769
805.199	20385
805.341	20537
805.483	20674
805.626	20716
805.768	20613
805.91	20606
806.052	20663
806.194	20560
806.336	20807
806.478	20606
806.62	20514
806.762	20617
806.904	20800
807.046	20998
807.188	20895
807.33	20807
807.472	20910
807.614	20975
807.756	20899
807.898	20659
808.04	20697
808.182	20629
808.324	20659
808.465	20705
808.607	20868
808.749	20899
808.891	21077
809.033	21169
809.174	20960
809.316	20857
809.458	21009
809.6	20914
809.741	20883
809.883	21043
810.025	21085
810.166	21176
810.308	21081
810.45	21009
810.591	20971
810.733	20777
810.875	20781
811.016	20686
811.158	20644
811.299	20819
811.441	20826
811.582	20857
811.724	20678
811.865	20693
812.007	20629
812.148	20792
812.29	20735
812.431	20899
812.573	21104
812.714	21108
812.855	21028
812.997	21367
813.138	21405
813.279	21272
813.421	21264
813.562	21039
813.703	21085
813.845	20971
813.986	20556
814.127	20252
814.268	20320
814.41	20313
814.551	20309
814.692	20343
814.833	20149
814.974	20172
815.115	20278
815.256	19993
815.397	20142
815.539	20035
815.68	20050
815.821	19978
815.962	20001
816.103	19791
816.244	19902
816.385	19750
816.526	19704
816.666	19506
816.807	19419
816.948	19441
817.089	19506
817.23	19445
817.371	19411
817.512	19434
817.653	19381
817.793	19263
817.934	19320
818.075	19343
818.216	19247
818.356	19358
818.497	19183
818.638	19126
818.778	19042
818.919	19110
819.06	19141
819.2	19168
819.341	19152
819.481	19148
819.622	19331
819.762	19594
819.903	19582
820.043	19537
820.184	19384
820.324	19312
820.465	19445
820.605	19400
820.746	19270
820.886	19145
821.026	19327
821.167	19274
821.307	19358
821.447	19335
821.588	19148
821.728	19118
821.868	19004
822.008	18840
822.149	18871
822.289	18730
822.429	18540
822.569	18483
822.709	18448
822.849	18289
822.99	18292
823.13	18228
823.27	18258
823.41	18136
823.55	18087
823.69	18110
823.83	18076
823.97	18034
824.11	17923
824.25	17786
824.389	17893
824.529	17813
824.669	17779
824.809	17920
824.949	17901
825.089	17942
825.228	17950
825.368	17710
825.508	17638
825.648	17649
825.787	17707
825.927	17672
826.067	17600
826.206	17577
826.346	17703
826.485	17733
826.625	17630
826.765	17581
826.904	17562
827.044	17402
827.183	17387
827.323	17292
827.462	17349
827.601	17383
827.741	17372
827.88	17398
828.02	17147
828.159	17296
828.298	17299
828.437	17459
828.577	17307
828.716	17406
828.855	17265
828.994	17086
829.134	17052
829.273	17128
829.412	17143
829.551	17090
829.69	17037
829.829	17189
829.968	17223
830.107	17064
830.246	17094
830.385	17105
830.524	16980
830.663	16957
830.802	16767
830.941	16691
831.08	16694
831.219	16889
831.357	16885
831.496	16892
831.635	16736
831.774	16603
831.913	16637
832.051	16504
832.19	16523
832.329	16535
832.467	16417
832.606	16310
832.744	16268
832.883	16341
833.022	16413
833.16	16527
833.299	16394
833.437	16432
833.576	16287
833.714	16580
833.852	16538
833.991	16565
834.129	16523
834.267	16561
834.406	16436
834.544	16565
834.682	16504
834.821	16432
834.959	16546
835.097	16443
835.235	16565
835.373	16531
835.511	16493
835.65	16459
835.788	16382
835.926	16242
836.064	16268
836.202	16204
836.34	16500
836.478	16447
836.615	16367
836.753	16363
836.891	16519
837.029	16344
837.167	16363
837.305	16234
837.443	16219
837.58	16207
837.718	16295
837.856	16318
837.993	16188
838.131	16280
838.269	16139
838.406	16158
838.544	16067
838.681	15998
838.819	15907
838.956	15789
839.094	15762
839.231	15831
839.369	16006
839.506	16169
839.643	16048
839.781	15797
839.918	15808
840.055	15766
840.193	15682
840.33	15732
840.467	15808
840.604	15838
840.742	16021
840.879	15736
841.016	15728
841.153	15747
841.29	15956
841.427	15842
841.564	15850
841.701	15918
841.838	15804
841.975	15690
842.112	15595
842.249	15519
842.385	15469
842.522	15739
842.659	15656
842.796	15572
842.933	15568
843.069	15599
843.206	15633
843.343	15637
843.479	15660
843.616	15584
843.752	15435
843.889	15389
844.025	15469
844.162	15268
844.298	15466
844.435	15382
844.571	15272
844.708	15420
844.844	15496
844.98	15564
845.117	15526
845.253	15378
845.389	15241
845.525	15260
845.661	15241
845.798	15230
845.934	15237
846.07	15154
846.206	15192
846.342	15298
846.478	15142
846.614	14956
846.75	14895
846.886	14864
847.022	15051
847.158	14918
847.294	14918
847.429	14979
847.565	14975
847.701	15085
847.837	14727
847.972	14590
848.108	14651
848.244	14640
848.379	14587
848.515	14484
848.65	14480
848.786	14503
848.921	14568
849.057	14648
849.192	14644
849.328	14552
849.463	14545
849.598	14465
849.734	14389
849.869	14355
850.004	14237
850.14	14343
850.275	14355
850.41	14252
850.545	14278
850.68	14389
850.815	14366
850.95	14286
851.085	14492
851.22	14442
851.355	14362
851.49	14313
851.625	14271
851.76	14317
851.895	14130
852.03	14210
852.165	14199
852.299	14313
852.434	14393
852.569	14370
852.703	14336
852.838	14419
852.973	14434
853.107	14431
853.242	14263
853.376	14237
853.511	14107
853.645	14252
853.78	14176
853.914	14138
854.048	14157
854.183	14111
854.317	14164
854.451	14309
854.585	14130
854.72	14153
854.854	14180
854.988	14081
855.122	14206
855.256	14058
855.39	14237
855.524	14320
855.658	14301
855.792	14183
855.926	14218
856.06	14233
856.194	14282
856.327	14168
856.461	14168
856.595	14073
856.729	14107
856.862	14221
856.996	14142
857.13	14240
857.263	14252
857.397	14172
857.53	14149
857.664	14214
857.797	14187
857.931	14278
858.064	14225
858.197	14225
858.331	14180
858.464	14039
858.597	14123
858.731	14218
858.864	14111
858.997	14123
859.13	14252
859.263	14229
859.396	14298
859.529	14054
859.662	14134
859.795	14153
859.928	14157
860.061	14305
860.194	14339
860.327	14210
860.46	14115
860.592	14221
860.725	14301
860.858	14290
860.99	14168
861.123	14149
861.256	14119
861.388	14126
861.521	14963
861.653	13989
861.786	14065
861.918	14016
862.05	14157
862.183	14050
862.315	14263
862.447	14218
862.58	14062
862.712	13955
862.844	13837
862.976	14016
863.108	13993
863.24	14469
863.372	13845
863.504	13963
863.636	14016
863.768	14020
863.9	13970
864.032	13833
864.164	13936
864.296	14039
864.428	14012
864.559	14027
864.691	13986
864.823	13986
864.954	13989
865.086	14027
865.217	14005
865.349	13947
865.48	13932
865.612	13982
865.743	14100
865.875	13928
866.006	13887
866.137	13944
866.269	13936
866.4	14001
866.531	13932
866.662	13906
866.793	13818
866.924	13993
867.055	13871
867.186	13928
867.317	13864
867.448	13776
867.579	13860
867.71	13780
867.841	13826
867.972	13986
868.103	13925
868.233	13818
868.364	13978
868.495	13951
868.625	14107
868.756	14214
868.886	14062
869.017	14183
869.147	14256
869.278	14305
869.408	14149
869.539	14145
869.669	14267
869.799	14317
869.929	14320
870.06	14240
870.19	14575
870.32	14507
870.45	14514
870.58	14571
870.71	14655
870.84	14708
870.97	14560
871.1	14522
871.23	14735
871.36	14807
871.489	14663
871.619	14750
871.749	14716
871.879	14769
872.008	14853
872.138	14880
872.267	14815
872.397	14651
872.526	14598
872.656	14686
872.785	14712
872.915	14785
873.044	14990
873.173	14861
873.303	14731
873.432	14872
873.561	14804
873.69	14834
873.819	14842
873.948	14982
874.077	14842
874.206	14777
874.335	14849
874.464	15043
874.593	15135
874.722	15020
874.851	15195
874.979	15043
875.108	15226
875.237	15135
875.365	15123
875.494	15138
875.623	15192
875.751	15062
875.88	15176
876.008	15386
876.136	15382
876.265	15576
876.393	15812
876.521	15652
876.65	15553
876.778	15675
876.906	15553
877.034	15523
877.162	15595
877.29	15568
877.418	15534
877.546	15515
877.674	15561
877.802	15553
877.93	15553
878.058	15557
878.185	15454
878.313	15530
878.441	15542
878.568	15466
878.696	15538
878.824	15648
878.951	15694
879.079	15694
879.206	15907
879.333	15633
879.461	15671
879.588	15682
879.715	15800
879.842	15797
879.97	15595
880.097	15367
880.224	15466
880.351	15420
880.478	15511
880.605	15291
880.732	15431
880.859	15728
880.986	15466
881.112	15344
881.239	15317
881.366	15173
881.493	15100
881.619	15104
881.746	15058
881.872	15135
881.999	15051
882.125	15058
882.252	15138
882.378	15150
882.505	15275
882.631	15009
882.757	14891
882.883	14982
883.01	14929
883.136	14792
883.262	14765
883.388	14781
883.514	14891
883.64	14853
883.766	14758
883.892	14743
884.018	14811
884.143	14864
884.269	14979
884.395	14598
884.52	14518
884.646	14571
884.772	14511
884.897	14602
885.023	14762
885.148	14636
885.274	14743
885.399	14708
885.524	14663
885.65	14621
885.775	14651
885.9	14530
886.025	14724
886.15	14602
886.275	14552
886.4	14488
886.525	14560
886.65	14484
886.775	14514
886.9	14686
887.025	14876
887.149	14583
887.274	14484
887.399	14336
887.523	14396
887.648	14305
887.773	14358
887.897	14465
888.021	14499
888.146	14404
888.27	14522
888.395	14590
888.519	14480
888.643	14446
888.767	14454
888.891	14374
889.015	14309
889.139	14393
889.263	14305
889.387	14434
889.511	14552
889.635	14415
889.759	14317
889.883	14282
890.006	14324
890.13	14446
890.254	14233
890.377	14134
890.501	14138
890.624	14065
890.748	14172
890.871	14145
890.995	13925
891.118	13868
891.241	13932
891.364	13993
891.488	14187
891.611	13932
891.734	13997
891.857	14130
891.98	14031
892.103	14096
892.226	14062
892.349	13894
892.471	13784
892.594	13986
892.717	13989
892.839	13974
892.962	13986
893.085	14069
893.207	14005
893.33	13902
893.452	13982
893.575	14111
893.697	13871
893.819	14180
893.941	14244
894.064	14168
894.186	14005
894.308	13921
894.43	14153
894.552	14103
894.674	14153
894.796	14035
894.918	13940
895.04	14077
895.161	14149
895.283	14088
895.405	14031
895.526	14142
895.648	14138
895.769	14172
895.891	14183
896.012	14263
896.134	14180
896.255	14187
896.376	14081
896.498	14161
896.619	14199
896.74	14176
896.861	14138
896.982	14473
897.103	14632
897.224	14568
897.345	14362
897.466	14442
897.587	14431
897.708	14640
897.828	14469
897.949	14404
898.07	14248
898.19	14469
898.311	14530
898.431	14488
898.552	14518
898.672	14602
898.792	14495
898.913	14587
899.033	14484
899.153	14427
899.273	14294
899.393	14400
899.513	14442
899.633	14457
899.753	14438
899.873	14324
899.993	14469
900.113	14347
900.232	14427
900.352	14385
900.472	14298
900.591	14225
900.711	14157
900.83	14221
900.95	14336
901.069	14370
901.189	14221
901.308	13917
901.427	13951
901.546	14073
901.665	13974
901.784	14005
901.904	13788
902.023	13674
902.141	13571
902.26	13453
902.379	13575
902.498	13495
902.617	13419
902.735	13506
902.854	13453
902.973	13472
903.091	13175
903.21	13259
903.328	13183
903.446	13126
903.565	13015
903.683	13076
903.801	12985
903.919	13034
904.038	13061
904.156	12848
904.274	12905
904.392	12837
904.51	12924
904.627	12837
904.745	12871
904.863	13004
904.981	12772
905.098	12536
905.216	12506
905.334	12612
905.451	12642
905.569	12521
905.686	12620
905.803	12593
905.921	12426
906.038	12582
906.155	12467
906.272	12266
906.389	12292
906.506	12076
906.623	12152
906.74	12144
906.857	12038
906.974	12110
907.091	12311
907.208	12304
907.324	12163
907.441	12079
907.557	11992
907.674	11832
907.79	11813
907.907	11897
908.023	12026
908.139	11935
908.256	11836
908.372	11821
908.488	11824
908.604	11676
908.72	11676
908.836	11672
908.952	11688
909.068	11760
909.184	11779
909.3	11642
909.415	11729
909.531	11657
909.647	11436
909.762	11505
909.878	11455
909.993	11414
910.108	11452
910.224	11383
910.339	11436
910.454	11379
910.57	11307
910.685	11231
910.8	11532
910.915	11395
911.03	11258
911.145	11178
911.259	11132
911.374	11143
911.489	11029
911.604	11022
911.718	10866
911.833	10828
911.947	10786
912.062	10733
912.176	10881
912.291	10995
912.405	10866
912.519	11098
912.633	11010
912.748	10919
912.862	10885
912.976	10733
913.09	10687
913.204	10755
913.318	10812
913.431	10835
913.545	10801
913.659	10942
913.772	10763
913.886	10683
914	10626
914.113	10805
914.226	10835
914.34	10774
914.453	10527
914.566	10778
914.68	10626
914.793	10596
914.906	10432
915.019	10325
915.132	10306
915.245	10440
915.358	10379
915.47	10375
915.583	10459
915.696	10413
915.809	10561
915.921	10531
916.034	10379
916.146	10318
916.259	10268
916.371	10428
916.483	10363
916.595	10352
916.708	10337
916.82	10287
916.932	10314
917.044	10352
917.156	10284
917.268	10257
917.38	10200
917.491	10181
917.603	10303
917.715	10295
917.826	10394
917.938	10295
918.049	10158
918.161	10230
918.272	10382
918.384	10478
918.495	10306
918.606	10131
918.717	10078
918.828	10051
918.939	10131
919.05	10032
919.161	10029
919.272	9907
919.383	9975
919.494	10173
919.604	10402
919.715	10147
919.826	10051
919.936	10162
920.047	10249
920.157	10188
920.267	10306
920.378	10185
920.488	10230
920.598	10341
920.708	10455
920.818	10284
920.928	10333
921.038	10561
921.148	10428
921.258	10143
921.368	10105
921.477	10017
921.587	9998
921.697	9854
921.806	9968
921.916	9911
922.025	9781
922.134	9705
922.244	9591
922.353	9698
922.462	9595
922.571	9587
922.68	9355
922.789	9378
922.898	9416
923.007	9321
923.116	9405
923.224	9443
923.333	9401
923.442	9283
923.55	9203
923.659	9268
923.767	9332
923.876	9298
923.984	9378
924.092	9218
924.201	9207
924.309	9222
924.417	9287
924.525	9214
924.633	9214
924.741	10120
924.849	9039
924.956	9207
925.064	8975
925.172	9104
925.279	8956
925.387	9070
925.494	9070
925.602	9138
925.709	9150
925.816	9039
925.924	9123
926.031	9108
926.138	9047
926.245	9081
926.352	9013
926.459	9146
926.566	9161
926.673	9058
926.779	8948
926.886	8967
926.993	8834
927.099	8743
927.206	8644
927.312	8750
927.419	8785
927.525	8762
927.631	8777
927.737	8739
927.843	8610
927.95	8537
928.056	8594
928.162	8682
928.267	8667
928.373	9211
928.479	8807
928.585	8484
928.69	8610
928.796	8701
928.901	8659
929.007	8492
929.112	8568
929.218	8568
929.323	8495
929.428	8526
929.533	8659
929.638	8336
929.743	8423
929.848	8571
929.953	8560
930.058	8408
930.163	8275
930.267	8271
930.372	8423
930.477	8305
930.581	8476
930.685	8362
930.79	8157
930.894	8206
930.998	8202
931.103	8294
931.207	7959
931.311	7898
931.415	7887
931.519	7750
931.623	7746
