Data from test_V78500241_1601.txt Node
Date: Fri Mar 25 14:44:51 CST 2022
User: usil
Spectrometer: V785-0024
Trigger mode: 0
Integration Time (sec): 4.000000E-1
Scans to average: 1
Nonlinearity correction enabled: false
Boxcar width: 0
Storing dark spectrum: false
XAxis mode: Wavelengths
Number of Pixels in Spectrum: 1024
>>>>>Begin Spectral Data<<<<<
801.071	22432
801.214	22246
801.356	22200
801.499	21857
801.641	21770
801.783	21663
801.926	21785
802.068	21641
802.211	21603
802.353	21454
802.496	21458
802.638	21302
802.78	21279
802.923	21116
803.065	20979
803.208	21055
803.35	21070
803.492	21203
803.635	21154
803.777	21039
803.919	21108
804.061	21405
804.204	21211
804.346	21043
804.488	20979
804.63	21116
804.773	20918
804.915	20990
805.057	20994
805.199	21043
805.341	21096
805.483	21180
805.626	21138
805.768	20960
805.91	21062
806.052	20990
806.194	20933
806.336	21291
806.478	20967
806.62	21032
806.762	20902
806.904	21184
807.046	21454
807.188	21416
807.33	21275
807.472	21401
807.614	21256
807.756	21340
807.898	21241
808.04	21013
808.182	21176
808.324	21138
808.465	21412
808.607	21348
808.749	21530
808.891	21614
809.033	21660
809.174	21583
809.316	21504
809.458	21523
809.6	21530
809.741	21507
809.883	21534
810.025	21557
810.166	21625
810.308	21428
810.45	21477
810.591	21435
810.733	21306
810.875	21256
811.016	21123
811.158	21184
811.299	21252
811.441	21283
811.582	21306
811.724	21291
811.865	21127
812.007	21146
812.148	21173
812.29	21325
812.431	21393
812.573	21534
812.714	21538
812.855	21606
812.997	21857
813.138	21918
813.279	21679
813.421	21747
813.562	21660
813.703	21458
813.845	21325
813.986	21119
814.127	20815
814.268	20819
814.41	20925
814.551	20575
814.692	20933
814.833	20663
814.974	20716
815.115	20781
815.256	20644
815.397	20560
815.539	20579
815.68	20381
815.821	20434
815.962	20457
816.103	20480
816.244	20305
816.385	20191
816.526	20244
816.666	19982
816.807	20031
816.948	20031
817.089	19993
817.23	19982
817.371	19837
817.512	19856
817.653	19909
817.793	19841
817.934	19875
818.075	19921
818.216	19906
818.356	19871
818.497	19712
818.638	19487
818.778	19571
818.919	19548
819.06	19681
819.2	19719
819.341	19727
819.481	19750
819.622	19909
819.762	20084
819.903	20062
820.043	19921
820.184	19898
820.324	19799
820.465	19913
820.605	19932
820.746	19811
820.886	19651
821.026	19868
821.167	19738
821.307	19860
821.447	19761
821.588	19632
821.728	19639
821.868	19381
822.008	19278
822.149	19320
822.289	19270
822.429	18894
822.569	18913
822.709	18954
822.849	18711
822.99	18760
823.13	18734
823.27	18692
823.41	18669
823.55	18399
823.69	18604
823.83	18509
823.97	18445
824.11	18262
824.25	18266
824.389	18426
824.529	18429
824.669	18395
824.809	18350
824.949	18399
825.089	18407
825.228	18330
825.368	18152
825.508	18106
825.648	18117
825.787	18243
825.927	18224
826.067	18007
826.206	18015
826.346	18102
826.485	18095
826.625	18129
826.765	18136
826.904	18117
827.044	17817
827.183	17870
827.323	17809
827.462	17840
827.601	17752
827.741	17707
827.88	17786
828.02	17638
828.159	17798
828.298	17786
828.437	17840
828.577	17687
828.716	17980
828.855	17676
828.994	17589
829.134	17566
829.273	17608
829.412	17467
829.551	17448
829.69	17486
829.829	17623
829.968	17558
830.107	17592
830.246	17589
830.385	17535
830.524	17353
830.663	17345
830.802	17239
830.941	17155
831.08	17124
831.219	17212
831.357	17200
831.496	17398
831.635	17235
831.774	17033
831.913	17121
832.051	16972
832.19	16984
832.329	16938
832.467	16987
832.606	16824
832.744	16790
832.883	16790
833.022	16736
833.16	16881
833.299	16820
833.437	16915
833.576	16896
833.714	16847
833.852	16892
833.991	16927
834.129	16904
834.267	16896
834.406	16885
834.544	16946
834.682	16911
834.821	16873
834.959	17075
835.097	16805
835.235	17056
835.373	16873
835.511	16850
835.65	16733
835.788	16805
835.926	16596
836.064	16538
836.202	16584
836.34	16713
836.478	16831
836.615	16748
836.753	16805
836.891	16786
837.029	16812
837.167	16672
837.305	16649
837.443	16607
837.58	16584
837.718	16634
837.856	16683
837.993	16485
838.131	16630
838.269	16481
838.406	16538
838.544	16466
838.681	16375
838.819	16322
838.956	16196
839.094	16234
839.231	16196
839.369	16257
839.506	16504
839.643	16344
839.781	16150
839.918	16234
840.055	16169
840.193	16158
840.33	16150
840.467	16223
840.604	16207
840.742	16443
840.879	16013
841.016	16067
841.153	16166
841.29	16253
841.427	16249
841.564	16192
841.701	16185
841.838	16120
841.975	16090
842.112	16010
842.249	16063
842.385	15850
842.522	16036
842.659	15922
842.796	15892
842.933	15949
843.069	15838
843.206	15918
843.343	16029
843.479	15915
843.616	16021
843.752	15713
843.889	15770
844.025	15838
844.162	15736
844.298	15827
844.435	15682
844.571	15728
844.708	15865
844.844	15838
844.98	15873
845.117	15823
845.253	15656
845.389	15610
845.525	15667
845.661	15709
845.798	15599
845.934	15717
846.07	15622
846.206	15641
846.342	15743
846.478	15572
846.614	15382
846.75	15268
846.886	15291
847.022	15348
847.158	15370
847.294	15294
847.429	15291
847.565	15241
847.701	15542
847.837	14982
847.972	15077
848.108	15074
848.244	15108
848.379	14937
848.515	14944
848.65	14800
848.786	14849
848.921	14891
849.057	14921
849.192	15017
849.328	14971
849.463	14815
849.598	14796
849.734	14800
849.869	14720
850.004	14781
850.14	14769
850.275	14701
850.41	14579
850.545	14632
850.68	14632
850.815	14708
850.95	14686
851.085	14785
851.22	14785
851.355	14602
851.49	14682
851.625	14629
851.76	14590
851.895	14511
852.03	14514
852.165	14617
852.299	14697
852.434	14777
852.569	14670
852.703	14735
852.838	14800
852.973	14842
853.107	14823
853.242	14785
853.376	14473
853.511	14522
853.645	14556
853.78	14621
853.914	14598
854.048	14499
854.183	14511
854.317	14522
854.451	14743
854.585	14499
854.72	14545
854.854	14564
854.988	14488
855.122	14442
855.256	14434
855.39	14507
855.524	14575
855.658	14587
855.792	14590
855.926	14526
856.06	14571
856.194	14583
856.327	14492
856.461	14473
856.595	14526
856.729	14473
856.862	14655
856.996	14602
857.13	14674
857.263	14720
857.397	14689
857.53	14575
857.664	14610
857.797	14632
857.931	14590
858.064	14568
858.197	14632
858.331	14537
858.464	14507
858.597	14476
858.731	14488
858.864	14583
858.997	14556
859.13	14564
859.263	14530
859.396	14682
859.529	14545
859.662	14488
859.795	14499
859.928	14537
860.061	14705
860.194	14800
860.327	14617
860.46	14503
860.592	14636
860.725	14667
860.858	14640
860.99	14522
861.123	14480
861.256	14480
861.388	14514
861.521	15336
861.653	14495
861.786	14336
861.918	14343
862.05	14541
862.183	14465
862.315	14533
862.447	14537
862.58	14541
862.712	14427
862.844	14324
862.976	14461
863.108	14434
863.24	14716
863.372	14320
863.504	14301
863.636	14343
863.768	14408
863.9	14400
864.032	14145
864.164	14332
864.296	14351
864.428	14408
864.559	14507
864.691	14404
864.823	14419
864.954	14355
865.086	14336
865.217	14313
865.349	14275
865.48	14290
865.612	14290
865.743	14423
865.875	14271
866.006	14290
866.137	14313
866.269	14355
866.4	14298
866.531	14195
866.662	14233
866.793	14301
866.924	14248
867.055	14358
867.186	14328
867.317	14259
867.448	14214
867.579	14240
867.71	14244
867.841	14206
867.972	14298
868.103	14275
868.233	14351
868.364	14351
868.495	14419
868.625	14450
868.756	14663
868.886	14461
869.017	14492
869.147	14606
869.278	14644
869.408	14629
869.539	14556
869.669	14606
869.799	14629
869.929	14788
870.06	14613
870.19	14921
870.32	14781
870.45	14785
870.58	14899
870.71	15055
870.84	15028
870.97	14933
871.1	14880
871.23	15108
871.36	15154
871.489	15108
871.619	15116
871.749	15097
871.879	15176
872.008	15252
872.138	15097
872.267	15097
872.397	15100
872.526	14982
872.656	14990
872.785	15066
872.915	15085
873.044	15142
873.173	15245
873.303	15199
873.432	15154
873.561	15226
873.69	15249
873.819	15184
873.948	15344
874.077	15214
874.206	15211
874.335	15180
874.464	15283
874.593	15488
874.722	15431
874.851	15511
874.979	15473
875.108	15523
875.237	15431
875.365	15382
875.494	15500
875.623	15572
875.751	15416
875.88	15625
876.008	15652
876.136	15709
876.265	15899
876.393	15964
876.521	15888
876.65	16055
876.778	15953
876.906	15888
877.034	15838
877.162	15922
877.29	15892
877.418	15899
877.546	15911
877.674	15975
877.802	16013
877.93	15873
878.058	15812
878.185	15781
878.313	15888
878.441	15899
878.568	15713
878.696	15873
878.824	15941
878.951	16101
879.079	16112
879.206	16166
879.333	16055
879.461	16025
879.588	16059
879.715	16131
879.842	16181
879.97	15994
880.097	15789
880.224	15766
880.351	15774
880.478	15812
880.605	15724
880.732	15713
880.859	15903
880.986	15797
881.112	15717
881.239	15629
881.366	15500
881.493	15424
881.619	15454
881.746	15542
881.872	15443
881.999	15389
882.125	15401
882.252	15439
882.378	15374
882.505	15606
882.631	15488
882.757	15169
882.883	15313
883.01	15260
883.136	15199
883.262	15195
883.388	15001
883.514	15218
883.64	15344
883.766	15195
883.892	15066
884.018	15138
884.143	15264
884.269	15332
884.395	15005
884.52	15009
884.646	14941
884.772	14853
884.897	14826
885.023	15009
885.148	15089
885.274	15119
885.399	15089
885.524	14948
885.65	14902
885.775	14956
885.9	14982
886.025	15108
886.15	15070
886.275	14880
886.4	14724
886.525	14910
886.65	14914
886.775	14838
886.9	15081
887.025	15135
887.149	14899
887.274	14735
887.399	14804
887.523	14731
887.648	14648
887.773	14636
887.897	14849
888.021	14777
888.146	14750
888.27	14910
888.395	14921
888.519	14785
888.643	14739
888.767	14842
888.891	14796
889.015	14629
889.139	14648
889.263	14575
889.387	14781
889.511	14781
889.635	14708
889.759	14610
889.883	14469
890.006	14606
890.13	14754
890.254	14571
890.377	14564
890.501	14450
890.624	14454
890.748	14488
890.871	14309
890.995	14355
891.118	14290
891.241	14286
891.364	14313
891.488	14431
891.611	14256
891.734	14317
891.857	14362
891.98	14415
892.103	14434
892.226	14301
892.349	14301
892.471	14202
892.594	14240
892.717	14320
892.839	14259
892.962	14374
893.085	14358
893.207	14278
893.33	14180
893.452	14195
893.575	14381
893.697	14256
893.819	14537
893.941	14427
894.064	14404
894.186	14252
894.308	14233
894.43	14457
894.552	14339
894.674	14473
894.796	14347
894.918	14366
895.04	14404
895.161	14514
895.283	14465
895.405	14374
895.526	14400
895.648	14290
895.769	14503
895.891	14412
896.012	14469
896.134	14511
896.255	14446
896.376	14374
896.498	14415
896.619	14545
896.74	14541
896.861	14484
896.982	14705
897.103	14914
897.224	14739
897.345	14743
897.466	14682
897.587	14746
897.708	14842
897.828	14762
897.949	14712
898.07	14598
898.19	14674
898.311	14853
898.431	14674
898.552	14823
898.672	14834
898.792	14826
898.913	14853
899.033	14826
899.153	14648
899.273	14552
899.393	14610
899.513	14724
899.633	14629
899.753	14720
899.873	14606
899.993	14746
900.113	14708
900.232	14670
900.352	14629
900.472	14610
900.591	14537
900.711	14560
900.83	14571
900.95	14686
901.069	14606
901.189	14370
901.308	14278
901.427	14229
901.546	14214
901.665	14256
901.784	14298
901.904	14115
902.023	14035
902.141	13856
902.26	13780
902.379	13883
902.498	13860
902.617	13693
902.735	13909
902.854	13746
902.973	13704
903.091	13499
903.21	13411
903.328	13373
903.446	13377
903.565	13358
903.683	13293
903.801	13369
903.919	13362
904.038	13293
904.156	13107
904.274	13301
904.392	13149
904.51	13110
904.627	13141
904.745	13179
904.863	13228
904.981	12981
905.098	12837
905.216	12833
905.334	12837
905.451	12814
905.569	12901
905.686	12890
905.803	12943
905.921	12604
906.038	12654
906.155	12703
906.272	12566
906.389	12525
906.506	12494
906.623	12506
906.74	12441
906.857	12315
906.974	12300
907.091	12509
907.208	12570
907.324	12509
907.441	12346
907.557	12190
907.674	12167
907.79	12114
907.907	12182
908.023	12178
908.139	12148
908.256	12102
908.372	12011
908.488	12057
908.604	11999
908.72	11843
908.836	12057
908.952	11904
909.068	11965
909.184	12003
909.3	11954
909.415	12019
909.531	12026
909.647	11745
909.762	11707
909.878	11691
909.993	11688
910.108	11665
910.224	11665
910.339	11824
910.454	11630
910.57	11528
910.685	11528
910.8	11779
910.915	11756
911.03	11589
911.145	11292
911.259	11421
911.374	11387
911.489	11292
911.604	11277
911.718	11181
911.833	11185
911.947	11018
912.062	10965
912.176	11181
912.291	11098
912.405	11083
912.519	11379
912.633	11387
912.748	11239
912.862	11113
912.976	11018
913.09	10930
913.204	10961
913.318	11056
913.431	11132
913.545	11181
913.659	11113
913.772	11006
913.886	10908
914	10927
914.113	10965
914.226	11014
914.34	10999
914.453	10858
914.566	10923
914.68	10801
914.793	10862
914.906	10618
915.019	10748
915.132	10565
915.245	10630
915.358	10748
915.47	10630
915.583	10634
915.696	10698
915.809	10839
915.921	10881
916.034	10672
916.146	10569
916.259	10554
916.371	10622
916.483	10656
916.595	10542
916.708	10569
916.82	10599
916.932	10542
917.044	10546
917.156	10569
917.268	10424
917.38	10451
917.491	10462
917.603	10409
917.715	10580
917.826	10592
917.938	10394
918.049	10398
918.161	10455
918.272	10580
918.384	10588
918.495	10493
918.606	10306
918.717	10276
918.828	10325
918.939	10352
919.05	10299
919.161	10348
919.272	10093
919.383	10295
919.494	10356
919.604	10523
919.715	10394
919.826	10234
919.936	10382
920.047	10447
920.157	10341
920.267	10569
920.378	10329
920.488	10371
920.598	10538
920.708	10634
920.818	10645
920.928	10550
921.038	10683
921.148	10721
921.258	10382
921.368	10318
921.477	10173
921.587	10230
921.697	10131
921.806	10207
921.916	10116
922.025	9880
922.134	9911
922.244	9922
922.353	10013
922.462	9816
922.571	9747
922.68	9561
922.789	9599
922.898	9603
923.007	9542
923.116	9641
923.224	9572
923.333	9564
923.442	9519
923.55	9462
923.659	9545
923.767	9523
923.876	9504
923.984	9500
924.092	9351
924.201	9477
924.309	9538
924.417	9454
924.525	9435
924.633	9431
924.741	10211
924.849	9260
924.956	9370
925.064	9245
925.172	9131
925.279	9150
925.387	9272
925.494	9188
925.602	9336
925.709	9310
925.816	9116
925.924	9237
926.031	9355
926.138	9313
926.245	9287
926.352	9195
926.459	9325
926.566	9298
926.673	9176
926.779	9142
926.886	9119
926.993	8982
927.099	8952
927.206	8963
927.312	8899
927.419	8986
927.525	8929
927.631	8998
927.737	8861
927.843	8826
927.95	8731
928.056	8785
928.162	8895
928.267	8914
928.373	9378
928.479	8925
928.585	8758
928.69	8876
928.796	8895
928.901	8792
929.007	8640
929.112	8705
929.218	8773
929.323	8667
929.428	8705
929.533	8823
929.638	8644
929.743	8617
929.848	8655
929.953	8686
930.058	8560
930.163	8412
930.267	8454
930.372	8537
930.477	8427
930.581	8602
930.685	8495
930.79	8377
930.894	8374
930.998	8423
931.103	8495
931.207	8134
931.311	8103
931.415	8058
931.519	7890
931.623	7883
