Data from test_V78500241_251.txt Node
Date: Fri Mar 25 14:35:28 CST 2022
User: usil
Spectrometer: V785-0024
Trigger mode: 0
Integration Time (sec): 4.000000E-1
Scans to average: 1
Nonlinearity correction enabled: false
Boxcar width: 0
Storing dark spectrum: false
XAxis mode: Wavelengths
Number of Pixels in Spectrum: 1024
>>>>>Begin Spectral Data<<<<<
801.071	27633
801.214	27424
801.356	27100
801.499	27119
801.641	27055
801.783	26971
801.926	26921
802.068	27013
802.211	26834
802.353	26693
802.496	26648
802.638	26495
802.78	26552
802.923	26473
803.065	26336
803.208	26381
803.35	26389
803.492	26530
803.635	26579
803.777	26358
803.919	26568
804.061	26823
804.204	26446
804.346	26412
804.488	26347
804.63	26324
804.773	26263
804.915	26457
805.057	26503
805.199	26336
805.341	26434
805.483	26613
805.626	26632
805.768	26343
805.91	26571
806.052	26419
806.194	26476
806.336	26511
806.478	26632
806.62	26492
806.762	26545
806.904	26769
807.046	26990
807.188	26804
807.33	26872
807.472	27055
807.614	26842
807.756	26906
807.898	26823
808.04	26735
808.182	26800
808.324	26811
808.465	26883
808.607	27081
808.749	27100
808.891	27291
809.033	27458
809.174	27355
809.316	27176
809.458	27176
809.6	27089
809.741	27051
809.883	27032
810.025	27237
810.166	27268
810.308	27268
810.45	27142
810.591	27108
810.733	26994
810.875	26940
811.016	26663
811.158	26663
811.299	26891
811.441	26971
811.582	26982
811.724	26819
811.865	26823
812.007	26842
812.148	26910
812.29	26910
812.431	27005
812.573	27165
812.714	27184
812.855	27313
812.997	27439
813.138	27576
813.279	27348
813.421	27329
813.562	27325
813.703	26990
813.845	27005
813.986	26705
814.127	26587
814.268	26526
814.41	26568
814.551	26522
814.692	26587
814.833	26461
814.974	26256
815.115	26427
815.256	26164
815.397	26183
815.539	26320
815.68	26161
815.821	26103
815.962	26313
816.103	26153
816.244	26001
816.385	25947
816.526	25818
816.666	25609
816.807	25651
816.948	25609
817.089	25563
817.23	25609
817.371	25674
817.512	25483
817.653	25510
817.793	25453
817.934	25540
818.075	25495
818.216	25499
818.356	25457
818.497	25346
818.638	25266
818.778	25183
818.919	25179
819.06	25263
819.2	25373
819.341	25373
819.481	25445
819.622	25674
819.762	25772
819.903	25658
820.043	25594
820.184	25578
820.324	25483
820.465	25468
820.605	25407
820.746	25521
820.886	25445
821.026	25426
821.167	25464
821.307	25434
821.447	25339
821.588	25304
821.728	25160
821.868	24958
822.008	24958
822.149	24863
822.289	24897
822.429	24612
822.569	24593
822.709	24422
822.849	24300
822.99	24182
823.13	24285
823.27	24285
823.41	24114
823.55	24136
823.69	24022
823.83	24117
823.97	24064
824.11	23855
824.25	23916
824.389	23783
824.529	24011
824.669	23950
824.809	24022
824.949	23813
825.089	24018
825.228	23832
825.368	23756
825.508	23771
825.648	23794
825.787	23775
825.927	23748
826.067	23672
826.206	23729
826.346	23783
826.485	23608
826.625	23646
826.765	23767
826.904	23718
827.044	23421
827.183	23547
827.323	23307
827.462	23493
827.601	23322
827.741	23444
827.88	23395
828.02	23208
828.159	23429
828.298	23296
828.437	23326
828.577	23235
828.716	23299
828.855	23162
828.994	23102
829.134	23033
829.273	23006
829.412	23075
829.551	22946
829.69	23022
829.829	23044
829.968	23140
830.107	22972
830.246	23006
830.385	22820
830.524	22854
830.663	22862
830.802	22710
830.941	22577
831.08	22653
831.219	22675
831.357	22752
831.496	22778
831.635	22508
831.774	22466
831.913	22375
832.051	22215
832.19	22303
832.329	22386
832.467	22299
832.606	22086
832.744	22246
832.883	22303
833.022	22063
833.16	22238
833.299	22306
833.437	22230
833.576	22318
833.714	22223
833.852	22280
833.991	22257
834.129	22356
834.267	22303
834.406	22318
834.544	22371
834.682	22272
834.821	22238
834.959	22382
835.097	22124
835.235	22196
835.373	22143
835.511	22230
835.65	22143
835.788	22051
835.926	21968
836.064	21850
836.202	21865
836.34	22082
836.478	22154
836.615	22078
836.753	22109
836.891	22090
837.029	22162
837.167	22067
837.305	22044
837.443	21907
837.58	21937
837.718	21968
837.856	21892
837.993	21911
838.131	21781
838.269	21762
838.406	21709
838.544	21759
838.681	21564
838.819	21526
838.956	21389
839.094	21374
839.231	21370
839.369	21393
839.506	21671
839.643	21595
839.781	21306
839.918	21310
840.055	21298
840.193	21340
840.33	21180
840.467	21268
840.604	21218
840.742	21557
840.879	21077
841.016	21108
841.153	21074
841.29	21336
841.427	21317
841.564	21211
841.701	21332
841.838	21184
841.975	21024
842.112	21085
842.249	21028
842.385	20944
842.522	21100
842.659	20998
842.796	20925
842.933	20998
843.069	20823
843.206	20895
843.343	20941
843.479	21047
843.616	20986
843.752	20788
843.889	20682
844.025	20853
844.162	20697
844.298	20670
844.435	20705
844.571	20617
844.708	20792
844.844	20823
844.98	20781
845.117	20811
845.253	20659
845.389	20632
845.525	20594
845.661	20587
845.798	20697
845.934	20724
846.07	20617
846.206	20750
846.342	20701
846.478	20560
846.614	20233
846.75	20221
846.886	20256
847.022	20278
847.158	20286
847.294	20256
847.429	20138
847.565	20168
847.701	20320
847.837	19932
847.972	19887
848.108	20035
848.244	19989
848.379	19746
848.515	19696
848.65	19712
848.786	19635
848.921	19651
849.057	19849
849.192	19723
849.328	19772
849.463	19677
849.598	19655
849.734	19628
849.869	19537
850.004	19396
850.14	19434
850.275	19434
850.41	19388
850.545	19285
850.68	19453
850.815	19468
850.95	19396
851.085	19605
851.22	19495
851.355	19343
851.49	19411
851.625	19381
851.76	19392
851.895	19373
852.03	19308
852.165	19407
852.299	19457
852.434	19533
852.569	19392
852.703	19472
852.838	19468
852.973	19502
853.107	19419
853.242	19396
853.376	19221
853.511	19141
853.645	19187
853.78	19335
853.914	19381
854.048	19152
854.183	19168
854.317	19247
854.451	19346
854.585	19190
854.72	19259
854.854	19270
854.988	19072
855.122	19194
855.256	19103
855.39	19099
855.524	19156
855.658	19350
855.792	19293
855.926	19217
856.06	19297
856.194	19373
856.327	19194
856.461	19164
856.595	19168
856.729	19110
856.862	19453
856.996	19190
857.13	19304
857.263	19316
857.397	19304
857.53	19152
857.664	19346
857.797	19274
857.931	19369
858.064	19232
858.197	19339
858.331	19152
858.464	19023
858.597	19133
858.731	19190
858.864	19183
858.997	19076
859.13	19187
859.263	19198
859.396	19228
859.529	19126
859.662	19175
859.795	19034
859.928	19129
860.061	19259
860.194	19289
860.327	19137
860.46	19194
860.592	19320
860.725	19285
860.858	19320
860.99	19168
861.123	19103
861.256	19046
861.388	19209
861.521	19765
861.653	19004
861.786	19000
861.918	19019
862.05	19141
862.183	19088
862.315	19164
862.447	19209
862.58	19118
862.712	19000
862.844	18905
862.976	19038
863.108	18958
863.24	19206
863.372	18894
863.504	18924
863.636	18764
863.768	18928
863.9	18848
864.032	18768
864.164	18821
864.296	18768
864.428	18928
864.559	18913
864.691	18977
864.823	18928
864.954	18894
865.086	19023
865.217	18882
865.349	18677
865.48	18768
865.612	18867
865.743	18985
865.875	18757
866.006	18772
866.137	18837
866.269	18764
866.4	18795
866.531	18738
866.662	18707
866.793	18661
866.924	18700
867.055	18726
867.186	18692
867.317	18612
867.448	18589
867.579	18612
867.71	18635
867.841	18601
867.972	18757
868.103	18817
868.233	18730
868.364	18711
868.495	18837
868.625	18890
868.756	19148
868.886	18798
869.017	19008
869.147	19012
869.278	19027
869.408	19061
869.539	18916
869.669	19031
869.799	19053
869.929	19027
870.06	19008
870.19	19266
870.32	19289
870.45	19365
870.58	19251
870.71	19464
870.84	19460
870.97	19320
871.1	19346
871.23	19468
871.36	19609
871.489	19480
871.619	19514
871.749	19521
871.879	19632
872.008	19632
872.138	19571
872.267	19613
872.397	19411
872.526	19324
872.656	19483
872.785	19400
872.915	19613
873.044	19559
873.173	19582
873.303	19719
873.432	19601
873.561	19639
873.69	19548
873.819	19480
873.948	19700
874.077	19518
874.206	19605
874.335	19677
874.464	19811
874.593	19917
874.722	19723
874.851	19932
874.979	19902
875.108	19993
875.237	19776
875.365	19731
875.494	19852
875.623	19772
875.751	19830
875.88	19860
876.008	20035
876.136	20115
876.265	20259
876.393	20393
876.521	20317
876.65	20358
876.778	20263
876.906	20305
877.034	20111
877.162	20320
877.29	20119
877.418	20294
877.546	20202
877.674	20256
877.802	20221
877.93	20176
878.058	20176
878.185	20138
878.313	20275
878.441	20278
878.568	20043
878.696	20153
878.824	20324
878.951	20309
879.079	20465
879.206	20503
879.333	20522
879.461	20450
879.588	20400
879.715	20701
879.842	20648
879.97	20347
880.097	20062
880.224	20145
880.351	20005
880.478	20126
880.605	20180
880.732	20149
880.859	20317
880.986	20164
881.112	20191
881.239	20088
881.366	19738
881.493	19814
881.619	19868
881.746	19658
881.872	19662
881.999	19681
882.125	19693
882.252	19795
882.378	19761
882.505	19944
882.631	19655
882.757	19460
882.883	19548
883.01	19491
883.136	19354
883.262	19289
883.388	19236
883.514	19403
883.64	19483
883.766	19563
883.892	19259
884.018	19266
884.143	19552
884.269	19476
884.395	19156
884.52	19202
884.646	19126
884.772	19050
884.897	19095
885.023	19107
885.148	19266
885.274	19304
885.399	19225
885.524	19027
885.65	19095
885.775	19107
885.9	19095
886.025	19129
886.15	19168
886.275	19103
886.4	19046
886.525	19008
886.65	19027
886.775	19019
886.9	19187
887.025	19297
887.149	19107
887.274	18977
887.399	18802
887.523	18837
887.648	18700
887.773	18779
887.897	18909
888.021	18817
888.146	18776
888.27	18954
888.395	19000
888.519	18829
888.643	18833
888.767	18863
888.891	18650
889.015	18688
889.139	18871
889.263	18673
889.387	18738
889.511	18829
889.635	18798
889.759	18688
889.883	18620
890.006	18604
890.13	18692
890.254	18544
890.377	18570
890.501	18448
890.624	18357
890.748	18380
890.871	18277
890.995	18350
891.118	18216
891.241	18266
891.364	18380
891.488	18467
891.611	18243
891.734	18197
891.857	18266
891.98	18357
892.103	18395
892.226	18285
892.349	18285
892.471	18007
892.594	18254
892.717	18308
892.839	18136
892.962	18152
893.085	18292
893.207	18155
893.33	18114
893.452	18144
893.575	18232
893.697	18114
893.819	18251
893.941	18426
894.064	18266
894.186	18155
894.308	18174
894.43	18300
894.552	18403
894.674	18323
894.796	18133
894.918	18167
895.04	18216
895.161	18194
895.283	18262
895.405	18140
895.526	18194
895.648	18323
895.769	18239
895.891	18239
896.012	18308
896.134	18273
896.255	18311
896.376	18270
896.498	18247
896.619	18258
896.74	18216
896.861	18391
896.982	18582
897.103	18654
897.224	18486
897.345	18422
897.466	18437
897.587	18479
897.708	18593
897.828	18559
897.949	18475
898.07	18308
898.19	18433
898.311	18551
898.431	18410
898.552	18467
898.672	18494
898.792	18536
898.913	18578
899.033	18486
899.153	18304
899.273	18243
899.393	18266
899.513	18186
899.633	18171
899.753	18292
899.873	18232
899.993	18350
900.113	18159
900.232	18308
900.352	18258
900.472	18167
900.591	18003
900.711	18087
900.83	18117
900.95	18285
901.069	18224
901.189	17992
901.308	17733
901.427	17627
901.546	17786
901.665	17634
901.784	17767
901.904	17589
902.023	17471
902.141	17360
902.26	17311
902.379	17277
902.498	17094
902.617	17200
902.735	17315
902.854	17197
902.973	17162
903.091	16889
903.21	16809
903.328	16949
903.446	16831
903.565	16645
903.683	16687
903.801	16538
903.919	16637
904.038	16691
904.156	16485
904.274	16603
904.392	16379
904.51	16481
904.627	16424
904.745	16561
904.863	16424
904.981	16322
905.098	16162
905.216	16097
905.334	16246
905.451	16109
905.569	16105
905.686	16200
905.803	16112
905.921	15934
906.038	15975
906.155	15857
906.272	15808
906.389	15888
906.506	15675
906.623	15701
906.74	15568
906.857	15599
906.974	15477
907.091	15713
907.208	15762
907.324	15648
907.441	15618
907.557	15313
907.674	15363
907.79	15249
907.907	15313
908.023	15340
908.139	15317
908.256	15359
908.372	15310
908.488	15161
908.604	15169
908.72	15123
908.836	15135
908.952	14937
909.068	15157
909.184	15260
909.3	15085
909.415	15116
909.531	15009
909.647	14868
909.762	14705
909.878	14826
909.993	14773
910.108	14754
910.224	14712
910.339	14750
910.454	14644
910.57	14625
910.685	14549
910.8	14712
910.915	14731
911.03	14659
911.145	14469
911.259	14393
911.374	14450
911.489	14336
911.604	14393
911.718	14180
911.833	14123
911.947	14092
912.062	13993
912.176	14157
912.291	14138
912.405	14168
912.519	14324
912.633	14324
912.748	14153
912.862	13989
912.976	13963
913.09	13883
913.204	13932
913.318	13887
913.431	14081
913.545	14046
913.659	13997
913.772	13970
913.886	13822
914	13765
914.113	13944
914.226	13936
914.34	13826
914.453	13715
914.566	13849
914.68	13723
914.793	13734
914.906	13563
915.019	13377
915.132	13457
915.245	13430
915.358	13521
915.47	13491
915.583	13445
915.696	13506
915.809	13620
915.921	13628
916.034	13392
916.146	13369
916.259	13293
916.371	13377
916.483	13430
916.595	13396
916.708	13354
916.82	13346
916.932	13308
917.044	13304
917.156	13255
917.268	13187
917.38	13171
917.491	13209
917.603	13171
917.715	13301
917.826	13324
917.938	13069
918.049	13072
918.161	13145
918.272	13274
918.384	13171
918.495	13110
918.606	13012
918.717	12817
918.828	13080
918.939	13046
919.05	12856
919.161	12939
919.272	12749
919.383	12833
919.494	12977
919.604	13259
919.715	12951
919.826	12970
919.936	12878
920.047	12905
920.157	12859
920.267	13114
920.378	13004
920.488	12951
920.598	13141
920.708	13301
920.818	13084
920.928	13156
921.038	13240
921.148	13171
921.258	13057
921.368	12935
921.477	12726
921.587	12795
921.697	12608
921.806	12696
921.916	12608
922.025	12350
922.134	12330
922.244	12296
922.353	12407
922.462	12277
922.571	12220
922.68	12110
922.789	12083
922.898	11980
923.007	11977
923.116	12049
923.224	12034
923.333	12003
923.442	11901
923.55	11870
923.659	11824
923.767	11946
923.876	11843
923.984	11916
924.092	11775
924.201	11767
924.309	11828
924.417	11790
924.525	11745
924.633	11703
924.741	12692
924.849	11562
924.956	11688
925.064	11493
925.172	11474
925.279	11539
925.387	11577
925.494	11608
925.602	11699
925.709	11615
925.816	11452
925.924	11459
926.031	11653
926.138	11524
926.245	11532
926.352	11364
926.459	11509
926.566	11558
926.673	11444
926.779	11326
926.886	11265
926.993	11166
927.099	11083
927.206	11155
927.312	11143
927.419	11204
927.525	11136
927.631	11185
927.737	11048
927.843	10976
927.95	10828
928.056	10980
928.162	10953
928.267	11045
928.373	11547
928.479	11056
928.585	10767
928.69	11018
928.796	10949
928.901	10869
929.007	10790
929.112	10854
929.218	10790
929.323	10778
929.428	10725
929.533	10850
929.638	10683
929.743	10771
929.848	10774
929.953	10664
930.058	10645
930.163	10440
930.267	10531
930.372	10649
930.477	10363
930.581	10603
930.685	10535
930.79	10276
930.894	10436
930.998	10356
931.103	10409
931.207	10074
931.311	9964
931.415	10006
931.519	9827
931.623	9717
