Data from test_V78500241_3569.txt Node
Date: Fri Mar 25 14:58:34 CST 2022
User: usil
Spectrometer: V785-0024
Trigger mode: 0
Integration Time (sec): 4.000000E-1
Scans to average: 1
Nonlinearity correction enabled: false
Boxcar width: 0
Storing dark spectrum: false
XAxis mode: Wavelengths
Number of Pixels in Spectrum: 1024
>>>>>Begin Spectral Data<<<<<
801.071	21827
801.214	21861
801.356	21580
801.499	21336
801.641	21351
801.783	21279
801.926	21260
802.068	21093
802.211	21051
802.353	21173
802.496	20762
802.638	20819
802.78	20804
802.923	20659
803.065	20590
803.208	20575
803.35	20629
803.492	20758
803.635	20796
803.777	20549
803.919	20724
804.061	20925
804.204	20571
804.346	20473
804.488	20492
804.63	20625
804.773	20560
804.915	20594
805.057	20682
805.199	20522
805.341	20537
805.483	20651
805.626	20545
805.768	20511
805.91	20590
806.052	20511
806.194	20404
806.336	20632
806.478	20423
806.62	20450
806.762	20503
806.904	20720
807.046	20796
807.188	20769
807.33	20777
807.472	20967
807.614	20754
807.756	20823
807.898	20689
808.04	20617
808.182	20473
808.324	20457
808.465	20663
808.607	20804
808.749	20857
808.891	20971
809.033	21127
809.174	20788
809.316	20773
809.458	20792
809.6	20849
809.741	20861
809.883	20929
810.025	20944
810.166	21138
810.308	20944
810.45	20925
810.591	20857
810.733	20708
810.875	20636
811.016	20537
811.158	20552
811.299	20674
811.441	20891
811.582	20648
811.724	20609
811.865	20594
812.007	20609
812.148	20545
812.29	20632
812.431	20788
812.573	20941
812.714	21058
812.855	21119
812.997	21203
813.138	21260
813.279	21252
813.421	21195
813.562	21013
813.703	20933
813.845	20773
813.986	20526
814.127	20347
814.268	20248
814.41	20233
814.551	20183
814.692	20180
814.833	20111
814.974	20058
815.115	20244
815.256	20050
815.397	20031
815.539	20039
815.68	19936
815.821	19890
815.962	19909
816.103	19906
816.244	19738
816.385	19628
816.526	19647
816.666	19384
816.807	19232
816.948	19449
817.089	19373
817.23	19297
817.371	19365
817.512	19331
817.653	19293
817.793	19209
817.934	19335
818.075	19171
818.216	19274
818.356	19346
818.497	19076
818.638	18951
818.778	18924
818.919	18970
819.06	19088
819.2	19160
819.341	19217
819.481	19274
819.622	19255
819.762	19563
819.903	19362
820.043	19411
820.184	19293
820.324	19209
820.465	19324
820.605	19362
820.746	19194
820.886	19187
821.026	19198
821.167	19232
821.307	19297
821.447	19206
821.588	19141
821.728	19004
821.868	18951
822.008	18696
822.149	18654
822.289	18684
822.429	18475
822.569	18380
822.709	18399
822.849	18197
822.99	18163
823.13	18060
823.27	18171
823.41	18083
823.55	17980
823.69	18030
823.83	17923
823.97	17878
824.11	17802
824.25	17752
824.389	17832
824.529	17752
824.669	17764
824.809	17961
824.949	17783
825.089	17790
825.228	17786
825.368	17672
825.508	17562
825.648	17398
825.787	17710
825.927	17554
826.067	17478
826.206	17493
826.346	17501
826.485	17573
826.625	17482
826.765	17710
826.904	17615
827.044	17360
827.183	17269
827.323	17311
827.462	17299
827.601	17307
827.741	17181
827.88	17284
828.02	17094
828.159	17315
828.298	17235
828.437	17372
828.577	17155
828.716	17532
828.855	17181
828.994	17037
829.134	16972
829.273	16972
829.412	16976
829.551	16911
829.69	16919
829.829	17010
829.968	17052
830.107	17067
830.246	17025
830.385	16965
830.524	16938
830.663	16767
830.802	16664
830.941	16675
831.08	16516
831.219	16736
831.357	16660
831.496	16801
831.635	16558
831.774	16554
831.913	16535
832.051	16447
832.19	16356
832.329	16481
832.467	16314
832.606	16382
832.744	16219
832.883	16272
833.022	16219
833.16	16303
833.299	16295
833.437	16363
833.576	16306
833.714	16375
833.852	16333
833.991	16363
834.129	16474
834.267	16360
834.406	16367
834.544	16409
834.682	16417
834.821	16268
834.959	16497
835.097	16402
835.235	16504
835.373	16325
835.511	16428
835.65	16291
835.788	16295
835.926	16124
836.064	16063
836.202	16147
836.34	16413
836.478	16363
836.615	16322
836.753	16295
836.891	16402
837.029	16303
837.167	16272
837.305	16280
837.443	16147
837.58	16139
837.718	16242
837.856	16181
837.993	16116
838.131	16177
838.269	16051
838.406	16185
838.544	16002
838.681	15869
838.819	15934
838.956	15694
839.094	15618
839.231	15819
839.369	15880
839.506	16188
839.643	16010
839.781	15755
839.918	15709
840.055	15694
840.193	15686
840.33	15648
840.467	15762
840.604	15618
840.742	16021
840.879	15561
841.016	15701
841.153	15694
841.29	15808
841.427	15759
841.564	15747
841.701	15812
841.838	15667
841.975	15576
842.112	15641
842.249	15606
842.385	15511
842.522	15728
842.659	15572
842.796	15599
842.933	15606
843.069	15431
843.206	15401
843.343	15435
843.479	15500
843.616	15530
843.752	15279
843.889	15264
844.025	15428
844.162	15245
844.298	15355
844.435	15325
844.571	15313
844.708	15424
844.844	15549
844.98	15473
845.117	15359
845.253	15169
845.389	15184
845.525	15222
845.661	15256
845.798	15058
845.934	15157
846.07	15024
846.206	15123
846.342	15203
846.478	15097
846.614	14899
846.75	14861
846.886	14921
847.022	14986
847.158	14796
847.294	14864
847.429	14826
847.565	14864
847.701	15093
847.837	14720
847.972	14598
848.108	14632
848.244	14785
848.379	14526
848.515	14465
848.65	14431
848.786	14488
848.921	14545
849.057	14545
849.192	14541
849.328	14454
849.463	14484
849.598	14476
849.734	14404
849.869	14393
850.004	14183
850.14	14282
850.275	14233
850.41	14218
850.545	14301
850.68	14119
850.815	14305
850.95	14199
851.085	14351
851.22	14450
851.355	14202
851.49	14214
851.625	14206
851.76	14252
851.895	14130
852.03	14096
852.165	14294
852.299	14233
852.434	14328
852.569	14301
852.703	14157
852.838	14229
852.973	14438
853.107	14431
853.242	14149
853.376	14126
853.511	13997
853.645	14069
853.78	14240
853.914	14084
854.048	14119
854.183	14092
854.317	14084
854.451	14244
854.585	14115
854.72	14096
854.854	14126
854.988	13947
855.122	14100
855.256	13871
855.39	14024
855.524	14176
855.658	14172
855.792	14115
855.926	14164
856.06	14153
856.194	14153
856.327	14062
856.461	14008
856.595	14081
856.729	14103
856.862	14309
856.996	14126
857.13	14153
857.263	14225
857.397	14305
857.53	14130
857.664	14145
857.797	14187
857.931	14271
858.064	14134
858.197	14153
858.331	14187
858.464	14039
858.597	13967
858.731	14145
858.864	14180
858.997	14024
859.13	14130
859.263	14161
859.396	14240
859.529	13993
859.662	14054
859.795	14077
859.928	14214
860.061	14286
860.194	14244
860.327	14088
860.46	14168
860.592	14218
860.725	14263
860.858	14088
860.99	14077
861.123	14084
861.256	14119
861.388	14092
861.521	14914
861.653	14027
861.786	13921
861.918	14069
862.05	14096
862.183	13986
862.315	14069
862.447	14195
862.58	13982
862.712	13898
862.844	13822
862.976	13986
863.108	13811
863.24	14180
863.372	13830
863.504	13856
863.636	13898
863.768	13917
863.9	13909
864.032	13757
864.164	13883
864.296	13921
864.428	14012
864.559	13936
864.691	13951
864.823	13928
864.954	13963
865.086	13925
865.217	13970
865.349	13917
865.48	13917
865.612	13879
865.743	14062
865.875	13887
866.006	13845
866.137	13856
866.269	13894
866.4	13814
866.531	13845
866.662	13814
866.793	13746
866.924	13757
867.055	13887
867.186	13818
867.317	13902
867.448	13811
867.579	13849
867.71	13852
867.841	13772
867.972	13887
868.103	13970
868.233	13875
868.364	13860
868.495	13997
868.625	14119
868.756	14176
868.886	14069
869.017	14130
869.147	14233
869.278	14240
869.408	14252
869.539	14256
869.669	14252
869.799	14180
869.929	14271
870.06	14343
870.19	14507
870.32	14442
870.45	14492
870.58	14503
870.71	14659
870.84	14670
870.97	14560
871.1	14434
871.23	14720
871.36	14621
871.489	14724
871.619	14735
871.749	14754
871.879	14823
872.008	14769
872.138	14815
872.267	14724
872.397	14579
872.526	14636
872.656	14598
872.785	14552
872.915	14804
873.044	14864
873.173	14689
873.303	14849
873.432	14819
873.561	14891
873.69	14769
873.819	14693
873.948	14876
874.077	14880
874.206	14758
874.335	14785
874.464	15020
874.593	15074
874.722	15047
874.851	15218
874.979	15116
875.108	15089
875.237	15097
875.365	15154
875.494	15123
875.623	15245
875.751	15062
875.88	15112
876.008	15241
876.136	15382
876.265	15603
876.393	15705
876.521	15584
876.65	15637
876.778	15545
876.906	15496
877.034	15561
877.162	15545
877.29	15462
877.418	15519
877.546	15561
877.674	15526
877.802	15629
877.93	15564
878.058	15447
878.185	15462
878.313	15481
878.441	15511
878.568	15386
878.696	15473
878.824	15587
878.951	15633
879.079	15846
879.206	15816
879.333	15614
879.461	15648
879.588	15694
879.715	15663
879.842	15808
879.97	15610
880.097	15275
880.224	15291
880.351	15473
880.478	15363
880.605	15260
880.732	15348
880.859	15561
880.986	15378
881.112	15306
881.239	15260
881.366	15192
881.493	15051
881.619	15032
881.746	15032
881.872	15104
881.999	15055
882.125	14948
882.252	15100
882.378	15146
882.505	15275
882.631	14952
882.757	14872
882.883	14891
883.01	14857
883.136	14773
883.262	14663
883.388	14686
883.514	14906
883.64	14853
883.766	14739
883.892	14735
884.018	14716
884.143	14895
884.269	14883
884.395	14564
884.52	14549
884.646	14541
884.772	14552
884.897	14476
885.023	14590
885.148	14632
885.274	14655
885.399	14613
885.524	14625
885.65	14655
885.775	14507
885.9	14511
886.025	14727
886.15	14568
886.275	14526
886.4	14469
886.525	14537
886.65	14522
886.775	14476
886.9	14697
887.025	14727
887.149	14571
887.274	14366
887.399	14313
887.523	14377
887.648	14275
887.773	14328
887.897	14457
888.021	14454
888.146	14370
888.27	14484
888.395	14613
888.519	14457
888.643	14442
888.767	14454
888.891	14252
889.015	14187
889.139	14301
889.263	14206
889.387	14404
889.511	14480
889.635	14488
889.759	14313
889.883	14176
890.006	14278
890.13	14393
890.254	14149
890.377	14088
890.501	14100
890.624	14145
890.748	14180
890.871	13978
890.995	13955
891.118	13955
891.241	13989
891.364	13947
891.488	14031
891.611	13890
891.734	13970
891.857	14012
891.98	13955
892.103	14020
892.226	13902
892.349	13928
892.471	13833
892.594	13982
892.717	13967
892.839	13887
892.962	13947
893.085	13967
893.207	13986
893.33	13932
893.452	13894
893.575	13997
893.697	13944
893.819	14202
893.941	14092
894.064	14092
894.186	13970
894.308	13947
894.43	14145
894.552	14138
894.674	14176
894.796	14012
894.918	13959
895.04	13917
895.161	14195
895.283	14153
895.405	14005
895.526	14031
895.648	14142
895.769	13989
895.891	14103
896.012	14134
896.134	14134
896.255	14126
896.376	14176
896.498	14107
896.619	14130
896.74	14130
896.861	14225
896.982	14476
897.103	14602
897.224	14507
897.345	14320
897.466	14298
897.587	14412
897.708	14564
897.828	14541
897.949	14351
898.07	14286
898.19	14263
898.311	14651
898.431	14400
898.552	14476
898.672	14526
898.792	14541
898.913	14560
899.033	14469
899.153	14332
899.273	14252
899.393	14393
899.513	14301
899.633	14419
899.753	14309
899.873	14286
899.993	14438
900.113	14320
900.232	14431
900.352	14385
900.472	14191
900.591	14107
900.711	14107
900.83	14107
900.95	14317
901.069	14305
901.189	14081
901.308	13936
901.427	13913
901.546	13841
901.665	13928
901.784	13814
901.904	13769
902.023	13704
902.141	13533
902.26	13457
902.379	13514
902.498	13407
902.617	13335
902.735	13537
902.854	13495
902.973	13396
903.091	13164
903.21	13103
903.328	13126
903.446	13053
903.565	13069
903.683	13004
903.801	13000
903.919	13046
904.038	13008
904.156	12905
904.274	12844
904.392	12802
904.51	12840
904.627	12802
904.745	12916
904.863	12859
904.981	12642
905.098	12585
905.216	12604
905.334	12616
905.451	12566
905.569	12498
905.686	12597
905.803	12525
905.921	12365
906.038	12467
906.155	12399
906.272	12323
906.389	12350
906.506	12057
906.623	12121
906.74	12106
906.857	11977
906.974	12057
907.091	12152
907.208	12289
907.324	12178
907.441	12034
907.557	11893
907.674	11832
907.79	11817
907.907	11897
908.023	11851
908.139	11794
908.256	11805
908.372	11786
908.488	11809
908.604	11638
908.72	11608
908.836	11680
908.952	11589
909.068	11661
909.184	11710
909.3	11642
909.415	11634
909.531	11726
909.647	11360
909.762	11425
909.878	11360
909.993	11440
910.108	11356
910.224	11433
910.339	11376
910.454	11280
910.57	11239
910.685	11208
910.8	11478
910.915	11493
911.03	11383
911.145	11121
911.259	11067
911.374	11094
911.489	11090
911.604	11010
911.718	10904
911.833	10869
911.947	10820
912.062	10679
912.176	10866
912.291	10820
912.405	10809
912.519	11098
912.633	11151
912.748	10927
912.862	10946
912.976	10774
913.09	10668
913.204	10748
913.318	10774
913.431	10904
913.545	10869
913.659	10889
913.772	10691
913.886	10683
914	10630
914.113	10748
914.226	10869
914.34	10683
914.453	10512
914.566	10660
914.68	10637
914.793	10637
914.906	10379
915.019	10348
915.132	10303
915.245	10409
915.358	10443
915.47	10382
915.583	10382
915.696	10443
915.809	10523
915.921	10558
916.034	10356
916.146	10341
916.259	10352
916.371	10478
916.483	10367
916.595	10306
916.708	10329
916.82	10314
916.932	10325
917.044	10318
917.156	10276
917.268	10131
917.38	10268
917.491	10227
917.603	10207
917.715	10314
917.826	10310
917.938	10257
918.049	10124
918.161	10196
918.272	10394
918.384	10306
918.495	10238
918.606	10120
918.717	10051
918.828	10112
918.939	10116
919.05	9964
919.161	10021
919.272	9960
919.383	9956
919.494	10169
919.604	10348
919.715	10101
919.826	10013
919.936	10128
920.047	10246
920.157	10055
920.267	10318
920.378	10105
920.488	10128
920.598	10295
920.708	10459
920.818	10322
920.928	10390
921.038	10459
921.148	10375
921.258	10143
921.368	10093
921.477	9895
921.587	9960
921.697	9888
921.806	9964
921.916	9960
922.025	9679
922.134	9641
922.244	9644
922.353	9759
922.462	9572
922.571	9553
922.68	9367
922.789	9336
922.898	9420
923.007	9325
923.116	9420
923.224	9344
923.333	9374
923.442	9260
923.55	9218
923.659	9230
923.767	9340
923.876	9157
923.984	9363
924.092	9237
924.201	9188
924.309	9241
924.417	9226
924.525	9195
924.633	9321
924.741	9945
924.849	8998
924.956	9184
925.064	9047
925.172	9001
925.279	8956
925.387	9097
925.494	8960
925.602	9154
925.709	9104
925.816	8956
925.924	9058
926.031	9127
926.138	9028
926.245	9154
926.352	9028
926.459	9089
926.566	9188
926.673	8952
926.779	8963
926.886	8925
926.993	8746
927.099	8788
927.206	8682
927.312	8701
927.419	8792
927.525	8724
927.631	8804
927.737	8659
927.843	8659
927.95	8606
928.056	8644
928.162	8621
928.267	8697
928.373	9329
928.479	8674
928.585	8484
928.69	8625
928.796	8644
928.901	8568
929.007	8385
929.112	8533
929.218	8522
929.323	8457
929.428	8526
929.533	8545
929.638	8408
929.743	8484
929.848	8476
929.953	8457
930.058	8366
930.163	8282
930.267	8248
930.372	8412
930.477	8263
930.581	8454
930.685	8347
930.79	8202
930.894	8244
930.998	8225
931.103	8385
931.207	8001
931.311	7997
931.415	7894
931.519	7689
931.623	7693
