Data from test_V78500241_1523.txt Node
Date: Fri Mar 25 14:44:19 CST 2022
User: usil
Spectrometer: V785-0024
Trigger mode: 0
Integration Time (sec): 4.000000E-1
Scans to average: 1
Nonlinearity correction enabled: false
Boxcar width: 0
Storing dark spectrum: false
XAxis mode: Wavelengths
Number of Pixels in Spectrum: 1024
>>>>>Begin Spectral Data<<<<<
801.071	22329
801.214	22371
801.356	22002
801.499	21926
801.641	21728
801.783	21660
801.926	21842
802.068	21682
802.211	21614
802.353	21576
802.496	21310
802.638	21435
802.78	21268
802.923	21176
803.065	21028
803.208	21127
803.35	21131
803.492	21218
803.635	21237
803.777	21138
803.919	21100
804.061	21443
804.204	21214
804.346	21066
804.488	21116
804.63	21051
804.773	21081
804.915	21055
805.057	21165
805.199	21024
805.341	21085
805.483	21142
805.626	21150
805.768	21062
805.91	21081
806.052	21077
806.194	21096
806.336	21180
806.478	20990
806.62	21093
806.762	21100
806.904	21306
807.046	21447
807.188	21408
807.33	21412
807.472	21507
807.614	21367
807.756	21462
807.898	21176
808.04	21188
808.182	21226
808.324	21291
808.465	21336
808.607	21443
808.749	21576
808.891	21618
809.033	21835
809.174	21732
809.316	21591
809.458	21591
809.6	21412
809.741	21652
809.883	21473
810.025	21557
810.166	21576
810.308	21625
810.45	21610
810.591	21466
810.733	21348
810.875	21207
811.016	21096
811.158	21146
811.299	21382
811.441	21325
811.582	21370
811.724	21226
811.865	21245
812.007	21283
812.148	21317
812.29	21256
812.431	21420
812.573	21599
812.714	21694
812.855	21770
812.997	21876
813.138	22013
813.279	21956
813.421	21797
813.562	21705
813.703	21542
813.845	21386
813.986	21074
814.127	20975
814.268	20895
814.41	20944
814.551	20876
814.692	20849
814.833	20674
814.974	20758
815.115	20769
815.256	20720
815.397	20598
815.539	20568
815.68	20560
815.821	20522
815.962	20587
816.103	20431
816.244	20339
816.385	20301
816.526	20256
816.666	20100
816.807	19898
816.948	20039
817.089	20077
817.23	19947
817.371	19894
817.512	19913
817.653	19864
817.793	19864
817.934	19967
818.075	19906
818.216	19986
818.356	19887
818.497	19719
818.638	19586
818.778	19586
818.919	19597
819.06	19635
819.2	19693
819.341	19799
819.481	19833
819.622	19993
819.762	20145
819.903	19982
820.043	19970
820.184	19837
820.324	19989
820.465	19978
820.605	19947
820.746	19879
820.886	19712
821.026	19887
821.167	19761
821.307	19913
821.447	19826
821.588	19753
821.728	19624
821.868	19438
822.008	19362
822.149	19327
822.289	19270
822.429	19015
822.569	18867
822.709	19023
822.849	18749
822.99	18863
823.13	18844
823.27	18825
823.41	18601
823.55	18570
823.69	18661
823.83	18700
823.97	18532
824.11	18372
824.25	18369
824.389	18452
824.529	18350
824.669	18350
824.809	18414
824.949	18486
825.089	18395
825.228	18391
825.368	18224
825.508	18163
825.648	18163
825.787	18277
825.927	18194
826.067	18041
826.206	18182
826.346	18281
826.485	18110
826.625	18171
826.765	18232
826.904	18091
827.044	18026
827.183	17908
827.323	17813
827.462	17939
827.601	17767
827.741	17741
827.88	17855
828.02	17813
828.159	17847
828.298	17824
828.437	17916
828.577	17672
828.716	18003
828.855	17756
828.994	17649
829.134	17585
829.273	17592
829.412	17596
829.551	17592
829.69	17471
829.829	17600
829.968	17714
830.107	17611
830.246	17535
830.385	17467
830.524	17501
830.663	17429
830.802	17223
830.941	17178
831.08	17162
831.219	17292
831.357	17227
831.496	17429
831.635	17250
831.774	17231
831.913	17045
832.051	16858
832.19	16934
832.329	17037
832.467	16919
832.606	16854
832.744	16850
832.883	16949
833.022	16828
833.16	16889
833.299	16953
833.437	16847
833.576	16984
833.714	16885
833.852	17022
833.991	17048
834.129	16953
834.267	17041
834.406	16881
834.544	17018
834.682	16904
834.821	16968
834.959	17140
835.097	16919
835.235	16949
835.373	17014
835.511	16866
835.65	16812
835.788	16755
835.926	16618
836.064	16641
836.202	16607
836.34	16778
836.478	16896
836.615	16752
836.753	16919
836.891	16892
837.029	16740
837.167	16782
837.305	16687
837.443	16748
837.58	16641
837.718	16725
837.856	16706
837.993	16603
838.131	16725
838.269	16573
838.406	16603
838.544	16527
838.681	16382
838.819	16348
838.956	16219
839.094	16276
839.231	16200
839.369	16421
839.506	16618
839.643	16497
839.781	16215
839.918	16074
840.055	16253
840.193	16135
840.33	16207
840.467	16215
840.604	16215
840.742	16519
840.879	16074
841.016	16131
841.153	16192
841.29	16367
841.427	16261
841.564	16325
841.701	16169
841.838	16265
841.975	16074
842.112	16147
842.249	16025
842.385	16040
842.522	16192
842.659	16067
842.796	15998
842.933	16021
843.069	15953
843.206	15945
843.343	16105
843.479	16006
843.616	16093
843.752	15770
843.889	15880
844.025	15869
844.162	15736
844.298	15911
844.435	15713
844.571	15762
844.708	15991
844.844	15937
844.98	16002
845.117	16010
845.253	15842
845.389	15694
845.525	15736
845.661	15709
845.798	15698
845.934	15850
846.07	15770
846.206	15838
846.342	15903
846.478	15618
846.614	15435
846.75	15355
846.886	15408
847.022	15481
847.158	15336
847.294	15348
847.429	15443
847.565	15477
847.701	15584
847.837	15058
847.972	15036
848.108	15161
848.244	15192
848.379	14979
848.515	14849
848.65	14792
848.786	14891
848.921	14967
849.057	15028
849.192	15089
849.328	15024
849.463	14944
849.598	14986
849.734	14895
849.869	14834
850.004	14754
850.14	14796
850.275	14701
850.41	14568
850.545	14659
850.68	14686
850.815	14716
850.95	14705
851.085	14891
851.22	14826
851.355	14758
851.49	14686
851.625	14640
851.76	14617
851.895	14606
852.03	14629
852.165	14697
852.299	14777
852.434	14716
852.569	14735
852.703	14819
852.838	14769
852.973	14910
853.107	14845
853.242	14750
853.376	14552
853.511	14488
853.645	14575
853.78	14705
853.914	14598
854.048	14583
854.183	14560
854.317	14655
854.451	14701
854.585	14518
854.72	14514
854.854	14731
854.988	14484
855.122	14545
855.256	14434
855.39	14556
855.524	14613
855.658	14598
855.792	14549
855.926	14632
856.06	14667
856.194	14762
856.327	14583
856.461	14526
856.595	14602
856.729	14648
856.862	14648
856.996	14583
857.13	14644
857.263	14651
857.397	14746
857.53	14625
857.664	14564
857.797	14693
857.931	14659
858.064	14636
858.197	14613
858.331	14564
858.464	14541
858.597	14530
858.731	14613
858.864	14480
858.997	14571
859.13	14610
859.263	14629
859.396	14670
859.529	14526
859.662	14560
859.795	14545
859.928	14526
860.061	14777
860.194	14731
860.327	14602
860.46	14495
860.592	14648
860.725	14648
860.858	14655
860.99	14537
861.123	14537
861.256	14431
861.388	14602
861.521	15294
861.653	14438
861.786	14427
861.918	14362
862.05	14556
862.183	14503
862.315	14541
862.447	14556
862.58	14587
862.712	14362
862.844	14415
862.976	14568
863.108	14393
863.24	14838
863.372	14237
863.504	14305
863.636	14278
863.768	14389
863.9	14286
864.032	14202
864.164	14339
864.296	14393
864.428	14503
864.559	14495
864.691	14328
864.823	14377
864.954	14336
865.086	14393
865.217	14328
865.349	14237
865.48	14362
865.612	14339
865.743	14434
865.875	14381
866.006	14244
866.137	14377
866.269	14267
866.4	14328
866.531	14202
866.662	14252
866.793	14248
866.924	14282
867.055	14408
867.186	14332
867.317	14240
867.448	14233
867.579	14374
867.71	14309
867.841	14187
867.972	14408
868.103	14309
868.233	14423
868.364	14423
868.495	14450
868.625	14571
868.756	14678
868.886	14533
869.017	14556
869.147	14697
869.278	14663
869.408	14617
869.539	14613
869.669	14682
869.799	14564
869.929	14743
870.06	14621
870.19	14887
870.32	14910
870.45	14944
870.58	14986
870.71	15127
870.84	15058
870.97	14914
871.1	14921
871.23	15066
871.36	15131
871.489	15009
871.619	15146
871.749	15104
871.879	15173
872.008	15325
872.138	15195
872.267	15241
872.397	15032
872.526	14975
872.656	14986
872.785	14963
872.915	15169
873.044	15192
873.173	15207
873.303	15264
873.432	15211
873.561	15317
873.69	15230
873.819	15279
873.948	15291
874.077	15268
874.206	15207
874.335	15180
874.464	15329
874.593	15511
874.722	15473
874.851	15553
874.979	15538
875.108	15561
875.237	15504
875.365	15450
875.494	15469
875.623	15694
875.751	15424
875.88	15656
876.008	15667
876.136	15732
876.265	15915
876.393	16074
876.521	15994
876.65	16093
876.778	15869
876.906	15903
877.034	15857
877.162	15838
877.29	15838
877.418	15934
877.546	15926
877.674	15926
877.802	16040
877.93	15994
878.058	15888
878.185	15831
878.313	15930
878.441	15941
878.568	15804
878.696	15819
878.824	15949
878.951	15934
879.079	16162
879.206	16272
879.333	16131
879.461	16090
879.588	16093
879.715	16177
879.842	16265
879.97	15998
880.097	15888
880.224	15793
880.351	15895
880.478	15800
880.605	15819
880.732	15774
880.859	16032
880.986	15880
881.112	15869
881.239	15762
881.366	15629
881.493	15424
881.619	15363
881.746	15450
881.872	15481
881.999	15412
882.125	15481
882.252	15389
882.378	15538
882.505	15690
882.631	15477
882.757	15317
882.883	15287
883.01	15310
883.136	15165
883.262	15165
883.388	15135
883.514	15264
883.64	15355
883.766	15165
883.892	15062
884.018	15051
884.143	15131
884.269	15306
884.395	15104
884.52	15001
884.646	14971
884.772	14906
884.897	14895
885.023	14914
885.148	15047
885.274	15188
885.399	15104
885.524	14998
885.65	15051
885.775	14990
885.9	14895
886.025	15009
886.15	15150
886.275	14979
886.4	14796
886.525	14914
886.65	14838
886.775	14842
886.9	15165
887.025	15192
887.149	14899
887.274	14800
887.399	14727
887.523	14804
887.648	14758
887.773	14716
887.897	14864
888.021	14868
888.146	14701
888.27	14880
888.395	14925
888.519	14838
888.643	14918
888.767	14868
888.891	14720
889.015	14648
889.139	14754
889.263	14606
889.387	14788
889.511	14918
889.635	14758
889.759	14579
889.883	14606
890.006	14571
890.13	14765
890.254	14537
890.377	14579
890.501	14362
890.624	14389
890.748	14476
890.871	14423
890.995	14339
891.118	14214
891.241	14301
891.364	14355
891.488	14427
891.611	14336
891.734	14351
891.857	14370
891.98	14370
892.103	14381
892.226	14362
892.349	14252
892.471	14187
892.594	14343
892.717	14396
892.839	14218
892.962	14309
893.085	14423
893.207	14278
893.33	14157
893.452	14290
893.575	14408
893.697	14320
893.819	14465
893.941	14454
894.064	14438
894.186	14301
894.308	14298
894.43	14484
894.552	14522
894.674	14370
894.796	14305
894.918	14343
895.04	14290
895.161	14427
895.283	14385
895.405	14275
895.526	14423
895.648	14412
895.769	14389
895.891	14385
896.012	14568
896.134	14507
896.255	14492
896.376	14427
896.498	14415
896.619	14503
896.74	14476
896.861	14514
896.982	14811
897.103	14910
897.224	14830
897.345	14678
897.466	14701
897.587	14727
897.708	14880
897.828	14830
897.949	14777
898.07	14610
898.19	14765
898.311	14819
898.431	14765
898.552	14853
898.672	14933
898.792	14971
898.913	14811
899.033	14746
899.153	14655
899.273	14575
899.393	14701
899.513	14716
899.633	14724
899.753	14712
899.873	14678
899.993	14651
900.113	14659
900.232	14727
900.352	14651
900.472	14606
900.591	14465
900.711	14689
900.83	14552
900.95	14716
901.069	14648
901.189	14507
901.308	14313
901.427	14202
901.546	14210
901.665	14210
901.784	14244
901.904	14103
902.023	14043
902.141	13890
902.26	13803
902.379	13833
902.498	13856
902.617	13693
902.735	13818
902.854	13818
902.973	13727
903.091	13491
903.21	13552
903.328	13537
903.446	13419
903.565	13365
903.683	13350
903.801	13339
903.919	13335
904.038	13293
904.156	13118
904.274	13202
904.392	13076
904.51	13179
904.627	13088
904.745	13107
904.863	13259
904.981	12947
905.098	12886
905.216	12833
905.334	12863
905.451	12863
905.569	12810
905.686	12916
905.803	12795
905.921	12597
906.038	12707
906.155	12574
906.272	12665
906.389	12620
906.506	12452
906.623	12460
906.74	12407
906.857	12361
906.974	12330
907.091	12528
907.208	12601
907.324	12547
907.441	12407
907.557	12262
907.674	12190
907.79	12068
907.907	12239
908.023	12209
908.139	12194
908.256	12117
908.372	12095
908.488	12083
908.604	12030
908.72	11946
908.836	12034
908.952	11977
909.068	11977
909.184	12049
909.3	11946
909.415	11946
909.531	11882
909.647	11703
909.762	11710
909.878	11722
909.993	11699
910.108	11737
910.224	11623
910.339	11707
910.454	11707
910.57	11585
910.685	11471
910.8	11817
910.915	11809
911.03	11596
911.145	11448
911.259	11448
911.374	11360
911.489	11360
911.604	11296
911.718	11216
911.833	11227
911.947	11094
912.062	10946
912.176	11178
912.291	11079
912.405	11151
912.519	11318
912.633	11337
912.748	11143
912.862	11098
912.976	11113
913.09	10946
913.204	11006
913.318	11018
913.431	11109
913.545	11162
913.659	11147
913.772	11060
913.886	10930
914	10980
914.113	11090
914.226	10976
914.34	10938
914.453	10763
914.566	11018
914.68	10850
914.793	10900
914.906	10664
915.019	10565
915.132	10546
915.245	10656
915.358	10691
915.47	10702
915.583	10706
915.696	10725
915.809	10778
915.921	10717
916.034	10653
916.146	10592
916.259	10626
916.371	10679
916.483	10660
916.595	10519
916.708	10668
916.82	10694
916.932	10618
917.044	10565
917.156	10577
917.268	10470
917.38	10508
917.491	10459
917.603	10519
917.715	10649
917.826	10588
917.938	10508
918.049	10367
918.161	10459
918.272	10569
918.384	10645
918.495	10535
918.606	10348
918.717	10325
918.828	10303
918.939	10379
919.05	10314
919.161	10352
919.272	10120
919.383	10173
919.494	10398
919.604	10580
919.715	10314
919.826	10306
919.936	10413
920.047	10382
920.157	10428
920.267	10538
920.378	10386
920.488	10386
920.598	10588
920.708	10774
920.818	10622
920.928	10527
921.038	10778
921.148	10675
921.258	10417
921.368	10367
921.477	10295
921.587	10261
921.697	10196
921.806	10185
921.916	10128
922.025	9975
922.134	9934
922.244	9895
922.353	9964
922.462	9823
922.571	9713
922.68	9667
922.789	9542
922.898	9606
923.007	9561
923.116	9709
923.224	9595
923.333	9587
923.442	9599
923.55	9496
923.659	9488
923.767	9576
923.876	9477
923.984	9587
924.092	9443
924.201	9545
924.309	9485
924.417	9477
924.525	9378
924.633	9492
924.741	10322
924.849	9264
924.956	9401
925.064	9260
925.172	9199
925.279	9253
925.387	9264
925.494	9317
925.602	9424
925.709	9348
925.816	9222
925.924	9211
926.031	9416
926.138	9211
926.245	9291
926.352	9077
926.459	9329
926.566	9370
926.673	9127
926.779	9131
926.886	9051
926.993	8899
927.099	8982
927.206	8914
927.312	8887
927.419	9032
927.525	9009
927.631	9039
927.737	8918
927.843	8906
927.95	8796
928.056	8895
928.162	8864
928.267	8937
928.373	9458
928.479	8944
928.585	8762
928.69	8838
928.796	8861
928.901	8697
929.007	8640
929.112	8766
929.218	8716
929.323	8701
929.428	8663
929.533	8842
929.638	8617
929.743	8621
929.848	8739
929.953	8667
930.058	8541
930.163	8499
930.267	8492
930.372	8556
930.477	8389
930.581	8636
930.685	8431
930.79	8343
930.894	8408
930.998	8355
931.103	8545
931.207	8202
931.311	8107
931.415	8100
931.519	7849
931.623	7894
