Data from test_V78500241_146.txt Node
Date: Fri Mar 25 14:34:44 CST 2022
User: usil
Spectrometer: V785-0024
Trigger mode: 0
Integration Time (sec): 4.000000E-1
Scans to average: 1
Nonlinearity correction enabled: false
Boxcar width: 0
Storing dark spectrum: false
XAxis mode: Wavelengths
Number of Pixels in Spectrum: 1024
>>>>>Begin Spectral Data<<<<<
801.071	29398
801.214	29303
801.356	29155
801.499	28938
801.641	28968
801.783	28828
801.926	28710
802.068	28854
802.211	28793
802.353	28786
802.496	28554
802.638	28523
802.78	28577
802.923	28363
803.065	28474
803.208	28478
803.35	28466
803.492	28599
803.635	28774
803.777	28599
803.919	28702
804.061	29025
804.204	28736
804.346	28588
804.488	28569
804.63	28679
804.773	28805
804.915	28786
805.057	28793
805.199	28752
805.341	28881
805.483	29006
805.626	28965
805.768	28881
805.91	28976
806.052	29014
806.194	28949
806.336	29455
806.478	29254
806.62	29353
806.762	29551
806.904	29722
807.046	29996
807.188	30136
807.33	30327
807.472	30669
807.614	30768
807.756	31225
807.898	31609
808.04	32142
808.182	32940
808.324	34204
808.465	35200
808.607	36509
808.749	37689
808.891	38370
809.033	38237
809.174	37632
809.316	36521
809.458	35159
809.6	33724
809.741	32975
809.883	31925
810.025	31464
810.166	31183
810.308	30901
810.45	30677
810.591	30384
810.733	29939
810.875	29901
811.016	29627
811.158	29608
811.299	29661
811.441	29668
811.582	29615
811.724	29471
811.865	29353
812.007	29368
812.148	29318
812.29	29356
812.431	29429
812.573	29638
812.714	29589
812.855	29794
812.997	29771
813.138	29969
813.279	29851
813.421	29562
813.562	29630
813.703	29509
813.845	29303
813.986	29003
814.127	28733
814.268	28698
814.41	28710
814.551	28668
814.692	28702
814.833	28607
814.974	28379
815.115	28615
815.256	28535
815.397	28443
815.539	28478
815.68	28253
815.821	28215
815.962	28215
816.103	28253
816.244	28120
816.385	28105
816.526	27949
816.666	27804
816.807	27561
816.948	27618
817.089	27736
817.23	27648
817.371	27717
817.512	27587
817.653	27450
817.793	27568
817.934	27587
818.075	27587
818.216	27507
818.356	27534
818.497	27534
818.638	27321
818.778	27370
818.919	27294
819.06	27439
819.2	27408
819.341	27473
819.481	27469
819.622	27610
819.762	27854
819.903	27671
820.043	27641
820.184	27641
820.324	27656
820.465	27545
820.605	27561
820.746	27485
820.886	27386
821.026	27348
821.167	27420
821.307	27583
821.447	27336
821.588	27302
821.728	27135
821.868	26948
822.008	26891
822.149	26960
822.289	26754
822.429	26507
822.569	26499
822.709	26541
822.849	26248
822.99	26309
823.13	26142
823.27	26142
823.41	26088
823.55	25951
823.69	26111
823.83	26069
823.97	26012
824.11	25856
824.25	25799
824.389	25833
824.529	25894
824.669	25784
824.809	25864
824.949	25868
825.089	26020
825.228	25814
825.368	25597
825.508	25620
825.648	25620
825.787	25791
825.927	25704
826.067	25578
826.206	25510
826.346	25715
826.485	25632
826.625	25635
826.765	25700
826.904	25483
827.044	25422
827.183	25335
827.323	25384
827.462	25304
827.601	25183
827.741	25289
827.88	25308
828.02	25084
828.159	25441
828.298	25346
828.437	25327
828.577	25213
828.716	25346
828.855	25160
828.994	24981
829.134	24962
829.273	25004
829.412	24932
829.551	24966
829.69	24935
829.829	24977
829.968	25034
830.107	25050
830.246	24928
830.385	24878
830.524	24776
830.663	24711
830.802	24726
830.941	24536
831.08	24566
831.219	24536
831.357	24566
831.496	24635
831.635	24475
831.774	24391
831.913	24357
832.051	24346
832.19	24395
832.329	24350
832.467	24300
832.606	24251
832.744	24232
832.883	24334
833.022	24220
833.16	24334
833.299	24319
833.437	24532
833.576	24399
833.714	24544
833.852	24654
833.991	24661
834.129	24757
834.267	24722
834.406	24673
834.544	24669
834.682	24582
834.821	24414
834.959	24677
835.097	24285
835.235	24399
835.373	24273
835.511	24281
835.65	24228
835.788	24121
835.926	23901
836.064	23828
836.202	23866
836.34	24022
836.478	24136
836.615	23920
836.753	24007
836.891	24057
837.029	23935
837.167	23901
837.305	23904
837.443	23779
837.58	23866
837.718	23840
837.856	23874
837.993	23699
838.131	23832
838.269	23596
838.406	23596
838.544	23486
838.681	23440
838.819	23349
838.956	23193
839.094	23322
839.231	23284
839.369	23311
839.506	23562
839.643	23433
839.781	23208
839.918	23170
840.055	23227
840.193	23193
840.33	23113
840.467	22987
840.604	23159
840.742	23330
840.879	22889
841.016	23022
841.153	23064
841.29	23143
841.427	23022
841.564	23159
841.701	22999
841.838	22858
841.975	22885
842.112	22877
842.249	22873
842.385	22736
842.522	22984
842.659	22828
842.796	22801
842.933	22850
843.069	22869
843.206	22702
843.343	22923
843.479	22873
843.616	22862
843.752	22653
843.889	22713
844.025	22801
844.162	22713
844.298	22816
844.435	22782
844.571	22885
844.708	23067
844.844	23345
844.98	23467
845.117	23543
845.253	23786
845.389	24460
845.525	25708
845.661	28025
845.798	30563
845.934	32686
846.07	33519
846.206	33256
846.342	31491
846.478	28805
846.614	26351
846.75	24707
846.886	23729
847.022	23246
847.158	22744
847.294	22691
847.429	22622
847.565	22348
847.701	22402
847.837	22090
847.972	21838
848.108	22029
848.244	21892
848.379	21675
848.515	21690
848.65	21701
848.786	21481
848.921	21568
849.057	21663
849.192	21694
849.328	21633
849.463	21713
849.598	21496
849.734	21542
849.869	21443
850.004	21393
850.14	21256
850.275	21370
850.41	21146
850.545	21222
850.68	21355
850.815	21355
850.95	21340
851.085	21428
851.22	21401
851.355	21230
851.49	21207
851.625	21233
851.76	21283
851.895	21142
852.03	21241
852.165	21283
852.299	21272
852.434	21408
852.569	21226
852.703	21310
852.838	21435
852.973	21454
853.107	21431
853.242	21241
853.376	21146
853.511	21055
853.645	21096
853.78	21230
853.914	21230
854.048	21230
854.183	21359
854.317	21336
854.451	21492
854.585	21252
854.72	21275
854.854	21226
854.988	21127
855.122	21302
855.256	21001
855.39	21104
855.524	21222
855.658	21165
855.792	21100
855.926	21176
856.06	21119
856.194	21138
856.327	21036
856.461	21081
856.595	20975
856.729	21085
856.862	21256
856.996	21070
857.13	21066
857.263	21275
857.397	21161
857.53	21104
857.664	21096
857.797	21047
857.931	21131
858.064	21089
858.197	21180
858.331	21051
858.464	20902
858.597	20914
858.731	20990
858.864	20872
858.997	20921
859.13	20925
859.263	20921
859.396	20914
859.529	20986
859.662	20895
859.795	20902
859.928	20979
860.061	21085
860.194	21017
860.327	20826
860.46	20788
860.592	21074
860.725	21070
860.858	21077
860.99	20929
861.123	20921
861.256	20902
861.388	20811
861.521	21709
861.653	20864
861.786	20689
861.918	20895
862.05	20925
862.183	21013
862.315	21062
862.447	21112
862.58	21013
862.712	20731
862.844	20670
862.976	20727
863.108	20648
863.24	20998
863.372	20571
863.504	20765
863.636	20689
863.768	20533
863.9	20708
864.032	20533
864.164	20689
864.296	20590
864.428	20651
864.559	20629
864.691	20689
864.823	20556
864.954	20724
865.086	20606
865.217	20518
865.349	20511
865.48	20492
865.612	20590
865.743	20754
865.875	20473
866.006	20476
866.137	20533
866.269	20499
866.4	20575
866.531	20499
866.662	20362
866.793	20446
866.924	20434
867.055	20537
867.186	20431
867.317	20370
867.448	20492
867.579	20415
867.71	20419
867.841	20355
867.972	20484
868.103	20518
868.233	20473
868.364	20518
868.495	20549
868.625	20549
868.756	20773
868.886	20606
869.017	20655
869.147	20804
869.278	20750
869.408	20697
869.539	20640
869.669	20686
869.799	20693
869.929	20765
870.06	20765
870.19	20952
870.32	20960
870.45	21070
870.58	21066
870.71	21207
870.84	21169
870.97	21062
871.1	21176
871.23	21146
871.36	21329
871.489	21108
871.619	21306
871.749	21329
871.879	21321
872.008	21412
872.138	21443
872.267	21302
872.397	21256
872.526	21298
872.656	21294
872.785	21173
872.915	21272
873.044	21408
873.173	21397
873.303	21466
873.432	21526
873.561	21488
873.69	21568
873.819	21557
873.948	21549
874.077	21336
874.206	21393
874.335	21485
874.464	21583
874.593	21770
874.722	21724
874.851	21736
874.979	21751
875.108	21774
875.237	21846
875.365	21736
875.494	21838
875.623	21937
875.751	21907
875.88	21953
876.008	22078
876.136	22105
876.265	22348
876.393	22531
876.521	22481
876.65	22531
876.778	22436
876.906	22409
877.034	22462
877.162	22447
877.29	22478
877.418	22535
877.546	22592
877.674	22474
877.802	22744
877.93	22679
878.058	22740
878.185	22691
878.313	22995
878.441	23098
878.568	23064
878.696	23421
878.824	23855
878.951	24197
879.079	24947
879.206	25670
879.333	26629
879.461	27241
879.588	27557
879.715	27713
879.842	27454
879.97	26484
880.097	25499
880.224	24840
880.351	24391
880.478	23942
880.605	23691
880.732	23764
880.859	23836
880.986	23512
881.112	23490
881.239	23311
881.366	23094
881.493	23105
881.619	23033
881.746	23117
881.872	23109
881.999	23204
882.125	22957
882.252	23235
882.378	23102
882.505	23193
882.631	23056
882.757	22820
882.883	22927
883.01	22911
883.136	22812
883.262	22698
883.388	22736
883.514	22911
883.64	22908
883.766	22809
883.892	22607
884.018	22577
884.143	22752
884.269	22900
884.395	22645
884.52	22554
884.646	22561
884.772	22474
884.897	22447
885.023	22538
885.148	22611
885.274	22573
885.399	22531
885.524	22337
885.65	22402
885.775	22249
885.9	22177
886.025	22234
886.15	22200
886.275	21991
886.4	21972
886.525	22036
886.65	21941
886.775	21888
886.9	21915
887.025	22044
887.149	21762
887.274	21549
887.399	21481
887.523	21351
887.648	21397
887.773	21294
887.897	21500
888.021	21378
888.146	21336
888.27	21321
888.395	21389
888.519	21344
888.643	21245
888.767	21199
888.891	21043
889.015	21020
889.139	21036
889.263	20861
889.387	21077
889.511	21150
889.635	20982
889.759	20921
889.883	20743
890.006	20872
890.13	20864
890.254	20754
890.377	20663
890.501	20651
890.624	20609
890.748	20492
890.871	20427
890.995	20408
891.118	20244
891.241	20362
891.364	20332
891.488	20442
891.611	20442
891.734	20324
891.857	20358
891.98	20343
892.103	20320
892.226	20191
892.349	20183
892.471	20050
892.594	20096
892.717	20134
892.839	20157
892.962	20119
893.085	20183
893.207	20008
893.33	19898
893.452	19959
893.575	19940
893.697	19887
893.819	20248
893.941	20191
894.064	20195
894.186	19959
894.308	19894
894.43	20130
894.552	20062
894.674	19993
894.796	19841
894.918	19928
895.04	19879
895.161	19928
895.283	19849
895.405	19883
895.526	19982
895.648	19906
895.769	19925
895.891	19921
896.012	19864
896.134	19982
896.255	19883
896.376	19776
896.498	19799
896.619	19845
896.74	19959
896.861	20001
896.982	20271
897.103	20355
897.224	20176
897.345	20001
897.466	19986
897.587	20081
897.708	20119
897.828	19902
897.949	19947
898.07	19898
898.19	19963
898.311	20088
898.431	19955
898.552	20069
898.672	20005
898.792	19989
898.913	20005
899.033	19967
899.153	19753
899.273	19666
899.393	19643
899.513	19826
899.633	19772
899.753	19715
899.873	19590
899.993	19784
900.113	19575
900.232	19750
900.352	19632
900.472	19499
900.591	19396
900.711	19445
900.83	19525
900.95	19537
901.069	19655
901.189	19430
901.308	19187
901.427	19129
901.546	19148
901.665	19107
901.784	19175
901.904	18962
902.023	18840
902.141	18677
902.26	18642
902.379	18669
902.498	18563
902.617	18418
902.735	18464
902.854	18483
902.973	18429
903.091	18228
903.21	18270
903.328	18213
903.446	18068
903.565	18095
903.683	17950
903.801	17874
903.919	17988
904.038	18026
904.156	17813
904.274	17863
904.392	17767
904.51	17760
904.627	17824
904.745	17767
904.863	17775
904.981	17581
905.098	17478
905.216	17558
905.334	17417
905.451	17440
905.569	17398
905.686	17501
905.803	17436
905.921	17204
906.038	17288
906.155	17155
906.272	17155
906.389	17143
906.506	16987
906.623	16953
906.74	16892
906.857	16862
906.974	16869
907.091	17014
907.208	16980
907.324	16896
907.441	16736
907.557	16649
907.674	16645
907.79	16569
907.907	16687
908.023	16577
908.139	16611
908.256	16527
908.372	16516
908.488	16542
908.604	16337
908.72	16325
908.836	16371
908.952	16363
909.068	16310
909.184	16402
909.3	16344
909.415	16291
909.531	16226
909.647	15983
909.762	16017
909.878	15972
909.993	16055
910.108	15975
910.224	15964
910.339	16036
910.454	15819
910.57	15884
910.685	15819
910.8	16051
910.915	15987
911.03	15861
911.145	15633
911.259	15557
911.374	15614
911.489	15603
911.604	15599
911.718	15359
911.833	15294
911.947	15218
912.062	15214
912.176	15325
912.291	15336
912.405	15340
912.519	15462
912.633	15523
912.748	15447
912.862	15386
912.976	15203
913.09	15066
913.204	15119
913.318	15131
913.431	15260
913.545	15260
913.659	15218
913.772	15017
913.886	15043
914	15024
914.113	15024
914.226	15058
914.34	15028
914.453	14956
914.566	15005
914.68	14899
914.793	14918
914.906	14686
915.019	14674
915.132	14533
915.245	14610
915.358	14575
915.47	14727
915.583	14590
915.696	14613
915.809	14830
915.921	14724
916.034	14594
916.146	14590
916.259	14492
916.371	14503
916.483	14636
916.595	14473
916.708	14454
916.82	14480
916.932	14446
917.044	14503
917.156	14313
917.268	14176
917.38	14366
917.491	14301
917.603	14278
917.715	14259
917.826	14419
917.938	14225
918.049	14043
918.161	14210
918.272	14332
918.384	14320
918.495	14225
918.606	14081
918.717	13902
918.828	14073
918.939	14115
919.05	13947
919.161	13830
919.272	13769
919.383	13799
919.494	14016
919.604	14153
919.715	14020
919.826	13856
919.936	13727
920.047	13970
920.157	13871
920.267	14176
920.378	14024
920.488	13890
920.598	14180
920.708	14263
920.818	14123
920.928	14073
921.038	14191
921.148	14164
921.258	13963
921.368	13887
921.477	13734
921.587	13662
921.697	13578
921.806	13769
921.916	13556
922.025	13422
922.134	13339
922.244	13365
922.353	13460
922.462	13209
922.571	13095
922.68	13008
922.789	12993
922.898	13034
923.007	12848
923.116	12973
923.224	12890
923.333	12897
923.442	12871
923.55	12726
923.659	12837
923.767	12844
923.876	12753
923.984	12791
924.092	12707
924.201	12829
924.309	12726
924.417	12764
924.525	12722
924.633	12665
924.741	13510
924.849	12437
924.956	12608
925.064	12479
925.172	12410
925.279	12422
925.387	12418
925.494	12414
925.602	12498
925.709	12426
925.816	12262
925.924	12361
926.031	12570
926.138	12372
926.245	12380
926.352	12277
926.459	12369
926.566	12433
926.673	12361
926.779	12194
926.886	12220
926.993	12007
927.099	11988
927.206	11893
927.312	11927
927.419	11965
927.525	11988
927.631	12030
927.737	11836
927.843	11870
927.95	11760
928.056	11783
928.162	11843
928.267	11923
928.373	12433
928.479	11965
928.585	11665
928.69	11794
928.796	11851
928.901	11764
929.007	11455
929.112	11699
929.218	11691
929.323	11596
929.428	11566
929.533	11718
929.638	11493
929.743	11463
929.848	11619
929.953	11505
930.058	11501
930.163	11197
930.267	11246
930.372	11376
930.477	11246
930.581	11414
930.685	11242
930.79	11162
930.894	11147
930.998	11140
931.103	11265
931.207	10850
931.311	10831
931.415	10786
931.519	10523
931.623	10379
