Data from test_V78500241_1598.txt Node
Date: Fri Mar 25 14:44:50 CST 2022
User: usil
Spectrometer: V785-0024
Trigger mode: 0
Integration Time (sec): 4.000000E-1
Scans to average: 1
Nonlinearity correction enabled: false
Boxcar width: 0
Storing dark spectrum: false
XAxis mode: Wavelengths
Number of Pixels in Spectrum: 1024
>>>>>Begin Spectral Data<<<<<
801.071	22554
801.214	22352
801.356	22044
801.499	21968
801.641	21835
801.783	21682
801.926	21831
802.068	21739
802.211	21561
802.353	21549
802.496	21405
802.638	21348
802.78	21226
802.923	21233
803.065	21112
803.208	21024
803.35	21161
803.492	21142
803.635	21268
803.777	21146
803.919	21180
804.061	21545
804.204	21135
804.346	21017
804.488	21028
804.63	21142
804.773	20979
804.915	21051
805.057	21127
805.199	21058
805.341	21154
805.483	21199
805.626	21184
805.768	21005
805.91	21043
806.052	20994
806.194	21005
806.336	21226
806.478	20979
806.62	20929
806.762	21085
806.904	21154
807.046	21416
807.188	21397
807.33	21443
807.472	21450
807.614	21291
807.756	21416
807.898	21203
808.04	21214
808.182	21066
808.324	21184
808.465	21325
808.607	21408
808.749	21553
808.891	21587
809.033	21625
809.174	21663
809.316	21473
809.458	21408
809.6	21412
809.741	21568
809.883	21587
810.025	21637
810.166	21701
810.308	21625
810.45	21603
810.591	21393
810.733	21218
810.875	21351
811.016	21157
811.158	21119
811.299	21256
811.441	21340
811.582	21336
811.724	21211
811.865	21249
812.007	21104
812.148	21039
812.29	21226
812.431	21393
812.573	21462
812.714	21473
812.855	21698
812.997	21698
813.138	21956
813.279	21755
813.421	21705
813.562	21682
813.703	21424
813.845	21431
813.986	21070
814.127	20910
814.268	20838
814.41	20758
814.551	20724
814.692	20823
814.833	20678
814.974	20697
815.115	20792
815.256	20552
815.397	20625
815.539	20594
815.68	20590
815.821	20442
815.962	20446
816.103	20446
816.244	20290
816.385	20161
816.526	20210
816.666	20096
816.807	19898
816.948	20012
817.089	20050
817.23	19856
817.371	19936
817.512	19879
817.653	19883
817.793	19883
817.934	19830
818.075	20031
818.216	19947
818.356	19811
818.497	19723
818.638	19552
818.778	19681
818.919	19624
819.06	19597
819.2	19639
819.341	19738
819.481	19693
819.622	19845
819.762	20035
819.903	20035
820.043	19833
820.184	19944
820.324	19864
820.465	19894
820.605	19780
820.746	19822
820.886	19799
821.026	19913
821.167	19917
821.307	19894
821.447	19871
821.588	19620
821.728	19529
821.868	19502
822.008	19225
822.149	19320
822.289	19251
822.429	18993
822.569	18996
822.709	18973
822.849	18741
822.99	18795
823.13	18730
823.27	18681
823.41	18486
823.55	18521
823.69	18612
823.83	18707
823.97	18471
824.11	18311
824.25	18273
824.389	18292
824.529	18376
824.669	18418
824.809	18380
824.949	18479
825.089	18399
825.228	18304
825.368	18072
825.508	18155
825.648	18117
825.787	18163
825.927	18155
826.067	18064
826.206	18003
826.346	18106
826.485	18144
826.625	18155
826.765	18224
826.904	18057
827.044	17901
827.183	17893
827.323	17756
827.462	17832
827.601	17817
827.741	17745
827.88	17889
828.02	17745
828.159	17798
828.298	17878
828.437	17870
828.577	17760
828.716	17836
828.855	17665
828.994	17619
829.134	17566
829.273	17566
829.412	17554
829.551	17383
829.69	17524
829.829	17532
829.968	17634
830.107	17501
830.246	17493
830.385	17421
830.524	17459
830.663	17337
830.802	17334
830.941	17128
831.08	17151
831.219	17265
831.357	17368
831.496	17414
831.635	17102
831.774	17094
831.913	17006
832.051	16881
832.19	17003
832.329	16968
832.467	16854
832.606	16831
832.744	16835
832.883	16873
833.022	16862
833.16	16748
833.299	16968
833.437	16786
833.576	16869
833.714	16934
833.852	16965
833.991	16896
834.129	17025
834.267	16957
834.406	16866
834.544	16889
834.682	16850
834.821	16854
834.959	17105
835.097	16847
835.235	16881
835.373	16801
835.511	16976
835.65	16847
835.788	16805
835.926	16531
836.064	16622
836.202	16607
836.34	16904
836.478	16797
836.615	16752
836.753	16786
836.891	16877
837.029	16809
837.167	16691
837.305	16675
837.443	16592
837.58	16592
837.718	16786
837.856	16535
837.993	16626
838.131	16660
838.269	16527
838.406	16546
838.544	16535
838.681	16322
838.819	16405
838.956	16032
839.094	16272
839.231	16322
839.369	16424
839.506	16538
839.643	16432
839.781	16265
839.918	16226
840.055	16261
840.193	16166
840.33	16242
840.467	16200
840.604	16188
840.742	16497
840.879	15968
841.016	16196
841.153	16082
841.29	16295
841.427	16234
841.564	16226
841.701	16166
841.838	16032
841.975	16063
842.112	16082
842.249	16029
842.385	15975
842.522	16059
842.659	15979
842.796	15793
842.933	15979
843.069	15975
843.206	15953
843.343	16086
843.479	16074
843.616	15975
843.752	15812
843.889	15698
844.025	15827
844.162	15713
844.298	15846
844.435	15778
844.571	15679
844.708	15774
844.844	15934
844.98	15930
845.117	15842
845.253	15709
845.389	15713
845.525	15637
845.661	15705
845.798	15633
845.934	15690
846.07	15534
846.206	15690
846.342	15823
846.478	15526
846.614	15443
846.75	15310
846.886	15150
847.022	15397
847.158	15291
847.294	15313
847.429	15294
847.565	15291
847.701	15530
847.837	15066
847.972	15024
848.108	15032
848.244	15001
848.379	14910
848.515	14842
848.65	14902
848.786	14826
848.921	14842
849.057	15066
849.192	14921
849.328	14998
849.463	14807
849.598	14842
849.734	14868
849.869	14754
850.004	14743
850.14	14781
850.275	14678
850.41	14636
850.545	14648
850.68	14644
850.815	14727
850.95	14651
851.085	14826
851.22	14750
851.355	14629
851.49	14655
851.625	14667
851.76	14659
851.895	14530
852.03	14579
852.165	14648
852.299	14663
852.434	14765
852.569	14648
852.703	14606
852.838	14693
852.973	14872
853.107	14765
853.242	14602
853.376	14549
853.511	14461
853.645	14415
853.78	14670
853.914	14454
854.048	14492
854.183	14636
854.317	14610
854.451	14632
854.585	14537
854.72	14446
854.854	14610
854.988	14526
855.122	14476
855.256	14374
855.39	14575
855.524	14575
855.658	14541
855.792	14499
855.926	14632
856.06	14598
856.194	14674
856.327	14511
856.461	14541
856.595	14450
856.729	14419
856.862	14644
856.996	14587
857.13	14621
857.263	14663
857.397	14674
857.53	14522
857.664	14564
857.797	14693
857.931	14720
858.064	14526
858.197	14583
858.331	14556
858.464	14492
858.597	14358
858.731	14549
858.864	14530
858.997	14400
859.13	14549
859.263	14446
859.396	14659
859.529	14480
859.662	14465
859.795	14461
859.928	14495
860.061	14667
860.194	14697
860.327	14579
860.46	14514
860.592	14648
860.725	14659
860.858	14526
860.99	14564
861.123	14412
861.256	14465
861.388	14556
861.521	15214
861.653	14412
861.786	14290
861.918	14465
862.05	14351
862.183	14442
862.315	14484
862.447	14556
862.58	14377
862.712	14278
862.844	14259
862.976	14381
863.108	14366
863.24	14651
863.372	14271
863.504	14294
863.636	14149
863.768	14336
863.9	14290
864.032	14183
864.164	14183
864.296	14294
864.428	14492
864.559	14404
864.691	14469
864.823	14332
864.954	14309
865.086	14347
865.217	14244
865.349	14221
865.48	14305
865.612	14370
865.743	14362
865.875	14286
866.006	14290
866.137	14294
866.269	14199
866.4	14309
866.531	14157
866.662	14183
866.793	14199
866.924	14252
867.055	14218
867.186	14199
867.317	14271
867.448	14145
867.579	14271
867.71	14062
867.841	14225
867.972	14233
868.103	14256
868.233	14267
868.364	14275
868.495	14412
868.625	14358
868.756	14552
868.886	14476
869.017	14492
869.147	14606
869.278	14606
869.408	14568
869.539	14488
869.669	14568
869.799	14480
869.929	14705
870.06	14632
870.19	14861
870.32	14750
870.45	14872
870.58	14921
870.71	15020
870.84	15039
870.97	14910
871.1	14910
871.23	15226
871.36	15070
871.489	15043
871.619	15020
871.749	15119
871.879	15150
872.008	15222
872.138	15104
872.267	15055
872.397	14986
872.526	14937
872.656	14899
872.785	14941
872.915	15184
873.044	15260
873.173	15138
873.303	15249
873.432	15268
873.561	15230
873.69	15237
873.819	15161
873.948	15161
874.077	15131
874.206	15180
874.335	15192
874.464	15420
874.593	15386
874.722	15340
874.851	15515
874.979	15405
875.108	15481
875.237	15435
875.365	15397
875.494	15401
875.623	15591
875.751	15443
875.88	15504
876.008	15644
876.136	15663
876.265	15876
876.393	16013
876.521	15972
876.65	15918
876.778	15975
876.906	15915
877.034	15857
877.162	15785
877.29	15865
877.418	15835
877.546	15831
877.674	15918
877.802	15911
877.93	15937
878.058	15895
878.185	15785
878.313	15762
878.441	15895
878.568	15800
878.696	15865
878.824	15930
878.951	16025
879.079	16147
879.206	16154
879.333	16078
879.461	16025
879.588	16097
879.715	16082
879.842	16215
879.97	15983
880.097	15778
880.224	15690
880.351	15743
880.478	15770
880.605	15637
880.732	15778
880.859	15994
880.986	15762
881.112	15770
881.239	15713
881.366	15439
881.493	15428
881.619	15367
881.746	15466
881.872	15447
881.999	15275
882.125	15424
882.252	15447
882.378	15534
882.505	15561
882.631	15359
882.757	15112
882.883	15241
883.01	15199
883.136	15252
883.262	15070
883.388	15131
883.514	15211
883.64	15230
883.766	15279
883.892	15032
884.018	15062
884.143	15180
884.269	15230
884.395	14956
884.52	14887
884.646	15024
884.772	14819
884.897	14743
885.023	14887
885.148	15085
885.274	15085
885.399	15009
885.524	14929
885.65	14975
885.775	14944
885.9	14887
886.025	14979
886.15	14979
886.275	14800
886.4	14746
886.525	14960
886.65	14830
886.775	14758
886.9	15036
887.025	15146
887.149	14838
887.274	14727
887.399	14701
887.523	14838
887.648	14716
887.773	14606
887.897	14773
888.021	14716
888.146	14720
888.27	14773
888.395	14921
888.519	14819
888.643	14845
888.767	14720
888.891	14686
889.015	14579
889.139	14636
889.263	14606
889.387	14651
889.511	14716
889.635	14743
889.759	14492
889.883	14575
890.006	14625
890.13	14701
890.254	14450
890.377	14575
890.501	14389
890.624	14404
890.748	14484
890.871	14240
890.995	14191
891.118	14176
891.241	14366
891.364	14290
891.488	14427
891.611	14237
891.734	14263
891.857	14385
891.98	14381
892.103	14355
892.226	14301
892.349	14275
892.471	14069
892.594	14290
892.717	14309
892.839	14271
892.962	14286
893.085	14248
893.207	14183
893.33	14123
893.452	14267
893.575	14290
893.697	14298
893.819	14438
893.941	14484
894.064	14366
894.186	14263
894.308	14320
894.43	14400
894.552	14552
894.674	14377
894.796	14271
894.918	14374
895.04	14221
895.161	14393
895.283	14507
895.405	14328
895.526	14370
895.648	14412
895.769	14396
895.891	14423
896.012	14492
896.134	14419
896.255	14381
896.376	14408
896.498	14492
896.619	14537
896.74	14514
896.861	14522
896.982	14804
897.103	14998
897.224	14773
897.345	14686
897.466	14674
897.587	14769
897.708	14792
897.828	14724
897.949	14674
898.07	14625
898.19	14674
898.311	14735
898.431	14720
898.552	14804
898.672	14861
898.792	14902
898.913	14849
899.033	14743
899.153	14682
899.273	14537
899.393	14602
899.513	14689
899.633	14689
899.753	14792
899.873	14587
899.993	14705
900.113	14693
900.232	14686
900.352	14731
900.472	14541
900.591	14476
900.711	14492
900.83	14473
900.95	14575
901.069	14644
901.189	14446
901.308	14240
901.427	14153
901.546	14309
901.665	14206
901.784	14214
901.904	14210
902.023	13921
902.141	13826
902.26	13734
902.379	13814
902.498	13769
902.617	13738
902.735	13849
902.854	13712
902.973	13761
903.091	13582
903.21	13499
903.328	13362
903.446	13430
903.565	13460
903.683	13373
903.801	13221
903.919	13339
904.038	13289
904.156	13145
904.274	13270
904.392	13152
904.51	13076
904.627	13095
904.745	13149
904.863	13278
904.981	12913
905.098	12768
905.216	12878
905.334	12795
905.451	12821
905.569	12810
905.686	12856
905.803	12798
905.921	12574
906.038	12715
906.155	12692
906.272	12570
906.389	12589
906.506	12441
906.623	12544
906.74	12429
906.857	12308
906.974	12380
907.091	12525
907.208	12525
907.324	12388
907.441	12311
907.557	12171
907.674	12152
907.79	12178
907.907	12087
908.023	12235
908.139	12178
908.256	12121
908.372	12129
908.488	12034
908.604	11916
908.72	11927
908.836	11973
908.952	11878
909.068	11939
909.184	11973
909.3	11863
909.415	11931
909.531	11859
909.647	11726
909.762	11722
909.878	11661
909.993	11722
910.108	11649
910.224	11630
910.339	11668
910.454	11592
910.57	11512
910.685	11486
910.8	11695
910.915	11619
911.03	11585
911.145	11387
911.259	11402
911.374	11326
911.489	11303
911.604	11235
911.718	11064
911.833	11121
911.947	11048
912.062	11003
912.176	11045
912.291	11132
912.405	11151
912.519	11315
912.633	11433
912.748	11258
912.862	11197
912.976	10999
913.09	10862
913.204	10972
913.318	11006
913.431	11098
913.545	11121
913.659	11098
913.772	11010
913.886	10942
914	10850
914.113	11048
914.226	11014
914.34	10984
914.453	10748
914.566	10965
914.68	10831
914.793	10839
914.906	10637
915.019	10580
915.132	10538
915.245	10637
915.358	10725
915.47	10733
915.583	10611
915.696	10748
915.809	10736
915.921	10755
916.034	10675
916.146	10611
916.259	10577
916.371	10748
916.483	10554
916.595	10561
916.708	10554
916.82	10561
916.932	10508
917.044	10634
917.156	10523
917.268	10443
917.38	10386
917.491	10409
917.603	10516
917.715	10493
917.826	10550
917.938	10481
918.049	10341
918.161	10409
918.272	10523
918.384	10607
918.495	10485
918.606	10348
918.717	10257
918.828	10337
918.939	10348
919.05	10268
919.161	10356
919.272	10124
919.383	10128
919.494	10341
919.604	10470
919.715	10360
919.826	10200
919.936	10402
920.047	10405
920.157	10322
920.267	10504
920.378	10371
920.488	10295
920.598	10546
920.708	10683
920.818	10481
920.928	10497
921.038	10683
921.148	10679
921.258	10390
921.368	10310
921.477	10158
921.587	10230
921.697	10082
921.806	10177
921.916	10025
922.025	9918
922.134	9884
922.244	9816
922.353	9918
922.462	9831
922.571	9736
922.68	9629
922.789	9576
922.898	9572
923.007	9469
923.116	9606
923.224	9568
923.333	9572
923.442	9496
923.55	9454
923.659	9488
923.767	9469
923.876	9477
923.984	9462
924.092	9389
924.201	9431
924.309	9443
924.417	9481
924.525	9355
924.633	9370
924.741	10314
924.849	9253
924.956	9416
925.064	9256
925.172	9116
925.279	9154
925.387	9287
925.494	9241
925.602	9393
925.709	9351
925.816	9142
925.924	9176
926.031	9279
926.138	9283
926.245	9325
926.352	9207
926.459	9287
926.566	9310
926.673	9173
926.779	9093
926.886	9062
926.993	8948
927.099	8990
927.206	8880
927.312	8902
927.419	8944
927.525	8967
927.631	9024
927.737	8891
927.843	8834
927.95	8720
928.056	8769
928.162	8819
928.267	8883
928.373	9344
928.479	8963
928.585	8705
928.69	8872
928.796	8849
928.901	8739
929.007	8640
929.112	8834
929.218	8663
929.323	8640
929.428	8727
929.533	8777
929.638	8484
929.743	8613
929.848	8766
929.953	8659
930.058	8587
930.163	8434
930.267	8423
930.372	8518
930.477	8358
930.581	8629
930.685	8503
930.79	8442
930.894	8370
930.998	8339
931.103	8442
931.207	8172
931.311	8084
931.415	8031
931.519	7864
931.623	7887
