Data from test_V78500241_3344.txt Node
Date: Fri Mar 25 14:56:59 CST 2022
User: usil
Spectrometer: V785-0024
Trigger mode: 0
Integration Time (sec): 4.000000E-1
Scans to average: 1
Nonlinearity correction enabled: false
Boxcar width: 0
Storing dark spectrum: false
XAxis mode: Wavelengths
Number of Pixels in Spectrum: 1024
>>>>>Begin Spectral Data<<<<<
801.071	22044
801.214	21873
801.356	21656
801.499	21462
801.641	21450
801.783	21348
801.926	21412
802.068	21283
802.211	21252
802.353	21127
802.496	20967
802.638	20823
802.78	20826
802.923	20651
803.065	20686
803.208	20621
803.35	20720
803.492	20807
803.635	20708
803.777	20735
803.919	20686
804.061	20982
804.204	20765
804.346	20602
804.488	20461
804.63	20644
804.773	20564
804.915	20556
805.057	20651
805.199	20503
805.341	20549
805.483	20632
805.626	20625
805.768	20541
805.91	20686
806.052	20621
806.194	20518
806.336	20746
806.478	20621
806.62	20511
806.762	20640
806.904	20758
807.046	21020
807.188	20971
807.33	20937
807.472	20948
807.614	20815
807.756	20743
807.898	20750
808.04	20674
808.182	20682
808.324	20648
808.465	20743
808.607	20857
808.749	20956
808.891	21127
809.033	21036
809.174	20967
809.316	20811
809.458	20872
809.6	20773
809.741	20979
809.883	20982
810.025	21127
810.166	21154
810.308	21169
810.45	20952
810.591	21020
810.733	20807
810.875	20644
811.016	20495
811.158	20590
811.299	20735
811.441	20765
811.582	20845
811.724	20678
811.865	20705
812.007	20644
812.148	20686
812.29	20659
812.431	20842
812.573	21043
812.714	20956
812.855	21176
812.997	21298
813.138	21374
813.279	21317
813.421	21207
813.562	21096
813.703	20891
813.845	20842
813.986	20423
814.127	20286
814.268	20404
814.41	20282
814.551	20275
814.692	20336
814.833	20218
814.974	20187
815.115	20278
815.256	20107
815.397	20111
815.539	20073
815.68	19947
815.821	20016
815.962	19917
816.103	19974
816.244	19845
816.385	19620
816.526	19613
816.666	19457
816.807	19392
816.948	19518
817.089	19495
817.23	19476
817.371	19339
817.512	19335
817.653	19358
817.793	19369
817.934	19365
818.075	19373
818.216	19384
818.356	19388
818.497	19240
818.638	19023
818.778	19171
818.919	19061
819.06	19126
819.2	19213
819.341	19255
819.481	19228
819.622	19324
819.762	19613
819.903	19419
820.043	19396
820.184	19327
820.324	19369
820.465	19335
820.605	19419
820.746	19312
820.886	19129
821.026	19289
821.167	19266
821.307	19365
821.447	19278
821.588	19129
821.728	18996
821.868	19019
822.008	18814
822.149	18741
822.289	18791
822.429	18540
822.569	18395
822.709	18448
822.849	18330
822.99	18213
823.13	18235
823.27	18216
823.41	18106
823.55	17954
823.69	18095
823.83	18007
823.97	17977
824.11	17805
824.25	17859
824.389	17722
824.529	17912
824.669	17821
824.809	17931
824.949	17882
825.089	17904
825.228	17764
825.368	17661
825.508	17547
825.648	17611
825.787	17661
825.927	17733
826.067	17600
826.206	17611
826.346	17642
826.485	17547
826.625	17573
826.765	17775
826.904	17608
827.044	17299
827.183	17391
827.323	17185
827.462	17410
827.601	17296
827.741	17303
827.88	17345
828.02	17223
828.159	17288
828.298	17246
828.437	17429
828.577	17265
828.716	17471
828.855	17235
828.994	17048
829.134	16984
829.273	17086
829.412	16946
829.551	16900
829.69	17045
829.829	17052
829.968	17189
830.107	17143
830.246	17117
830.385	16965
830.524	17052
830.663	16961
830.802	16778
830.941	16710
831.08	16641
831.219	16793
831.357	16782
831.496	16904
831.635	16694
831.774	16611
831.913	16622
832.051	16489
832.19	16500
832.329	16634
832.467	16402
832.606	16443
832.744	16379
832.883	16367
833.022	16344
833.16	16417
833.299	16405
833.437	16443
833.576	16348
833.714	16459
833.852	16413
833.991	16451
834.129	16497
834.267	16516
834.406	16531
834.544	16428
834.682	16447
834.821	16493
834.959	16565
835.097	16428
835.235	16451
835.373	16428
835.511	16466
835.65	16386
835.788	16402
835.926	16173
836.064	16120
836.202	16181
836.34	16287
836.478	16318
836.615	16371
836.753	16371
836.891	16500
837.029	16375
837.167	16276
837.305	16291
837.443	16268
837.58	16181
837.718	16169
837.856	16246
837.993	16006
838.131	16310
838.269	16109
838.406	16196
838.544	16074
838.681	15911
838.819	15972
838.956	15751
839.094	15679
839.231	15793
839.369	16029
839.506	16139
839.643	15987
839.781	15838
839.918	15739
840.055	15785
840.193	15686
840.33	15728
840.467	15675
840.604	15793
840.742	16048
840.879	15686
841.016	15671
841.153	15663
841.29	15930
841.427	15884
841.564	15922
841.701	15842
841.838	15717
841.975	15656
842.112	15709
842.249	15557
842.385	15477
842.522	15713
842.659	15603
842.796	15549
842.933	15644
843.069	15526
843.206	15568
843.343	15595
843.479	15568
843.616	15568
843.752	15412
843.889	15310
844.025	15481
844.162	15367
844.298	15443
844.435	15401
844.571	15298
844.708	15469
844.844	15504
844.98	15515
845.117	15443
845.253	15264
845.389	15165
845.525	15355
845.661	15233
845.798	15108
845.934	15237
846.07	15150
846.206	15184
846.342	15264
846.478	15173
846.614	14925
846.75	14906
846.886	14868
847.022	14948
847.158	15001
847.294	14834
847.429	15055
847.565	14910
847.701	15154
847.837	14777
847.972	14629
848.108	14762
848.244	14724
848.379	14514
848.515	14575
848.65	14476
848.786	14549
848.921	14545
849.057	14670
849.192	14610
849.328	14568
849.463	14564
849.598	14579
849.734	14419
849.869	14381
850.004	14244
850.14	14374
850.275	14286
850.41	14256
850.545	14183
850.68	14263
850.815	14294
850.95	14263
851.085	14465
851.22	14381
851.355	14305
851.49	14252
851.625	14282
851.76	14233
851.895	14153
852.03	14214
852.165	14259
852.299	14355
852.434	14332
852.569	14332
852.703	14313
852.838	14381
852.973	14434
853.107	14469
853.242	14214
853.376	14210
853.511	14134
853.645	14161
853.78	14221
853.914	14191
854.048	14214
854.183	14020
854.317	14123
854.451	14301
854.585	14142
854.72	14081
854.854	14214
854.988	14107
855.122	14176
855.256	13959
855.39	14161
855.524	14240
855.658	14145
855.792	14240
855.926	14157
856.06	14191
856.194	14275
856.327	14218
856.461	14149
856.595	14039
856.729	14134
856.862	14320
856.996	14164
857.13	14172
857.263	14248
857.397	14336
857.53	14172
857.664	14305
857.797	14240
857.931	14351
858.064	14145
858.197	14206
858.331	14107
858.464	14103
858.597	14001
858.731	14191
858.864	14134
858.997	14142
859.13	14218
859.263	14187
859.396	14180
859.529	14195
859.662	14107
859.795	14168
859.928	14103
860.061	14343
860.194	14374
860.327	14244
860.46	14164
860.592	14286
860.725	14385
860.858	14271
860.99	14126
861.123	14115
861.256	14054
861.388	14168
861.521	14994
861.653	14088
861.786	14001
861.918	14020
862.05	14073
862.183	14100
862.315	14168
862.447	14229
862.58	14058
862.712	13902
862.844	13837
862.976	13951
863.108	13974
863.24	14282
863.372	13803
863.504	13902
863.636	13940
863.768	14016
863.9	13894
864.032	13837
864.164	13928
864.296	13970
864.428	13894
864.559	14111
864.691	13974
864.823	14005
864.954	13913
865.086	13925
865.217	13913
865.349	13890
865.48	13944
865.612	13906
865.743	14046
865.875	13890
866.006	13913
866.137	13932
866.269	13799
866.4	13944
866.531	13940
866.662	13879
866.793	13845
866.924	13841
867.055	13940
867.186	13997
867.317	13803
867.448	13883
867.579	13913
867.71	13864
867.841	13856
867.972	13913
868.103	13982
868.233	13997
868.364	13928
868.495	13932
868.625	14187
868.756	14187
868.886	14142
869.017	14088
869.147	14259
869.278	14374
869.408	14252
869.539	14149
869.669	14153
869.799	14210
869.929	14400
870.06	14256
870.19	14457
870.32	14377
870.45	14473
870.58	14583
870.71	14724
870.84	14648
870.97	14545
871.1	14495
871.23	14815
871.36	14781
871.489	14670
871.619	14735
871.749	14765
871.879	14804
872.008	14902
872.138	14804
872.267	14743
872.397	14750
872.526	14552
872.656	14606
872.785	14613
872.915	14811
873.044	14921
873.173	14876
873.303	14872
873.432	14921
873.561	14754
873.69	14781
873.819	14788
873.948	14887
874.077	14864
874.206	14781
874.335	14887
874.464	14971
874.593	15199
874.722	15081
874.851	15146
874.979	15112
875.108	15097
875.237	15001
875.365	15032
875.494	15112
875.623	15184
875.751	15108
875.88	15230
876.008	15355
876.136	15370
876.265	15534
876.393	15603
876.521	15587
876.65	15732
876.778	15610
876.906	15447
877.034	15481
877.162	15603
877.29	15412
877.418	15439
877.546	15595
877.674	15606
877.802	15515
877.93	15603
878.058	15439
878.185	15321
878.313	15564
878.441	15622
878.568	15469
878.696	15469
878.824	15549
878.951	15587
879.079	15759
879.206	15838
879.333	15751
879.461	15641
879.588	15641
879.715	15698
879.842	15827
879.97	15667
880.097	15363
880.224	15412
880.351	15393
880.478	15370
880.605	15424
880.732	15447
880.859	15663
880.986	15511
881.112	15401
881.239	15298
881.366	15218
881.493	15138
881.619	14994
881.746	15032
881.872	15074
881.999	15062
882.125	15036
882.252	15085
882.378	15176
882.505	15188
882.631	15001
882.757	14804
882.883	14967
883.01	14819
883.136	14746
883.262	14842
883.388	14746
883.514	14830
883.64	14925
883.766	14792
883.892	14682
884.018	14727
884.143	14868
884.269	15028
884.395	14670
884.52	14488
884.646	14583
884.772	14484
884.897	14514
885.023	14617
885.148	14629
885.274	14697
885.399	14796
885.524	14648
885.65	14659
885.775	14617
885.9	14533
886.025	14735
886.15	14625
886.275	14507
886.4	14423
886.525	14594
886.65	14533
886.775	14507
886.9	14769
887.025	14842
887.149	14629
887.274	14419
887.399	14290
887.523	14370
887.648	14324
887.773	14290
887.897	14457
888.021	14511
888.146	14355
888.27	14450
888.395	14568
888.519	14473
888.643	14476
888.767	14511
888.891	14415
889.015	14263
889.139	14294
889.263	14305
889.387	14366
889.511	14621
889.635	14423
889.759	14187
889.883	14313
890.006	14358
890.13	14446
890.254	14225
890.377	14244
890.501	14168
890.624	14046
890.748	14168
890.871	13989
890.995	14024
891.118	13936
891.241	14073
891.364	13974
891.488	14161
891.611	13936
891.734	14050
891.857	14016
891.98	13997
892.103	14039
892.226	13993
892.349	13963
892.471	13841
892.594	13940
892.717	14027
892.839	14035
892.962	13997
893.085	14092
893.207	14050
893.33	13932
893.452	14031
893.575	14016
893.697	13974
893.819	14119
893.941	14153
894.064	14176
894.186	13936
894.308	13978
894.43	14073
894.552	14210
894.674	14126
894.796	13970
894.918	14058
895.04	13940
895.161	14088
895.283	14161
895.405	14111
895.526	14142
895.648	14157
895.769	14191
895.891	14183
896.012	14267
896.134	14233
896.255	14058
896.376	14050
896.498	14180
896.619	14259
896.74	14195
896.861	14206
896.982	14480
897.103	14670
897.224	14427
897.345	14355
897.466	14275
897.587	14393
897.708	14663
897.828	14465
897.949	14412
898.07	14324
898.19	14370
898.311	14651
898.431	14473
898.552	14450
898.672	14602
898.792	14629
898.913	14492
899.033	14457
899.153	14339
899.273	14244
899.393	14305
899.513	14370
899.633	14347
899.753	14381
899.873	14431
899.993	14499
900.113	14286
900.232	14328
900.352	14336
900.472	14214
900.591	14229
900.711	14309
900.83	14244
900.95	14317
901.069	14366
901.189	14065
901.308	13989
901.427	13921
901.546	13822
901.665	13928
901.784	13883
901.904	13830
902.023	13674
902.141	13514
902.26	13518
902.379	13624
902.498	13460
902.617	13502
902.735	13521
902.854	13514
902.973	13464
903.091	13152
903.21	13202
903.328	13206
903.446	13107
903.565	12996
903.683	13046
903.801	12897
903.919	12939
904.038	13027
904.156	12848
904.274	12989
904.392	12943
904.51	12939
904.627	12829
904.745	12916
904.863	12985
904.981	12662
905.098	12513
905.216	12517
905.334	12662
905.451	12448
905.569	12631
905.686	12521
905.803	12563
905.921	12361
906.038	12490
906.155	12445
906.272	12254
906.389	12323
906.506	12163
906.623	12083
906.74	12205
906.857	12003
906.974	12140
907.091	12247
907.208	12205
907.324	12258
907.441	12076
907.557	11870
907.674	11923
907.79	11817
907.907	11828
908.023	12007
908.139	11912
908.256	11889
908.372	11931
908.488	11840
908.604	11615
908.72	11608
908.836	11642
908.952	11707
909.068	11752
909.184	11805
909.3	11714
909.415	11699
909.531	11676
909.647	11444
909.762	11471
909.878	11398
909.993	11467
910.108	11440
910.224	11436
910.339	11429
910.454	11379
910.57	11280
910.685	11204
910.8	11524
910.915	11429
911.03	11364
911.145	11140
911.259	11064
911.374	11117
911.489	11067
911.604	11048
911.718	10915
911.833	10896
911.947	10763
912.062	10740
912.176	10847
912.291	10911
912.405	10858
912.519	10976
912.633	11025
912.748	11067
912.862	10923
912.976	10786
913.09	10744
913.204	10626
913.318	10714
913.431	10831
913.545	10809
913.659	10850
913.772	10782
913.886	10615
914	10679
914.113	10710
914.226	10816
914.34	10721
914.453	10615
914.566	10733
914.68	10592
914.793	10569
914.906	10432
915.019	10341
915.132	10306
915.245	10360
915.358	10405
915.47	10508
915.583	10451
915.696	10432
915.809	10424
915.921	10634
916.034	10424
916.146	10325
916.259	10352
916.371	10447
916.483	10421
916.595	10306
916.708	10360
916.82	10348
916.932	10337
917.044	10356
917.156	10295
917.268	10230
917.38	10238
917.491	10211
917.603	10265
917.715	10344
917.826	10272
917.938	10211
918.049	10185
918.161	10249
918.272	10440
918.384	10329
918.495	10257
918.606	10090
918.717	10128
918.828	10147
918.939	10166
919.05	10059
919.161	10139
919.272	9892
919.383	10021
919.494	10135
919.604	10284
919.715	10067
919.826	10150
919.936	10116
920.047	10253
920.157	10318
920.267	10325
920.378	10139
920.488	10211
920.598	10348
920.708	10466
920.818	10329
920.928	10280
921.038	10519
921.148	10440
921.258	10272
921.368	10169
921.477	10071
921.587	9930
921.697	9819
921.806	10021
921.916	9934
922.025	9755
922.134	9743
922.244	9641
922.353	9770
922.462	9561
922.571	9580
922.68	9416
922.789	9298
922.898	9355
923.007	9469
923.116	9386
923.224	9306
923.333	9332
923.442	9340
923.55	9256
923.659	9340
923.767	9374
923.876	9218
923.984	9298
924.092	9112
924.201	9275
924.309	9188
924.417	9294
924.525	9123
924.633	9268
924.741	10093
924.849	9020
924.956	9192
925.064	9074
925.172	8899
925.279	9005
925.387	9150
925.494	9032
925.602	9241
925.709	9055
925.816	8948
925.924	9051
926.031	9043
926.138	9062
926.245	9131
926.352	8990
926.459	9108
926.566	9097
926.673	9077
926.779	8944
926.886	8921
926.993	8899
927.099	8769
927.206	8781
927.312	8731
927.419	8826
927.525	8796
927.631	8857
927.737	8686
927.843	8632
927.95	8530
928.056	8659
928.162	8648
928.267	8712
928.373	9275
928.479	8769
928.585	8450
928.69	8640
928.796	8648
928.901	8583
929.007	8465
929.112	8564
929.218	8575
929.323	8495
929.428	8450
929.533	8632
929.638	8423
929.743	8446
929.848	8461
929.953	8484
930.058	8408
930.163	8237
930.267	8237
930.372	8465
930.477	8221
930.581	8499
930.685	8374
930.79	8172
930.894	8218
930.998	8183
931.103	8355
931.207	7955
931.311	7932
931.415	7879
931.519	7696
931.623	7753
