Data from test_V78500241_1184.txt Node
Date: Fri Mar 25 14:41:57 CST 2022
User: usil
Spectrometer: V785-0024
Trigger mode: 0
Integration Time (sec): 4.000000E-1
Scans to average: 1
Nonlinearity correction enabled: false
Boxcar width: 0
Storing dark spectrum: false
XAxis mode: Wavelengths
Number of Pixels in Spectrum: 1024
>>>>>Begin Spectral Data<<<<<
801.071	22550
801.214	22246
801.356	22124
801.499	21956
801.641	21819
801.783	21880
801.926	21945
802.068	21705
802.211	21644
802.353	21576
802.496	21348
802.638	21230
802.78	21237
802.923	21233
803.065	21135
803.208	21081
803.35	21325
803.492	21195
803.635	21203
803.777	21108
803.919	21214
804.061	21507
804.204	21218
804.346	21176
804.488	21051
804.63	21165
804.773	20956
804.915	21157
805.057	21207
805.199	21112
805.341	21089
805.483	21165
805.626	21279
805.768	21074
805.91	21039
806.052	21032
806.194	21020
806.336	21252
806.478	21051
806.62	21039
806.762	21085
806.904	21416
807.046	21443
807.188	21408
807.33	21454
807.472	21530
807.614	21241
807.756	21473
807.898	21283
808.04	21264
808.182	21252
808.324	21245
808.465	21272
808.607	21367
808.749	21583
808.891	21728
809.033	21675
809.174	21679
809.316	21492
809.458	21519
809.6	21542
809.741	21667
809.883	21580
810.025	21838
810.166	21713
810.308	21622
810.45	21618
810.591	21511
810.733	21393
810.875	21325
811.016	21154
811.158	21135
811.299	21325
811.441	21450
811.582	21351
811.724	21298
811.865	21291
812.007	21207
812.148	21233
812.29	21275
812.431	21443
812.573	21633
812.714	21747
812.855	21759
812.997	21850
813.138	21998
813.279	21800
813.421	21880
813.562	21705
813.703	21443
813.845	21443
813.986	21135
814.127	21001
814.268	20891
814.41	20895
814.551	20826
814.692	20819
814.833	20701
814.974	20743
815.115	20872
815.256	20606
815.397	20636
815.539	20606
815.68	20507
815.821	20396
815.962	20617
816.103	20636
816.244	20503
816.385	20271
816.526	20328
816.666	19997
816.807	20031
816.948	20031
817.089	20081
817.23	20039
817.371	19951
817.512	19997
817.653	19898
817.793	19921
817.934	19978
818.075	20043
818.216	20100
818.356	19845
818.497	19753
818.638	19537
818.778	19662
818.919	19556
819.06	19658
819.2	19769
819.341	19860
819.481	19845
819.622	19955
819.762	20195
819.903	20062
820.043	20065
820.184	20027
820.324	19944
820.465	20043
820.605	19970
820.746	19997
820.886	19811
821.026	19898
821.167	19925
821.307	20008
821.447	19970
821.588	19723
821.728	19616
821.868	19426
822.008	19350
822.149	19335
822.289	19388
822.429	19091
822.569	19103
822.709	19069
822.849	18875
822.99	18897
823.13	18909
823.27	18749
823.41	18654
823.55	18639
823.69	18604
823.83	18517
823.97	18578
824.11	18407
824.25	18372
824.389	18414
824.529	18509
824.669	18441
824.809	18475
824.949	18544
825.089	18593
825.228	18460
825.368	18152
825.508	18254
825.648	18152
825.787	18273
825.927	18194
826.067	18136
826.206	18121
826.346	18224
826.485	18197
826.625	18167
826.765	18285
826.904	18289
827.044	17942
827.183	17946
827.323	17916
827.462	17996
827.601	17939
827.741	17901
827.88	17870
828.02	17676
828.159	17912
828.298	17923
828.437	17973
828.577	17885
828.716	18034
828.855	17923
828.994	17699
829.134	17745
829.273	17745
829.412	17627
829.551	17657
829.69	17695
829.829	17482
829.968	17817
830.107	17741
830.246	17729
830.385	17634
830.524	17551
830.663	17501
830.802	17440
830.941	17356
831.08	17250
831.219	17433
831.357	17353
831.496	17562
831.635	17368
831.774	17162
831.913	17185
832.051	17041
832.19	17060
832.329	17109
832.467	16984
832.606	16946
832.744	16885
832.883	17018
833.022	16858
833.16	16972
833.299	17041
833.437	17098
833.576	17018
833.714	17045
833.852	17037
833.991	17170
834.129	17067
834.267	17014
834.406	17132
834.544	17033
834.682	17025
834.821	17067
834.959	17189
835.097	17022
835.235	17075
835.373	17067
835.511	17056
835.65	16889
835.788	16892
835.926	16934
836.064	16797
836.202	16805
836.34	16942
836.478	17102
836.615	16824
836.753	16946
836.891	17086
837.029	17143
837.167	16965
837.305	16892
837.443	16843
837.58	16847
837.718	16873
837.856	16835
837.993	16824
838.131	16812
838.269	16755
838.406	16858
838.544	16755
838.681	16592
838.819	16531
838.956	16272
839.094	16352
839.231	16527
839.369	16535
839.506	16729
839.643	16645
839.781	16394
839.918	16257
840.055	16459
840.193	16375
840.33	16432
840.467	16424
840.604	16470
840.742	16713
840.879	16265
841.016	16291
841.153	16276
841.29	16451
841.427	16382
841.564	16363
841.701	16405
841.838	16280
841.975	16223
842.112	16291
842.249	16246
842.385	16120
842.522	16386
842.659	16158
842.796	16074
842.933	16078
843.069	16226
843.206	16139
843.343	16150
843.479	16181
843.616	16261
843.752	15960
843.889	15892
844.025	16063
844.162	15922
844.298	16010
844.435	15949
844.571	15949
844.708	15899
844.844	15983
844.98	16105
845.117	15994
845.253	15888
845.389	15846
845.525	15941
845.661	15884
845.798	15838
845.934	15915
846.07	15823
846.206	15907
846.342	15937
846.478	15835
846.614	15622
846.75	15561
846.886	15431
847.022	15614
847.158	15549
847.294	15473
847.429	15428
847.565	15473
847.701	15675
847.837	15260
847.972	15116
848.108	15306
848.244	15313
848.379	15131
848.515	15138
848.65	15123
848.786	14994
848.921	15093
849.057	15173
849.192	15119
849.328	15195
849.463	15104
849.598	15119
849.734	15051
849.869	15043
850.004	14834
850.14	14929
850.275	14883
850.41	14849
850.545	14792
850.68	14834
850.815	14842
850.95	14815
851.085	15020
851.22	14921
851.355	14914
851.49	14800
851.625	14823
851.76	14845
851.895	14796
852.03	14735
852.165	14849
852.299	14853
852.434	14929
852.569	14887
852.703	14883
852.838	14902
852.973	15009
853.107	15009
853.242	14830
853.376	14724
853.511	14617
853.645	14689
853.78	14819
853.914	14708
854.048	14746
854.183	14682
854.317	14762
854.451	14857
854.585	14613
854.72	14731
854.854	14830
854.988	14674
855.122	14648
855.256	14648
855.39	14735
855.524	14883
855.658	14819
855.792	14804
855.926	14804
856.06	14857
856.194	14845
856.327	14807
856.461	14644
856.595	14716
856.729	14724
856.862	14724
856.996	14758
857.13	14838
857.263	14857
857.397	14880
857.53	14705
857.664	14819
857.797	14712
857.931	14842
858.064	14746
858.197	14834
858.331	14811
858.464	14705
858.597	14617
858.731	14842
858.864	14746
858.997	14701
859.13	14857
859.263	14686
859.396	14815
859.529	14693
859.662	14773
859.795	14636
859.928	14785
860.061	14811
860.194	14895
860.327	14769
860.46	14716
860.592	14834
860.725	14792
860.858	14792
860.99	14739
861.123	14735
861.256	14621
861.388	14701
861.521	15450
861.653	14632
861.786	14522
861.918	14583
862.05	14610
862.183	14651
862.315	14705
862.447	14815
862.58	14655
862.712	14507
862.844	14454
862.976	14655
863.108	14545
863.24	14971
863.372	14381
863.504	14419
863.636	14434
863.768	14518
863.9	14545
864.032	14514
864.164	14526
864.296	14442
864.428	14556
864.559	14636
864.691	14610
864.823	14533
864.954	14610
865.086	14606
865.217	14575
865.349	14423
865.48	14514
865.612	14507
865.743	14590
865.875	14507
866.006	14507
866.137	14514
866.269	14389
866.4	14579
866.531	14457
866.662	14450
866.793	14522
866.924	14530
867.055	14434
867.186	14434
867.317	14343
867.448	14412
867.579	14488
867.71	14412
867.841	14450
867.972	14541
868.103	14457
868.233	14495
868.364	14377
868.495	14552
868.625	14735
868.756	14773
868.886	14625
869.017	14708
869.147	14648
869.278	14834
869.408	14678
869.539	14826
869.669	14788
869.799	14731
869.929	14823
870.06	14914
870.19	15043
870.32	14975
870.45	15154
870.58	15135
870.71	15199
870.84	15264
870.97	15093
871.1	15108
871.23	15435
871.36	15325
871.489	15165
871.619	15241
871.749	15351
871.879	15256
872.008	15363
872.138	15310
872.267	15363
872.397	15245
872.526	15226
872.656	15119
872.785	15123
872.915	15348
873.044	15393
873.173	15355
873.303	15477
873.432	15454
873.561	15428
873.69	15279
873.819	15344
873.948	15443
874.077	15420
874.206	15317
874.335	15439
874.464	15485
874.593	15717
874.722	15561
874.851	15698
874.979	15686
875.108	15743
875.237	15591
875.365	15625
875.494	15701
875.623	15732
875.751	15603
875.88	15717
876.008	15918
876.136	15949
876.265	16040
876.393	16272
876.521	16059
876.65	16135
876.778	16131
876.906	16109
877.034	15964
877.162	16074
877.29	16059
877.418	16059
877.546	16063
877.674	16124
877.802	16124
877.93	16101
878.058	16036
878.185	15979
878.313	16071
878.441	16112
878.568	15937
878.696	16006
878.824	16166
878.951	16219
879.079	16257
879.206	16398
879.333	16367
879.461	16200
879.588	16337
879.715	16428
879.842	16451
879.97	16344
880.097	15994
880.224	15968
880.351	16055
880.478	15930
880.605	15937
880.732	15907
880.859	16242
880.986	15949
881.112	15998
881.239	15869
881.366	15641
881.493	15682
881.619	15564
881.746	15629
881.872	15660
881.999	15660
882.125	15599
882.252	15667
882.378	15720
882.505	15759
882.631	15572
882.757	15454
882.883	15519
883.01	15370
883.136	15367
883.262	15203
883.388	15359
883.514	15405
883.64	15420
883.766	15382
883.892	15374
884.018	15279
884.143	15431
884.269	15485
884.395	15195
884.52	15123
884.646	15104
884.772	15173
884.897	15028
885.023	15112
885.148	15226
885.274	15279
885.399	15112
885.524	15176
885.65	15093
885.775	15184
885.9	15146
886.025	15211
886.15	15195
886.275	15089
886.4	15020
886.525	15085
886.65	15070
886.775	15100
886.9	15192
887.025	15370
887.149	15135
887.274	14975
887.399	14895
887.523	14883
887.648	14861
887.773	14823
887.897	14979
888.021	14998
888.146	14921
888.27	15093
888.395	15081
888.519	15024
888.643	15017
888.767	15013
888.891	14880
889.015	14712
889.139	14883
889.263	14777
889.387	14876
889.511	14967
889.635	14902
889.759	14716
889.883	14804
890.006	14792
890.13	15013
890.254	14743
890.377	14880
890.501	14579
890.624	14579
890.748	14640
890.871	14617
890.995	14461
891.118	14343
891.241	14606
891.364	14526
891.488	14621
891.611	14438
891.734	14514
891.857	14640
891.98	14579
892.103	14533
892.226	14473
892.349	14533
892.471	14309
892.594	14461
892.717	14499
892.839	14503
892.962	14495
893.085	14571
893.207	14480
893.33	14343
893.452	14351
893.575	14495
893.697	14560
893.819	14670
893.941	14697
894.064	14632
894.186	14412
894.308	14431
894.43	14674
894.552	14712
894.674	14568
894.796	14374
894.918	14571
895.04	14412
895.161	14644
895.283	14651
895.405	14568
895.526	14625
895.648	14484
895.769	14682
895.891	14640
896.012	14651
896.134	14617
896.255	14648
896.376	14689
896.498	14743
896.619	14674
896.74	14636
896.861	14621
896.982	15051
897.103	15077
897.224	15062
897.345	14864
897.466	14800
897.587	14883
897.708	15043
897.828	14933
897.949	14941
898.07	14762
898.19	14849
898.311	15066
898.431	15001
898.552	15005
898.672	15127
898.792	15093
898.913	15066
899.033	14918
899.153	14861
899.273	14739
899.393	14773
899.513	14895
899.633	14883
899.753	14876
899.873	14785
899.993	14925
900.113	14830
900.232	14819
900.352	14853
900.472	14682
900.591	14632
900.711	14792
900.83	14617
900.95	14796
901.069	14762
901.189	14579
901.308	14389
901.427	14278
901.546	14347
901.665	14389
901.784	14400
901.904	14252
902.023	14096
902.141	14008
902.26	13932
902.379	14012
902.498	13955
902.617	13860
902.735	13951
902.854	13940
902.973	13845
903.091	13727
903.21	13556
903.328	13693
903.446	13525
903.565	13521
903.683	13567
903.801	13396
903.919	13472
904.038	13487
904.156	13251
904.274	13373
904.392	13285
904.51	13392
904.627	13202
904.745	13301
904.863	13373
904.981	13088
905.098	13027
905.216	12913
905.334	13031
905.451	13099
905.569	12901
905.686	13019
905.803	13057
905.921	12859
906.038	13015
906.155	12821
906.272	12665
906.389	12665
906.506	12616
906.623	12582
906.74	12486
906.857	12563
906.974	12486
907.091	12654
907.208	12692
907.324	12582
907.441	12486
907.557	12391
907.674	12353
907.79	12205
907.907	12289
908.023	12323
908.139	12327
908.256	12281
908.372	12258
908.488	12213
908.604	12133
908.72	12117
908.836	12019
908.952	12026
909.068	12106
909.184	12186
909.3	12045
909.415	12133
909.531	12155
909.647	11817
909.762	11764
909.878	11790
909.993	11821
910.108	11828
910.224	11771
910.339	11828
910.454	11745
910.57	11726
910.685	11657
910.8	11843
910.915	11916
911.03	11752
911.145	11581
911.259	11551
911.374	11604
911.489	11448
911.604	11414
911.718	11315
911.833	11406
911.947	11246
912.062	11121
912.176	11349
912.291	11337
912.405	11189
912.519	11482
912.633	11448
912.748	11353
912.862	11296
912.976	11162
913.09	11022
913.204	11083
913.318	11185
913.431	11307
913.545	11162
913.659	11303
913.772	11079
913.886	11155
914	11003
914.113	11147
914.226	11212
914.34	11197
914.453	10987
914.566	11143
914.68	10972
914.793	10987
914.906	10790
915.019	10774
915.132	10721
915.245	10736
915.358	10763
915.47	10793
915.583	10778
915.696	10835
915.809	10915
915.921	10850
916.034	10797
916.146	10714
916.259	10755
916.371	10809
916.483	10816
916.595	10668
916.708	10736
916.82	10618
916.932	10630
917.044	10714
917.156	10641
917.268	10466
917.38	10554
917.491	10550
917.603	10660
917.715	10596
917.826	10767
917.938	10607
918.049	10481
918.161	10634
918.272	10790
918.384	10698
918.495	10550
918.606	10478
918.717	10367
918.828	10470
918.939	10637
919.05	10341
919.161	10474
919.272	10230
919.383	10424
919.494	10538
919.604	10694
919.715	10523
919.826	10428
919.936	10413
920.047	10538
920.157	10554
920.267	10733
920.378	10527
920.488	10451
920.598	10664
920.708	10835
920.818	10717
920.928	10672
921.038	10869
921.148	10744
921.258	10478
921.368	10344
921.477	10405
921.587	10341
921.697	10181
921.806	10379
921.916	10204
922.025	10017
922.134	10147
922.244	9983
922.353	10025
922.462	9846
922.571	9846
922.68	9774
922.789	9770
922.898	9762
923.007	9694
923.116	9732
923.224	9701
923.333	9797
923.442	9686
923.55	9564
923.659	9644
923.767	9724
923.876	9553
923.984	9614
924.092	9492
924.201	9530
924.309	9622
924.417	9610
924.525	9584
924.633	9538
924.741	10337
924.849	9264
924.956	9553
925.064	9279
925.172	9325
925.279	9317
925.387	9378
925.494	9355
925.602	9511
925.709	9477
925.816	9233
925.924	9348
926.031	9443
926.138	9386
926.245	9408
926.352	9249
926.459	9386
926.566	9511
926.673	9268
926.779	9184
926.886	9157
926.993	9100
927.099	9108
927.206	9081
927.312	9066
927.419	9074
927.525	9119
927.631	9077
927.737	9058
927.843	8906
927.95	8819
928.056	8914
928.162	8979
928.267	9036
928.373	9553
928.479	9058
928.585	8845
928.69	8925
928.796	8975
928.901	8819
929.007	8830
929.112	8834
929.218	8868
929.323	8758
929.428	8819
929.533	8914
929.638	8663
929.743	8758
929.848	8746
929.953	8735
930.058	8682
930.163	8526
930.267	8533
930.372	8686
930.477	8461
930.581	8750
930.685	8587
930.79	8446
930.894	8408
930.998	8461
931.103	8682
931.207	8248
931.311	8134
931.415	8130
931.519	7993
931.623	7997
