Data from test_V78500241_1901.txt Node
Date: Fri Mar 25 14:46:57 CST 2022
User: usil
Spectrometer: V785-0024
Trigger mode: 0
Integration Time (sec): 4.000000E-1
Scans to average: 1
Nonlinearity correction enabled: false
Boxcar width: 0
Storing dark spectrum: false
XAxis mode: Wavelengths
Number of Pixels in Spectrum: 1024
>>>>>Begin Spectral Data<<<<<
801.071	22120
801.214	21884
801.356	21648
801.499	21701
801.641	21370
801.783	21511
801.926	21511
802.068	21382
802.211	21382
802.353	21199
802.496	20994
802.638	21013
802.78	20902
802.923	20823
803.065	20746
803.208	20804
803.35	20826
803.492	20960
803.635	20785
803.777	20746
803.919	20811
804.061	21195
804.204	20899
804.346	20834
804.488	20674
804.63	20853
804.773	20823
804.915	20697
805.057	20838
805.199	20606
805.341	20918
805.483	20849
805.626	20883
805.768	20697
805.91	20815
806.052	20735
806.194	20659
806.336	20815
806.478	20594
806.62	20708
806.762	20651
806.904	20967
807.046	21233
807.188	20948
807.33	21116
807.472	21032
807.614	20902
807.756	21058
807.898	20815
808.04	20705
808.182	20891
808.324	20838
808.465	20887
808.607	21039
808.749	21279
808.891	21203
809.033	21260
809.174	21142
809.316	21058
809.458	21214
809.6	21024
809.741	21123
809.883	21108
810.025	21317
810.166	21306
810.308	21142
810.45	21135
810.591	21108
810.733	20994
810.875	20918
811.016	20845
811.158	20701
811.299	20872
811.441	21009
811.582	21085
811.724	20788
811.865	20731
812.007	20815
812.148	20811
812.29	20948
812.431	20975
812.573	21093
812.714	21199
812.855	21519
812.997	21458
813.138	21587
813.279	21507
813.421	21469
813.562	21306
813.703	21051
813.845	21020
813.986	20708
814.127	20511
814.268	20324
814.41	20332
814.551	20465
814.692	20385
814.833	20419
814.974	20362
815.115	20396
815.256	20199
815.397	20282
815.539	20244
815.68	20233
815.821	20081
815.962	20039
816.103	20054
816.244	20005
816.385	19868
816.526	19830
816.666	19674
816.807	19556
816.948	19582
817.089	19616
817.23	19620
817.371	19601
817.512	19499
817.653	19548
817.793	19464
817.934	19468
818.075	19578
818.216	19544
818.356	19495
818.497	19301
818.638	19320
818.778	19282
818.919	19259
819.06	19202
819.2	19331
819.341	19369
819.481	19525
819.622	19552
819.762	19894
819.903	19693
820.043	19559
820.184	19457
820.324	19529
820.465	19559
820.605	19590
820.746	19506
820.886	19381
821.026	19441
821.167	19468
821.307	19540
821.447	19460
821.588	19369
821.728	19221
821.868	19183
822.008	18954
822.149	18871
822.289	18924
822.429	18745
822.569	18658
822.709	18593
822.849	18418
822.99	18441
823.13	18353
823.27	18361
823.41	18186
823.55	18125
823.69	18152
823.83	18262
823.97	18232
824.11	18095
824.25	17942
824.389	17958
824.529	17984
824.669	18114
824.809	18030
824.949	18022
825.089	18106
825.228	18064
825.368	17809
825.508	17809
825.648	17790
825.787	17878
825.927	17923
826.067	17748
826.206	17836
826.346	17790
826.485	17680
826.625	17748
826.765	17942
826.904	17821
827.044	17592
827.183	17535
827.323	17577
827.462	17699
827.601	17520
827.741	17364
827.88	17562
828.02	17398
828.159	17444
828.298	17448
828.437	17600
828.577	17417
828.716	17634
828.855	17528
828.994	17421
829.134	17216
829.273	17288
829.412	17315
829.551	17204
829.69	17258
829.829	17360
829.968	17379
830.107	17341
830.246	17292
830.385	17223
830.524	17166
830.663	17083
830.802	17045
830.941	16965
831.08	16889
831.219	16980
831.357	16968
831.496	17109
831.635	16930
831.774	16752
831.913	16736
832.051	16668
832.19	16736
832.329	16790
832.467	16618
832.606	16588
832.744	16561
832.883	16618
833.022	16611
833.16	16584
833.299	16672
833.437	16698
833.576	16626
833.714	16645
833.852	16622
833.991	16733
834.129	16630
834.267	16664
834.406	16679
834.544	16641
834.682	16683
834.821	16634
834.959	16771
835.097	16577
835.235	16771
835.373	16710
835.511	16664
835.65	16565
835.788	16580
835.926	16405
836.064	16344
836.202	16493
836.34	16611
836.478	16679
836.615	16554
836.753	16573
836.891	16622
837.029	16508
837.167	16481
837.305	16474
837.443	16440
837.58	16432
837.718	16478
837.856	16440
837.993	16379
838.131	16428
838.269	16333
838.406	16390
838.544	16219
838.681	16223
838.819	16181
838.956	16002
839.094	16036
839.231	16051
839.369	16143
839.506	16538
839.643	16242
839.781	15941
839.918	15972
840.055	16086
840.193	15998
840.33	15953
840.467	15934
840.604	16086
840.742	16196
840.879	15922
841.016	15861
841.153	15869
841.29	16230
841.427	15945
841.564	16006
841.701	15991
841.838	16021
841.975	15918
842.112	15823
842.249	15656
842.385	15778
842.522	15975
842.659	15884
842.796	15762
842.933	15816
843.069	15732
843.206	15614
843.343	15907
843.479	15781
843.616	15797
843.752	15557
843.889	15587
844.025	15720
844.162	15408
844.298	15622
844.435	15469
844.571	15519
844.708	15656
844.844	15751
844.98	15660
845.117	15751
845.253	15477
845.389	15507
845.525	15401
845.661	15435
845.798	15378
845.934	15336
846.07	15344
846.206	15412
846.342	15504
846.478	15420
846.614	15180
846.75	14971
846.886	15119
847.022	15233
847.158	15157
847.294	15119
847.429	15203
847.565	15138
847.701	15424
847.837	14804
847.972	14868
848.108	14979
848.244	14948
848.379	14754
848.515	14735
848.65	14758
848.786	14800
848.921	14735
849.057	14819
849.192	14815
849.328	14750
849.463	14746
849.598	14636
849.734	14689
849.869	14655
850.004	14480
850.14	14537
850.275	14560
850.41	14259
850.545	14419
850.68	14507
850.815	14480
850.95	14507
851.085	14644
851.22	14575
851.355	14552
851.49	14404
851.625	14488
851.76	14446
851.895	14503
852.03	14358
852.165	14473
852.299	14552
852.434	14610
852.569	14499
852.703	14454
852.838	14579
852.973	14602
853.107	14632
853.242	14492
853.376	14412
853.511	14275
853.645	14290
853.78	14442
853.914	14381
854.048	14343
854.183	14282
854.317	14347
854.451	14518
854.585	14301
854.72	14298
854.854	14339
854.988	14286
855.122	14377
855.256	14317
855.39	14389
855.524	14522
855.658	14385
855.792	14393
855.926	14343
856.06	14427
856.194	14522
856.327	14336
856.461	14313
856.595	14183
856.729	14317
856.862	14484
856.996	14480
857.13	14484
857.263	14404
857.397	14511
857.53	14393
857.664	14499
857.797	14473
857.931	14461
858.064	14438
858.197	14511
858.331	14408
858.464	14351
858.597	14240
858.731	14385
858.864	14320
858.997	14298
859.13	14328
859.263	14415
859.396	14507
859.529	14305
859.662	14298
859.795	14294
859.928	14385
860.061	14492
860.194	14484
860.327	14305
860.46	14355
860.592	14442
860.725	14492
860.858	14556
860.99	14385
861.123	14278
861.256	14396
861.388	14480
861.521	15043
861.653	14191
861.786	14206
861.918	14248
862.05	14389
862.183	14301
862.315	14305
862.447	14358
862.58	14358
862.712	14191
862.844	14088
862.976	14244
863.108	14161
863.24	14431
863.372	14081
863.504	14111
863.636	14168
863.768	14149
863.9	14206
864.032	14069
864.164	14214
864.296	14248
864.428	14301
864.559	14187
864.691	14237
864.823	14195
864.954	14214
865.086	14172
865.217	14062
865.349	14111
865.48	14149
865.612	14142
865.743	14172
865.875	14168
866.006	14103
866.137	14157
866.269	14149
866.4	14149
866.531	14115
866.662	14103
866.793	14043
866.924	14024
867.055	14168
867.186	14092
867.317	14039
867.448	13970
867.579	14164
867.71	13959
867.841	14043
867.972	14134
868.103	14134
868.233	14100
868.364	14202
868.495	14195
868.625	14267
868.756	14461
868.886	14320
869.017	14358
869.147	14533
869.278	14450
869.408	14320
869.539	14381
869.669	14415
869.799	14431
869.929	14533
870.06	14552
870.19	14708
870.32	14659
870.45	14659
870.58	14727
870.71	14925
870.84	14918
870.97	14830
871.1	14739
871.23	14861
871.36	14960
871.489	14883
871.619	14998
871.749	14960
871.879	14979
872.008	15039
872.138	15001
872.267	14868
872.397	14811
872.526	14872
872.656	14743
872.785	14819
872.915	15051
873.044	15043
873.173	15070
873.303	14967
873.432	15032
873.561	15066
873.69	14937
873.819	14982
873.948	15146
874.077	15013
874.206	15001
874.335	15104
874.464	15180
874.593	15332
874.722	15313
874.851	15382
874.979	15477
875.108	15408
875.237	15275
875.365	15218
875.494	15439
875.623	15408
875.751	15245
875.88	15302
876.008	15511
876.136	15504
876.265	15759
876.393	15941
876.521	15720
876.65	15911
876.778	15717
876.906	15781
877.034	15671
877.162	15743
877.29	15679
877.418	15728
877.546	15823
877.674	15766
877.802	15686
877.93	15660
878.058	15732
878.185	15637
878.313	15743
878.441	15743
878.568	15648
878.696	15637
878.824	15804
878.951	15823
879.079	15975
879.206	15968
879.333	15956
879.461	15705
879.588	15987
879.715	15915
879.842	16082
879.97	15823
880.097	15538
880.224	15637
880.351	15572
880.478	15610
880.605	15542
880.732	15549
880.859	15808
880.986	15538
881.112	15709
881.239	15485
881.366	15329
881.493	15268
881.619	15245
881.746	15348
881.872	15249
881.999	15230
882.125	15272
882.252	15287
882.378	15351
882.505	15405
882.631	15146
882.757	15173
882.883	15116
883.01	15062
883.136	14921
883.262	14960
883.388	14845
883.514	15131
883.64	15207
883.766	14963
883.892	14838
884.018	14864
884.143	14952
884.269	15100
884.395	14845
884.52	14674
884.646	14826
884.772	14743
884.897	14712
885.023	14853
885.148	14906
885.274	14883
885.399	14963
885.524	14853
885.65	14773
885.775	14804
885.9	14731
886.025	14853
886.15	14838
886.275	14712
886.4	14693
886.525	14746
886.65	14781
886.775	14663
886.9	14899
887.025	15039
887.149	14788
887.274	14590
887.399	14629
887.523	14629
887.648	14598
887.773	14518
887.897	14686
888.021	14716
888.146	14621
888.27	14670
888.395	14648
888.519	14640
888.643	14644
888.767	14667
888.891	14590
889.015	14442
889.139	14518
889.263	14473
889.387	14594
889.511	14632
889.635	14758
889.759	14492
889.883	14495
890.006	14450
890.13	14587
890.254	14362
890.377	14393
890.501	14305
890.624	14202
890.748	14374
890.871	14263
890.995	14214
891.118	14027
891.241	14138
891.364	14244
891.488	14221
891.611	14153
891.734	14119
891.857	14256
891.98	14065
892.103	14271
892.226	14218
892.349	14058
892.471	14027
892.594	14092
892.717	14145
892.839	14161
892.962	14153
893.085	14206
893.207	14191
893.33	14111
893.452	14103
893.575	14183
893.697	14092
893.819	14294
893.941	14366
894.064	14336
894.186	14172
894.308	14183
894.43	14298
894.552	14412
894.674	14221
894.796	14084
894.918	14187
895.04	14153
895.161	14320
895.283	14332
895.405	14199
895.526	14309
895.648	14199
895.769	14400
895.891	14328
896.012	14419
896.134	14336
896.255	14301
896.376	14290
896.498	14347
896.619	14271
896.74	14332
896.861	14412
896.982	14705
897.103	14769
897.224	14648
897.345	14568
897.466	14537
897.587	14621
897.708	14788
897.828	14549
897.949	14571
898.07	14408
898.19	14545
898.311	14739
898.431	14640
898.552	14693
898.672	14823
898.792	14746
898.913	14678
899.033	14556
899.153	14484
899.273	14461
899.393	14514
899.513	14590
899.633	14511
899.753	14583
899.873	14457
899.993	14533
900.113	14598
900.232	14625
900.352	14473
900.472	14374
900.591	14339
900.711	14389
900.83	14309
900.95	14545
901.069	14503
901.189	14332
901.308	14111
901.427	13928
901.546	14050
901.665	14081
901.784	14149
901.904	13932
902.023	13837
902.141	13647
902.26	13708
902.379	13738
902.498	13685
902.617	13571
902.735	13700
902.854	13674
902.973	13559
903.091	13362
903.21	13453
903.328	13392
903.446	13339
903.565	13187
903.683	13168
903.801	13156
903.919	13213
904.038	13168
904.156	12973
904.274	13091
904.392	13042
904.51	12981
904.627	12958
904.745	13129
904.863	13069
904.981	12924
905.098	12681
905.216	12673
905.334	12787
905.451	12772
905.569	12719
905.686	12719
905.803	12825
905.921	12521
906.038	12639
906.155	12448
906.272	12456
906.389	12403
906.506	12285
906.623	12311
906.74	12323
906.857	12095
906.974	12285
907.091	12300
907.208	12384
907.324	12300
907.441	12266
907.557	12057
907.674	11984
907.79	12015
907.907	12060
908.023	12038
908.139	12087
908.256	11920
908.372	11965
908.488	11999
908.604	11756
908.72	11786
908.836	11817
908.952	11832
909.068	11843
909.184	11950
909.3	11859
909.415	11893
909.531	11836
909.647	11558
909.762	11573
909.878	11509
909.993	11634
910.108	11615
910.224	11493
910.339	11535
910.454	11528
910.57	11395
910.685	11372
910.8	11611
910.915	11649
911.03	11452
911.145	11277
911.259	11269
911.374	11258
911.489	11303
911.604	11181
911.718	11071
911.833	10968
911.947	10965
912.062	10847
912.176	11079
912.291	11003
912.405	10961
912.519	11254
912.633	11277
912.748	11166
912.862	11060
912.976	10889
913.09	10786
913.204	10816
913.318	10957
913.431	10980
913.545	10953
913.659	10987
913.772	10942
913.886	10778
914	10759
914.113	10934
914.226	10915
914.34	10885
914.453	10687
914.566	10911
914.68	10733
914.793	10778
914.906	10523
915.019	10554
915.132	10417
915.245	10561
915.358	10565
915.47	10546
915.583	10523
915.696	10508
915.809	10683
915.921	10641
916.034	10512
916.146	10577
916.259	10443
916.371	10478
916.483	10558
916.595	10497
916.708	10500
916.82	10500
916.932	10462
917.044	10481
917.156	10443
917.268	10337
917.38	10394
917.491	10325
917.603	10409
917.715	10421
917.826	10436
917.938	10424
918.049	10219
918.161	10413
918.272	10519
918.384	10500
918.495	10371
918.606	10200
918.717	10230
918.828	10246
918.939	10219
919.05	10116
919.161	10177
919.272	10116
919.383	10010
919.494	10337
919.604	10478
919.715	10318
919.826	10143
919.936	10177
920.047	10337
920.157	10223
920.267	10402
920.378	10428
920.488	10227
920.598	10500
920.708	10592
920.818	10462
920.928	10451
921.038	10649
921.148	10558
921.258	10341
921.368	10181
921.477	10166
921.587	10044
921.697	9960
921.806	10169
921.916	10006
922.025	9747
922.134	9793
922.244	9816
922.353	9819
922.462	9732
922.571	9618
922.68	9507
922.789	9534
922.898	9534
923.007	9473
923.116	9576
923.224	9515
923.333	9538
923.442	9389
923.55	9313
923.659	9336
923.767	9450
923.876	9397
923.984	9393
924.092	9279
924.201	9359
924.309	9355
924.417	9416
924.525	9298
924.633	9363
924.741	10268
924.849	9131
924.956	9325
925.064	9188
925.172	9104
925.279	9157
925.387	9146
925.494	9237
925.602	9241
925.709	9188
925.816	9097
925.924	9199
926.031	9169
926.138	9245
926.245	9237
926.352	9108
926.459	9138
926.566	9237
926.673	9097
926.779	9055
926.886	9009
926.993	8876
927.099	8845
927.206	8823
927.312	8861
927.419	8906
927.525	8815
927.631	8921
927.737	8796
927.843	8785
927.95	8663
928.056	8731
928.162	8804
928.267	8819
928.373	9332
928.479	8849
928.585	8579
928.69	8762
928.796	8845
928.901	8667
929.007	8579
929.112	8629
929.218	8655
929.323	8606
929.428	8629
929.533	8701
929.638	8537
929.743	8602
929.848	8655
929.953	8583
930.058	8469
930.163	8282
930.267	8412
930.372	8503
930.477	8400
930.581	8560
930.685	8442
930.79	8259
930.894	8343
930.998	8275
931.103	8415
931.207	8050
931.311	8054
931.415	8008
931.519	7799
931.623	7852
