Data from test_V78500241_2479.txt Node
Date: Fri Mar 25 14:50:58 CST 2022
User: usil
Spectrometer: V785-0024
Trigger mode: 0
Integration Time (sec): 4.000000E-1
Scans to average: 1
Nonlinearity correction enabled: false
Boxcar width: 0
Storing dark spectrum: false
XAxis mode: Wavelengths
Number of Pixels in Spectrum: 1024
>>>>>Begin Spectral Data<<<<<
801.071	22105
801.214	21854
801.356	21808
801.499	21675
801.641	21431
801.783	21481
801.926	21454
802.068	21389
802.211	21222
802.353	21138
802.496	20887
802.638	20963
802.78	20925
802.923	20941
803.065	20724
803.208	20754
803.35	20830
803.492	20952
803.635	20929
803.777	20769
803.919	20823
804.061	21085
804.204	20765
804.346	20743
804.488	20625
804.63	20724
804.773	20663
804.915	20727
805.057	20678
805.199	20640
805.341	20804
805.483	20792
805.626	20746
805.768	20621
805.91	20686
806.052	20712
806.194	20590
806.336	20689
806.478	20655
806.62	20678
806.762	20701
806.904	20853
807.046	21070
807.188	21036
807.33	21005
807.472	21013
807.614	20960
807.756	20895
807.898	20781
808.04	20712
808.182	20792
808.324	20861
808.465	20830
808.607	21017
808.749	21028
808.891	21275
809.033	21218
809.174	21108
809.316	20937
809.458	21043
809.6	20937
809.741	21119
809.883	21138
810.025	21298
810.166	21233
810.308	21157
810.45	21207
810.591	21058
810.733	20982
810.875	20883
811.016	20762
811.158	20720
811.299	20906
811.441	21074
811.582	21043
811.724	20891
811.865	20811
812.007	20864
812.148	20708
812.29	20876
812.431	21036
812.573	21256
812.714	21237
812.855	21367
812.997	21424
813.138	21595
813.279	21504
813.421	21249
813.562	21306
813.703	21043
813.845	20990
813.986	20754
814.127	20632
814.268	20530
814.41	20412
814.551	20343
814.692	20415
814.833	20347
814.974	20286
815.115	20389
815.256	20339
815.397	20202
815.539	20199
815.68	20088
815.821	20111
815.962	20149
816.103	20096
816.244	20005
816.385	19837
816.526	19890
816.666	19628
816.807	19647
816.948	19571
817.089	19712
817.23	19616
817.371	19514
817.512	19514
817.653	19453
817.793	19400
817.934	19582
818.075	19548
818.216	19499
818.356	19529
818.497	19403
818.638	19270
818.778	19228
818.919	19160
819.06	19232
819.2	19358
819.341	19354
819.481	19312
819.622	19510
819.762	19795
819.903	19674
820.043	19556
820.184	19533
820.324	19476
820.465	19613
820.605	19514
820.746	19491
820.886	19388
821.026	19491
821.167	19472
821.307	19411
821.447	19491
821.588	19228
821.728	19175
821.868	19019
822.008	18856
822.149	18954
822.289	18901
822.429	18559
822.569	18574
822.709	18563
822.849	18277
822.99	18403
823.13	18266
823.27	18391
823.41	18102
823.55	18148
823.69	18102
823.83	18266
823.97	18239
824.11	17939
824.25	17863
824.389	17984
824.529	17977
824.669	17931
824.809	18034
824.949	18144
825.089	18060
825.228	17878
825.368	17840
825.508	17847
825.648	17760
825.787	17821
825.927	17779
826.067	17779
826.206	17676
826.346	17653
826.485	17885
826.625	17775
826.765	17916
826.904	17828
827.044	17585
827.183	17379
827.323	17433
827.462	17471
827.601	17417
827.741	17471
827.88	17535
828.02	17330
828.159	17421
828.298	17448
828.437	17520
828.577	17417
828.716	17547
828.855	17425
828.994	17197
829.134	17220
829.273	17185
829.412	17102
829.551	17105
829.69	17197
829.829	17197
829.968	17258
830.107	17265
830.246	17121
830.385	17128
830.524	17071
830.663	16984
830.802	16968
830.941	16774
831.08	16759
831.219	16839
831.357	16873
831.496	17083
831.635	16797
831.774	16782
831.913	16649
832.051	16660
832.19	16554
832.329	16618
832.467	16405
832.606	16508
832.744	16466
832.883	16478
833.022	16462
833.16	16546
833.299	16546
833.437	16481
833.576	16493
833.714	16519
833.852	16660
833.991	16584
834.129	16611
834.267	16618
834.406	16592
834.544	16527
834.682	16660
834.821	16577
834.959	16725
835.097	16443
835.235	16584
835.373	16649
835.511	16565
835.65	16493
835.788	16417
835.926	16207
836.064	16303
836.202	16265
836.34	16428
836.478	16519
836.615	16516
836.753	16516
836.891	16523
837.029	16519
837.167	16428
837.305	16436
837.443	16371
837.58	16325
837.718	16329
837.856	16371
837.993	16234
838.131	16424
838.269	16310
838.406	16276
838.544	16162
838.681	16109
838.819	16116
838.956	15869
839.094	15838
839.231	15899
839.369	16029
839.506	16360
839.643	16147
839.781	15785
839.918	15861
840.055	15835
840.193	15797
840.33	15869
840.467	15800
840.604	15895
840.742	16013
840.879	15667
841.016	15857
841.153	15804
841.29	16025
841.427	15903
841.564	15835
841.701	15884
841.838	15793
841.975	15762
842.112	15850
842.249	15663
842.385	15618
842.522	15823
842.659	15728
842.796	15614
842.933	15656
843.069	15576
843.206	15663
843.343	15701
843.479	15743
843.616	15690
843.752	15496
843.889	15439
844.025	15561
844.162	15523
844.298	15500
844.435	15469
844.571	15348
844.708	15447
844.844	15496
844.98	15564
845.117	15584
845.253	15450
845.389	15302
845.525	15416
845.661	15306
845.798	15260
845.934	15283
846.07	15207
846.206	15298
846.342	15325
846.478	15226
846.614	15005
846.75	14918
846.886	14979
847.022	15119
847.158	15032
847.294	15028
847.429	14990
847.565	14872
847.701	15287
847.837	14720
847.972	14762
848.108	14838
848.244	14811
848.379	14663
848.515	14583
848.65	14507
848.786	14651
848.921	14648
849.057	14689
849.192	14697
849.328	14648
849.463	14590
849.598	14613
849.734	14495
849.869	14484
850.004	14484
850.14	14473
850.275	14400
850.41	14381
850.545	14240
850.68	14256
850.815	14427
850.95	14336
851.085	14556
851.22	14438
851.355	14328
851.49	14351
851.625	14286
851.76	14362
851.895	14332
852.03	14237
852.165	14366
852.299	14427
852.434	14427
852.569	14374
852.703	14404
852.838	14495
852.973	14560
853.107	14533
853.242	14442
853.376	14187
853.511	14145
853.645	14221
853.78	14301
853.914	14210
854.048	14248
854.183	14313
854.317	14278
854.451	14332
854.585	14290
854.72	14267
854.854	14294
854.988	14199
855.122	14244
855.256	14088
855.39	14256
855.524	14301
855.658	14275
855.792	14240
855.926	14381
856.06	14332
856.194	14278
856.327	14180
856.461	14164
856.595	14134
856.729	14286
856.862	14408
856.996	14248
857.13	14290
857.263	14393
857.397	14336
857.53	14362
857.664	14328
857.797	14271
857.931	14385
858.064	14305
858.197	14229
858.331	14282
858.464	14225
858.597	14142
858.731	14275
858.864	14134
858.997	14195
859.13	14256
859.263	14358
859.396	14362
859.529	14252
859.662	14275
859.795	14092
859.928	14313
860.061	14446
860.194	14370
860.327	14229
860.46	14161
860.592	14320
860.725	14298
860.858	14400
860.99	14202
861.123	14229
861.256	14225
861.388	14263
861.521	14921
861.653	14172
861.786	13951
861.918	14168
862.05	14164
862.183	14256
862.315	14221
862.447	14267
862.58	14195
862.712	14031
862.844	13982
862.976	14069
863.108	14065
863.24	14473
863.372	13883
863.504	14115
863.636	13978
863.768	14058
863.9	14005
864.032	13993
864.164	13978
864.296	14043
864.428	14183
864.559	14199
864.691	14187
864.823	14031
864.954	14077
865.086	14103
865.217	13978
865.349	13951
865.48	13982
865.612	14016
865.743	14103
865.875	13989
866.006	13925
866.137	14001
866.269	14008
866.4	14058
866.531	13970
866.662	13913
866.793	13879
866.924	13982
867.055	13986
867.186	13978
867.317	13898
867.448	13902
867.579	13967
867.71	13917
867.841	13970
867.972	14035
868.103	14024
868.233	13978
868.364	14012
868.495	14180
868.625	14332
868.756	14332
868.886	14134
869.017	14263
869.147	14328
869.278	14347
869.408	14259
869.539	14275
869.669	14366
869.799	14324
869.929	14339
870.06	14347
870.19	14575
870.32	14575
870.45	14568
870.58	14632
870.71	14701
870.84	14864
870.97	14727
871.1	14636
871.23	14765
871.36	14899
871.489	14785
871.619	14842
871.749	14838
871.879	14906
872.008	14986
872.138	14914
872.267	14921
872.397	14644
872.526	14708
872.656	14625
872.785	14712
872.915	14891
873.044	14895
873.173	14944
873.303	14910
873.432	14986
873.561	14990
873.69	14941
873.819	14933
873.948	15009
874.077	14941
874.206	14910
874.335	14864
874.464	15013
874.593	15180
874.722	15180
874.851	15241
874.979	15214
875.108	15291
875.237	15207
875.365	15112
875.494	15157
875.623	15298
875.751	15161
875.88	15370
876.008	15386
876.136	15431
876.265	15648
876.393	15808
876.521	15717
876.65	15686
876.778	15629
876.906	15713
877.034	15584
877.162	15713
877.29	15584
877.418	15671
877.546	15587
877.674	15709
877.802	15660
877.93	15709
878.058	15561
878.185	15439
878.313	15663
878.441	15591
878.568	15580
878.696	15576
878.824	15694
878.951	15759
879.079	15918
879.206	15953
879.333	15819
879.461	15759
879.588	15641
879.715	15816
879.842	15895
879.97	15690
880.097	15485
880.224	15401
880.351	15580
880.478	15469
880.605	15507
880.732	15477
880.859	15755
880.986	15530
881.112	15488
881.239	15428
881.366	15310
881.493	15222
881.619	15173
881.746	15157
881.872	15195
881.999	15097
882.125	15108
882.252	15214
882.378	15161
882.505	15351
882.631	15150
882.757	14963
882.883	14971
883.01	14929
883.136	14933
883.262	14826
883.388	14826
883.514	15055
883.64	14967
883.766	14883
883.892	14716
884.018	14754
884.143	14876
884.269	15001
884.395	14754
884.52	14545
884.646	14606
884.772	14640
884.897	14545
885.023	14636
885.148	14739
885.274	14796
885.399	14815
885.524	14636
885.65	14648
885.775	14739
885.9	14682
886.025	14773
886.15	14754
886.275	14663
886.4	14621
886.525	14651
886.65	14575
886.775	14625
886.9	14739
887.025	14910
887.149	14720
887.274	14476
887.399	14408
887.523	14492
887.648	14370
887.773	14396
887.897	14617
888.021	14514
888.146	14503
888.27	14537
888.395	14594
888.519	14587
888.643	14594
888.767	14492
888.891	14438
889.015	14355
889.139	14457
889.263	14370
889.387	14461
889.511	14575
889.635	14412
889.759	14317
889.883	14294
890.006	14442
890.13	14511
890.254	14298
890.377	14362
890.501	14138
890.624	14149
890.748	14286
890.871	14046
890.995	14031
891.118	13970
891.241	14081
891.364	14054
891.488	14153
891.611	14180
891.734	14183
891.857	14153
891.98	14050
892.103	14176
892.226	14161
892.349	13989
892.471	13925
892.594	14111
892.717	14111
892.839	14008
892.962	14027
893.085	14164
893.207	14119
893.33	13974
893.452	14001
893.575	14043
893.697	14027
893.819	14381
893.941	14309
894.064	14336
894.186	14039
894.308	14130
894.43	14244
894.552	14305
894.674	14282
894.796	14084
894.918	14134
895.04	14119
895.161	14218
895.283	14199
895.405	14088
895.526	14138
895.648	14218
895.769	14202
895.891	14282
896.012	14298
896.134	14294
896.255	14248
896.376	14138
896.498	14161
896.619	14332
896.74	14267
896.861	14256
896.982	14636
897.103	14743
897.224	14541
897.345	14522
897.466	14465
897.587	14556
897.708	14606
897.828	14526
897.949	14442
898.07	14355
898.19	14499
898.311	14575
898.431	14492
898.552	14632
898.672	14682
898.792	14785
898.913	14606
899.033	14537
899.153	14454
899.273	14317
899.393	14511
899.513	14446
899.633	14431
899.753	14495
899.873	14377
899.993	14427
900.113	14370
900.232	14549
900.352	14400
900.472	14355
900.591	14290
900.711	14309
900.83	14286
900.95	14423
901.069	14461
901.189	14286
901.308	14024
901.427	13921
901.546	13982
901.665	13947
901.784	13936
901.904	13894
902.023	13799
902.141	13571
902.26	13563
902.379	13655
902.498	13502
902.617	13518
902.735	13556
902.854	13567
902.973	13457
903.091	13244
903.21	13308
903.328	13255
903.446	13209
903.565	13061
903.683	13099
903.801	13061
903.919	13179
904.038	13080
904.156	12989
904.274	12958
904.392	12859
904.51	12909
904.627	12928
904.745	12993
904.863	12939
904.981	12726
905.098	12616
905.216	12646
905.334	12692
905.451	12654
905.569	12658
905.686	12608
905.803	12616
905.921	12380
906.038	12547
906.155	12441
906.272	12346
906.389	12353
906.506	12239
906.623	12243
906.74	12281
906.857	12060
906.974	12117
907.091	12311
907.208	12338
907.324	12281
907.441	12140
907.557	11996
907.674	11950
907.79	11870
907.907	12007
908.023	12026
908.139	11935
908.256	11836
908.372	11855
908.488	11912
908.604	11760
908.72	11695
908.836	11726
908.952	11771
909.068	11695
909.184	11866
909.3	11767
909.415	11790
909.531	11695
909.647	11570
909.762	11505
909.878	11452
909.993	11528
910.108	11482
910.224	11493
910.339	11478
910.454	11368
910.57	11337
910.685	11311
910.8	11558
910.915	11520
911.03	11433
911.145	11166
911.259	11216
911.374	11220
911.489	11151
911.604	11083
911.718	10961
911.833	10961
911.947	10835
912.062	10790
912.176	10980
912.291	10972
912.405	10889
912.519	11166
912.633	11231
912.748	11052
912.862	11022
912.976	10835
913.09	10656
913.204	10797
913.318	10774
913.431	10885
913.545	10942
913.659	10938
913.772	10824
913.886	10706
914	10649
914.113	10801
914.226	10915
914.34	10809
914.453	10660
914.566	10729
914.68	10641
914.793	10630
914.906	10455
915.019	10436
915.132	10390
915.245	10382
915.358	10455
915.47	10504
915.583	10432
915.696	10565
915.809	10660
915.921	10588
916.034	10519
916.146	10409
916.259	10390
916.371	10478
916.483	10432
916.595	10363
916.708	10462
916.82	10360
916.932	10413
917.044	10367
917.156	10322
917.268	10169
917.38	10333
917.491	10284
917.603	10318
917.715	10375
917.826	10363
917.938	10318
918.049	10223
918.161	10352
918.272	10413
918.384	10413
918.495	10310
918.606	10147
918.717	10090
918.828	10246
918.939	10188
919.05	10143
919.161	10162
919.272	9907
919.383	10071
919.494	10192
919.604	10409
919.715	10257
919.826	10120
919.936	10150
920.047	10306
920.157	10238
920.267	10344
920.378	10272
920.488	10211
920.598	10421
920.708	10554
920.818	10390
920.928	10462
921.038	10516
921.148	10577
921.258	10272
921.368	10135
921.477	10048
921.587	10044
921.697	9915
921.806	10071
921.916	9968
922.025	9793
922.134	9785
922.244	9701
922.353	9812
922.462	9622
922.571	9538
922.68	9481
922.789	9435
922.898	9488
923.007	9370
923.116	9591
923.224	9488
923.333	9439
923.442	9355
923.55	9321
923.659	9348
923.767	9424
923.876	9256
923.984	9370
924.092	9302
924.201	9344
924.309	9279
924.417	9264
924.525	9180
924.633	9321
924.741	10097
924.849	9036
924.956	9203
925.064	9116
925.172	8982
925.279	9036
925.387	9081
925.494	9085
925.602	9222
925.709	9135
925.816	9051
925.924	9097
926.031	9253
926.138	9062
926.245	9165
926.352	9028
926.459	9093
926.566	9199
926.673	9150
926.779	8956
926.886	8956
926.993	8819
927.099	8815
927.206	8845
927.312	8762
927.419	8845
927.525	8792
927.631	8868
927.737	8800
927.843	8716
927.95	8568
928.056	8724
928.162	8712
928.267	8705
928.373	9340
928.479	8800
928.585	8549
928.69	8651
928.796	8720
928.901	8674
929.007	8549
929.112	8613
929.218	8594
929.323	8610
929.428	8511
929.533	8663
929.638	8484
929.743	8552
929.848	8541
929.953	8549
930.058	8461
930.163	8191
930.267	8358
930.372	8488
930.477	8305
930.581	8469
930.685	8381
930.79	8256
930.894	8237
930.998	8237
931.103	8366
931.207	8062
931.311	8035
931.415	7902
931.519	7776
931.623	7750
