Data from test_V78500241_2013.txt Node
Date: Fri Mar 25 14:47:43 CST 2022
User: usil
Spectrometer: V785-0024
Trigger mode: 0
Integration Time (sec): 4.000000E-1
Scans to average: 1
Nonlinearity correction enabled: false
Boxcar width: 0
Storing dark spectrum: false
XAxis mode: Wavelengths
Number of Pixels in Spectrum: 1024
>>>>>Begin Spectral Data<<<<<
801.071	22040
801.214	21956
801.356	21774
801.499	21595
801.641	21504
801.783	21477
801.926	21488
802.068	21367
802.211	21340
802.353	21135
802.496	21062
802.638	20986
802.78	20929
802.923	20853
803.065	20708
803.208	20830
803.35	20762
803.492	20819
803.635	20986
803.777	20731
803.919	20811
804.061	21173
804.204	20925
804.346	20750
804.488	20667
804.63	20754
804.773	20632
804.915	20750
805.057	20902
805.199	20667
805.341	20800
805.483	20933
805.626	20769
805.768	20731
805.91	20575
806.052	20746
806.194	20701
806.336	20895
806.478	20674
806.62	20644
806.762	20792
806.904	20971
807.046	21096
807.188	21085
807.33	20986
807.472	21039
807.614	20941
807.756	20994
807.898	20914
808.04	20720
808.182	20754
808.324	20864
808.465	20823
808.607	20948
808.749	21005
808.891	21199
809.033	21245
809.174	21272
809.316	21112
809.458	21096
809.6	21058
809.741	21081
809.883	21188
810.025	21310
810.166	21169
810.308	21317
810.45	21260
810.591	21074
810.733	20891
810.875	20914
811.016	20720
811.158	20811
811.299	20948
811.441	20952
811.582	20986
811.724	20857
811.865	20765
812.007	20902
812.148	20899
812.29	20994
812.431	21058
812.573	21146
812.714	21294
812.855	21408
812.997	21408
813.138	21507
813.279	21439
813.421	21272
813.562	21249
813.703	21085
813.845	21020
813.986	20861
814.127	20644
814.268	20469
814.41	20469
814.551	20526
814.692	20537
814.833	20233
814.974	20381
815.115	20393
815.256	20210
815.397	20218
815.539	20199
815.68	20122
815.821	20081
815.962	20164
816.103	20218
816.244	19791
816.385	19837
816.526	19753
816.666	19727
816.807	19506
816.948	19666
817.089	19906
817.23	19590
817.371	19594
817.512	19537
817.653	19476
817.793	19476
817.934	19533
818.075	19620
818.216	19487
818.356	19529
818.497	19297
818.638	19202
818.778	19362
818.919	19194
819.06	19244
819.2	19289
819.341	19392
819.481	19426
819.622	19575
819.762	19757
819.903	19643
820.043	19689
820.184	19552
820.324	19571
820.465	19582
820.605	19491
820.746	19487
820.886	19377
821.026	19487
821.167	19434
821.307	19601
821.447	19480
821.588	19396
821.728	19255
821.868	19137
822.008	18935
822.149	18989
822.289	18894
822.429	18665
822.569	18589
822.709	18684
822.849	18513
822.99	18490
823.13	18311
823.27	18327
823.41	18304
823.55	18178
823.69	18292
823.83	18243
823.97	18152
824.11	18083
824.25	17999
824.389	17977
824.529	18034
824.669	17916
824.809	18174
824.949	18140
825.089	17946
825.228	18015
825.368	17843
825.508	17771
825.648	17859
825.787	17904
825.927	17843
826.067	17668
826.206	17630
826.346	17802
826.485	17718
826.625	17802
826.765	17882
826.904	17851
827.044	17646
827.183	17493
827.323	17471
827.462	17585
827.601	17444
827.741	17425
827.88	17493
828.02	17433
828.159	17376
828.298	17398
828.437	17471
828.577	17436
828.716	17638
828.855	17376
828.994	17155
829.134	17227
829.273	17292
829.412	17250
829.551	17204
829.69	17212
829.829	17353
829.968	17364
830.107	17242
830.246	17235
830.385	17105
830.524	17132
830.663	17128
830.802	16991
830.941	16858
831.08	16812
831.219	16923
831.357	16965
831.496	17067
831.635	16927
831.774	16687
831.913	16691
832.051	16569
832.19	16573
832.329	16713
832.467	16603
832.606	16573
832.744	16489
832.883	16470
833.022	16504
833.16	16577
833.299	16535
833.437	16588
833.576	16584
833.714	16611
833.852	16626
833.991	16729
834.129	16694
834.267	16691
834.406	16596
834.544	16637
834.682	16679
834.821	16535
834.959	16774
835.097	16565
835.235	16683
835.373	16653
835.511	16580
835.65	16466
835.788	16527
835.926	16344
836.064	16295
836.202	16329
836.34	16417
836.478	16546
836.615	16493
836.753	16500
836.891	16630
837.029	16508
837.167	16489
837.305	16432
837.443	16470
837.58	16363
837.718	16558
837.856	16531
837.993	16436
838.131	16322
838.269	16417
838.406	16329
838.544	16177
838.681	16055
838.819	16059
838.956	15983
839.094	15895
839.231	15903
839.369	16112
839.506	16382
839.643	16280
839.781	15979
839.918	15922
840.055	16021
840.193	16002
840.33	15972
840.467	15922
840.604	16032
840.742	16204
840.879	15846
841.016	15762
841.153	15941
841.29	16036
841.427	15945
841.564	15979
841.701	16006
841.838	15876
841.975	15865
842.112	15895
842.249	15728
842.385	15701
842.522	15922
842.659	15785
842.796	15580
842.933	15751
843.069	15686
843.206	15663
843.343	15755
843.479	15800
843.616	15903
843.752	15526
843.889	15561
844.025	15679
844.162	15500
844.298	15606
844.435	15431
844.571	15568
844.708	15641
844.844	15622
844.98	15625
845.117	15682
845.253	15591
845.389	15351
845.525	15450
845.661	15488
845.798	15317
845.934	15454
846.07	15230
846.206	15348
846.342	15542
846.478	15355
846.614	15138
846.75	15032
846.886	15081
847.022	15199
847.158	15135
847.294	15222
847.429	15154
847.565	15081
847.701	15275
847.837	14925
847.972	14910
848.108	14902
848.244	14933
848.379	14864
848.515	14758
848.65	14720
848.786	14663
848.921	14762
849.057	14857
849.192	14815
849.328	14838
849.463	14716
849.598	14644
849.734	14743
849.869	14552
850.004	14480
850.14	14533
850.275	14492
850.41	14347
850.545	14415
850.68	14495
850.815	14533
850.95	14431
851.085	14716
851.22	14552
851.355	14552
851.49	14495
851.625	14499
851.76	14469
851.895	14427
852.03	14442
852.165	14484
852.299	14457
852.434	14564
852.569	14526
852.703	14530
852.838	14514
852.973	14522
853.107	14659
853.242	14526
853.376	14347
853.511	14199
853.645	14301
853.78	14549
853.914	14389
854.048	14278
854.183	14271
854.317	14396
854.451	14518
854.585	14317
854.72	14415
854.854	14419
854.988	14328
855.122	14244
855.256	14199
855.39	14328
855.524	14442
855.658	14393
855.792	14400
855.926	14309
856.06	14480
856.194	14469
856.327	14389
856.461	14278
856.595	14290
856.729	14332
856.862	14381
856.996	14385
857.13	14541
857.263	14362
857.397	14507
857.53	14332
857.664	14343
857.797	14404
857.931	14454
858.064	14385
858.197	14484
858.331	14427
858.464	14290
858.597	14210
858.731	14305
858.864	14374
858.997	14381
859.13	14324
859.263	14427
859.396	14492
859.529	14278
859.662	14377
859.795	14423
859.928	14404
860.061	14507
860.194	14438
860.327	14393
860.46	14286
860.592	14423
860.725	14442
860.858	14454
860.99	14237
861.123	14358
861.256	14324
861.388	14263
861.521	14990
861.653	14183
861.786	14233
861.918	14221
862.05	14317
862.183	14343
862.315	14396
862.447	14358
862.58	14332
862.712	14084
862.844	14092
862.976	14123
863.108	14100
863.24	14450
863.372	14046
863.504	14191
863.636	14134
863.768	14130
863.9	14168
864.032	14065
864.164	14084
864.296	14126
864.428	14248
864.559	14183
864.691	14191
864.823	14252
864.954	14187
865.086	14050
865.217	14107
865.349	14031
865.48	14134
865.612	14103
865.743	14282
865.875	14103
866.006	14088
866.137	14130
866.269	14107
866.4	14039
866.531	14054
866.662	14065
866.793	14016
866.924	14062
867.055	13989
867.186	14111
867.317	14046
867.448	13970
867.579	14062
867.71	14077
867.841	14111
867.972	14123
868.103	14187
868.233	14126
868.364	14077
868.495	14233
868.625	14286
868.756	14461
868.886	14259
869.017	14381
869.147	14526
869.278	14457
869.408	14385
869.539	14294
869.669	14465
869.799	14412
869.929	14484
870.06	14507
870.19	14735
870.32	14708
870.45	14720
870.58	14788
870.71	14807
870.84	14819
870.97	14788
871.1	14670
871.23	14971
871.36	15062
871.489	14834
871.619	14887
871.749	14891
871.879	15093
872.008	15123
872.138	14990
872.267	14876
872.397	14765
872.526	14864
872.656	14807
872.785	14765
872.915	14929
873.044	15074
873.173	14925
873.303	15005
873.432	15024
873.561	15074
873.69	15005
873.819	15051
873.948	15024
874.077	14948
874.206	14979
874.335	15032
874.464	15123
874.593	15306
874.722	15313
874.851	15340
874.979	15348
875.108	15439
875.237	15348
875.365	15252
875.494	15291
875.623	15450
875.751	15233
875.88	15367
876.008	15420
876.136	15526
876.265	15759
876.393	15827
876.521	15800
876.65	15785
876.778	15819
876.906	15656
877.034	15709
877.162	15736
877.29	15736
877.418	15800
877.546	15800
877.674	15789
877.802	15709
877.93	15743
878.058	15637
878.185	15568
878.313	15747
878.441	15694
878.568	15549
878.696	15759
878.824	15831
878.951	15816
879.079	16010
879.206	16025
879.333	15964
879.461	15816
879.588	15808
879.715	16025
879.842	16017
879.97	15770
880.097	15591
880.224	15435
880.351	15629
880.478	15618
880.605	15507
880.732	15629
880.859	15751
880.986	15591
881.112	15644
881.239	15477
881.366	15393
881.493	15291
881.619	15252
881.746	15275
881.872	15321
881.999	15199
882.125	15135
882.252	15317
882.378	15233
882.505	15321
882.631	15199
882.757	15081
882.883	15051
883.01	15020
883.136	14963
883.262	14914
883.388	14925
883.514	15020
883.64	15108
883.766	14986
883.892	14899
884.018	14830
884.143	15150
884.269	15077
884.395	14872
884.52	14788
884.646	14853
884.772	14750
884.897	14682
885.023	14773
885.148	14819
885.274	14906
885.399	14857
885.524	14781
885.65	14735
885.775	14777
885.9	14746
886.025	14914
886.15	14800
886.275	14739
886.4	14617
886.525	14731
886.65	14720
886.775	14735
886.9	14826
887.025	14956
887.149	14819
887.274	14644
887.399	14632
887.523	14556
887.648	14514
887.773	14480
887.897	14670
888.021	14617
888.146	14625
888.27	14724
888.395	14765
888.519	14598
888.643	14667
888.767	14727
888.891	14415
889.015	14415
889.139	14469
889.263	14442
889.387	14541
889.511	14670
889.635	14545
889.759	14396
889.883	14442
890.006	14522
890.13	14594
890.254	14431
890.377	14408
890.501	14343
890.624	14248
890.748	14263
890.871	14267
890.995	14134
891.118	14077
891.241	14126
891.364	14088
891.488	14252
891.611	14149
891.734	14199
891.857	14206
891.98	14164
892.103	14294
892.226	14142
892.349	14130
892.471	14005
892.594	14100
892.717	14164
892.839	14168
892.962	14164
893.085	14161
893.207	14153
893.33	13936
893.452	14244
893.575	14199
893.697	14100
893.819	14347
893.941	14237
894.064	14320
894.186	14103
894.308	14096
894.43	14202
894.552	14317
894.674	14320
894.796	14153
894.918	14119
895.04	14115
895.161	14324
895.283	14248
895.405	14237
895.526	14149
895.648	14191
895.769	14229
895.891	14278
896.012	14362
896.134	14328
896.255	14351
896.376	14187
896.498	14290
896.619	14275
896.74	14393
896.861	14454
896.982	14617
897.103	14762
897.224	14674
897.345	14613
897.466	14579
897.587	14583
897.708	14781
897.828	14575
897.949	14583
898.07	14450
898.19	14549
898.311	14731
898.431	14636
898.552	14701
898.672	14785
898.792	14777
898.913	14598
899.033	14511
899.153	14564
899.273	14488
899.393	14549
899.513	14598
899.633	14514
899.753	14533
899.873	14446
899.993	14644
900.113	14461
900.232	14533
900.352	14511
900.472	14385
900.591	14309
900.711	14343
900.83	14286
900.95	14488
901.069	14488
901.189	14309
901.308	14039
901.427	14031
901.546	14100
901.665	14157
901.784	14043
901.904	13925
902.023	13894
902.141	13700
902.26	13529
902.379	13666
902.498	13628
902.617	13601
902.735	13601
902.854	13594
902.973	13567
903.091	13354
903.21	13365
903.328	13339
903.446	13270
903.565	13301
903.683	13209
903.801	13122
903.919	13095
904.038	13168
904.156	13088
904.274	13027
904.392	12924
904.51	12966
904.627	12973
904.745	13031
904.863	13012
904.981	12779
905.098	12654
905.216	12741
905.334	12627
905.451	12700
905.569	12707
905.686	12726
905.803	12669
905.921	12597
906.038	12544
906.155	12585
906.272	12475
906.389	12498
906.506	12304
906.623	12289
906.74	12292
906.857	12201
906.974	12171
907.091	12365
907.208	12350
907.324	12285
907.441	12239
907.557	12076
907.674	11973
907.79	11969
907.907	11969
908.023	12053
908.139	12114
908.256	11961
908.372	11973
908.488	11927
908.604	11859
908.72	11752
908.836	11794
908.952	11798
909.068	11805
909.184	11851
909.3	11840
909.415	11794
909.531	11874
909.647	11665
909.762	11524
909.878	11604
909.993	11558
910.108	11478
910.224	11497
910.339	11516
910.454	11497
910.57	11486
910.685	11296
910.8	11630
910.915	11528
911.03	11493
911.145	11349
911.259	11239
911.374	11296
911.489	11166
911.604	11223
911.718	11022
911.833	11010
911.947	10911
912.062	10869
912.176	10961
912.291	11117
912.405	10976
912.519	11181
912.633	11277
912.748	11083
912.862	11018
912.976	10877
913.09	10805
913.204	10881
913.318	10953
913.431	11022
913.545	10961
913.659	10968
913.772	10934
913.886	10793
914	10729
914.113	10896
914.226	10877
914.34	10885
914.453	10675
914.566	10869
914.68	10714
914.793	10725
914.906	10561
915.019	10497
915.132	10489
915.245	10546
915.358	10615
915.47	10550
915.583	10565
915.696	10550
915.809	10664
915.921	10649
916.034	10523
916.146	10592
916.259	10409
916.371	10500
916.483	10603
916.595	10421
916.708	10493
916.82	10432
916.932	10424
917.044	10379
917.156	10489
917.268	10287
917.38	10398
917.491	10398
917.603	10424
917.715	10481
917.826	10443
917.938	10413
918.049	10242
918.161	10303
918.272	10493
918.384	10542
918.495	10402
918.606	10291
918.717	10173
918.828	10306
918.939	10322
919.05	10238
919.161	10246
919.272	10086
919.383	10192
919.494	10322
919.604	10470
919.715	10310
919.826	10284
919.936	10318
920.047	10306
920.157	10314
920.267	10470
920.378	10310
920.488	10295
920.598	10405
920.708	10683
920.818	10512
920.928	10455
921.038	10607
921.148	10615
921.258	10306
921.368	10268
921.477	10139
921.587	10093
921.697	10074
921.806	10162
921.916	10013
922.025	9831
922.134	9850
922.244	9785
922.353	9854
922.462	9755
922.571	9660
922.68	9545
922.789	9511
922.898	9545
923.007	9477
923.116	9595
923.224	9572
923.333	9500
923.442	9477
923.55	9405
923.659	9447
923.767	9458
923.876	9424
923.984	9485
924.092	9275
924.201	9405
924.309	9424
924.417	9401
924.525	9325
924.633	9370
924.741	10249
924.849	9150
924.956	9260
925.064	9245
925.172	9085
925.279	9135
925.387	9230
925.494	9214
925.602	9329
925.709	9268
925.816	9089
925.924	9199
926.031	9249
926.138	9237
926.245	9203
926.352	9104
926.459	9268
926.566	9241
926.673	9116
926.779	9058
926.886	9024
926.993	8929
927.099	8933
927.206	8853
927.312	8785
927.419	8967
927.525	8853
927.631	8963
927.737	8792
927.843	8712
927.95	8724
928.056	8720
928.162	8762
928.267	8819
928.373	9469
928.479	8887
928.585	8632
928.69	8731
928.796	8899
928.901	8743
929.007	8568
929.112	8648
929.218	8678
929.323	8708
929.428	8617
929.533	8720
929.638	8511
929.743	8564
929.848	8644
929.953	8682
930.058	8503
930.163	8332
930.267	8396
930.372	8530
930.477	8374
930.581	8632
930.685	8461
930.79	8263
930.894	8355
930.998	8396
931.103	8499
931.207	8149
931.311	8039
931.415	8001
931.519	7833
931.623	7795
