Data from test_V78500241_1879.txt Node
Date: Fri Mar 25 14:46:47 CST 2022
User: usil
Spectrometer: V785-0024
Trigger mode: 0
Integration Time (sec): 4.000000E-1
Scans to average: 1
Nonlinearity correction enabled: false
Boxcar width: 0
Storing dark spectrum: false
XAxis mode: Wavelengths
Number of Pixels in Spectrum: 1024
>>>>>Begin Spectral Data<<<<<
801.071	22154
801.214	22013
801.356	21732
801.499	21534
801.641	21583
801.783	21564
801.926	21530
802.068	21507
802.211	21370
802.353	21310
802.496	21047
802.638	21074
802.78	20864
802.923	20933
803.065	20758
803.208	20701
803.35	20948
803.492	20891
803.635	21074
803.777	20933
803.919	20891
804.061	21283
804.204	20921
804.346	20796
804.488	20758
804.63	20743
804.773	20613
804.915	20705
805.057	20765
805.199	20746
805.341	20853
805.483	20971
805.626	20773
805.768	20750
805.91	20739
806.052	20792
806.194	20678
806.336	20967
806.478	20693
806.62	20632
806.762	20705
806.904	20944
807.046	21195
807.188	21066
807.33	21055
807.472	21051
807.614	21020
807.756	20994
807.898	20929
808.04	20697
808.182	20811
808.324	20811
808.465	20853
808.607	20899
808.749	21131
808.891	21074
809.033	21329
809.174	21222
809.316	21154
809.458	21085
809.6	21036
809.741	21199
809.883	21165
810.025	21291
810.166	21416
810.308	21268
810.45	21256
810.591	21184
810.733	21017
810.875	20982
811.016	20788
811.158	20804
811.299	21070
811.441	21001
811.582	20990
811.724	20842
811.865	20785
812.007	20857
812.148	20937
812.29	20906
812.431	21157
812.573	21161
812.714	21180
812.855	21313
812.997	21329
813.138	21606
813.279	21382
813.421	21454
813.562	21405
813.703	21051
813.845	21154
813.986	20594
814.127	20594
814.268	20533
814.41	20454
814.551	20469
814.692	20537
814.833	20495
814.974	20385
815.115	20423
815.256	20161
815.397	20328
815.539	20305
815.68	20081
815.821	20122
815.962	20103
816.103	20092
816.244	20012
816.385	19955
816.526	19860
816.666	19742
816.807	19601
816.948	19586
817.089	19651
817.23	19643
817.371	19529
817.512	19567
817.653	19616
817.793	19419
817.934	19449
818.075	19609
818.216	19540
818.356	19556
818.497	19369
818.638	19270
818.778	19232
818.919	19202
819.06	19209
819.2	19457
819.341	19540
819.481	19419
819.622	19590
819.762	19731
819.903	19632
820.043	19559
820.184	19495
820.324	19624
820.465	19609
820.605	19525
820.746	19571
820.886	19460
821.026	19586
821.167	19453
821.307	19594
821.447	19476
821.588	19426
821.728	19274
821.868	19050
822.008	18981
822.149	18928
822.289	18890
822.429	18726
822.569	18741
822.709	18578
822.849	18433
822.99	18467
823.13	18475
823.27	18388
823.41	18235
823.55	18171
823.69	18213
823.83	18273
823.97	18174
824.11	18049
824.25	18030
824.389	18079
824.529	18110
824.669	18015
824.809	18190
824.949	18068
825.089	18007
825.228	18068
825.368	17783
825.508	17927
825.648	17790
825.787	17817
825.927	17859
826.067	17794
826.206	17729
826.346	17767
826.485	17874
826.625	17676
826.765	17889
826.904	17912
827.044	17623
827.183	17543
827.323	17452
827.462	17665
827.601	17585
827.741	17520
827.88	17509
828.02	17486
828.159	17417
828.298	17512
828.437	17543
828.577	17448
828.716	17596
828.855	17440
828.994	17250
829.134	17189
829.273	17349
829.412	17216
829.551	17239
829.69	17277
829.829	17239
829.968	17265
830.107	17311
830.246	17292
830.385	17174
830.524	17159
830.663	17254
830.802	16923
830.941	16957
831.08	16919
831.219	16984
831.357	17056
831.496	17094
831.635	16896
831.774	16850
831.913	16793
832.051	16717
832.19	16626
832.329	16675
832.467	16584
832.606	16512
832.744	16645
832.883	16672
833.022	16455
833.16	16546
833.299	16721
833.437	16577
833.576	16542
833.714	16618
833.852	16577
833.991	16668
834.129	16664
834.267	16706
834.406	16626
834.544	16778
834.682	16713
834.821	16653
834.959	16839
835.097	16615
835.235	16618
835.373	16584
835.511	16733
835.65	16664
835.788	16580
835.926	16497
836.064	16329
836.202	16276
836.34	16531
836.478	16721
836.615	16485
836.753	16603
836.891	16634
837.029	16645
837.167	16554
837.305	16535
837.443	16413
837.58	16409
837.718	16493
837.856	16417
837.993	16440
838.131	16386
838.269	16402
838.406	16360
838.544	16299
838.681	16071
838.819	16139
838.956	15934
839.094	15964
839.231	15987
839.369	16086
839.506	16360
839.643	16154
839.781	15972
839.918	15907
840.055	15972
840.193	15880
840.33	15911
840.467	16013
840.604	15979
840.742	16219
840.879	15880
841.016	15983
841.153	15797
841.29	16120
841.427	15994
841.564	15930
841.701	15975
841.838	15895
841.975	15854
842.112	15888
842.249	15781
842.385	15812
842.522	15922
842.659	15766
842.796	15720
842.933	15736
843.069	15778
843.206	15778
843.343	15827
843.479	15705
843.616	15778
843.752	15576
843.889	15534
844.025	15694
844.162	15416
844.298	15599
844.435	15507
844.571	15511
844.708	15599
844.844	15724
844.98	15625
845.117	15633
845.253	15618
845.389	15336
845.525	15424
845.661	15443
845.798	15336
845.934	15424
846.07	15298
846.206	15378
846.342	15424
846.478	15302
846.614	15222
846.75	15085
846.886	15093
847.022	15188
847.158	15192
847.294	15116
847.429	15093
847.565	15165
847.701	15298
847.837	14948
847.972	14834
848.108	14956
848.244	14868
848.379	14701
848.515	14697
848.65	14606
848.786	14678
848.921	14743
849.057	14720
849.192	14750
849.328	14648
849.463	14815
849.598	14625
849.734	14629
849.869	14480
850.004	14469
850.14	14556
850.275	14461
850.41	14381
850.545	14469
850.68	14320
850.815	14488
850.95	14465
851.085	14682
851.22	14541
851.355	14480
851.49	14492
851.625	14461
851.76	14465
851.895	14385
852.03	14347
852.165	14404
852.299	14511
852.434	14568
852.569	14511
852.703	14514
852.838	14503
852.973	14708
853.107	14583
853.242	14560
853.376	14499
853.511	14301
853.645	14301
853.78	14495
853.914	14339
854.048	14290
854.183	14221
854.317	14343
854.451	14446
854.585	14290
854.72	14324
854.854	14381
854.988	14168
855.122	14252
855.256	14180
855.39	14301
855.524	14423
855.658	14484
855.792	14305
855.926	14366
856.06	14457
856.194	14484
856.327	14377
856.461	14290
856.595	14320
856.729	14374
856.862	14454
856.996	14355
857.13	14423
857.263	14492
857.397	14484
857.53	14324
857.664	14317
857.797	14400
857.931	14362
858.064	14358
858.197	14457
858.331	14263
858.464	14351
858.597	14256
858.731	14332
858.864	14343
858.997	14309
859.13	14351
859.263	14298
859.396	14419
859.529	14370
859.662	14328
859.795	14336
859.928	14298
860.061	14503
860.194	14518
860.327	14339
860.46	14339
860.592	14514
860.725	14533
860.858	14427
860.99	14396
861.123	14370
861.256	14233
861.388	14351
861.521	14857
861.653	14225
861.786	14183
861.918	14164
862.05	14294
862.183	14313
862.315	14320
862.447	14305
862.58	14183
862.712	14180
862.844	14012
862.976	14206
863.108	14180
863.24	14480
863.372	13959
863.504	14142
863.636	14145
863.768	14191
863.9	14130
864.032	14096
864.164	14054
864.296	14229
864.428	14233
864.559	14221
864.691	14218
864.823	14233
864.954	14187
865.086	14157
865.217	14100
865.349	14092
865.48	14168
865.612	14111
865.743	14183
865.875	14111
866.006	14092
866.137	14157
866.269	14096
866.4	14077
866.531	14027
866.662	14027
866.793	14092
866.924	13978
867.055	14168
867.186	14111
867.317	14073
867.448	14016
867.579	14111
867.71	14020
867.841	14088
867.972	14149
868.103	14142
868.233	14111
868.364	14126
868.495	14202
868.625	14278
868.756	14381
868.886	14240
869.017	14358
869.147	14476
869.278	14507
869.408	14317
869.539	14377
869.669	14404
869.799	14408
869.929	14495
870.06	14461
870.19	14571
870.32	14606
870.45	14610
870.58	14731
870.71	14853
870.84	14842
870.97	14708
871.1	14720
871.23	14887
871.36	14990
871.489	14868
871.619	14994
871.749	14952
871.879	14921
872.008	15074
872.138	15009
872.267	14933
872.397	14876
872.526	14739
872.656	14693
872.785	14796
872.915	14971
873.044	15066
873.173	14998
873.303	15055
873.432	15116
873.561	15051
873.69	15108
873.819	14944
873.948	15058
874.077	15005
874.206	14979
874.335	15013
874.464	15218
874.593	15363
874.722	15184
874.851	15256
874.979	15378
875.108	15306
875.237	15294
875.365	15237
875.494	15230
875.623	15313
875.751	15310
875.88	15325
876.008	15481
876.136	15549
876.265	15644
876.393	15842
876.521	15770
876.65	15835
876.778	15793
876.906	15804
877.034	15747
877.162	15728
877.29	15713
877.418	15667
877.546	15793
877.674	15724
877.802	15732
877.93	15759
878.058	15564
878.185	15614
878.313	15728
878.441	15682
878.568	15625
878.696	15762
878.824	15705
878.951	15846
879.079	15892
879.206	15994
879.333	15903
879.461	15743
879.588	15842
879.715	15960
879.842	15979
879.97	15785
880.097	15530
880.224	15545
880.351	15595
880.478	15576
880.605	15580
880.732	15530
880.859	15774
880.986	15682
881.112	15667
881.239	15584
881.366	15245
881.493	15272
881.619	15207
881.746	15272
881.872	15268
881.999	15294
882.125	15199
882.252	15302
882.378	15252
882.505	15473
882.631	15108
882.757	15146
882.883	15058
883.01	15074
883.136	14960
883.262	14952
883.388	14845
883.514	14979
883.64	15161
883.766	15051
883.892	14861
884.018	15001
884.143	15097
884.269	14986
884.395	14804
884.52	14682
884.646	14842
884.772	14724
884.897	14708
885.023	14701
885.148	14773
885.274	14994
885.399	14826
885.524	14815
885.65	14777
885.775	14743
885.9	14819
886.025	14834
886.15	14781
886.275	14693
886.4	14651
886.525	14689
886.65	14739
886.775	14712
886.9	14956
887.025	15013
887.149	14727
887.274	14621
887.399	14423
887.523	14537
887.648	14541
887.773	14499
887.897	14655
888.021	14720
888.146	14594
888.27	14678
888.395	14727
888.519	14697
888.643	14663
888.767	14640
888.891	14564
889.015	14484
889.139	14533
889.263	14511
889.387	14568
889.511	14655
889.635	14564
889.759	14404
889.883	14507
890.006	14465
890.13	14503
890.254	14305
890.377	14461
890.501	14282
890.624	14199
890.748	14248
890.871	14221
890.995	14084
891.118	14027
891.241	14176
891.364	14183
891.488	14259
891.611	14244
891.734	14248
891.857	14210
891.98	14180
892.103	14164
892.226	14157
892.349	14130
892.471	14043
892.594	14073
892.717	14218
892.839	14123
892.962	14088
893.085	14149
893.207	14096
893.33	14103
893.452	14107
893.575	14290
893.697	14161
893.819	14286
893.941	14396
894.064	14366
894.186	14138
894.308	14103
894.43	14240
894.552	14362
894.674	14313
894.796	14130
894.918	14164
895.04	14142
895.161	14278
895.283	14275
895.405	14286
895.526	14183
895.648	14199
895.769	14240
895.891	14259
896.012	14431
896.134	14298
896.255	14343
896.376	14256
896.498	14374
896.619	14408
896.74	14309
896.861	14362
896.982	14746
897.103	14849
897.224	14640
897.345	14484
897.466	14419
897.587	14545
897.708	14621
897.828	14587
897.949	14556
898.07	14408
898.19	14412
898.311	14724
898.431	14670
898.552	14655
898.672	14712
898.792	14648
898.913	14743
899.033	14606
899.153	14613
899.273	14473
899.393	14495
899.513	14571
899.633	14507
899.753	14461
899.873	14484
899.993	14579
900.113	14499
900.232	14606
900.352	14514
900.472	14495
900.591	14366
900.711	14511
900.83	14286
900.95	14454
901.069	14454
901.189	14301
901.308	14092
901.427	13978
901.546	13986
901.665	14027
901.784	14058
901.904	13974
902.023	13833
902.141	13662
902.26	13571
902.379	13696
902.498	13529
902.617	13609
902.735	13696
902.854	13681
902.973	13597
903.091	13331
903.21	13266
903.328	13301
903.446	13301
903.565	13213
903.683	13225
903.801	13168
903.919	13213
904.038	13141
904.156	13008
904.274	13088
904.392	12954
904.51	12951
904.627	12951
904.745	13008
904.863	13069
904.981	12817
905.098	12684
905.216	12692
905.334	12753
905.451	12696
905.569	12673
905.686	12806
905.803	12734
905.921	12494
906.038	12646
906.155	12532
906.272	12372
906.389	12532
906.506	12300
906.623	12308
906.74	12308
906.857	12102
906.974	12209
907.091	12308
907.208	12319
907.324	12292
907.441	12239
907.557	12060
907.674	12091
907.79	12026
907.907	12064
908.023	12095
908.139	12125
908.256	11977
908.372	11977
908.488	11950
908.604	11798
908.72	11794
908.836	11775
908.952	11741
909.068	11699
909.184	11870
909.3	11794
909.415	11885
909.531	11767
909.647	11562
909.762	11551
909.878	11566
909.993	11551
910.108	11596
910.224	11577
910.339	11608
910.454	11524
910.57	11315
910.685	11242
910.8	11619
910.915	11581
911.03	11474
911.145	11322
911.259	11288
911.374	11315
911.489	11174
911.604	11140
911.718	11060
911.833	10995
911.947	11018
912.062	10869
912.176	10980
912.291	11048
912.405	10991
912.519	11197
912.633	11193
912.748	11132
912.862	11033
912.976	10877
913.09	10797
913.204	10949
913.318	10885
913.431	11060
913.545	10999
913.659	10984
913.772	10896
913.886	10782
914	10778
914.113	10881
914.226	10866
914.34	10847
914.453	10561
914.566	10824
914.68	10744
914.793	10725
914.906	10615
915.019	10497
915.132	10459
915.245	10535
915.358	10561
915.47	10516
915.583	10630
915.696	10607
915.809	10679
915.921	10675
916.034	10455
916.146	10561
916.259	10470
916.371	10478
916.483	10584
916.595	10474
916.708	10466
916.82	10485
916.932	10470
917.044	10443
917.156	10500
917.268	10394
917.38	10413
917.491	10394
917.603	10363
917.715	10443
917.826	10470
917.938	10379
918.049	10238
918.161	10443
918.272	10535
918.384	10519
918.495	10390
918.606	10318
918.717	10181
918.828	10337
918.939	10291
919.05	10238
919.161	10322
919.272	10101
919.383	10086
919.494	10356
919.604	10519
919.715	10318
919.826	10265
919.936	10291
920.047	10367
920.157	10303
920.267	10550
920.378	10360
920.488	10295
920.598	10470
920.708	10710
920.818	10367
920.928	10485
921.038	10721
921.148	10523
921.258	10337
921.368	10295
921.477	10158
921.587	10181
921.697	10120
921.806	10116
921.916	10067
922.025	9907
922.134	9903
922.244	9842
922.353	9930
922.462	9797
922.571	9660
922.68	9564
922.789	9561
922.898	9648
923.007	9507
923.116	9580
923.224	9591
923.333	9511
923.442	9454
923.55	9443
923.659	9428
923.767	9568
923.876	9393
923.984	9443
924.092	9317
924.201	9408
924.309	9435
924.417	9450
924.525	9424
924.633	9401
924.741	10249
924.849	9218
924.956	9317
925.064	9195
925.172	9218
925.279	9135
925.387	9245
925.494	9184
925.602	9321
925.709	9260
925.816	9077
925.924	9241
926.031	9268
926.138	9237
926.245	9264
926.352	9112
926.459	9203
926.566	9275
926.673	9180
926.779	8998
926.886	9074
926.993	8921
927.099	8838
927.206	8906
927.312	8826
927.419	8971
927.525	8876
927.631	8872
927.737	8769
927.843	8777
927.95	8686
928.056	8712
928.162	8792
928.267	8811
928.373	9386
928.479	8842
928.585	8621
928.69	8773
928.796	8845
928.901	8659
929.007	8571
929.112	8777
929.218	8670
929.323	8648
929.428	8632
929.533	8659
929.638	8549
929.743	8663
929.848	8610
929.953	8594
930.058	8530
930.163	8294
930.267	8385
930.372	8511
930.477	8377
930.581	8617
930.685	8374
930.79	8362
930.894	8423
930.998	8282
931.103	8514
931.207	8115
931.311	8088
931.415	7955
931.519	7780
931.623	7803
