Data from test_V78500241_2934.txt Node
Date: Fri Mar 25 14:54:08 CST 2022
User: usil
Spectrometer: V785-0024
Trigger mode: 0
Integration Time (sec): 4.000000E-1
Scans to average: 1
Nonlinearity correction enabled: false
Boxcar width: 0
Storing dark spectrum: false
XAxis mode: Wavelengths
Number of Pixels in Spectrum: 1024
>>>>>Begin Spectral Data<<<<<
801.071	21964
801.214	22040
801.356	21739
801.499	21713
801.641	21492
801.783	21511
801.926	21561
802.068	21435
802.211	21408
802.353	21310
802.496	20956
802.638	21055
802.78	20944
802.923	20811
803.065	20838
803.208	20708
803.35	20788
803.492	20880
803.635	20933
803.777	20902
803.919	21001
804.061	21104
804.204	20804
804.346	20724
804.488	20674
804.63	20788
804.773	20632
804.915	20796
805.057	20777
805.199	20712
805.341	20746
805.483	20781
805.626	20887
805.768	20587
805.91	20682
806.052	20678
806.194	20629
806.336	20792
806.478	20678
806.62	20598
806.762	20811
806.904	20876
807.046	21081
807.188	21017
807.33	21055
807.472	21043
807.614	21005
807.756	20952
807.898	20743
808.04	20800
808.182	20705
808.324	20781
808.465	20800
808.607	21081
808.749	21070
808.891	21184
809.033	21188
809.174	21112
809.316	21009
809.458	21100
809.6	20986
809.741	21252
809.883	21066
810.025	21222
810.166	21199
810.308	21283
810.45	21169
810.591	21074
810.733	20933
810.875	20811
811.016	20758
811.158	20686
811.299	20826
811.441	20845
811.582	20941
811.724	20830
811.865	20914
812.007	20750
812.148	20811
812.29	20864
812.431	21013
812.573	21222
812.714	21230
812.855	21424
812.997	21401
813.138	21530
813.279	21481
813.421	21310
813.562	21173
813.703	21070
813.845	21036
813.986	20613
814.127	20575
814.268	20526
814.41	20366
814.551	20457
814.692	20511
814.833	20256
814.974	20263
815.115	20480
815.256	20176
815.397	20233
815.539	20142
815.68	20050
815.821	20092
815.962	20100
816.103	20237
816.244	19940
816.385	19928
816.526	19791
816.666	19620
816.807	19601
816.948	19575
817.089	19685
817.23	19510
817.371	19434
817.512	19415
817.653	19514
817.793	19354
817.934	19483
818.075	19639
818.216	19548
818.356	19468
818.497	19422
818.638	19198
818.778	19217
818.919	19152
819.06	19247
819.2	19206
819.341	19373
819.481	19369
819.622	19575
819.762	19871
819.903	19613
820.043	19506
820.184	19430
820.324	19521
820.465	19628
820.605	19407
820.746	19518
820.886	19301
821.026	19438
821.167	19453
821.307	19460
821.447	19400
821.588	19179
821.728	19263
821.868	19050
822.008	18920
822.149	18840
822.289	18996
822.429	18589
822.569	18532
822.709	18563
822.849	18323
822.99	18361
823.13	18319
823.27	18338
823.41	18136
823.55	18079
823.69	18129
823.83	18239
823.97	18007
824.11	18022
824.25	17999
824.389	17920
824.529	18053
824.669	17965
824.809	18068
824.949	18030
825.089	17950
825.228	17912
825.368	17737
825.508	17710
825.648	17672
825.787	17798
825.927	17714
826.067	17672
826.206	17619
826.346	17745
826.485	17779
826.625	17661
826.765	17874
826.904	17798
827.044	17535
827.183	17497
827.323	17318
827.462	17497
827.601	17383
827.741	17425
827.88	17452
828.02	17284
828.159	17391
828.298	17372
828.437	17455
828.577	17372
828.716	17573
828.855	17383
828.994	17231
829.134	17178
829.273	17273
829.412	17136
829.551	17109
829.69	17052
829.829	17189
829.968	17315
830.107	17212
830.246	17258
830.385	17143
830.524	16995
830.663	17064
830.802	16892
830.941	16889
831.08	16717
831.219	16911
831.357	16839
831.496	17010
831.635	16858
831.774	16702
831.913	16698
832.051	16546
832.19	16607
832.329	16588
832.467	16455
832.606	16382
832.744	16466
832.883	16531
833.022	16394
833.16	16459
833.299	16481
833.437	16542
833.576	16546
833.714	16348
833.852	16527
833.991	16535
834.129	16577
834.267	16523
834.406	16504
834.544	16538
834.682	16500
834.821	16550
834.959	16736
835.097	16504
835.235	16447
835.373	16527
835.511	16584
835.65	16436
835.788	16375
835.926	16322
836.064	16363
836.202	16211
836.34	16451
836.478	16497
836.615	16478
836.753	16546
836.891	16527
837.029	16371
837.167	16386
837.305	16314
837.443	16341
837.58	16322
837.718	16280
837.856	16318
837.993	16147
838.131	16394
838.269	16249
838.406	16261
838.544	16078
838.681	15922
838.819	16002
838.956	15831
839.094	15876
839.231	15964
839.369	16013
839.506	16253
839.643	16006
839.781	15865
839.918	15720
840.055	15869
840.193	15751
840.33	15831
840.467	15854
840.604	15873
840.742	16013
840.879	15686
841.016	15739
841.153	15656
841.29	15888
841.427	15884
841.564	15835
841.701	15880
841.838	15789
841.975	15713
842.112	15686
842.249	15618
842.385	15591
842.522	15698
842.659	15523
842.796	15568
842.933	15584
843.069	15507
843.206	15534
843.343	15641
843.479	15599
843.616	15648
843.752	15450
843.889	15393
844.025	15599
844.162	15374
844.298	15466
844.435	15382
844.571	15363
844.708	15435
844.844	15557
844.98	15515
845.117	15492
845.253	15264
845.389	15180
845.525	15272
845.661	15268
845.798	15119
845.934	15169
846.07	15104
846.206	15176
846.342	15325
846.478	15203
846.614	15017
846.75	14944
846.886	14944
847.022	15089
847.158	15005
847.294	14937
847.429	14941
847.565	14944
847.701	15260
847.837	14819
847.972	14705
848.108	14830
848.244	14861
848.379	14613
848.515	14587
848.65	14511
848.786	14568
848.921	14518
849.057	14632
849.192	14610
849.328	14651
849.463	14655
849.598	14530
849.734	14533
849.869	14389
850.004	14362
850.14	14298
850.275	14358
850.41	14328
850.545	14259
850.68	14347
850.815	14282
850.95	14229
851.085	14518
851.22	14419
851.355	14366
851.49	14362
851.625	14210
851.76	14286
851.895	14138
852.03	14309
852.165	14301
852.299	14332
852.434	14336
852.569	14355
852.703	14412
852.838	14480
852.973	14495
853.107	14526
853.242	14332
853.376	14210
853.511	14096
853.645	14256
853.78	14313
853.914	14195
854.048	14191
854.183	14161
854.317	14115
854.451	14446
854.585	14225
854.72	14202
854.854	14290
854.988	14111
855.122	14134
855.256	14096
855.39	14161
855.524	14309
855.658	14256
855.792	14305
855.926	14256
856.06	14324
856.194	14278
856.327	14195
856.461	14176
856.595	14119
856.729	14191
856.862	14347
856.996	14180
857.13	14229
857.263	14290
857.397	14324
857.53	14252
857.664	14267
857.797	14332
857.931	14396
858.064	14191
858.197	14286
858.331	14164
858.464	14107
858.597	14039
858.731	14142
858.864	14240
858.997	14202
859.13	14206
859.263	14256
859.396	14218
859.529	14107
859.662	14073
859.795	14142
859.928	14199
860.061	14259
860.194	14366
860.327	14324
860.46	14199
860.592	14317
860.725	14286
860.858	14282
860.99	14168
861.123	14077
861.256	14153
861.388	14176
861.521	14857
861.653	14016
861.786	14084
861.918	14016
862.05	14103
862.183	14237
862.315	14263
862.447	14195
862.58	14142
862.712	13993
862.844	13909
862.976	14046
863.108	14103
863.24	14282
863.372	13845
863.504	13944
863.636	13928
863.768	14046
863.9	13974
864.032	13928
864.164	13852
864.296	13993
864.428	14050
864.559	14035
864.691	14058
864.823	13982
864.954	13959
865.086	14024
865.217	13875
865.349	13894
865.48	13871
865.612	13967
865.743	14103
865.875	14039
866.006	13970
866.137	13879
866.269	14016
866.4	13921
866.531	13902
866.662	13822
866.793	13963
866.924	14001
867.055	13982
867.186	13986
867.317	13845
867.448	13944
867.579	13868
867.71	13811
867.841	13921
867.972	13936
868.103	13963
868.233	13974
868.364	13970
868.495	14020
868.625	14183
868.756	14206
868.886	14168
869.017	14134
869.147	14343
869.278	14336
869.408	14176
869.539	14301
869.669	14343
869.799	14218
869.929	14358
870.06	14301
870.19	14579
870.32	14381
870.45	14564
870.58	14686
870.71	14655
870.84	14682
870.97	14606
871.1	14693
871.23	14834
871.36	14701
871.489	14724
871.619	14807
871.749	14731
871.879	14868
872.008	14929
872.138	14902
872.267	14735
872.397	14701
872.526	14613
872.656	14686
872.785	14655
872.915	14788
873.044	14906
873.173	14861
873.303	14948
873.432	14880
873.561	14990
873.69	14842
873.819	14872
873.948	14925
874.077	14777
874.206	14819
874.335	14933
874.464	14960
874.593	15108
874.722	15142
874.851	15199
874.979	15180
875.108	15226
875.237	15184
875.365	15123
875.494	15142
875.623	15260
875.751	15058
875.88	15245
876.008	15329
876.136	15431
876.265	15618
876.393	15682
876.521	15671
876.65	15690
876.778	15698
876.906	15580
877.034	15401
877.162	15618
877.29	15542
877.418	15625
877.546	15641
877.674	15523
877.802	15595
877.93	15652
878.058	15538
878.185	15507
878.313	15618
878.441	15500
878.568	15469
878.696	15584
878.824	15625
878.951	15675
879.079	15743
879.206	15915
879.333	15804
879.461	15701
879.588	15679
879.715	15808
879.842	15804
879.97	15599
880.097	15450
880.224	15370
880.351	15420
880.478	15534
880.605	15424
880.732	15507
880.859	15633
880.986	15382
881.112	15542
881.239	15256
881.366	15249
881.493	15093
881.619	15047
881.746	15169
881.872	15119
881.999	15089
882.125	15093
882.252	15233
882.378	15161
882.505	15195
882.631	15112
882.757	14868
882.883	14971
883.01	15020
883.136	14872
883.262	14686
883.388	14758
883.514	14910
883.64	14975
883.766	14853
883.892	14735
884.018	14765
884.143	14967
884.269	14982
884.395	14689
884.52	14610
884.646	14575
884.772	14575
884.897	14594
885.023	14583
885.148	14621
885.274	14811
885.399	14697
885.524	14663
885.65	14594
885.775	14689
885.9	14560
886.025	14686
886.15	14678
886.275	14530
886.4	14499
886.525	14655
886.65	14549
886.775	14545
886.9	14746
887.025	14769
887.149	14564
887.274	14469
887.399	14282
887.523	14476
887.648	14404
887.773	14343
887.897	14412
888.021	14518
888.146	14385
888.27	14606
888.395	14621
888.519	14522
888.643	14564
888.767	14575
888.891	14355
889.015	14309
889.139	14377
889.263	14313
889.387	14442
889.511	14488
889.635	14450
889.759	14218
889.883	14309
890.006	14309
890.13	14374
890.254	14294
890.377	14202
890.501	14172
890.624	14058
890.748	14237
890.871	14062
890.995	13970
891.118	13928
891.241	13947
891.364	14119
891.488	13989
891.611	14081
891.734	14054
891.857	14149
891.98	14073
892.103	14081
892.226	13997
892.349	14031
892.471	13928
892.594	14081
892.717	14142
892.839	14005
892.962	13955
893.085	14069
893.207	14012
893.33	13849
893.452	13947
893.575	14123
893.697	14031
893.819	14157
893.941	14294
894.064	14210
894.186	14035
894.308	13997
894.43	14123
894.552	14278
894.674	14145
894.796	13997
894.918	14081
895.04	14100
895.161	14164
895.283	14119
895.405	14077
895.526	14126
895.648	14134
895.769	14142
895.891	14248
896.012	14248
896.134	14328
896.255	14134
896.376	14183
896.498	14191
896.619	14290
896.74	14248
896.861	14317
896.982	14610
897.103	14712
897.224	14522
897.345	14469
897.466	14415
897.587	14442
897.708	14499
897.828	14533
897.949	14408
898.07	14358
898.19	14465
898.311	14598
898.431	14556
898.552	14613
898.672	14640
898.792	14590
898.913	14651
899.033	14473
899.153	14374
899.273	14358
899.393	14400
899.513	14450
899.633	14469
899.753	14412
899.873	14446
899.993	14446
900.113	14469
900.232	14488
900.352	14389
900.472	14256
900.591	14221
900.711	14252
900.83	14248
900.95	14370
901.069	14423
901.189	14263
901.308	14027
901.427	13940
901.546	13925
901.665	13970
901.784	14001
901.904	13849
902.023	13708
902.141	13636
902.26	13502
902.379	13529
902.498	13472
902.617	13362
902.735	13597
902.854	13514
902.973	13480
903.091	13289
903.21	13320
903.328	13236
903.446	13175
903.565	13133
903.683	13091
903.801	13023
903.919	13038
904.038	13023
904.156	12871
904.274	13019
904.392	12833
904.51	12901
904.627	12833
904.745	12954
904.863	12939
904.981	12753
905.098	12635
905.216	12563
905.334	12593
905.451	12654
905.569	12620
905.686	12551
905.803	12642
905.921	12422
906.038	12502
906.155	12452
906.272	12452
906.389	12338
906.506	12205
906.623	12197
906.74	12194
906.857	12114
906.974	12083
907.091	12266
907.208	12273
907.324	12178
907.441	12095
907.557	11885
907.674	11942
907.79	11802
907.907	11912
908.023	11961
908.139	11874
908.256	11809
908.372	11836
908.488	11817
908.604	11767
908.72	11630
908.836	11726
908.952	11627
909.068	11638
909.184	11836
909.3	11623
909.415	11699
909.531	11703
909.647	11570
909.762	11528
909.878	11334
909.993	11452
910.108	11410
910.224	11448
910.339	11436
910.454	11410
910.57	11277
910.685	11265
910.8	11543
910.915	11501
911.03	11326
911.145	11250
911.259	11189
911.374	11124
911.489	11060
911.604	11010
911.718	10984
911.833	10949
911.947	10858
912.062	10729
912.176	10862
912.291	10927
912.405	10889
912.519	11113
912.633	11121
912.748	10957
912.862	10896
912.976	10790
913.09	10736
913.204	10797
913.318	10816
913.431	10934
913.545	10850
913.659	10820
913.772	10729
913.886	10668
914	10641
914.113	10782
914.226	10805
914.34	10721
914.453	10611
914.566	10714
914.68	10558
914.793	10569
914.906	10386
915.019	10386
915.132	10348
915.245	10341
915.358	10485
915.47	10417
915.583	10436
915.696	10474
915.809	10554
915.921	10561
916.034	10436
916.146	10371
916.259	10329
916.371	10375
916.483	10424
916.595	10390
916.708	10390
916.82	10360
916.932	10356
917.044	10436
917.156	10417
917.268	10265
917.38	10230
917.491	10230
917.603	10322
917.715	10371
917.826	10333
917.938	10246
918.049	10173
918.161	10249
918.272	10451
918.384	10348
918.495	10268
918.606	10116
918.717	10082
918.828	10181
918.939	10219
919.05	10086
919.161	10131
919.272	10013
919.383	9964
919.494	10188
919.604	10398
919.715	10230
919.826	10105
919.936	10078
920.047	10276
920.157	10173
920.267	10398
920.378	10185
920.488	10215
920.598	10398
920.708	10573
920.818	10360
920.928	10322
921.038	10485
921.148	10443
921.258	10211
921.368	10188
921.477	10051
921.587	10032
921.697	9827
921.806	10032
921.916	9918
922.025	9755
922.134	9774
922.244	9641
922.353	9880
922.462	9686
922.571	9591
922.68	9355
922.789	9340
922.898	9424
923.007	9408
923.116	9374
923.224	9496
923.333	9458
923.442	9313
923.55	9279
923.659	9287
923.767	9378
923.876	9397
923.984	9401
924.092	9233
924.201	9344
924.309	9218
924.417	9287
924.525	9279
924.633	9253
924.741	10223
924.849	9097
924.956	9245
925.064	9077
925.172	8933
925.279	9013
925.387	9062
925.494	9047
925.602	9165
925.709	9135
925.816	9001
925.924	9062
926.031	9180
926.138	9100
926.245	9188
926.352	9055
926.459	9165
926.566	9192
926.673	9093
926.779	8918
926.886	8956
926.993	8766
927.099	8891
927.206	8758
927.312	8746
927.419	8838
927.525	8796
927.631	8868
927.737	8777
927.843	8754
927.95	8552
928.056	8606
928.162	8735
928.267	8826
928.373	9351
928.479	8800
928.585	8537
928.69	8640
928.796	8701
928.901	8590
929.007	8412
929.112	8621
929.218	8606
929.323	8492
929.428	8495
929.533	8705
929.638	8495
929.743	8438
929.848	8613
929.953	8454
930.058	8450
930.163	8263
930.267	8301
930.372	8370
930.477	8309
930.581	8457
930.685	8412
930.79	8233
930.894	8309
930.998	8191
931.103	8332
931.207	8050
931.311	7955
931.415	7887
931.519	7742
931.623	7746
