Data from test_V78500241_2126.txt Node
Date: Fri Mar 25 14:48:30 CST 2022
User: usil
Spectrometer: V785-0024
Trigger mode: 0
Integration Time (sec): 4.000000E-1
Scans to average: 1
Nonlinearity correction enabled: false
Boxcar width: 0
Storing dark spectrum: false
XAxis mode: Wavelengths
Number of Pixels in Spectrum: 1024
>>>>>Begin Spectral Data<<<<<
801.071	22257
801.214	22158
801.356	21911
801.499	21614
801.641	21511
801.783	21545
801.926	21591
802.068	21473
802.211	21397
802.353	21184
802.496	21119
802.638	21100
802.78	20990
802.923	21013
803.065	20899
803.208	20849
803.35	20842
803.492	20944
803.635	20979
803.777	20842
803.919	20864
804.061	21154
804.204	21055
804.346	20807
804.488	20720
804.63	20872
804.773	20834
804.915	20785
805.057	20785
805.199	20739
805.341	20823
805.483	20819
805.626	20731
805.768	20765
805.91	20686
806.052	20807
806.194	20670
806.336	20891
806.478	20686
806.62	20746
806.762	20823
806.904	21017
807.046	21195
807.188	21245
807.33	21093
807.472	21089
807.614	21055
807.756	20902
807.898	20910
808.04	20750
808.182	20853
808.324	20880
808.465	20876
808.607	21062
808.749	21249
808.891	21370
809.033	21382
809.174	21176
809.316	21043
809.458	21199
809.6	21089
809.741	21294
809.883	21192
810.025	21291
810.166	21298
810.308	21249
810.45	21161
810.591	21077
810.733	21017
810.875	21043
811.016	20880
811.158	20811
811.299	21009
811.441	20990
811.582	21001
811.724	20921
811.865	20864
812.007	20918
812.148	20910
812.29	20963
812.431	21036
812.573	21214
812.714	21291
812.855	21454
812.997	21610
813.138	21564
813.279	21424
813.421	21374
813.562	21252
813.703	21214
813.845	21123
813.986	20826
814.127	20613
814.268	20473
814.41	20476
814.551	20545
814.692	20678
814.833	20393
814.974	20332
815.115	20427
815.256	20256
815.397	20377
815.539	20377
815.68	20187
815.821	20119
815.962	20229
816.103	20142
816.244	20001
816.385	19894
816.526	19963
816.666	19788
816.807	19639
816.948	19776
817.089	19784
817.23	19727
817.371	19643
817.512	19510
817.653	19510
817.793	19491
817.934	19620
818.075	19544
818.216	19556
818.356	19609
818.497	19411
818.638	19225
818.778	19255
818.919	19324
819.06	19327
819.2	19453
819.341	19559
819.481	19472
819.622	19632
819.762	19750
819.903	19700
820.043	19601
820.184	19578
820.324	19651
820.465	19723
820.605	19632
820.746	19521
820.886	19578
821.026	19548
821.167	19518
821.307	19616
821.447	19438
821.588	19346
821.728	19209
821.868	19137
822.008	18996
822.149	18897
822.289	18989
822.429	18688
822.569	18601
822.709	18597
822.849	18490
822.99	18494
823.13	18437
823.27	18357
823.41	18273
823.55	18205
823.69	18289
823.83	18334
823.97	18136
824.11	18140
824.25	18083
824.389	18114
824.529	18098
824.669	18064
824.809	18095
824.949	18015
825.089	18015
825.228	18087
825.368	17977
825.508	17843
825.648	17798
825.787	17836
825.927	17939
826.067	17668
826.206	17790
826.346	17901
826.485	17923
826.625	17893
826.765	17969
826.904	17885
827.044	17630
827.183	17665
827.323	17425
827.462	17672
827.601	17543
827.741	17520
827.88	17547
828.02	17444
828.159	17425
828.298	17570
828.437	17585
828.577	17509
828.716	17638
828.855	17444
828.994	17220
829.134	17280
829.273	17341
829.412	17254
829.551	17269
829.69	17318
829.829	17288
829.968	17345
830.107	17353
830.246	17284
830.385	17227
830.524	17102
830.663	17003
830.802	16968
830.941	16847
831.08	16801
831.219	16930
831.357	16976
831.496	17022
831.635	16839
831.774	16915
831.913	16847
832.051	16691
832.19	16626
832.329	16733
832.467	16618
832.606	16538
832.744	16592
832.883	16588
833.022	16656
833.16	16523
833.299	16694
833.437	16626
833.576	16603
833.714	16516
833.852	16626
833.991	16687
834.129	16710
834.267	16710
834.406	16679
834.544	16767
834.682	16618
834.821	16622
834.959	16816
835.097	16611
835.235	16675
835.373	16580
835.511	16698
835.65	16577
835.788	16497
835.926	16306
836.064	16447
836.202	16322
836.34	16569
836.478	16630
836.615	16478
836.753	16573
836.891	16588
837.029	16558
837.167	16516
837.305	16413
837.443	16451
837.58	16318
837.718	16481
837.856	16432
837.993	16337
838.131	16432
838.269	16318
838.406	16356
838.544	16257
838.681	16120
838.819	15956
838.956	16071
839.094	15941
839.231	16059
839.369	16215
839.506	16238
839.643	16188
839.781	15930
839.918	15983
840.055	15937
840.193	15888
840.33	15934
840.467	15941
840.604	15994
840.742	16341
840.879	15911
841.016	15960
841.153	15755
841.29	16048
841.427	15907
841.564	15972
841.701	15991
841.838	15835
841.975	15888
842.112	15835
842.249	15644
842.385	15637
842.522	15922
842.659	15800
842.796	15739
842.933	15701
843.069	15686
843.206	15751
843.343	15808
843.479	15838
843.616	15755
843.752	15530
843.889	15428
844.025	15667
844.162	15462
844.298	15561
844.435	15458
844.571	15370
844.708	15572
844.844	15762
844.98	15732
845.117	15656
845.253	15519
845.389	15283
845.525	15469
845.661	15416
845.798	15370
845.934	15416
846.07	15344
846.206	15363
846.342	15443
846.478	15321
846.614	15123
846.75	14998
846.886	15032
847.022	15211
847.158	15142
847.294	15104
847.429	15127
847.565	15195
847.701	15298
847.837	14887
847.972	14705
848.108	14914
848.244	14868
848.379	14823
848.515	14678
848.65	14727
848.786	14667
848.921	14724
849.057	14864
849.192	14769
849.328	14765
849.463	14705
849.598	14689
849.734	14495
849.869	14549
850.004	14442
850.14	14503
850.275	14355
850.41	14461
850.545	14442
850.68	14408
850.815	14431
850.95	14419
851.085	14587
851.22	14541
851.355	14495
851.49	14438
851.625	14362
851.76	14446
851.895	14457
852.03	14244
852.165	14457
852.299	14473
852.434	14492
852.569	14473
852.703	14431
852.838	14511
852.973	14670
853.107	14514
853.242	14412
853.376	14362
853.511	14195
853.645	14351
853.78	14461
853.914	14347
854.048	14210
854.183	14210
854.317	14218
854.451	14457
854.585	14320
854.72	14282
854.854	14396
854.988	14240
855.122	14256
855.256	14073
855.39	14259
855.524	14431
855.658	14393
855.792	14450
855.926	14442
856.06	14427
856.194	14339
856.327	14309
856.461	14324
856.595	14336
856.729	14317
856.862	14507
856.996	14434
857.13	14355
857.263	14377
857.397	14457
857.53	14366
857.664	14320
857.797	14396
857.931	14412
858.064	14298
858.197	14450
858.331	14358
858.464	14339
858.597	14271
858.731	14282
858.864	14183
858.997	14290
859.13	14267
859.263	14351
859.396	14427
859.529	14252
859.662	14195
859.795	14298
859.928	14324
860.061	14530
860.194	14499
860.327	14393
860.46	14370
860.592	14412
860.725	14522
860.858	14488
860.99	14351
861.123	14187
861.256	14221
861.388	14339
861.521	15127
861.653	14271
861.786	14134
861.918	14142
862.05	14271
862.183	14309
862.315	14320
862.447	14347
862.58	14377
862.712	14107
862.844	14027
862.976	14195
863.108	14172
863.24	14351
863.372	14092
863.504	14039
863.636	14069
863.768	14187
863.9	14145
864.032	14092
864.164	14073
864.296	14065
864.428	14290
864.559	14123
864.691	14100
864.823	14275
864.954	14092
865.086	14077
865.217	14134
865.349	14065
865.48	14050
865.612	14054
865.743	14111
865.875	14187
866.006	14024
866.137	14035
866.269	14183
866.4	14069
866.531	14046
866.662	14012
866.793	14043
866.924	14035
867.055	14024
867.186	14027
867.317	14024
867.448	13974
867.579	13993
867.71	14001
867.841	14012
867.972	14046
868.103	14088
868.233	14119
868.364	14157
868.495	14115
868.625	14301
868.756	14480
868.886	14282
869.017	14278
869.147	14488
869.278	14396
869.408	14278
869.539	14313
869.669	14454
869.799	14343
869.929	14427
870.06	14461
870.19	14739
870.32	14579
870.45	14617
870.58	14750
870.71	14857
870.84	14891
870.97	14686
871.1	14743
871.23	14963
871.36	14971
871.489	14823
871.619	14948
871.749	14952
871.879	14944
872.008	14933
872.138	14967
872.267	14925
872.397	14807
872.526	14716
872.656	14769
872.785	14796
872.915	14963
873.044	15051
873.173	14994
873.303	14891
873.432	14960
873.561	15009
873.69	14998
873.819	14925
873.948	15131
874.077	15020
874.206	14948
874.335	15020
874.464	15070
874.593	15249
874.722	15188
874.851	15393
874.979	15329
875.108	15363
875.237	15332
875.365	15199
875.494	15199
875.623	15310
875.751	15237
875.88	15325
876.008	15447
876.136	15641
876.265	15701
876.393	15819
876.521	15770
876.65	15899
876.778	15701
876.906	15701
877.034	15648
877.162	15679
877.29	15485
877.418	15747
877.546	15709
877.674	15682
877.802	15694
877.93	15755
878.058	15671
878.185	15644
878.313	15641
878.441	15739
878.568	15538
878.696	15682
878.824	15705
878.951	15861
879.079	15876
879.206	15987
879.333	15964
879.461	15774
879.588	15888
879.715	15941
879.842	15949
879.97	15743
880.097	15614
880.224	15561
880.351	15431
880.478	15576
880.605	15557
880.732	15481
880.859	15766
880.986	15534
881.112	15526
881.239	15492
881.366	15302
881.493	15237
881.619	15097
881.746	15138
881.872	15161
881.999	15146
882.125	15097
882.252	15321
882.378	15302
882.505	15279
882.631	15188
882.757	15051
882.883	15180
883.01	15093
883.136	14887
883.262	14868
883.388	14895
883.514	15036
883.64	15119
883.766	14902
883.892	14872
884.018	14857
884.143	15058
884.269	15093
884.395	14849
884.52	14697
884.646	14746
884.772	14667
884.897	14651
885.023	14693
885.148	14815
885.274	14895
885.399	14807
885.524	14762
885.65	14682
885.775	14720
885.9	14804
886.025	14883
886.15	14811
886.275	14731
886.4	14731
886.525	14716
886.65	14617
886.775	14644
886.9	14815
887.025	14941
887.149	14762
887.274	14602
887.399	14530
887.523	14518
887.648	14499
887.773	14518
887.897	14758
888.021	14613
888.146	14495
888.27	14708
888.395	14678
888.519	14530
888.643	14575
888.767	14583
888.891	14545
889.015	14415
889.139	14457
889.263	14408
889.387	14564
889.511	14674
889.635	14579
889.759	14438
889.883	14396
890.006	14347
890.13	14537
890.254	14492
890.377	14415
890.501	14172
890.624	14214
890.748	14244
890.871	14145
890.995	14164
891.118	14077
891.241	14153
891.364	14142
891.488	14126
891.611	14130
891.734	14115
891.857	14180
891.98	14229
892.103	14210
892.226	14237
892.349	14039
892.471	13955
892.594	14096
892.717	14168
892.839	14096
892.962	14142
893.085	14149
893.207	14111
893.33	13978
893.452	14065
893.575	14195
893.697	14092
893.819	14286
893.941	14339
894.064	14313
894.186	14100
894.308	14016
894.43	14233
894.552	14305
894.674	14286
894.796	14043
894.918	14278
895.04	14145
895.161	14282
895.283	14366
895.405	14206
895.526	14237
895.648	14256
895.769	14336
895.891	14267
896.012	14317
896.134	14362
896.255	14332
896.376	14259
896.498	14252
896.619	14393
896.74	14286
896.861	14343
896.982	14602
897.103	14777
897.224	14587
897.345	14541
897.466	14514
897.587	14499
897.708	14777
897.828	14594
897.949	14469
898.07	14457
898.19	14408
898.311	14693
898.431	14564
898.552	14629
898.672	14705
898.792	14739
898.913	14632
899.033	14469
899.153	14522
899.273	14454
899.393	14450
899.513	14556
899.633	14621
899.753	14613
899.873	14370
899.993	14583
900.113	14454
900.232	14461
900.352	14511
900.472	14393
900.591	14290
900.711	14404
900.83	14343
900.95	14450
901.069	14434
901.189	14282
901.308	14176
901.427	14001
901.546	14088
901.665	14024
901.784	14054
901.904	13906
902.023	13913
902.141	13757
902.26	13620
902.379	13712
902.498	13548
902.617	13525
902.735	13662
902.854	13594
902.973	13525
903.091	13346
903.21	13316
903.328	13403
903.446	13232
903.565	13133
903.683	13213
903.801	13126
903.919	13221
904.038	13171
904.156	13053
904.274	13069
904.392	12897
904.51	12939
904.627	12943
904.745	13015
904.863	12966
904.981	12802
905.098	12700
905.216	12719
905.334	12662
905.451	12673
905.569	12711
905.686	12722
905.803	12677
905.921	12490
906.038	12570
906.155	12536
906.272	12330
906.389	12426
906.506	12372
906.623	12247
906.74	12308
906.857	12201
906.974	12224
907.091	12403
907.208	12456
907.324	12239
907.441	12171
907.557	12095
907.674	12072
907.79	11958
907.907	11973
908.023	12015
908.139	12030
908.256	11961
908.372	11912
908.488	11958
908.604	11813
908.72	11752
908.836	11779
908.952	11695
909.068	11832
909.184	11912
909.3	11813
909.415	11817
909.531	11783
909.647	11554
909.762	11592
909.878	11501
909.993	11558
910.108	11402
910.224	11528
910.339	11558
910.454	11478
910.57	11391
910.685	11368
910.8	11573
910.915	11570
911.03	11433
911.145	11326
911.259	11246
911.374	11235
911.489	11170
911.604	11185
911.718	10980
911.833	11006
911.947	10877
912.062	10839
912.176	11045
912.291	10953
912.405	11052
912.519	11204
912.633	11216
912.748	11060
912.862	10953
912.976	10972
913.09	10748
913.204	10790
913.318	10809
913.431	10976
913.545	11014
913.659	10930
913.772	10820
913.886	10786
914	10774
914.113	10896
914.226	10927
914.34	10873
914.453	10641
914.566	10915
914.68	10752
914.793	10752
914.906	10588
915.019	10447
915.132	10352
915.245	10519
915.358	10542
915.47	10516
915.583	10641
915.696	10550
915.809	10622
915.921	10714
916.034	10470
916.146	10440
916.259	10466
916.371	10558
916.483	10455
916.595	10428
916.708	10447
916.82	10375
916.932	10428
917.044	10470
917.156	10367
917.268	10314
917.38	10341
917.491	10318
917.603	10371
917.715	10409
917.826	10413
917.938	10356
918.049	10230
918.161	10348
918.272	10516
918.384	10462
918.495	10413
918.606	10211
918.717	10162
918.828	10211
918.939	10246
919.05	10154
919.161	10185
919.272	9991
919.383	10013
919.494	10265
919.604	10462
919.715	10284
919.826	10227
919.936	10181
920.047	10337
920.157	10265
920.267	10455
920.378	10356
920.488	10196
920.598	10451
920.708	10622
920.818	10481
920.928	10478
921.038	10626
921.148	10584
921.258	10318
921.368	10204
921.477	10135
921.587	10109
921.697	9983
921.806	10074
921.916	9945
922.025	9835
922.134	9781
922.244	9701
922.353	9793
922.462	9675
922.571	9622
922.68	9511
922.789	9428
922.898	9538
923.007	9469
923.116	9523
923.224	9534
923.333	9534
923.442	9294
923.55	9325
923.659	9386
923.767	9332
923.876	9336
923.984	9454
924.092	9355
924.201	9367
924.309	9332
924.417	9397
924.525	9294
924.633	9378
924.741	10173
924.849	9135
924.956	9291
925.064	9127
925.172	9032
925.279	9089
925.387	9176
925.494	9112
925.602	9222
925.709	9195
925.816	9036
925.924	9131
926.031	9161
926.138	9176
926.245	9245
926.352	9036
926.459	9211
926.566	9222
926.673	9119
926.779	9043
926.886	8998
926.993	8876
927.099	8807
927.206	8800
927.312	8796
927.419	8868
927.525	8921
927.631	8921
927.737	8735
927.843	8788
927.95	8640
928.056	8689
928.162	8769
928.267	8804
928.373	9336
928.479	8864
928.585	8674
928.69	8754
928.796	8739
928.901	8667
929.007	8568
929.112	8655
929.218	8678
929.323	8621
929.428	8541
929.533	8667
929.638	8454
929.743	8564
929.848	8625
929.953	8541
930.058	8511
930.163	8370
930.267	8336
930.372	8545
930.477	8271
930.581	8549
930.685	8427
930.79	8298
930.894	8320
930.998	8282
931.103	8431
931.207	8012
931.311	7997
931.415	8035
931.519	7788
931.623	7746
