Data from test_V78500241_476.txt Node
Date: Fri Mar 25 14:37:02 CST 2022
User: usil
Spectrometer: V785-0024
Trigger mode: 0
Integration Time (sec): 4.000000E-1
Scans to average: 1
Nonlinearity correction enabled: false
Boxcar width: 0
Storing dark spectrum: false
XAxis mode: Wavelengths
Number of Pixels in Spectrum: 1024
>>>>>Begin Spectral Data<<<<<
801.071	26571
801.214	26434
801.356	26210
801.499	26039
801.641	26092
801.783	25898
801.926	25917
802.068	25928
802.211	25944
802.353	25753
802.496	25582
802.638	25567
802.78	25613
802.923	25384
803.065	25445
803.208	25350
803.35	25434
803.492	25537
803.635	25575
803.777	25514
803.919	25552
804.061	25738
804.204	25537
804.346	25460
804.488	25407
804.63	25350
804.773	25324
804.915	25548
805.057	25396
805.199	25365
805.341	25464
805.483	25495
805.626	25704
805.768	25453
805.91	25556
806.052	25571
806.194	25285
806.336	25590
806.478	25445
806.62	25396
806.762	25362
806.904	25613
807.046	25963
807.188	25928
807.33	25814
807.472	25993
807.614	25795
807.756	25731
807.898	25708
808.04	25769
808.182	25632
808.324	25586
808.465	25712
808.607	25856
808.749	25989
808.891	26020
809.033	26206
809.174	26054
809.316	25955
809.458	25959
809.6	25959
809.741	26027
809.883	26115
810.025	26282
810.166	26168
810.308	26164
810.45	26069
810.591	26027
810.733	25947
810.875	25875
811.016	25761
811.158	25586
811.299	25811
811.441	25898
811.582	26020
811.724	25811
811.865	25662
812.007	25788
812.148	25780
812.29	25677
812.431	25917
812.573	26058
812.714	26161
812.855	26210
812.997	26461
813.138	26541
813.279	26408
813.421	26427
813.562	26294
813.703	26103
813.845	26027
813.986	25635
814.127	25468
814.268	25460
814.41	25331
814.551	25228
814.692	25533
814.833	25354
814.974	25285
815.115	25411
815.256	25114
815.397	25171
815.539	25107
815.68	25084
815.821	24916
815.962	25053
816.103	25148
816.244	24734
816.385	24806
816.526	24711
816.666	24745
816.807	24467
816.948	24616
817.089	24684
817.23	24658
817.371	24540
817.512	24479
817.653	24456
817.793	24346
817.934	24460
818.075	24502
818.216	24327
818.356	24445
818.497	24323
818.638	24239
818.778	24220
818.919	24262
819.06	24254
819.2	24311
819.341	24369
819.481	24467
819.622	24445
819.762	24696
819.903	24528
820.043	24544
820.184	24528
820.324	24369
820.465	24483
820.605	24441
820.746	24460
820.886	24277
821.026	24464
821.167	24330
821.307	24505
821.447	24346
821.588	24285
821.728	24155
821.868	23942
822.008	23855
822.149	23668
822.289	23729
822.429	23634
822.569	23425
822.709	23383
822.849	23189
822.99	23322
823.13	23200
823.27	23200
823.41	23025
823.55	22995
823.69	23033
823.83	22980
823.97	23003
824.11	22812
824.25	22866
824.389	22881
824.529	22881
824.669	22733
824.809	22866
824.949	22854
825.089	22771
825.228	22782
825.368	22603
825.508	22565
825.648	22615
825.787	22611
825.927	22694
826.067	22550
826.206	22656
826.346	22588
826.485	22538
826.625	22557
826.765	22626
826.904	22611
827.044	22405
827.183	22246
827.323	22238
827.462	22276
827.601	22291
827.741	22242
827.88	22363
828.02	22246
828.159	22303
828.298	22337
828.437	22291
828.577	22280
828.716	22265
828.855	22181
828.994	21911
829.134	22048
829.273	22002
829.412	22025
829.551	21888
829.69	21987
829.829	21983
829.968	22044
830.107	21979
830.246	21888
830.385	21941
830.524	21861
830.663	21770
830.802	21641
830.941	21545
831.08	21576
831.219	21686
831.357	21599
831.496	21827
831.635	21515
831.774	21378
831.913	21321
832.051	21332
832.19	21313
832.329	21374
832.467	21237
832.606	21165
832.744	21218
832.883	21233
833.022	21142
833.16	21211
833.299	21214
833.437	21230
833.576	21291
833.714	21237
833.852	21302
833.991	21226
834.129	21367
834.267	21211
834.406	21298
834.544	21146
834.682	21272
834.821	21108
834.959	21272
835.097	21112
835.235	21127
835.373	21332
835.511	21131
835.65	21013
835.788	21081
835.926	20967
836.064	20891
836.202	20941
836.34	21096
836.478	21074
836.615	20952
836.753	21013
836.891	21192
837.029	21009
837.167	21047
837.305	21055
837.443	20948
837.58	20891
837.718	20948
837.856	20944
837.993	20864
838.131	20849
838.269	20800
838.406	20845
838.544	20788
838.681	20667
838.819	20522
838.956	20461
839.094	20461
839.231	20427
839.369	20507
839.506	20769
839.643	20602
839.781	20393
839.918	20339
840.055	20374
840.193	20336
840.33	20275
840.467	20408
840.604	20271
840.742	20606
840.879	20256
841.016	20157
841.153	20324
841.29	20385
841.427	20225
841.564	20358
841.701	20229
841.838	20244
841.975	20138
842.112	20202
842.249	20012
842.385	19894
842.522	20210
842.659	20024
842.796	20024
842.933	19967
843.069	19944
843.206	19944
843.343	20058
843.479	20050
843.616	19978
843.752	19776
843.889	19719
844.025	19883
844.162	19704
844.298	19845
844.435	19681
844.571	19643
844.708	19769
844.844	20005
844.98	19902
845.117	19906
845.253	19746
845.389	19670
845.525	19784
845.661	19658
845.798	19601
845.934	19548
846.07	19544
846.206	19639
846.342	19772
846.478	19556
846.614	19369
846.75	19133
846.886	19179
847.022	19373
847.158	19240
847.294	19187
847.429	19282
847.565	19145
847.701	19369
847.837	18878
847.972	19008
848.108	19110
848.244	19000
848.379	18817
848.515	18806
848.65	18760
848.786	18829
848.921	18802
849.057	18875
849.192	18856
849.328	18779
849.463	18829
849.598	18791
849.734	18715
849.869	18616
850.004	18555
850.14	18494
850.275	18574
850.41	18426
850.545	18467
850.68	18467
850.815	18490
850.95	18570
851.085	18696
851.22	18650
851.355	18570
851.49	18498
851.625	18467
851.76	18418
851.895	18498
852.03	18365
852.165	18395
852.299	18612
852.434	18616
852.569	18346
852.703	18563
852.838	18578
852.973	18639
853.107	18711
853.242	18475
853.376	18506
853.511	18224
853.645	18292
853.78	18410
853.914	18399
854.048	18258
854.183	18273
854.317	18319
854.451	18475
854.585	18213
854.72	18228
854.854	18399
854.988	18232
855.122	18270
855.256	18216
855.39	18330
855.524	18407
855.658	18445
855.792	18426
855.926	18407
856.06	18338
856.194	18502
856.327	18429
856.461	18323
856.595	18319
856.729	18346
856.862	18334
856.996	18330
857.13	18414
857.263	18525
857.397	18426
857.53	18361
857.664	18262
857.797	18460
857.931	18437
858.064	18372
858.197	18437
858.331	18277
858.464	18205
858.597	18148
858.731	18372
858.864	18342
858.997	18266
859.13	18258
859.263	18399
859.396	18323
859.529	18323
859.662	18258
859.795	18171
859.928	18327
860.061	18418
860.194	18437
860.327	18277
860.46	18273
860.592	18410
860.725	18384
860.858	18308
860.99	18319
861.123	18201
861.256	18197
861.388	18266
861.521	19019
861.653	18129
861.786	18072
861.918	18045
862.05	18270
862.183	18338
862.315	18350
862.447	18319
862.58	18239
862.712	17988
862.844	18022
862.976	18174
863.108	18106
863.24	18388
863.372	17847
863.504	18053
863.636	17984
863.768	18102
863.9	18049
864.032	17927
864.164	17908
864.296	17904
864.428	18060
864.559	18049
864.691	18121
864.823	18125
864.954	18007
865.086	18011
865.217	17935
865.349	17866
865.48	18038
865.612	18060
865.743	18076
865.875	17950
866.006	17851
866.137	17912
866.269	17946
866.4	17904
866.531	17999
866.662	17805
866.793	17863
866.924	17893
867.055	17927
867.186	17882
867.317	17790
867.448	17752
867.579	17878
867.71	17729
867.841	17775
867.972	17901
868.103	17950
868.233	17870
868.364	17897
868.495	17885
868.625	18098
868.756	18281
868.886	18045
869.017	17980
869.147	18213
869.278	18114
869.408	18133
869.539	18136
869.669	18178
869.799	18133
869.929	18152
870.06	18190
870.19	18300
870.32	18460
870.45	18445
870.58	18555
870.71	18601
870.84	18635
870.97	18467
871.1	18498
871.23	18612
871.36	18719
871.489	18650
871.619	18734
871.749	18574
871.879	18696
872.008	18749
872.138	18703
872.267	18684
872.397	18654
872.526	18597
872.656	18467
872.785	18559
872.915	18772
873.044	18787
873.173	18711
873.303	18707
873.432	18779
873.561	18920
873.69	18840
873.819	18681
873.948	18779
874.077	18711
874.206	18715
874.335	18760
874.464	18867
874.593	18985
874.722	18916
874.851	19129
874.979	18996
875.108	19088
875.237	18920
875.365	18901
875.494	18886
875.623	19114
875.751	18924
875.88	19015
876.008	19175
876.136	19221
876.265	19441
876.393	19563
876.521	19396
876.65	19616
876.778	19491
876.906	19327
877.034	19388
877.162	19343
877.29	19343
877.418	19350
877.546	19529
877.674	19327
877.802	19285
877.93	19430
878.058	19263
878.185	19312
878.313	19354
878.441	19438
878.568	19244
878.696	19327
878.824	19415
878.951	19415
879.079	19624
879.206	19674
879.333	19597
879.461	19495
879.588	19590
879.715	19597
879.842	19761
879.97	19575
880.097	19400
880.224	19297
880.351	19430
880.478	19270
880.605	19198
880.732	19240
880.859	19495
880.986	19244
881.112	19430
881.239	19027
881.366	18947
881.493	18867
881.619	18890
881.746	18890
881.872	18913
881.999	18837
882.125	18821
882.252	18909
882.378	18962
882.505	19148
882.631	18776
882.757	18677
882.883	18703
883.01	18631
883.136	18616
883.262	18509
883.388	18566
883.514	18604
883.64	18722
883.766	18646
883.892	18361
884.018	18418
884.143	18559
884.269	18620
884.395	18342
884.52	18361
884.646	18346
884.772	18232
884.897	18247
885.023	18319
885.148	18467
885.274	18464
885.399	18376
885.524	18414
885.65	18369
885.775	18441
885.9	18178
886.025	18323
886.15	18289
886.275	18311
886.4	18133
886.525	18224
886.65	18186
886.775	18171
886.9	18391
887.025	18460
887.149	18289
887.274	18117
887.399	18159
887.523	18072
887.648	18007
887.773	17931
887.897	18034
888.021	17996
888.146	17931
888.27	18114
888.395	18194
888.519	18273
888.643	18060
888.767	18136
888.891	18026
889.015	17973
889.139	17893
889.263	17885
889.387	17946
889.511	17992
889.635	18019
889.759	17889
889.883	17786
890.006	17764
890.13	17954
890.254	17748
890.377	17805
890.501	17691
890.624	17714
890.748	17627
890.871	17539
890.995	17478
891.118	17387
891.241	17592
891.364	17433
891.488	17611
891.611	17566
891.734	17463
891.857	17551
891.98	17543
892.103	17581
892.226	17493
892.349	17512
892.471	17334
892.594	17490
892.717	17589
892.839	17406
892.962	17554
893.085	17547
893.207	17410
893.33	17356
893.452	17337
893.575	17528
893.697	17353
893.819	17604
893.941	17722
894.064	17608
894.186	17364
894.308	17452
894.43	17459
894.552	17570
894.674	17497
894.796	17349
894.918	17364
895.04	17379
895.161	17562
895.283	17596
895.405	17448
895.526	17493
895.648	17448
895.769	17463
895.891	17524
896.012	17615
896.134	17596
896.255	17585
896.376	17524
896.498	17532
896.619	17699
896.74	17585
896.861	17619
896.982	17965
897.103	18007
897.224	17893
897.345	17722
897.466	17661
897.587	17684
897.708	17805
897.828	17748
897.949	17790
898.07	17642
898.19	17767
898.311	17813
898.431	17764
898.552	17824
898.672	17817
898.792	17805
898.913	17672
899.033	17771
899.153	17687
899.273	17490
899.393	17528
899.513	17619
899.633	17581
899.753	17524
899.873	17486
899.993	17653
900.113	17482
900.232	17524
900.352	17471
900.472	17433
900.591	17280
900.711	17429
900.83	17353
900.95	17406
901.069	17573
901.189	17239
901.308	17075
901.427	16915
901.546	17086
901.665	17041
901.784	17094
901.904	16790
902.023	16877
902.141	16641
902.26	16565
902.379	16542
902.498	16462
902.617	16546
902.735	16565
902.854	16538
902.973	16443
903.091	16265
903.21	16249
903.328	16173
903.446	16147
903.565	16147
903.683	16010
903.801	15899
903.919	15964
904.038	15945
904.156	15800
904.274	15895
904.392	15743
904.51	15713
904.627	15812
904.745	15903
904.863	15884
904.981	15667
905.098	15553
905.216	15542
905.334	15530
905.451	15481
905.569	15481
905.686	15507
905.803	15511
905.921	15389
906.038	15412
906.155	15287
906.272	15176
906.389	15245
906.506	15058
906.623	15009
906.74	15005
906.857	14967
906.974	14914
907.091	15085
907.208	15154
907.324	15047
907.441	15005
907.557	14697
907.674	14720
907.79	14815
907.907	14750
908.023	14735
908.139	14743
908.256	14682
908.372	14746
908.488	14655
908.604	14579
908.72	14404
908.836	14434
908.952	14427
909.068	14457
909.184	14495
909.3	14469
909.415	14454
909.531	14366
909.647	14183
909.762	14248
909.878	14062
909.993	14248
910.108	14100
910.224	14157
910.339	14164
910.454	14050
910.57	14142
910.685	13963
910.8	14263
910.915	14161
911.03	14008
911.145	13833
911.259	13734
911.374	13788
911.489	13799
911.604	13624
911.718	13567
911.833	13529
911.947	13514
912.062	13381
912.176	13506
912.291	13613
912.405	13537
912.519	13788
912.633	13681
912.748	13567
912.862	13487
912.976	13411
913.09	13312
913.204	13308
913.318	13426
913.431	13472
913.545	13453
913.659	13491
913.772	13396
913.886	13274
914	13217
914.113	13346
914.226	13403
914.34	13301
914.453	13179
914.566	13168
914.68	13122
914.793	13099
914.906	12909
915.019	12859
915.132	12875
915.245	12863
915.358	12993
915.47	12924
915.583	12882
915.696	13038
915.809	13012
915.921	13080
916.034	12943
916.146	12890
916.259	12920
916.371	12894
916.483	12890
916.595	12711
916.708	12760
916.82	12749
916.932	12764
917.044	12741
917.156	12745
917.268	12631
917.38	12696
917.491	12597
917.603	12604
917.715	12726
917.826	12730
917.938	12555
918.049	12536
918.161	12589
918.272	12726
918.384	12696
918.495	12612
918.606	12506
918.717	12361
918.828	12418
918.939	12464
919.05	12369
919.161	12308
919.272	12220
919.383	12292
919.494	12445
919.604	12654
919.715	12448
919.826	12346
919.936	12422
920.047	12441
920.157	12361
920.267	12608
920.378	12445
920.488	12338
920.598	12688
920.708	12707
920.818	12525
920.928	12486
921.038	12662
921.148	12639
921.258	12388
921.368	12235
921.477	12216
921.587	12224
921.697	12110
921.806	12220
921.916	12072
922.025	11828
922.134	11840
922.244	11771
922.353	11885
922.462	11764
922.571	11665
922.68	11619
922.789	11551
922.898	11535
923.007	11547
923.116	11592
923.224	11455
923.333	11505
923.442	11440
923.55	11345
923.659	11429
923.767	11368
923.876	11322
923.984	11486
924.092	11337
924.201	11353
924.309	11261
924.417	11296
924.525	11273
924.633	11322
924.741	12205
924.849	11094
924.956	11284
925.064	11124
925.172	10946
925.279	11033
925.387	10987
925.494	11033
925.602	11185
925.709	11170
925.816	10953
925.924	11071
926.031	11181
926.138	11048
926.245	11132
926.352	11056
926.459	10999
926.566	11136
926.673	10968
926.779	10866
926.886	10850
926.993	10812
927.099	10645
927.206	10755
927.312	10672
927.419	10744
927.525	10668
927.631	10687
927.737	10649
927.843	10596
927.95	10398
928.056	10535
928.162	10626
928.267	10580
928.373	11170
928.479	10618
928.585	10318
928.69	10447
928.796	10523
928.901	10550
929.007	10356
929.112	10428
929.218	10436
929.323	10371
929.428	10329
929.533	10413
929.638	10196
929.743	10333
929.848	10303
929.953	10219
930.058	10181
930.163	10013
930.267	10010
930.372	10131
930.477	9987
930.581	10268
930.685	10090
930.79	9926
930.894	9998
930.998	9899
931.103	10040
931.207	9720
931.311	9671
931.415	9523
931.519	9351
931.623	9401
