Data from test_V78500241_1604.txt Node
Date: Fri Mar 25 14:44:52 CST 2022
User: usil
Spectrometer: V785-0024
Trigger mode: 0
Integration Time (sec): 4.000000E-1
Scans to average: 1
Nonlinearity correction enabled: false
Boxcar width: 0
Storing dark spectrum: false
XAxis mode: Wavelengths
Number of Pixels in Spectrum: 1024
>>>>>Begin Spectral Data<<<<<
801.071	22238
801.214	22272
801.356	22048
801.499	21899
801.641	21774
801.783	21599
801.926	21739
802.068	21606
802.211	21694
802.353	21389
802.496	21252
802.638	21222
802.78	21199
802.923	21116
803.065	21089
803.208	20963
803.35	21047
803.492	21203
803.635	21135
803.777	21051
803.919	21138
804.061	21401
804.204	21161
804.346	20960
804.488	20937
804.63	20937
804.773	20933
804.915	20952
805.057	21233
805.199	20853
805.341	21116
805.483	21104
805.626	20986
805.768	20891
805.91	20887
806.052	21020
806.194	20967
806.336	21020
806.478	20944
806.62	20914
806.762	21051
806.904	21119
807.046	21401
807.188	21279
807.33	21283
807.472	21473
807.614	21211
807.756	21332
807.898	21104
808.04	20994
808.182	21096
808.324	21108
808.465	21184
808.607	21302
808.749	21488
808.891	21583
809.033	21652
809.174	21576
809.316	21454
809.458	21458
809.6	21526
809.741	21466
809.883	21420
810.025	21633
810.166	21557
810.308	21561
810.45	21435
810.591	21447
810.733	21195
810.875	21245
811.016	21058
811.158	21070
811.299	21173
811.441	21363
811.582	21275
811.724	21226
811.865	21104
812.007	21131
812.148	21157
812.29	21180
812.431	21344
812.573	21447
812.714	21526
812.855	21637
812.997	21781
813.138	21873
813.279	21762
813.421	21720
813.562	21534
813.703	21420
813.845	21237
813.986	20906
814.127	20826
814.268	20785
814.41	20773
814.551	20701
814.692	20758
814.833	20689
814.974	20655
815.115	20663
815.256	20454
815.397	20473
815.539	20537
815.68	20438
815.821	20412
815.962	20313
816.103	20465
816.244	20237
816.385	20244
816.526	20142
816.666	19986
816.807	19852
816.948	19818
817.089	19989
817.23	19830
817.371	19807
817.512	19841
817.653	19795
817.793	19845
817.934	19833
818.075	19788
818.216	19913
818.356	19826
818.497	19658
818.638	19658
818.778	19552
818.919	19480
819.06	19624
819.2	19578
819.341	19658
819.481	19689
819.622	19856
819.762	19997
819.903	20012
820.043	19883
820.184	19864
820.324	19803
820.465	19871
820.605	19864
820.746	19803
820.886	19761
821.026	19677
821.167	19803
821.307	19852
821.447	19757
821.588	19674
821.728	19449
821.868	19388
822.008	19278
822.149	19225
822.289	19156
822.429	18947
822.569	18897
822.709	18806
822.849	18684
822.99	18764
823.13	18692
823.27	18612
823.41	18612
823.55	18464
823.69	18536
823.83	18597
823.97	18475
824.11	18239
824.25	18243
824.389	18270
824.529	18323
824.669	18399
824.809	18391
824.949	18372
825.089	18292
825.228	18300
825.368	18136
825.508	18140
825.648	18167
825.787	18148
825.927	18209
826.067	18098
826.206	18106
826.346	18068
826.485	18038
826.625	18072
826.765	18232
826.904	18057
827.044	17878
827.183	17916
827.323	17824
827.462	17885
827.601	17760
827.741	17802
827.88	17756
828.02	17608
828.159	17832
828.298	17756
828.437	17760
828.577	17714
828.716	18026
828.855	17836
828.994	17573
829.134	17524
829.273	17562
829.412	17490
829.551	17376
829.69	17535
829.829	17516
829.968	17611
830.107	17532
830.246	17524
830.385	17482
830.524	17512
830.663	17322
830.802	17250
830.941	17147
831.08	17014
831.219	17212
831.357	17258
831.496	17364
831.635	17117
831.774	17128
831.913	17022
832.051	16930
832.19	16843
832.329	17025
832.467	16942
832.606	16793
832.744	16824
832.883	16835
833.022	16820
833.16	16930
833.299	16900
833.437	16805
833.576	16797
833.714	16892
833.852	16774
833.991	16816
834.129	16877
834.267	16919
834.406	16919
834.544	16854
834.682	16885
834.821	16843
834.959	17079
835.097	16908
835.235	16991
835.373	16957
835.511	16896
835.65	16710
835.788	16755
835.926	16630
836.064	16527
836.202	16550
836.34	16869
836.478	16904
836.615	16668
836.753	16866
836.891	16889
837.029	16733
837.167	16801
837.305	16706
837.443	16603
837.58	16569
837.718	16622
837.856	16596
837.993	16588
838.131	16672
838.269	16455
838.406	16550
838.544	16580
838.681	16329
838.819	16363
838.956	16162
839.094	16082
839.231	16177
839.369	16322
839.506	16504
839.643	16432
839.781	16223
839.918	16257
840.055	16268
840.193	16211
840.33	16147
840.467	16215
840.604	16268
840.742	16348
840.879	16044
841.016	16017
841.153	16181
841.29	16230
841.427	16223
841.564	16093
841.701	16150
841.838	16162
841.975	16021
842.112	16086
842.249	15956
842.385	15846
842.522	16067
842.659	15903
842.796	15953
842.933	15918
843.069	15983
843.206	15941
843.343	15968
843.479	15941
843.616	15915
843.752	15747
843.889	15667
844.025	15899
844.162	15603
844.298	15793
844.435	15759
844.571	15660
844.708	15747
844.844	15937
844.98	15915
845.117	15865
845.253	15667
845.389	15671
845.525	15732
845.661	15747
845.798	15576
845.934	15641
846.07	15587
846.206	15759
846.342	15709
846.478	15637
846.614	15424
846.75	15287
846.886	15302
847.022	15291
847.158	15454
847.294	15291
847.429	15412
847.565	15199
847.701	15538
847.837	15032
847.972	15058
848.108	15074
848.244	15081
848.379	15017
848.515	14857
848.65	14872
848.786	14952
848.921	14811
849.057	14998
849.192	15013
849.328	14902
849.463	14895
849.598	14842
849.734	14853
849.869	14705
850.004	14655
850.14	14693
850.275	14606
850.41	14568
850.545	14636
850.68	14693
850.815	14754
850.95	14545
851.085	14807
851.22	14682
851.355	14636
851.49	14674
851.625	14568
851.76	14606
851.895	14526
852.03	14587
852.165	14648
852.299	14686
852.434	14708
852.569	14743
852.703	14689
852.838	14682
852.973	14807
853.107	14826
853.242	14648
853.376	14545
853.511	14412
853.645	14522
853.78	14804
853.914	14590
854.048	14503
854.183	14400
854.317	14465
854.451	14708
854.585	14514
854.72	14495
854.854	14594
854.988	14465
855.122	14495
855.256	14457
855.39	14499
855.524	14587
855.658	14629
855.792	14522
855.926	14564
856.06	14724
856.194	14556
856.327	14518
856.461	14473
856.595	14423
856.729	14476
856.862	14560
856.996	14545
857.13	14522
857.263	14701
857.397	14670
857.53	14575
857.664	14541
857.797	14651
857.931	14746
858.064	14598
858.197	14636
858.331	14518
858.464	14530
858.597	14434
858.731	14537
858.864	14568
858.997	14663
859.13	14533
859.263	14579
859.396	14571
859.529	14537
859.662	14522
859.795	14442
859.928	14594
860.061	14651
860.194	14659
860.327	14606
860.46	14450
860.592	14602
860.725	14670
860.858	14579
860.99	14625
861.123	14389
861.256	14415
861.388	14507
861.521	15363
861.653	14343
861.786	14278
861.918	14301
862.05	14381
862.183	14454
862.315	14518
862.447	14503
862.58	14454
862.712	14252
862.844	14206
862.976	14374
863.108	14290
863.24	14800
863.372	14282
863.504	14225
863.636	14210
863.768	14298
863.9	14385
864.032	14271
864.164	14252
864.296	14317
864.428	14381
864.559	14347
864.691	14484
864.823	14267
864.954	14419
865.086	14305
865.217	14298
865.349	14256
865.48	14317
865.612	14351
865.743	14408
865.875	14320
866.006	14244
866.137	14339
866.269	14229
866.4	14286
866.531	14286
866.662	14248
866.793	14324
866.924	14206
867.055	14248
867.186	14229
867.317	14240
867.448	14206
867.579	14240
867.71	14145
867.841	14172
867.972	14286
868.103	14206
868.233	14248
868.364	14317
868.495	14393
868.625	14492
868.756	14594
868.886	14473
869.017	14442
869.147	14689
869.278	14689
869.408	14579
869.539	14522
869.669	14587
869.799	14552
869.929	14674
870.06	14610
870.19	14883
870.32	14807
870.45	14857
870.58	14887
870.71	14899
870.84	14982
870.97	14960
871.1	14876
871.23	15055
871.36	15009
871.489	15047
871.619	15081
871.749	15142
871.879	15146
872.008	15176
872.138	15070
872.267	15165
872.397	14944
872.526	14982
872.656	14906
872.785	15039
872.915	15211
873.044	15146
873.173	15093
873.303	15226
873.432	15252
873.561	15195
873.69	15192
873.819	15233
873.948	15237
874.077	15218
874.206	15104
874.335	15176
874.464	15329
874.593	15344
874.722	15416
874.851	15488
874.979	15523
875.108	15462
875.237	15401
875.365	15511
875.494	15515
875.623	15549
875.751	15386
875.88	15477
876.008	15606
876.136	15637
876.265	15842
876.393	16002
876.521	15934
876.65	16112
876.778	15934
876.906	15876
877.034	15880
877.162	15937
877.29	15873
877.418	15739
877.546	15869
877.674	15964
877.802	15930
877.93	15895
878.058	15850
878.185	15816
878.313	15979
878.441	15865
878.568	15819
878.696	15869
878.824	15915
878.951	15884
879.079	16013
879.206	16109
879.333	15979
879.461	15991
879.588	16063
879.715	16112
879.842	16280
879.97	16021
880.097	15724
880.224	15724
880.351	15644
880.478	15751
880.605	15690
880.732	15724
880.859	15987
880.986	15720
881.112	15797
881.239	15660
881.366	15481
881.493	15431
881.619	15397
881.746	15416
881.872	15291
881.999	15382
882.125	15431
882.252	15386
882.378	15370
882.505	15610
882.631	15332
882.757	15283
882.883	15226
883.01	15184
883.136	15256
883.262	15074
883.388	15017
883.514	15207
883.64	15313
883.766	15150
883.892	15043
884.018	15066
884.143	15116
884.269	15241
884.395	15001
884.52	14975
884.646	14918
884.772	14773
884.897	14804
885.023	14910
885.148	15013
885.274	15112
885.399	15032
885.524	14899
885.65	14921
885.775	14895
885.9	14891
886.025	15009
886.15	15077
886.275	14845
886.4	14785
886.525	14914
886.65	14868
886.775	14823
886.9	14982
887.025	15066
887.149	14864
887.274	14830
887.399	14731
887.523	14655
887.648	14705
887.773	14705
887.897	14830
888.021	14792
888.146	14667
888.27	14853
888.395	14887
888.519	14781
888.643	14807
888.767	14769
888.891	14632
889.015	14590
889.139	14617
889.263	14575
889.387	14648
889.511	14754
889.635	14735
889.759	14629
889.883	14606
890.006	14598
890.13	14731
890.254	14575
890.377	14560
890.501	14412
890.624	14465
890.748	14530
890.871	14461
890.995	14206
891.118	14191
891.241	14263
891.364	14317
891.488	14358
891.611	14298
891.734	14377
891.857	14290
891.98	14317
892.103	14366
892.226	14347
892.349	14267
892.471	14100
892.594	14221
892.717	14305
892.839	14176
892.962	14305
893.085	14415
893.207	14328
893.33	14157
893.452	14233
893.575	14389
893.697	14282
893.819	14473
893.941	14507
894.064	14465
894.186	14298
894.308	14320
894.43	14427
894.552	14412
894.674	14366
894.796	14286
894.918	14282
895.04	14336
895.161	14362
895.283	14457
895.405	14275
895.526	14385
895.648	14362
895.769	14457
895.891	14473
896.012	14476
896.134	14507
896.255	14423
896.376	14370
896.498	14503
896.619	14526
896.74	14476
896.861	14552
896.982	14811
897.103	14910
897.224	14667
897.345	14758
897.466	14571
897.587	14716
897.708	14815
897.828	14735
897.949	14686
898.07	14617
898.19	14610
898.311	14845
898.431	14571
898.552	14842
898.672	14914
898.792	14842
898.913	14864
899.033	14724
899.153	14648
899.273	14545
899.393	14629
899.513	14674
899.633	14602
899.753	14720
899.873	14606
899.993	14693
900.113	14594
900.232	14613
900.352	14571
900.472	14640
900.591	14610
900.711	14480
900.83	14347
900.95	14560
901.069	14632
901.189	14374
901.308	14237
901.427	14164
901.546	14221
901.665	14278
901.784	14244
901.904	14054
902.023	13997
902.141	13791
902.26	13795
902.379	13841
902.498	13708
902.617	13704
902.735	13757
902.854	13727
902.973	13723
903.091	13472
903.21	13491
903.328	13441
903.446	13358
903.565	13354
903.683	13312
903.801	13175
903.919	13308
904.038	13278
904.156	13251
904.274	13221
904.392	13095
904.51	13149
904.627	13099
904.745	13164
904.863	13221
904.981	12939
905.098	12795
905.216	12806
905.334	12821
905.451	12772
905.569	12825
905.686	12871
905.803	12757
905.921	12635
906.038	12715
906.155	12639
906.272	12483
906.389	12517
906.506	12441
906.623	12395
906.74	12502
906.857	12289
906.974	12323
907.091	12460
907.208	12601
907.324	12456
907.441	12315
907.557	12148
907.674	12167
907.79	12125
907.907	12095
908.023	12194
908.139	12178
908.256	12068
908.372	12167
908.488	12041
908.604	11882
908.72	11843
908.836	11889
908.952	11878
909.068	11840
909.184	12011
909.3	11855
909.415	11965
909.531	11912
909.647	11771
909.762	11668
909.878	11657
909.993	11741
910.108	11657
910.224	11688
910.339	11619
910.454	11532
910.57	11452
910.685	11444
910.8	11668
910.915	11665
911.03	11551
911.145	11478
911.259	11410
911.374	11307
911.489	11242
911.604	11277
911.718	11159
911.833	11159
911.947	11041
912.062	10953
912.176	11105
912.291	11166
912.405	11048
912.519	11379
912.633	11337
912.748	11216
912.862	11109
912.976	11006
913.09	10885
913.204	10911
913.318	10995
913.431	11136
913.545	11102
913.659	11090
913.772	10961
913.886	10930
914	10850
914.113	10938
914.226	11029
914.34	11018
914.453	10786
914.566	11022
914.68	10778
914.793	10828
914.906	10603
915.019	10584
915.132	10538
915.245	10698
915.358	10721
915.47	10577
915.583	10714
915.696	10645
915.809	10774
915.921	10816
916.034	10679
916.146	10565
916.259	10561
916.371	10801
916.483	10592
916.595	10561
916.708	10607
916.82	10577
916.932	10508
917.044	10565
917.156	10542
917.268	10432
917.38	10485
917.491	10436
917.603	10546
917.715	10512
917.826	10653
917.938	10394
918.049	10325
918.161	10440
918.272	10603
918.384	10653
918.495	10462
918.606	10325
918.717	10310
918.828	10428
918.939	10386
919.05	10268
919.161	10291
919.272	10063
919.383	10215
919.494	10398
919.604	10489
919.715	10318
919.826	10272
919.936	10284
920.047	10363
920.157	10375
920.267	10516
920.378	10341
920.488	10379
920.598	10580
920.708	10694
920.818	10561
920.928	10538
921.038	10675
921.148	10721
921.258	10341
921.368	10306
921.477	10219
921.587	10158
921.697	10006
921.806	10200
921.916	10051
922.025	9960
922.134	9876
922.244	9812
922.353	9838
922.462	9717
922.571	9717
922.68	9580
922.789	9542
922.898	9622
923.007	9568
923.116	9671
923.224	9648
923.333	9610
923.442	9431
923.55	9477
923.659	9545
923.767	9542
923.876	9412
923.984	9557
924.092	9454
924.201	9492
924.309	9488
924.417	9507
924.525	9382
924.633	9378
924.741	10135
924.849	9245
924.956	9340
925.064	9279
925.172	9176
925.279	9150
925.387	9214
925.494	9214
925.602	9469
925.709	9321
925.816	9173
925.924	9214
926.031	9355
926.138	9207
926.245	9260
926.352	9199
926.459	9382
926.566	9253
926.673	9154
926.779	9119
926.886	9135
926.993	8967
927.099	8914
927.206	8952
927.312	8815
927.419	8967
927.525	9058
927.631	9013
927.737	8845
927.843	8853
927.95	8720
928.056	8819
928.162	8914
928.267	8910
928.373	9389
928.479	8979
928.585	8716
928.69	8876
928.796	8899
928.901	8708
929.007	8693
929.112	8788
929.218	8758
929.323	8640
929.428	8613
929.533	8804
929.638	8667
929.743	8598
929.848	8651
929.953	8659
930.058	8530
930.163	8412
930.267	8358
930.372	8533
930.477	8385
930.581	8712
930.685	8564
930.79	8385
930.894	8412
930.998	8385
931.103	8488
931.207	8107
931.311	8134
931.415	8035
931.519	7826
931.623	7833
