Data from test_V78500241_2085.txt Node
Date: Fri Mar 25 14:48:13 CST 2022
User: usil
Spectrometer: V785-0024
Trigger mode: 0
Integration Time (sec): 4.000000E-1
Scans to average: 1
Nonlinearity correction enabled: false
Boxcar width: 0
Storing dark spectrum: false
XAxis mode: Wavelengths
Number of Pixels in Spectrum: 1024
>>>>>Begin Spectral Data<<<<<
801.071	22074
801.214	22074
801.356	21686
801.499	21671
801.641	21481
801.783	21466
801.926	21549
802.068	21370
802.211	21439
802.353	21317
802.496	21100
802.638	21001
802.78	21070
802.923	20811
803.065	20845
803.208	20796
803.35	20746
803.492	20929
803.635	20872
803.777	20800
803.919	20986
804.061	21233
804.204	20861
804.346	20727
804.488	20655
804.63	20788
804.773	20727
804.915	20807
805.057	20868
805.199	20693
805.341	20910
805.483	20998
805.626	20979
805.768	20796
805.91	20769
806.052	20762
806.194	20640
806.336	20849
806.478	20682
806.62	20701
806.762	20842
806.904	20880
807.046	21214
807.188	21089
807.33	21070
807.472	21108
807.614	21017
807.756	21020
807.898	20868
808.04	20823
808.182	20857
808.324	20701
808.465	20800
808.607	21028
808.749	21135
808.891	21264
809.033	21382
809.174	21306
809.316	21039
809.458	21142
809.6	21218
809.741	21173
809.883	21180
810.025	21302
810.166	21260
810.308	21302
810.45	21233
810.591	21256
810.733	21081
810.875	20906
811.016	20830
811.158	20838
811.299	20933
811.441	21005
811.582	21001
811.724	20948
811.865	20823
812.007	20902
812.148	20982
812.29	20811
812.431	21070
812.573	21226
812.714	21237
812.855	21355
812.997	21424
813.138	21614
813.279	21359
813.421	21397
813.562	21443
813.703	21165
813.845	20948
813.986	20746
814.127	20583
814.268	20488
814.41	20415
814.551	20492
814.692	20484
814.833	20309
814.974	20450
815.115	20336
815.256	20301
815.397	20237
815.539	20225
815.68	20138
815.821	20153
815.962	20267
816.103	20240
816.244	20138
816.385	19989
816.526	19944
816.666	19715
816.807	19487
816.948	19719
817.089	19750
817.23	19670
817.371	19616
817.512	19483
817.653	19480
817.793	19601
817.934	19502
818.075	19521
818.216	19464
818.356	19499
818.497	19335
818.638	19133
818.778	19141
818.919	19240
819.06	19362
819.2	19419
819.341	19472
819.481	19419
819.622	19635
819.762	19795
819.903	19708
820.043	19655
820.184	19601
820.324	19525
820.465	19567
820.605	19552
820.746	19597
820.886	19468
821.026	19540
821.167	19521
821.307	19597
821.447	19464
821.588	19358
821.728	19266
821.868	19084
822.008	18989
822.149	18958
822.289	18985
822.429	18772
822.569	18661
822.709	18646
822.849	18551
822.99	18544
823.13	18410
823.27	18319
823.41	18216
823.55	18254
823.69	18251
823.83	18247
823.97	18148
824.11	18034
824.25	18057
824.389	18022
824.529	18133
824.669	18030
824.809	18178
824.949	18076
825.089	18034
825.228	18045
825.368	17882
825.508	17908
825.648	17904
825.787	17889
825.927	17935
826.067	17786
826.206	17745
826.346	17874
826.485	17847
826.625	17699
826.765	17878
826.904	17832
827.044	17566
827.183	17611
827.323	17566
827.462	17657
827.601	17395
827.741	17452
827.88	17501
828.02	17474
828.159	17528
828.298	17436
828.437	17551
828.577	17471
828.716	17642
828.855	17452
828.994	17288
829.134	17303
829.273	17151
829.412	17136
829.551	17254
829.69	17303
829.829	17235
829.968	17349
830.107	17353
830.246	17326
830.385	17212
830.524	17094
830.663	17193
830.802	17033
830.941	16911
831.08	16786
831.219	16999
831.357	16934
831.496	17246
831.635	16938
831.774	16854
831.913	16740
832.051	16664
832.19	16664
832.329	16656
832.467	16592
832.606	16546
832.744	16527
832.883	16455
833.022	16569
833.16	16584
833.299	16634
833.437	16660
833.576	16580
833.714	16687
833.852	16630
833.991	16630
834.129	16672
834.267	16721
834.406	16478
834.544	16599
834.682	16554
834.821	16702
834.959	16729
835.097	16729
835.235	16702
835.373	16733
835.511	16523
835.65	16584
835.788	16561
835.926	16390
836.064	16421
836.202	16440
836.34	16535
836.478	16645
836.615	16584
836.753	16554
836.891	16698
837.029	16554
837.167	16485
837.305	16519
837.443	16440
837.58	16481
837.718	16394
837.856	16386
837.993	16344
838.131	16394
838.269	16207
838.406	16265
838.544	16299
838.681	16112
838.819	16093
838.956	15979
839.094	15918
839.231	15994
839.369	16185
839.506	16344
839.643	16105
839.781	15934
839.918	15819
840.055	15918
840.193	15937
840.33	15922
840.467	15861
840.604	16029
840.742	16204
840.879	15816
841.016	15797
841.153	15804
841.29	16032
841.427	16002
841.564	16025
841.701	15949
841.838	15968
841.975	15888
842.112	15903
842.249	15838
842.385	15717
842.522	15945
842.659	15808
842.796	15755
842.933	15728
843.069	15637
843.206	15663
843.343	15812
843.479	15663
843.616	15766
843.752	15557
843.889	15466
844.025	15682
844.162	15572
844.298	15603
844.435	15553
844.571	15504
844.708	15584
844.844	15789
844.98	15701
845.117	15515
845.253	15405
845.389	15313
845.525	15481
845.661	15462
845.798	15211
845.934	15287
846.07	15252
846.206	15507
846.342	15458
846.478	15332
846.614	15104
846.75	15062
846.886	15055
847.022	15108
847.158	15020
847.294	14914
847.429	15233
847.565	15074
847.701	15249
847.837	14807
847.972	14826
848.108	14921
848.244	14998
848.379	14754
848.515	14693
848.65	14743
848.786	14625
848.921	14629
849.057	14853
849.192	14765
849.328	14678
849.463	14739
849.598	14610
849.734	14629
849.869	14488
850.004	14450
850.14	14571
850.275	14412
850.41	14343
850.545	14499
850.68	14423
850.815	14514
850.95	14454
851.085	14632
851.22	14590
851.355	14564
851.49	14469
851.625	14457
851.76	14541
851.895	14320
852.03	14362
852.165	14385
852.299	14400
852.434	14492
852.569	14568
852.703	14507
852.838	14575
852.973	14598
853.107	14549
853.242	14377
853.376	14320
853.511	14214
853.645	14267
853.78	14469
853.914	14336
854.048	14332
854.183	14252
854.317	14286
854.451	14461
854.585	14317
854.72	14275
854.854	14355
854.988	14328
855.122	14282
855.256	14237
855.39	14301
855.524	14431
855.658	14377
855.792	14343
855.926	14328
856.06	14423
856.194	14533
856.327	14271
856.461	14244
856.595	14134
856.729	14286
856.862	14317
856.996	14355
857.13	14393
857.263	14541
857.397	14518
857.53	14313
857.664	14374
857.797	14370
857.931	14400
858.064	14415
858.197	14495
858.331	14332
858.464	14275
858.597	14263
858.731	14396
858.864	14240
858.997	14317
859.13	14332
859.263	14320
859.396	14419
859.529	14298
859.662	14305
859.795	14343
859.928	14271
860.061	14423
860.194	14488
860.327	14324
860.46	14355
860.592	14431
860.725	14476
860.858	14370
860.99	14298
861.123	14221
861.256	14263
861.388	14450
861.521	14792
861.653	14168
861.786	14138
861.918	14206
862.05	14282
862.183	14240
862.315	14332
862.447	14393
862.58	14244
862.712	14073
862.844	14100
862.976	14153
863.108	14107
863.24	14480
863.372	14123
863.504	14058
863.636	14024
863.768	14096
863.9	14145
864.032	14024
864.164	14069
864.296	14058
864.428	14176
864.559	14164
864.691	14115
864.823	14191
864.954	14210
865.086	14153
865.217	14043
865.349	13913
865.48	14062
865.612	14046
865.743	14278
865.875	14130
866.006	14081
866.137	14142
866.269	14027
866.4	14111
866.531	14153
866.662	14039
866.793	14077
866.924	14058
867.055	14039
867.186	14035
867.317	14020
867.448	13928
867.579	14092
867.71	14005
867.841	13997
867.972	14134
868.103	14119
868.233	14039
868.364	14142
868.495	14081
868.625	14271
868.756	14377
868.886	14233
869.017	14347
869.147	14431
869.278	14473
869.408	14339
869.539	14423
869.669	14400
869.799	14408
869.929	14480
870.06	14438
870.19	14682
870.32	14670
870.45	14674
870.58	14785
870.71	14819
870.84	14804
870.97	14716
871.1	14708
871.23	15001
871.36	14918
871.489	14769
871.619	14887
871.749	14918
871.879	14929
872.008	15036
872.138	14910
872.267	14956
872.397	14944
872.526	14750
872.656	14655
872.785	14754
872.915	14914
873.044	15013
873.173	15039
873.303	15020
873.432	15017
873.561	15017
873.69	14960
873.819	14971
873.948	15047
874.077	15005
874.206	14902
874.335	15013
874.464	15169
874.593	15211
874.722	15184
874.851	15325
874.979	15268
875.108	15321
875.237	15264
875.365	15203
875.494	15294
875.623	15367
875.751	15291
875.88	15378
876.008	15458
876.136	15374
876.265	15804
876.393	15869
876.521	15842
876.65	15701
876.778	15857
876.906	15717
877.034	15625
877.162	15732
877.29	15652
877.418	15720
877.546	15778
877.674	15755
877.802	15717
877.93	15686
878.058	15660
878.185	15614
878.313	15781
878.441	15663
878.568	15488
878.696	15667
878.824	15751
878.951	15762
879.079	15854
879.206	16025
879.333	15918
879.461	15698
879.588	15751
879.715	15865
879.842	15998
879.97	15736
880.097	15511
880.224	15557
880.351	15500
880.478	15496
880.605	15515
880.732	15526
880.859	15854
880.986	15519
881.112	15542
881.239	15473
881.366	15374
881.493	15260
881.619	15233
881.746	15188
881.872	15310
881.999	15211
882.125	15230
882.252	15226
882.378	15233
882.505	15359
882.631	15104
882.757	14998
882.883	15005
883.01	15051
883.136	15005
883.262	14925
883.388	14944
883.514	15051
883.64	15047
883.766	14910
883.892	14849
884.018	14906
884.143	15028
884.269	15070
884.395	14781
884.52	14667
884.646	14788
884.772	14686
884.897	14682
885.023	14712
885.148	14842
885.274	14857
885.399	14773
885.524	14743
885.65	14746
885.775	14857
885.9	14697
886.025	14895
886.15	14792
886.275	14712
886.4	14640
886.525	14651
886.65	14716
886.775	14663
886.9	14944
887.025	15032
887.149	14720
887.274	14537
887.399	14484
887.523	14514
887.648	14587
887.773	14446
887.897	14674
888.021	14667
888.146	14526
888.27	14667
888.395	14674
888.519	14659
888.643	14564
888.767	14571
888.891	14404
889.015	14465
889.139	14457
889.263	14385
889.387	14484
889.511	14701
889.635	14617
889.759	14385
889.883	14347
890.006	14457
890.13	14480
890.254	14271
890.377	14415
890.501	14233
890.624	14157
890.748	14339
890.871	14183
890.995	14153
891.118	14100
891.241	14233
891.364	14142
891.488	14309
891.611	14081
891.734	14119
891.857	14248
891.98	14077
892.103	14183
892.226	14126
892.349	14096
892.471	13974
892.594	14043
892.717	14240
892.839	14134
892.962	14157
893.085	14206
893.207	14050
893.33	14016
893.452	14008
893.575	14172
893.697	14043
893.819	14351
893.941	14374
894.064	14225
894.186	14123
894.308	14096
894.43	14343
894.552	14290
894.674	14336
894.796	14084
894.918	14161
895.04	14202
895.161	14336
895.283	14271
895.405	14134
895.526	14191
895.648	14206
895.769	14377
895.891	14286
896.012	14286
896.134	14309
896.255	14286
896.376	14240
896.498	14343
896.619	14153
896.74	14298
896.861	14324
896.982	14705
897.103	14861
897.224	14552
897.345	14469
897.466	14514
897.587	14583
897.708	14697
897.828	14598
897.949	14530
898.07	14423
898.19	14537
898.311	14762
898.431	14590
898.552	14587
898.672	14739
898.792	14762
898.913	14701
899.033	14530
899.153	14488
899.273	14480
899.393	14412
899.513	14518
899.633	14423
899.753	14476
899.873	14518
899.993	14629
900.113	14488
900.232	14579
900.352	14556
900.472	14423
900.591	14324
900.711	14347
900.83	14313
900.95	14518
901.069	14537
901.189	14351
901.308	14138
901.427	14069
901.546	14024
901.665	14058
901.784	14161
901.904	13932
902.023	13811
902.141	13693
902.26	13582
902.379	13605
902.498	13559
902.617	13632
902.735	13681
902.854	13647
902.973	13605
903.091	13316
903.21	13388
903.328	13293
903.446	13293
903.565	13118
903.683	13213
903.801	13072
903.919	13107
904.038	13217
904.156	13038
904.274	13050
904.392	13057
904.51	13008
904.627	12985
904.745	12993
904.863	13095
904.981	12806
905.098	12707
905.216	12764
905.334	12810
905.451	12658
905.569	12654
905.686	12684
905.803	12620
905.921	12532
906.038	12601
906.155	12513
906.272	12391
906.389	12471
906.506	12308
906.623	12243
906.74	12258
906.857	12197
906.974	12235
907.091	12327
907.208	12433
907.324	12304
907.441	12323
907.557	12045
907.674	12079
907.79	11973
907.907	12030
908.023	12053
908.139	12049
908.256	12003
908.372	12030
908.488	11961
908.604	11847
908.72	11756
908.836	11748
908.952	11798
909.068	11828
909.184	11863
909.3	11779
909.415	11790
909.531	11836
909.647	11649
909.762	11596
909.878	11589
909.993	11623
910.108	11520
910.224	11509
910.339	11512
910.454	11497
910.57	11326
910.685	11322
910.8	11627
910.915	11608
911.03	11448
911.145	11311
911.259	11280
911.374	11307
911.489	11155
911.604	11136
911.718	11090
911.833	10976
911.947	10965
912.062	10900
912.176	10991
912.291	10942
912.405	10976
912.519	11132
912.633	11204
912.748	11052
912.862	11029
912.976	10904
913.09	10843
913.204	10877
913.318	10866
913.431	11014
913.545	11018
913.659	11048
913.772	10862
913.886	10793
914	10725
914.113	10843
914.226	10908
914.34	10885
914.453	10801
914.566	10850
914.68	10763
914.793	10725
914.906	10432
915.019	10550
915.132	10405
915.245	10497
915.358	10550
915.47	10523
915.583	10634
915.696	10599
915.809	10577
915.921	10668
916.034	10478
916.146	10493
916.259	10413
916.371	10565
916.483	10512
916.595	10360
916.708	10584
916.82	10493
916.932	10428
917.044	10432
917.156	10386
917.268	10268
917.38	10424
917.491	10246
917.603	10310
917.715	10424
917.826	10481
917.938	10295
918.049	10192
918.161	10325
918.272	10527
918.384	10485
918.495	10363
918.606	10188
918.717	10238
918.828	10200
918.939	10204
919.05	10219
919.161	10192
919.272	9937
919.383	10124
919.494	10253
919.604	10497
919.715	10188
919.826	10227
919.936	10128
920.047	10295
920.157	10238
920.267	10470
920.378	10196
920.488	10280
920.598	10455
920.708	10561
920.818	10500
920.928	10413
921.038	10592
921.148	10569
921.258	10360
921.368	10173
921.477	10082
921.587	10097
921.697	9975
921.806	10135
921.916	10059
922.025	9766
922.134	9823
922.244	9701
922.353	9759
922.462	9675
922.571	9622
922.68	9477
922.789	9500
922.898	9511
923.007	9424
923.116	9599
923.224	9469
923.333	9515
923.442	9344
923.55	9291
923.659	9382
923.767	9500
923.876	9355
923.984	9389
924.092	9275
924.201	9325
924.309	9329
924.417	9355
924.525	9291
924.633	9367
924.741	10265
924.849	9112
924.956	9298
925.064	9199
925.172	9024
925.279	9100
925.387	9226
925.494	9146
925.602	9294
925.709	9230
925.816	8967
925.924	9112
926.031	9211
926.138	9211
926.245	9142
926.352	9005
926.459	9291
926.566	9237
926.673	9077
926.779	9020
926.886	8979
926.993	8891
927.099	8777
927.206	8842
927.312	8724
927.419	8857
927.525	8845
927.631	8914
927.737	8769
927.843	8735
927.95	8667
928.056	8731
928.162	8720
928.267	8743
928.373	9382
928.479	8838
928.585	8579
928.69	8750
928.796	8883
928.901	8625
929.007	8522
929.112	8716
929.218	8689
929.323	8587
929.428	8598
929.533	8674
929.638	8522
929.743	8587
929.848	8602
929.953	8541
930.058	8492
930.163	8362
930.267	8355
930.372	8461
930.477	8218
930.581	8541
930.685	8454
930.79	8259
930.894	8332
930.998	8275
931.103	8465
931.207	8043
931.311	8043
931.415	8016
931.519	7757
931.623	7811
