Data from test_V78500241_405.txt Node
Date: Fri Mar 25 14:36:32 CST 2022
User: usil
Spectrometer: V785-0024
Trigger mode: 0
Integration Time (sec): 4.000000E-1
Scans to average: 1
Nonlinearity correction enabled: false
Boxcar width: 0
Storing dark spectrum: false
XAxis mode: Wavelengths
Number of Pixels in Spectrum: 1024
>>>>>Begin Spectral Data<<<<<
801.071	26689
801.214	26590
801.356	26328
801.499	26180
801.641	26240
801.783	26180
801.926	26172
802.068	26043
802.211	25944
802.353	25864
802.496	25727
802.638	25658
802.78	25826
802.923	25556
803.065	25540
803.208	25548
803.35	25586
803.492	25556
803.635	25765
803.777	25567
803.919	25639
804.061	26016
804.204	25723
804.346	25628
804.488	25495
804.63	25559
804.773	25445
804.915	25635
805.057	25674
805.199	25525
805.341	25734
805.483	25723
805.626	25651
805.768	25457
805.91	25681
806.052	25734
806.194	25563
806.336	25769
806.478	25476
806.62	25696
806.762	25696
806.904	25860
807.046	26046
807.188	26039
807.33	26107
807.472	26092
807.614	25871
807.756	25871
807.898	25837
808.04	25674
808.182	25845
808.324	25822
808.465	25860
808.607	25925
808.749	26145
808.891	26195
809.033	26423
809.174	26180
809.316	26043
809.458	26180
809.6	26149
809.741	26161
809.883	26248
810.025	26408
810.166	26271
810.308	26252
810.45	26313
810.591	26126
810.733	26077
810.875	25997
811.016	25879
811.158	25784
811.299	25951
811.441	26153
811.582	26069
811.724	25932
811.865	25845
812.007	26103
812.148	26043
812.29	25974
812.431	26176
812.573	26221
812.714	26309
812.855	26328
812.997	26495
813.138	26552
813.279	26583
813.421	26476
813.562	26488
813.703	26396
813.845	26050
813.986	25849
814.127	25575
814.268	25468
814.41	25594
814.551	25434
814.692	25529
814.833	25464
814.974	25499
815.115	25453
815.256	25434
815.397	25304
815.539	25384
815.68	25384
815.821	25274
815.962	25221
816.103	25171
816.244	25050
816.385	25019
816.526	25000
816.666	24871
816.807	24616
816.948	24726
817.089	24779
817.23	24612
817.371	24791
817.512	24730
817.653	24612
817.793	24601
817.934	24620
818.075	24677
818.216	24642
818.356	24521
818.497	24532
818.638	24273
818.778	24308
818.919	24380
819.06	24445
819.2	24391
819.341	24479
819.481	24547
819.622	24684
819.762	24875
819.903	24859
820.043	24650
820.184	24559
820.324	24555
820.465	24715
820.605	24715
820.746	24559
820.886	24563
821.026	24631
821.167	24498
821.307	24639
821.447	24578
821.588	24388
821.728	24342
821.868	24167
822.008	24057
822.149	23828
822.289	23950
822.429	23585
822.569	23604
822.709	23604
822.849	23360
822.99	23448
823.13	23459
823.27	23246
823.41	23284
823.55	23235
823.69	23296
823.83	23284
823.97	23170
824.11	23056
824.25	22991
824.389	22934
824.529	23048
824.669	22949
824.809	23155
824.949	22869
825.089	22984
825.228	23071
825.368	22782
825.508	22797
825.648	22889
825.787	22896
825.927	22892
826.067	22786
826.206	22710
826.346	22835
826.485	22957
826.625	22668
826.765	22930
826.904	22710
827.044	22497
827.183	22615
827.323	22478
827.462	22462
827.601	22474
827.741	22379
827.88	22348
828.02	22382
828.159	22348
828.298	22550
828.437	22367
828.577	22516
828.716	22561
828.855	22451
828.994	22158
829.134	22147
829.273	22246
829.412	22120
829.551	21998
829.69	22090
829.829	22082
829.968	22143
830.107	22246
830.246	22120
830.385	21949
830.524	22021
830.663	21956
830.802	21918
830.941	21915
831.08	21671
831.219	21755
831.357	21698
831.496	21934
831.635	21812
831.774	21641
831.913	21545
832.051	21542
832.19	21424
832.329	21530
832.467	21367
832.606	21431
832.744	21435
832.883	21317
833.022	21382
833.16	21252
833.299	21477
833.437	21458
833.576	21405
833.714	21306
833.852	21420
833.991	21485
834.129	21481
834.267	21473
834.406	21462
834.544	21504
834.682	21393
834.821	21424
834.959	21618
835.097	21294
835.235	21348
835.373	21332
835.511	21412
835.65	21386
835.788	21249
835.926	20994
836.064	21017
836.202	21070
836.34	21325
836.478	21340
836.615	21272
836.753	21264
836.891	21268
837.029	21252
837.167	21146
837.305	21241
837.443	21100
837.58	20956
837.718	21199
837.856	21066
837.993	20971
838.131	21058
838.269	20887
838.406	20956
838.544	20948
838.681	20826
838.819	20590
838.956	20549
839.094	20541
839.231	20545
839.369	20686
839.506	20921
839.643	20682
839.781	20560
839.918	20427
840.055	20434
840.193	20457
840.33	20362
840.467	20442
840.604	20575
840.742	20674
840.879	20370
841.016	20305
841.153	20305
841.29	20556
841.427	20431
841.564	20457
841.701	20271
841.838	20450
841.975	20271
842.112	20252
842.249	20313
842.385	20103
842.522	20339
842.659	20259
842.796	20191
842.933	20202
843.069	20164
843.206	20168
843.343	20278
843.479	20256
843.616	20149
843.752	19993
843.889	19841
844.025	20115
844.162	19951
844.298	20024
844.435	19940
844.571	19986
844.708	19887
844.844	20065
844.98	20062
845.117	19944
845.253	19852
845.389	19860
845.525	19799
845.661	19803
845.798	19723
845.934	19715
846.07	19757
846.206	19700
846.342	19700
846.478	19537
846.614	19518
846.75	19354
846.886	19407
847.022	19381
847.158	19426
847.294	19304
847.429	19422
847.565	19327
847.701	19666
847.837	19122
847.972	19076
848.108	19244
848.244	19168
848.379	19080
848.515	18833
848.65	18890
848.786	18958
848.921	18939
849.057	19023
849.192	19046
849.328	19072
849.463	18947
849.598	18916
849.734	18749
849.869	18856
850.004	18776
850.14	18688
850.275	18768
850.41	18753
850.545	18631
850.68	18669
850.815	18722
850.95	18707
851.085	18852
851.22	18787
851.355	18631
851.49	18589
851.625	18715
851.76	18730
851.895	18506
852.03	18509
852.165	18521
852.299	18673
852.434	18776
852.569	18776
852.703	18555
852.838	18642
852.973	18852
853.107	18719
853.242	18570
853.376	18570
853.511	18445
853.645	18399
853.78	18589
853.914	18635
854.048	18391
854.183	18441
854.317	18521
854.451	18665
854.585	18574
854.72	18525
854.854	18540
854.988	18418
855.122	18513
855.256	18319
855.39	18380
855.524	18555
855.658	18513
855.792	18433
855.926	18536
856.06	18433
856.194	18631
856.327	18441
856.461	18456
856.595	18448
856.729	18403
856.862	18513
856.996	18608
857.13	18544
857.263	18517
857.397	18563
857.53	18506
857.664	18517
857.797	18544
857.931	18502
858.064	18456
858.197	18654
858.331	18471
858.464	18460
858.597	18437
858.731	18555
858.864	18388
858.997	18452
859.13	18464
859.263	18483
859.396	18494
859.529	18330
859.662	18319
859.795	18201
859.928	18502
860.061	18593
860.194	18642
860.327	18429
860.46	18376
860.592	18540
860.725	18585
860.858	18448
860.99	18448
861.123	18471
861.256	18452
861.388	18372
861.521	19221
861.653	18270
861.786	18201
861.918	18289
862.05	18380
862.183	18304
862.315	18498
862.447	18429
862.58	18475
862.712	18262
862.844	18136
862.976	18319
863.108	18289
863.24	18563
863.372	18098
863.504	18228
863.636	18121
863.768	18190
863.9	18155
864.032	17996
864.164	18060
864.296	18232
864.428	18194
864.559	18201
864.691	18273
864.823	18174
864.954	18144
865.086	18136
865.217	18087
865.349	18076
865.48	17999
865.612	18148
865.743	18194
865.875	18022
866.006	18045
866.137	18114
866.269	18186
866.4	18133
866.531	18068
866.662	18007
866.793	17984
866.924	17965
867.055	18060
867.186	18003
867.317	17999
867.448	17935
867.579	18068
867.71	17992
867.841	18038
867.972	18076
868.103	17984
868.233	18003
868.364	18038
868.495	18083
868.625	18338
868.756	18376
868.886	18254
869.017	18270
869.147	18220
869.278	18395
869.408	18174
869.539	18369
869.669	18342
869.799	18292
869.929	18357
870.06	18376
870.19	18597
870.32	18532
870.45	18532
870.58	18692
870.71	18627
870.84	18837
870.97	18601
871.1	18715
871.23	18837
871.36	18833
871.489	18787
871.619	18768
871.749	18848
871.879	18692
872.008	18951
872.138	19031
872.267	18913
872.397	18730
872.526	18589
872.656	18688
872.785	18623
872.915	18848
873.044	18970
873.173	18867
873.303	18882
873.432	18878
873.561	18951
873.69	18916
873.819	18856
873.948	18863
874.077	18787
874.206	18776
874.335	18935
874.464	19088
874.593	19145
874.722	19099
874.851	19217
874.979	19236
875.108	19156
875.237	19072
875.365	19095
875.494	19019
875.623	19297
875.751	19175
875.88	19164
876.008	19335
876.136	19331
876.265	19662
876.393	19738
876.521	19571
876.65	19620
876.778	19487
876.906	19460
877.034	19514
877.162	19537
877.29	19438
877.418	19578
877.546	19590
877.674	19441
877.802	19594
877.93	19559
878.058	19529
878.185	19476
878.313	19529
878.441	19415
878.568	19304
878.696	19510
878.824	19616
878.951	19624
879.079	19753
879.206	19887
879.333	19719
879.461	19594
879.588	19662
879.715	19715
879.842	19761
879.97	19734
880.097	19369
880.224	19331
880.351	19384
880.478	19407
880.605	19331
880.732	19362
880.859	19643
880.986	19400
881.112	19320
881.239	19198
881.366	19103
881.493	19190
881.619	19023
881.746	19042
881.872	18970
881.999	18928
882.125	18878
882.252	19053
882.378	19015
882.505	19053
882.631	18943
882.757	18787
882.883	18844
883.01	18692
883.136	18768
883.262	18764
883.388	18509
883.514	18719
883.64	18753
883.766	18623
883.892	18589
884.018	18620
884.143	18719
884.269	18840
884.395	18578
884.52	18460
884.646	18547
884.772	18395
884.897	18403
885.023	18350
885.148	18597
885.274	18684
885.399	18574
885.524	18441
885.65	18437
885.775	18407
885.9	18372
886.025	18563
886.15	18517
886.275	18285
886.4	18342
886.525	18448
886.65	18399
886.775	18319
886.9	18486
887.025	18715
887.149	18304
887.274	18129
887.399	18114
887.523	18239
887.648	18213
887.773	18182
887.897	18167
888.021	18285
888.146	18125
888.27	18273
888.395	18311
888.519	18232
888.643	18232
888.767	18224
888.891	18098
889.015	17996
889.139	18045
889.263	17916
889.387	18098
889.511	18133
889.635	18110
889.759	17927
889.883	18072
890.006	17988
890.13	18095
890.254	17866
890.377	17836
890.501	17737
890.624	17748
890.748	17805
890.871	17604
890.995	17638
891.118	17554
891.241	17703
891.364	17600
891.488	17767
891.611	17573
891.734	17661
891.857	17680
891.98	17558
892.103	17741
892.226	17680
892.349	17615
892.471	17433
892.594	17649
892.717	17543
892.839	17634
892.962	17566
893.085	17623
893.207	17630
893.33	17421
893.452	17539
893.575	17570
893.697	17528
893.819	17691
893.941	17726
894.064	17672
894.186	17532
894.308	17566
894.43	17535
894.552	17680
894.674	17722
894.796	17429
894.918	17516
895.04	17516
895.161	17528
895.283	17661
895.405	17554
895.526	17611
895.648	17566
895.769	17577
895.891	17642
896.012	17771
896.134	17577
896.255	17767
896.376	17638
896.498	17596
896.619	17653
896.74	17619
896.861	17741
896.982	17980
897.103	18201
897.224	17927
897.345	17946
897.466	17893
897.587	17813
897.708	18049
897.828	17874
897.949	17809
898.07	17817
898.19	17878
898.311	17977
898.431	17710
898.552	17897
898.672	18064
898.792	17958
898.913	17939
899.033	17821
899.153	17684
899.273	17570
899.393	17634
899.513	17638
899.633	17703
899.753	17729
899.873	17718
899.993	17638
900.113	17611
900.232	17703
900.352	17592
900.472	17539
900.591	17486
900.711	17604
900.83	17440
900.95	17512
901.069	17627
901.189	17543
901.308	17296
901.427	17075
901.546	17242
901.665	17280
901.784	17147
901.904	17052
902.023	16987
902.141	16698
902.26	16713
902.379	16763
902.498	16653
902.617	16588
902.735	16755
902.854	16702
902.973	16573
903.091	16409
903.21	16367
903.328	16478
903.446	16238
903.565	16181
903.683	16272
903.801	16021
903.919	16166
904.038	16131
904.156	16105
904.274	16067
904.392	16025
904.51	15953
904.627	15956
904.745	15968
904.863	16029
904.981	15705
905.098	15633
905.216	15739
905.334	15622
905.451	15720
905.569	15637
905.686	15717
905.803	15633
905.921	15424
906.038	15530
906.155	15424
906.272	15355
906.389	15401
906.506	15252
906.623	15230
906.74	15085
906.857	15154
906.974	15074
907.091	15401
907.208	15264
907.324	15272
907.441	15077
907.557	14921
907.674	14944
907.79	14834
907.907	14925
908.023	14971
908.139	14960
908.256	14804
908.372	14834
908.488	14868
908.604	14689
908.72	14537
908.836	14674
908.952	14503
909.068	14712
909.184	14796
909.3	14541
909.415	14571
909.531	14568
909.647	14309
909.762	14362
909.878	14301
909.993	14446
910.108	14301
910.224	14339
910.339	14305
910.454	14240
910.57	14161
910.685	13936
910.8	14469
910.915	14271
911.03	14275
911.145	13978
911.259	13944
911.374	13898
911.489	13822
911.604	13799
911.718	13666
911.833	13685
911.947	13582
912.062	13480
912.176	13685
912.291	13727
912.405	13712
912.519	13860
912.633	13917
912.748	13681
912.862	13666
912.976	13472
913.09	13369
913.204	13537
913.318	13552
913.431	13613
913.545	13636
913.659	13525
913.772	13510
913.886	13430
914	13327
914.113	13449
914.226	13453
914.34	13331
914.453	13327
914.566	13411
914.68	13327
914.793	13274
914.906	13141
915.019	13027
915.132	12993
915.245	13042
915.358	12973
915.47	12989
915.583	13069
915.696	13084
915.809	13114
915.921	13190
916.034	12993
916.146	13027
916.259	12909
916.371	13053
916.483	12947
916.595	12905
916.708	12962
916.82	12863
916.932	12924
917.044	12825
917.156	12913
917.268	12776
917.38	12776
917.491	12764
917.603	12753
917.715	12764
917.826	12753
917.938	12722
918.049	12711
918.161	12734
918.272	12844
918.384	12814
918.495	12837
918.606	12563
918.717	12471
918.828	12582
918.939	12551
919.05	12570
919.161	12513
919.272	12467
919.383	12456
919.494	12631
919.604	12696
919.715	12426
919.826	12456
919.936	12429
920.047	12513
920.157	12635
920.267	12677
920.378	12471
920.488	12528
920.598	12688
920.708	12829
920.818	12703
920.928	12677
921.038	12825
921.148	12688
921.258	12547
921.368	12437
921.477	12311
921.587	12330
921.697	12133
921.806	12311
921.916	12098
922.025	12121
922.134	12011
922.244	11958
922.353	12038
922.462	11821
922.571	11790
922.68	11646
922.789	11627
922.898	11611
923.007	11543
923.116	11737
923.224	11592
923.333	11577
923.442	11486
923.55	11444
923.659	11547
923.767	11684
923.876	11421
923.984	11505
924.092	11421
924.201	11474
924.309	11410
924.417	11425
924.525	11372
924.633	11360
924.741	12346
924.849	11166
924.956	11242
925.064	11166
925.172	11071
925.279	11086
925.387	11208
925.494	11216
925.602	11261
925.709	11204
925.816	11048
925.924	11250
926.031	11242
926.138	11136
926.245	11170
926.352	11052
926.459	11151
926.566	11227
926.673	11098
926.779	10923
926.886	10987
926.993	10850
927.099	10793
927.206	10729
927.312	10736
927.419	10797
927.525	10755
927.631	10809
927.737	10653
927.843	10702
927.95	10565
928.056	10588
928.162	10683
928.267	10668
928.373	11337
928.479	10691
928.585	10554
928.69	10687
928.796	10615
928.901	10508
929.007	10478
929.112	10588
929.218	10489
929.323	10443
929.428	10466
929.533	10519
929.638	10379
929.743	10375
929.848	10409
929.953	10382
930.058	10303
930.163	10166
930.267	10192
930.372	10261
930.477	10074
930.581	10287
930.685	10200
930.79	10097
930.894	10071
930.998	10017
931.103	10131
931.207	9827
931.311	9622
931.415	9713
931.519	9507
931.623	9393
