Data from test_V78500241_1391.txt Node
Date: Fri Mar 25 14:43:24 CST 2022
User: usil
Spectrometer: V785-0024
Trigger mode: 0
Integration Time (sec): 4.000000E-1
Scans to average: 1
Nonlinearity correction enabled: false
Boxcar width: 0
Storing dark spectrum: false
XAxis mode: Wavelengths
Number of Pixels in Spectrum: 1024
>>>>>Begin Spectral Data<<<<<
801.071	22622
801.214	22394
801.356	22204
801.499	22029
801.641	21861
801.783	21854
801.926	21831
802.068	21842
802.211	21800
802.353	21709
802.496	21431
802.638	21359
802.78	21252
802.923	21252
803.065	21089
803.208	21127
803.35	21195
803.492	21272
803.635	21279
803.777	21203
803.919	21195
804.061	21587
804.204	21207
804.346	21062
804.488	21077
804.63	21116
804.773	21036
804.915	21116
805.057	21199
805.199	21074
805.341	21150
805.483	21230
805.626	21154
805.768	21070
805.91	21062
806.052	21013
806.194	20937
806.336	21123
806.478	20994
806.62	21085
806.762	21108
806.904	21321
807.046	21488
807.188	21447
807.33	21458
807.472	21458
807.614	21374
807.756	21466
807.898	21378
808.04	21287
808.182	21180
808.324	21408
808.465	21416
808.607	21701
808.749	21747
808.891	21789
809.033	21857
809.174	21823
809.316	21679
809.458	21625
809.6	21511
809.741	21542
809.883	21690
810.025	21576
810.166	21720
810.308	21644
810.45	21732
810.591	21511
810.733	21355
810.875	21363
811.016	21150
811.158	21203
811.299	21378
811.441	21435
811.582	21458
811.724	21275
811.865	21138
812.007	21268
812.148	21329
812.29	21348
812.431	21374
812.573	21488
812.714	21534
812.855	21701
812.997	21766
813.138	21945
813.279	21915
813.421	21838
813.562	21644
813.703	21583
813.845	21431
813.986	21074
814.127	20956
814.268	20853
814.41	20785
814.551	20811
814.692	20941
814.833	20746
814.974	20762
815.115	20811
815.256	20663
815.397	20594
815.539	20602
815.68	20678
815.821	20511
815.962	20629
816.103	20556
816.244	20355
816.385	20320
816.526	20218
816.666	20103
816.807	19989
816.948	20134
817.089	20100
817.23	20039
817.371	19909
817.512	20039
817.653	19921
817.793	19700
817.934	19928
818.075	19902
818.216	20024
818.356	19902
818.497	19776
818.638	19628
818.778	19700
818.919	19647
819.06	19731
819.2	19712
819.341	19849
819.481	19864
819.622	19955
819.762	20115
819.903	20020
820.043	19989
820.184	19925
820.324	19902
820.465	20103
820.605	19959
820.746	19921
820.886	19712
821.026	19936
821.167	19879
821.307	20020
821.447	19693
821.588	19727
821.728	19613
821.868	19510
822.008	19377
822.149	19270
822.289	19365
822.429	19038
822.569	19019
822.709	19023
822.849	18935
822.99	18890
823.13	18871
823.27	18783
823.41	18684
823.55	18513
823.69	18764
823.83	18593
823.97	18616
824.11	18445
824.25	18388
824.389	18414
824.529	18433
824.669	18334
824.809	18479
824.949	18498
825.089	18467
825.228	18414
825.368	18163
825.508	18197
825.648	18224
825.787	18239
825.927	18270
826.067	18197
826.206	18121
826.346	18228
826.485	18247
826.625	18174
826.765	18262
826.904	18232
827.044	17916
827.183	17931
827.323	17920
827.462	17996
827.601	17901
827.741	17901
827.88	17885
828.02	17764
828.159	17870
828.298	17885
828.437	17984
828.577	17836
828.716	17988
828.855	17847
828.994	17684
829.134	17634
829.273	17672
829.412	17604
829.551	17528
829.69	17535
829.829	17649
829.968	17737
830.107	17703
830.246	17630
830.385	17509
830.524	17551
830.663	17452
830.802	17337
830.941	17239
831.08	17037
831.219	17246
831.357	17254
831.496	17452
831.635	17208
831.774	17090
831.913	17098
832.051	16976
832.19	17151
832.329	17060
832.467	16980
832.606	16858
832.744	16968
832.883	16919
833.022	16961
833.16	16965
833.299	16938
833.437	16995
833.576	17006
833.714	16999
833.852	16968
833.991	17037
834.129	17151
834.267	17029
834.406	17033
834.544	17056
834.682	16965
834.821	16949
834.959	17204
835.097	16976
835.235	17090
835.373	16949
835.511	17033
835.65	16831
835.788	16900
835.926	16733
836.064	16637
836.202	16786
836.34	16892
836.478	16999
836.615	16934
836.753	16900
836.891	16976
837.029	16987
837.167	16843
837.305	16809
837.443	16740
837.58	16748
837.718	16869
837.856	16805
837.993	16755
838.131	16774
838.269	16580
838.406	16694
838.544	16599
838.681	16508
838.819	16493
838.956	16166
839.094	16257
839.231	16443
839.369	16459
839.506	16664
839.643	16554
839.781	16257
839.918	16253
840.055	16344
840.193	16337
840.33	16223
840.467	16322
840.604	16226
840.742	16459
840.879	16200
841.016	16135
841.153	16204
841.29	16363
841.427	16200
841.564	16249
841.701	16242
841.838	16246
841.975	16188
842.112	16196
842.249	16112
842.385	16002
842.522	16318
842.659	16173
842.796	16078
842.933	16051
843.069	15930
843.206	15975
843.343	16230
843.479	16063
843.616	16048
843.752	15915
843.889	15835
844.025	15960
844.162	15755
844.298	15816
844.435	15797
844.571	15797
844.708	15774
844.844	16048
844.98	15998
845.117	15983
845.253	15873
845.389	15823
845.525	15937
845.661	15835
845.798	15827
845.934	16002
846.07	15949
846.206	16025
846.342	16071
846.478	15873
846.614	15576
846.75	15420
846.886	15477
847.022	15553
847.158	15511
847.294	15367
847.429	15412
847.565	15317
847.701	15648
847.837	15264
847.972	15017
848.108	15325
848.244	15047
848.379	15097
848.515	15039
848.65	15074
848.786	15036
848.921	14982
849.057	15127
849.192	15180
849.328	15062
849.463	14960
849.598	14979
849.734	14921
849.869	14868
850.004	14845
850.14	14845
850.275	14838
850.41	14705
850.545	14727
850.68	14754
850.815	14834
850.95	14712
851.085	14887
851.22	14891
851.355	14815
851.49	14682
851.625	14781
851.76	14716
851.895	14598
852.03	14678
852.165	14727
852.299	14796
852.434	14781
852.569	14834
852.703	14788
852.838	14788
852.973	14876
853.107	14876
853.242	14674
853.376	14670
853.511	14473
853.645	14579
853.78	14708
853.914	14716
854.048	14579
854.183	14587
854.317	14682
854.451	14819
854.585	14495
854.72	14632
854.854	14659
854.988	14549
855.122	14537
855.256	14465
855.39	14522
855.524	14712
855.658	14705
855.792	14651
855.926	14697
856.06	14629
856.194	14750
856.327	14590
856.461	14590
856.595	14651
856.729	14579
856.862	14686
856.996	14670
857.13	14632
857.263	14769
857.397	14731
857.53	14530
857.664	14651
857.797	14769
857.931	14857
858.064	14606
858.197	14739
858.331	14579
858.464	14587
858.597	14556
858.731	14568
858.864	14560
858.997	14575
859.13	14571
859.263	14708
859.396	14720
859.529	14606
859.662	14560
859.795	14705
859.928	14632
860.061	14796
860.194	14804
860.327	14602
860.46	14659
860.592	14785
860.725	14773
860.858	14674
860.99	14613
861.123	14587
861.256	14610
861.388	14648
861.521	15336
861.653	14415
861.786	14412
861.918	14480
862.05	14457
862.183	14594
862.315	14610
862.447	14625
862.58	14606
862.712	14415
862.844	14362
862.976	14454
863.108	14492
863.24	14853
863.372	14294
863.504	14431
863.636	14484
863.768	14518
863.9	14358
864.032	14320
864.164	14404
864.296	14438
864.428	14533
864.559	14507
864.691	14507
864.823	14530
864.954	14332
865.086	14415
865.217	14377
865.349	14366
865.48	14465
865.612	14374
865.743	14613
865.875	14393
866.006	14309
866.137	14419
866.269	14412
866.4	14351
866.531	14237
866.662	14305
866.793	14362
866.924	14298
867.055	14446
867.186	14370
867.317	14377
867.448	14343
867.579	14267
867.71	14339
867.841	14427
867.972	14442
868.103	14427
868.233	14374
868.364	14381
868.495	14495
868.625	14583
868.756	14701
868.886	14644
869.017	14583
869.147	14758
869.278	14781
869.408	14590
869.539	14667
869.669	14693
869.799	14663
869.929	14746
870.06	14796
870.19	14876
870.32	14861
870.45	14971
870.58	15020
870.71	15047
870.84	15112
870.97	14990
871.1	15077
871.23	15245
871.36	15272
871.489	15157
871.619	15161
871.749	15169
871.879	15241
872.008	15245
872.138	15222
872.267	15230
872.397	15112
872.526	14956
872.656	15047
872.785	15112
872.915	15291
873.044	15249
873.173	15283
873.303	15340
873.432	15389
873.561	15245
873.69	15374
873.819	15268
873.948	15450
874.077	15332
874.206	15192
874.335	15237
874.464	15447
874.593	15549
874.722	15507
874.851	15633
874.979	15599
875.108	15656
875.237	15504
875.365	15481
875.494	15572
875.623	15568
875.751	15568
875.88	15625
876.008	15728
876.136	15857
876.265	15960
876.393	16204
876.521	16074
876.65	16013
876.778	16048
876.906	16010
877.034	15934
877.162	15945
877.29	15915
877.418	15930
877.546	15987
877.674	16078
877.802	16082
877.93	16002
878.058	15907
878.185	15865
878.313	15941
878.441	16090
878.568	15793
878.696	15907
878.824	16181
878.951	16215
879.079	16169
879.206	16546
879.333	16265
879.461	16234
879.588	16299
879.715	16329
879.842	16516
879.97	16196
880.097	15941
880.224	15911
880.351	15911
880.478	16010
880.605	15873
880.732	15907
880.859	16124
880.986	15857
881.112	15827
881.239	15766
881.366	15629
881.493	15526
881.619	15530
881.746	15511
881.872	15549
881.999	15576
882.125	15519
882.252	15587
882.378	15599
882.505	15728
882.631	15447
882.757	15275
882.883	15405
883.01	15424
883.136	15401
883.262	15211
883.388	15325
883.514	15397
883.64	15416
883.766	15340
883.892	15135
884.018	15306
884.143	15260
884.269	15420
884.395	15043
884.52	15119
884.646	15093
884.772	14963
884.897	14982
885.023	15062
885.148	15070
885.274	15192
885.399	15214
885.524	15150
885.65	15119
885.775	15039
885.9	15055
886.025	15207
886.15	15138
886.275	15013
886.4	15001
886.525	14963
886.65	14971
886.775	14971
886.9	15184
887.025	15214
887.149	15074
887.274	14956
887.399	14804
887.523	14830
887.648	14720
887.773	14788
887.897	14921
888.021	14883
888.146	14861
888.27	14963
888.395	15051
888.519	15009
888.643	14921
888.767	14895
888.891	14701
889.015	14724
889.139	14788
889.263	14617
889.387	14861
889.511	14933
889.635	14899
889.759	14701
889.883	14746
890.006	14743
890.13	14781
890.254	14640
890.377	14648
890.501	14480
890.624	14480
890.748	14587
890.871	14377
890.995	14427
891.118	14377
891.241	14465
891.364	14499
891.488	14575
891.611	14381
891.734	14412
891.857	14507
891.98	14438
892.103	14324
892.226	14457
892.349	14423
892.471	14320
892.594	14385
892.717	14442
892.839	14313
892.962	14362
893.085	14518
893.207	14480
893.33	14275
893.452	14336
893.575	14419
893.697	14415
893.819	14514
893.941	14590
894.064	14522
894.186	14404
894.308	14412
894.43	14575
894.552	14606
894.674	14507
894.796	14377
894.918	14450
895.04	14484
895.161	14454
895.283	14518
895.405	14537
895.526	14454
895.648	14374
895.769	14587
895.891	14640
896.012	14602
896.134	14560
896.255	14571
896.376	14503
896.498	14537
896.619	14617
896.74	14503
896.861	14537
896.982	14952
897.103	15047
897.224	14804
897.345	14754
897.466	14807
897.587	14872
897.708	14918
897.828	14899
897.949	14826
898.07	14625
898.19	14712
898.311	14914
898.431	14861
898.552	14929
898.672	14998
898.792	15001
898.913	14952
899.033	14781
899.153	14781
899.273	14648
899.393	14724
899.513	14727
899.633	14750
899.753	14800
899.873	14781
899.993	14746
900.113	14762
900.232	14815
900.352	14701
900.472	14735
900.591	14644
900.711	14670
900.83	14606
900.95	14670
901.069	14689
901.189	14537
901.308	14332
901.427	14358
901.546	14275
901.665	14339
901.784	14218
901.904	14149
902.023	14092
902.141	13928
902.26	13906
902.379	13967
902.498	13795
902.617	13757
902.735	13986
902.854	13814
902.973	13845
903.091	13655
903.21	13613
903.328	13700
903.446	13430
903.565	13339
903.683	13464
903.801	13259
903.919	13316
904.038	13403
904.156	13175
904.274	13339
904.392	13304
904.51	13251
904.627	13228
904.745	13255
904.863	13285
904.981	13038
905.098	12905
905.216	12958
905.334	13004
905.451	12901
905.569	12932
905.686	12928
905.803	12894
905.921	12783
906.038	12844
906.155	12745
906.272	12719
906.389	12665
906.506	12494
906.623	12551
906.74	12479
906.857	12350
906.974	12327
907.091	12593
907.208	12654
907.324	12479
907.441	12437
907.557	12273
907.674	12273
907.79	12194
907.907	12209
908.023	12342
908.139	12262
908.256	12178
908.372	12148
908.488	12148
908.604	11950
908.72	11878
908.836	12041
908.952	11920
909.068	11973
909.184	12095
909.3	12003
909.415	12019
909.531	12060
909.647	11836
909.762	11748
909.878	11668
909.993	11752
910.108	11733
910.224	11733
910.339	11726
910.454	11642
910.57	11585
910.685	11627
910.8	11832
910.915	11737
911.03	11676
911.145	11467
911.259	11425
911.374	11425
911.489	11436
911.604	11364
911.718	11166
911.833	11258
911.947	11102
912.062	11056
912.176	11204
912.291	11212
912.405	11102
912.519	11421
912.633	11425
912.748	11227
912.862	11197
912.976	11121
913.09	10965
913.204	10923
913.318	11098
913.431	11109
913.545	11189
913.659	11174
913.772	11048
913.886	11052
914	10942
914.113	11060
914.226	10980
914.34	11094
914.453	10831
914.566	10995
914.68	10873
914.793	10949
914.906	10714
915.019	10691
915.132	10603
915.245	10733
915.358	10755
915.47	10679
915.583	10683
915.696	10824
915.809	10786
915.921	10854
916.034	10687
916.146	10687
916.259	10694
916.371	10706
916.483	10679
916.595	10599
916.708	10584
916.82	10679
916.932	10565
917.044	10603
917.156	10607
917.268	10561
917.38	10500
917.491	10428
917.603	10512
917.715	10592
917.826	10717
917.938	10519
918.049	10440
918.161	10440
918.272	10645
918.384	10675
918.495	10603
918.606	10428
918.717	10344
918.828	10402
918.939	10451
919.05	10329
919.161	10367
919.272	10192
919.383	10223
919.494	10481
919.604	10656
919.715	10436
919.826	10382
919.936	10390
920.047	10466
920.157	10474
920.267	10592
920.378	10470
920.488	10329
920.598	10626
920.708	10755
920.818	10698
920.928	10596
921.038	10698
921.148	10675
921.258	10436
921.368	10356
921.477	10246
921.587	10223
921.697	10120
921.806	10272
921.916	10109
922.025	10017
922.134	9941
922.244	9907
922.353	10002
922.462	9930
922.571	9842
922.68	9614
922.789	9724
922.898	9656
923.007	9644
923.116	9622
923.224	9705
923.333	9614
923.442	9599
923.55	9545
923.659	9587
923.767	9637
923.876	9504
923.984	9557
924.092	9447
924.201	9473
924.309	9469
924.417	9511
924.525	9488
924.633	9496
924.741	10405
924.849	9306
924.956	9359
925.064	9310
925.172	9294
925.279	9340
925.387	9351
925.494	9329
925.602	9393
925.709	9378
925.816	9272
925.924	9268
926.031	9416
926.138	9336
926.245	9359
926.352	9184
926.459	9321
926.566	9367
926.673	9294
926.779	9173
926.886	9112
926.993	9097
927.099	8952
927.206	8990
927.312	8948
927.419	9058
927.525	8975
927.631	9028
927.737	8906
927.843	8941
927.95	8758
928.056	8864
928.162	8952
928.267	9017
928.373	9553
928.479	9009
928.585	8796
928.69	8883
928.796	8960
928.901	8735
929.007	8644
929.112	8834
929.218	8826
929.323	8720
929.428	8750
929.533	8796
929.638	8598
929.743	8644
929.848	8724
929.953	8727
930.058	8670
930.163	8457
930.267	8526
930.372	8701
930.477	8431
930.581	8735
930.685	8541
930.79	8454
930.894	8473
930.998	8473
931.103	8594
931.207	8282
931.311	8229
931.415	8115
931.519	7967
931.623	7898
