Data from test_V78500241_2325.txt Node
Date: Fri Mar 25 14:49:54 CST 2022
User: usil
Spectrometer: V785-0024
Trigger mode: 0
Integration Time (sec): 4.000000E-1
Scans to average: 1
Nonlinearity correction enabled: false
Boxcar width: 0
Storing dark spectrum: false
XAxis mode: Wavelengths
Number of Pixels in Spectrum: 1024
>>>>>Begin Spectral Data<<<<<
801.071	22173
801.214	22211
801.356	21793
801.499	21785
801.641	21709
801.783	21462
801.926	21496
802.068	21439
802.211	21450
802.353	21260
802.496	21138
802.638	21024
802.78	20933
802.923	20937
803.065	20724
803.208	20933
803.35	20952
803.492	21009
803.635	20979
803.777	20838
803.919	20975
804.061	21279
804.204	20979
804.346	20823
804.488	20678
804.63	20826
804.773	20788
804.915	20735
805.057	20876
805.199	20701
805.341	20880
805.483	20960
805.626	20853
805.768	20880
805.91	20838
806.052	20876
806.194	20724
806.336	20914
806.478	20731
806.62	20712
806.762	20754
806.904	21100
807.046	21161
807.188	21119
807.33	21112
807.472	21226
807.614	21047
807.756	21028
807.898	20986
808.04	20861
808.182	20743
808.324	20895
808.465	20861
808.607	21119
808.749	21237
808.891	21321
809.033	21374
809.174	21222
809.316	21051
809.458	21173
809.6	21195
809.741	21329
809.883	21112
810.025	21310
810.166	21321
810.308	21435
810.45	21180
810.591	21272
810.733	20990
810.875	20937
811.016	20941
811.158	20819
811.299	20971
811.441	21176
811.582	21135
811.724	20975
811.865	20899
812.007	20842
812.148	20952
812.29	20815
812.431	21104
812.573	21298
812.714	21272
812.855	21374
812.997	21485
813.138	21610
813.279	21542
813.421	21477
813.562	21382
813.703	21287
813.845	21123
813.986	20804
814.127	20686
814.268	20587
814.41	20473
814.551	20484
814.692	20598
814.833	20393
814.974	20442
815.115	20488
815.256	20336
815.397	20332
815.539	20355
815.68	20233
815.821	20218
815.962	20271
816.103	20107
816.244	20024
816.385	19993
816.526	19921
816.666	19731
816.807	19662
816.948	19624
817.089	19791
817.23	19708
817.371	19639
817.512	19624
817.653	19635
817.793	19521
817.934	19712
818.075	19563
818.216	19655
818.356	19556
818.497	19381
818.638	19266
818.778	19228
818.919	19232
819.06	19274
819.2	19441
819.341	19499
819.481	19518
819.622	19655
819.762	19746
819.903	19693
820.043	19658
820.184	19594
820.324	19594
820.465	19628
820.605	19624
820.746	19578
820.886	19483
821.026	19613
821.167	19613
821.307	19666
821.447	19514
821.588	19525
821.728	19183
821.868	19209
822.008	19057
822.149	19088
822.289	18943
822.429	18844
822.569	18764
822.709	18749
822.849	18486
822.99	18532
823.13	18589
823.27	18490
823.41	18410
823.55	18304
823.69	18327
823.83	18433
823.97	18209
824.11	18083
824.25	18083
824.389	18072
824.529	18209
824.669	18125
824.809	18171
824.949	18224
825.089	18163
825.228	18277
825.368	17958
825.508	17923
825.648	17984
825.787	17897
825.927	17939
826.067	17908
826.206	17817
826.346	17851
826.485	17950
826.625	17855
826.765	17973
826.904	17786
827.044	17619
827.183	17577
827.323	17501
827.462	17543
827.601	17562
827.741	17547
827.88	17596
828.02	17497
828.159	17581
828.298	17543
828.437	17562
828.577	17547
828.716	17737
828.855	17562
828.994	17364
829.134	17315
829.273	17318
829.412	17250
829.551	17220
829.69	17345
829.829	17436
829.968	17398
830.107	17273
830.246	17292
830.385	17307
830.524	17128
830.663	17029
830.802	16942
830.941	16877
831.08	16908
831.219	16968
831.357	17037
831.496	17143
831.635	16946
831.774	16767
831.913	16763
832.051	16561
832.19	16759
832.329	16683
832.467	16607
832.606	16523
832.744	16569
832.883	16630
833.022	16531
833.16	16702
833.299	16512
833.437	16660
833.576	16649
833.714	16675
833.852	16592
833.991	16588
834.129	16736
834.267	16596
834.406	16710
834.544	16691
834.682	16672
834.821	16687
834.959	16782
835.097	16603
835.235	16774
835.373	16653
835.511	16645
835.65	16611
835.788	16478
835.926	16478
836.064	16314
836.202	16367
836.34	16531
836.478	16634
836.615	16504
836.753	16618
836.891	16592
837.029	16660
837.167	16603
837.305	16440
837.443	16443
837.58	16375
837.718	16440
837.856	16428
837.993	16478
838.131	16413
838.269	16303
838.406	16417
838.544	16196
838.681	16067
838.819	16112
838.956	15895
839.094	15956
839.231	16002
839.369	16010
839.506	16367
839.643	16185
839.781	15895
839.918	16010
840.055	16013
840.193	15899
840.33	15888
840.467	15937
840.604	15953
840.742	16116
840.879	15892
841.016	15816
841.153	15838
841.29	16067
841.427	15945
841.564	15934
841.701	16093
841.838	15880
841.975	15797
842.112	15816
842.249	15732
842.385	15717
842.522	15911
842.659	15705
842.796	15686
842.933	15652
843.069	15641
843.206	15690
843.343	15751
843.479	15751
843.616	15804
843.752	15504
843.889	15469
844.025	15618
844.162	15492
844.298	15553
844.435	15435
844.571	15561
844.708	15545
844.844	15652
844.98	15614
845.117	15538
845.253	15504
845.389	15401
845.525	15393
845.661	15439
845.798	15268
845.934	15382
846.07	15291
846.206	15420
846.342	15389
846.478	15340
846.614	15100
846.75	15089
846.886	15070
847.022	15188
847.158	15081
847.294	15066
847.429	15180
847.565	15081
847.701	15348
847.837	14906
847.972	14769
848.108	14899
848.244	14853
848.379	14663
848.515	14724
848.65	14682
848.786	14724
848.921	14644
849.057	14796
849.192	14838
849.328	14746
849.463	14678
849.598	14701
849.734	14610
849.869	14526
850.004	14484
850.14	14495
850.275	14385
850.41	14427
850.545	14454
850.68	14415
850.815	14450
850.95	14450
851.085	14587
851.22	14488
851.355	14434
851.49	14412
851.625	14370
851.76	14362
851.895	14294
852.03	14298
852.165	14457
852.299	14400
852.434	14541
852.569	14442
852.703	14412
852.838	14549
852.973	14503
853.107	14549
853.242	14446
853.376	14298
853.511	14206
853.645	14218
853.78	14412
853.914	14393
854.048	14214
854.183	14252
854.317	14412
854.451	14473
854.585	14278
854.72	14290
854.854	14347
854.988	14202
855.122	14305
855.256	14221
855.39	14301
855.524	14385
855.658	14278
855.792	14237
855.926	14370
856.06	14389
856.194	14427
856.327	14282
856.461	14252
856.595	14256
856.729	14210
856.862	14431
856.996	14355
857.13	14400
857.263	14495
857.397	14465
857.53	14233
857.664	14434
857.797	14454
857.931	14431
858.064	14396
858.197	14415
858.331	14317
858.464	14237
858.597	14199
858.731	14259
858.864	14161
858.997	14358
859.13	14298
859.263	14339
859.396	14423
859.529	14275
859.662	14221
859.795	14240
859.928	14324
860.061	14427
860.194	14492
860.327	14301
860.46	14286
860.592	14484
860.725	14484
860.858	14427
860.99	14309
861.123	14271
861.256	14294
861.388	14294
861.521	14804
861.653	14123
861.786	14161
861.918	14183
862.05	14138
862.183	14259
862.315	14343
862.447	14343
862.58	14237
862.712	14050
862.844	14005
862.976	14202
863.108	14123
863.24	14503
863.372	13993
863.504	14050
863.636	14119
863.768	14115
863.9	14111
864.032	13997
864.164	13989
864.296	14161
864.428	14191
864.559	14191
864.691	14092
864.823	14202
864.954	14035
865.086	14149
865.217	13997
865.349	14027
865.48	14050
865.612	14069
865.743	14164
865.875	14096
866.006	13970
866.137	13947
866.269	14024
866.4	14111
866.531	14046
866.662	14005
866.793	13970
866.924	14027
867.055	14073
867.186	13993
867.317	13936
867.448	13932
867.579	13955
867.71	13936
867.841	13928
867.972	14084
868.103	14065
868.233	14088
868.364	13978
868.495	14214
868.625	14210
868.756	14358
868.886	14320
869.017	14396
869.147	14484
869.278	14423
869.408	14347
869.539	14259
869.669	14465
869.799	14366
869.929	14415
870.06	14473
870.19	14583
870.32	14541
870.45	14648
870.58	14731
870.71	14750
870.84	14826
870.97	14678
871.1	14636
871.23	14857
871.36	14815
871.489	14792
871.619	14906
871.749	14834
871.879	14880
872.008	14975
872.138	14895
872.267	14910
872.397	14754
872.526	14727
872.656	14773
872.785	14800
872.915	14880
873.044	14998
873.173	14994
873.303	15005
873.432	15058
873.561	15119
873.69	14933
873.819	14990
873.948	15074
874.077	15058
874.206	14963
874.335	14876
874.464	15150
874.593	15150
874.722	15192
874.851	15340
874.979	15310
875.108	15283
875.237	15218
875.365	15192
875.494	15237
875.623	15332
875.751	15211
875.88	15264
876.008	15458
876.136	15530
876.265	15663
876.393	15838
876.521	15827
876.65	15785
876.778	15724
876.906	15713
877.034	15637
877.162	15648
877.29	15519
877.418	15675
877.546	15652
877.674	15675
877.802	15595
877.93	15724
878.058	15667
878.185	15595
878.313	15698
878.441	15705
878.568	15549
878.696	15584
878.824	15622
878.951	15762
879.079	15892
879.206	16032
879.333	15911
879.461	15682
879.588	15835
879.715	15857
879.842	15972
879.97	15717
880.097	15538
880.224	15580
880.351	15485
880.478	15644
880.605	15519
880.732	15564
880.859	15774
880.986	15538
881.112	15629
881.239	15344
881.366	15382
881.493	15116
881.619	15207
881.746	15233
881.872	15135
881.999	15116
882.125	15192
882.252	15283
882.378	15367
882.505	15363
882.631	15142
882.757	14921
882.883	15039
883.01	14971
883.136	14857
883.262	14891
883.388	14864
883.514	14975
883.64	15070
883.766	14952
883.892	14708
884.018	14849
884.143	15028
884.269	15135
884.395	14739
884.52	14788
884.646	14648
884.772	14632
884.897	14594
885.023	14857
885.148	14750
885.274	14819
885.399	14727
885.524	14716
885.65	14686
885.775	14693
885.9	14701
886.025	14857
886.15	14739
886.275	14533
886.4	14610
886.525	14712
886.65	14686
886.775	14705
886.9	14880
887.025	14941
887.149	14610
887.274	14579
887.399	14610
887.523	14404
887.648	14461
887.773	14442
887.897	14552
888.021	14587
888.146	14442
888.27	14640
888.395	14594
888.519	14495
888.643	14530
888.767	14526
888.891	14457
889.015	14408
889.139	14454
889.263	14290
889.387	14522
889.511	14545
889.635	14629
889.759	14385
889.883	14450
890.006	14434
890.13	14495
890.254	14385
890.377	14233
890.501	14077
890.624	14244
890.748	14233
890.871	14107
890.995	14149
891.118	14111
891.241	14073
891.364	14065
891.488	14187
891.611	14054
891.734	14054
891.857	14187
891.98	14176
892.103	14088
892.226	14214
892.349	14046
892.471	13928
892.594	14031
892.717	14077
892.839	14130
892.962	14077
893.085	14142
893.207	14126
893.33	13993
893.452	14058
893.575	14172
893.697	14039
893.819	14286
893.941	14187
894.064	14256
894.186	14134
894.308	14005
894.43	14256
894.552	14244
894.674	14183
894.796	14073
894.918	14153
895.04	14164
895.161	14290
895.283	14237
895.405	14062
895.526	14180
895.648	14278
895.769	14286
895.891	14320
896.012	14237
896.134	14267
896.255	14286
896.376	14229
896.498	14214
896.619	14202
896.74	14336
896.861	14328
896.982	14564
897.103	14838
897.224	14583
897.345	14457
897.466	14434
897.587	14507
897.708	14644
897.828	14556
897.949	14511
898.07	14431
898.19	14511
898.311	14655
898.431	14514
898.552	14579
898.672	14689
898.792	14693
898.913	14659
899.033	14533
899.153	14507
899.273	14385
899.393	14492
899.513	14514
899.633	14454
899.753	14518
899.873	14446
899.993	14568
900.113	14503
900.232	14473
900.352	14541
900.472	14442
900.591	14282
900.711	14328
900.83	14263
900.95	14408
901.069	14419
901.189	14275
901.308	14012
901.427	14039
901.546	14005
901.665	14084
901.784	14065
901.904	13947
902.023	13841
902.141	13544
902.26	13578
902.379	13746
902.498	13537
902.617	13499
902.735	13693
902.854	13563
902.973	13514
903.091	13289
903.21	13335
903.328	13266
903.446	13259
903.565	13194
903.683	13190
903.801	13027
903.919	13202
904.038	13103
904.156	12935
904.274	13061
904.392	12935
904.51	13000
904.627	12996
904.745	13053
904.863	13053
904.981	12711
905.098	12711
905.216	12665
905.334	12711
905.451	12658
905.569	12658
905.686	12665
905.803	12642
905.921	12490
906.038	12574
906.155	12456
906.272	12369
906.389	12486
906.506	12304
906.623	12300
906.74	12213
906.857	12152
906.974	12232
907.091	12281
907.208	12334
907.324	12209
907.441	12125
907.557	12015
907.674	11992
907.79	11832
907.907	11935
908.023	12041
908.139	12026
908.256	11977
908.372	11969
908.488	11916
908.604	11741
908.72	11714
908.836	11840
908.952	11630
909.068	11707
909.184	11878
909.3	11832
909.415	11786
909.531	11764
909.647	11608
909.762	11570
909.878	11535
909.993	11611
910.108	11501
910.224	11547
910.339	11486
910.454	11395
910.57	11410
910.685	11356
910.8	11623
910.915	11505
911.03	11414
911.145	11258
911.259	11246
911.374	11250
911.489	11147
911.604	11048
911.718	10946
911.833	11075
911.947	10889
912.062	10843
912.176	10930
912.291	10987
912.405	11006
912.519	11197
912.633	11117
912.748	11048
912.862	10999
912.976	10854
913.09	10782
913.204	10824
913.318	10869
913.431	10980
913.545	10946
913.659	10896
913.772	10835
913.886	10626
914	10710
914.113	10923
914.226	10885
914.34	10793
914.453	10637
914.566	10858
914.68	10672
914.793	10672
914.906	10493
915.019	10417
915.132	10432
915.245	10417
915.358	10478
915.47	10459
915.583	10516
915.696	10508
915.809	10611
915.921	10607
916.034	10451
916.146	10462
916.259	10363
916.371	10512
916.483	10485
916.595	10394
916.708	10413
916.82	10432
916.932	10405
917.044	10443
917.156	10367
917.268	10280
917.38	10325
917.491	10299
917.603	10333
917.715	10417
917.826	10428
917.938	10371
918.049	10105
918.161	10337
918.272	10459
918.384	10443
918.495	10382
918.606	10204
918.717	10078
918.828	10211
918.939	10150
919.05	10112
919.161	10181
919.272	10006
919.383	10044
919.494	10280
919.604	10333
919.715	10223
919.826	10143
919.936	10188
920.047	10261
920.157	10261
920.267	10462
920.378	10276
920.488	10116
920.598	10398
920.708	10630
920.818	10352
920.928	10459
921.038	10588
921.148	10527
921.258	10291
921.368	10204
921.477	10051
921.587	10063
921.697	9979
921.806	10036
921.916	10017
922.025	9793
922.134	9705
922.244	9747
922.353	9747
922.462	9648
922.571	9599
922.68	9424
922.789	9439
922.898	9435
923.007	9351
923.116	9492
923.224	9408
923.333	9523
923.442	9389
923.55	9275
923.659	9363
923.767	9439
923.876	9302
923.984	9389
924.092	9310
924.201	9321
924.309	9287
924.417	9348
924.525	9256
924.633	9302
924.741	9979
924.849	9154
924.956	9199
925.064	9119
925.172	9074
925.279	9157
925.387	9097
925.494	9138
925.602	9264
925.709	9218
925.816	9085
925.924	9112
926.031	9157
926.138	9173
926.245	9108
926.352	8967
926.459	9188
926.566	9142
926.673	9085
926.779	9020
926.886	8868
926.993	8914
927.099	8804
927.206	8697
927.312	8788
927.419	8826
927.525	8857
927.631	8868
927.737	8727
927.843	8785
927.95	8602
928.056	8743
928.162	8674
928.267	8777
928.373	9382
928.479	8834
928.585	8632
928.69	8670
928.796	8754
928.901	8712
929.007	8511
929.112	8678
929.218	8617
929.323	8575
929.428	8549
929.533	8636
929.638	8587
929.743	8533
929.848	8564
929.953	8610
930.058	8431
930.163	8351
930.267	8294
930.372	8473
930.477	8313
930.581	8461
930.685	8393
930.79	8157
930.894	8275
930.998	8244
931.103	8419
931.207	8069
931.311	8024
931.415	7906
931.519	7841
931.623	7757
