Data from test_V78500241_2970.txt Node
Date: Fri Mar 25 14:54:23 CST 2022
User: usil
Spectrometer: V785-0024
Trigger mode: 0
Integration Time (sec): 4.000000E-1
Scans to average: 1
Nonlinearity correction enabled: false
Boxcar width: 0
Storing dark spectrum: false
XAxis mode: Wavelengths
Number of Pixels in Spectrum: 1024
>>>>>Begin Spectral Data<<<<<
801.071	22215
801.214	22040
801.356	21698
801.499	21549
801.641	21485
801.783	21466
801.926	21412
802.068	21378
802.211	21447
802.353	21454
802.496	21066
802.638	20975
802.78	20864
802.923	20864
803.065	20758
803.208	20754
803.35	20750
803.492	20937
803.635	21032
803.777	20857
803.919	20868
804.061	21226
804.204	20830
804.346	20693
804.488	20640
804.63	20701
804.773	20625
804.915	20804
805.057	20693
805.199	20750
805.341	20819
805.483	20769
805.626	20758
805.768	20648
805.91	20743
806.052	20781
806.194	20632
806.336	20807
806.478	20765
806.62	20686
806.762	20834
806.904	20895
807.046	21138
807.188	21066
807.33	20994
807.472	21184
807.614	20982
807.756	20971
807.898	20796
808.04	20670
808.182	20678
808.324	20693
808.465	20819
808.607	20929
808.749	21055
808.891	21146
809.033	21188
809.174	21176
809.316	20998
809.458	21150
809.6	21131
809.741	21135
809.883	21055
810.025	21272
810.166	21176
810.308	21264
810.45	21176
810.591	21043
810.733	20975
810.875	20895
811.016	20788
811.158	20739
811.299	20902
811.441	20994
811.582	20925
811.724	20792
811.865	20853
812.007	20815
812.148	20826
812.29	20956
812.431	21146
812.573	21195
812.714	21237
812.855	21408
812.997	21428
813.138	21561
813.279	21450
813.421	21386
813.562	21252
813.703	20963
813.845	20918
813.986	20769
814.127	20560
814.268	20351
814.41	20495
814.551	20324
814.692	20446
814.833	20393
814.974	20442
815.115	20457
815.256	20298
815.397	20267
815.539	20237
815.68	20153
815.821	20153
815.962	20096
816.103	20256
816.244	19993
816.385	19947
816.526	19837
816.666	19696
816.807	19544
816.948	19662
817.089	19655
817.23	19563
817.371	19506
817.512	19590
817.653	19544
817.793	19514
817.934	19521
818.075	19571
818.216	19438
818.356	19544
818.497	19293
818.638	19266
818.778	19168
818.919	19133
819.06	19255
819.2	19407
819.341	19487
819.481	19407
819.622	19544
819.762	19696
819.903	19635
820.043	19480
820.184	19464
820.324	19457
820.465	19582
820.605	19556
820.746	19491
820.886	19289
821.026	19460
821.167	19411
821.307	19377
821.447	19350
821.588	19274
821.728	19168
821.868	19080
822.008	18951
822.149	18817
822.289	18875
822.429	18719
822.569	18627
822.709	18585
822.849	18483
822.99	18384
823.13	18327
823.27	18429
823.41	18102
823.55	18133
823.69	18239
823.83	18228
823.97	18114
824.11	18049
824.25	17885
824.389	17927
824.529	18083
824.669	17996
824.809	18064
824.949	18026
825.089	17965
825.228	17874
825.368	17779
825.508	17672
825.648	17889
825.787	17737
825.927	17661
826.067	17592
826.206	17741
826.346	17707
826.485	17668
826.625	17745
826.765	17805
826.904	17737
827.044	17474
827.183	17532
827.323	17356
827.462	17452
827.601	17383
827.741	17315
827.88	17433
828.02	17322
828.159	17433
828.298	17463
828.437	17566
828.577	17372
828.716	17509
828.855	17493
828.994	17223
829.134	17159
829.273	17197
829.412	17136
829.551	17003
829.69	17189
829.829	17159
829.968	17231
830.107	17246
830.246	17258
830.385	17067
830.524	17132
830.663	17029
830.802	16843
830.941	16778
831.08	16694
831.219	16930
831.357	16915
831.496	16961
831.635	16706
831.774	16588
831.913	16645
832.051	16485
832.19	16599
832.329	16470
832.467	16493
832.606	16474
832.744	16421
832.883	16485
833.022	16447
833.16	16516
833.299	16428
833.437	16421
833.576	16535
833.714	16546
833.852	16538
833.991	16561
834.129	16626
834.267	16523
834.406	16519
834.544	16466
834.682	16443
834.821	16405
834.959	16698
835.097	16405
835.235	16675
835.373	16459
835.511	16512
835.65	16409
835.788	16352
835.926	16246
836.064	16181
836.202	16207
836.34	16466
836.478	16447
836.615	16405
836.753	16451
836.891	16508
837.029	16440
837.167	16322
837.305	16386
837.443	16325
837.58	16249
837.718	16390
837.856	16356
837.993	16207
838.131	16223
838.269	16207
838.406	16280
838.544	16158
838.681	15994
838.819	15968
838.956	15774
839.094	15732
839.231	15880
839.369	15972
839.506	16185
839.643	16071
839.781	15827
839.918	15789
840.055	15816
840.193	15850
840.33	15793
840.467	15812
840.604	15888
840.742	16029
840.879	15724
841.016	15720
841.153	15709
841.29	15956
841.427	15736
841.564	15895
841.701	15876
841.838	15724
841.975	15705
842.112	15747
842.249	15736
842.385	15610
842.522	15759
842.659	15641
842.796	15481
842.933	15637
843.069	15523
843.206	15431
843.343	15637
843.479	15519
843.616	15644
843.752	15466
843.889	15458
844.025	15511
844.162	15359
844.298	15481
844.435	15397
844.571	15325
844.708	15367
844.844	15568
844.98	15473
845.117	15462
845.253	15294
845.389	15203
845.525	15344
845.661	15249
845.798	15123
845.934	15249
846.07	15157
846.206	15203
846.342	15355
846.478	15169
846.614	14975
846.75	14979
846.886	14868
847.022	15055
847.158	14937
847.294	14944
847.429	15039
847.565	14876
847.701	15203
847.837	14739
847.972	14648
848.108	14727
848.244	14731
848.379	14594
848.515	14541
848.65	14530
848.786	14518
848.921	14568
849.057	14773
849.192	14655
849.328	14579
849.463	14556
849.598	14556
849.734	14533
849.869	14419
850.004	14328
850.14	14298
850.275	14309
850.41	14256
850.545	14324
850.68	14313
850.815	14187
850.95	14271
851.085	14454
851.22	14461
851.355	14282
851.49	14229
851.625	14244
851.76	14267
851.895	14168
852.03	14221
852.165	14328
852.299	14366
852.434	14442
852.569	14294
852.703	14355
852.838	14313
852.973	14446
853.107	14545
853.242	14252
853.376	14168
853.511	14054
853.645	14123
853.78	14271
853.914	14240
854.048	14123
854.183	14157
854.317	14290
854.451	14332
854.585	14149
854.72	14134
854.854	14119
854.988	14016
855.122	14145
855.256	14069
855.39	14195
855.524	14305
855.658	14214
855.792	14248
855.926	14244
856.06	14229
856.194	14218
856.327	14176
856.461	14088
856.595	14103
856.729	14176
856.862	14233
856.996	14218
857.13	14199
857.263	14385
857.397	14362
857.53	14164
857.664	14229
857.797	14176
857.931	14320
858.064	14157
858.197	14282
858.331	14206
858.464	14088
858.597	14172
858.731	14168
858.864	14138
858.997	14081
859.13	14183
859.263	14195
859.396	14301
859.529	14290
859.662	14103
859.795	14187
859.928	14199
860.061	14339
860.194	14332
860.327	14221
860.46	14119
860.592	14271
860.725	14328
860.858	14339
860.99	14206
861.123	14100
861.256	14123
861.388	14168
861.521	14838
861.653	14145
861.786	13928
861.918	14088
862.05	14069
862.183	14199
862.315	14237
862.447	14218
862.58	14096
862.712	13913
862.844	13856
862.976	14062
863.108	14035
863.24	14305
863.372	13826
863.504	13986
863.636	13947
863.768	14024
863.9	13856
864.032	13864
864.164	13902
864.296	13997
864.428	14126
864.559	14073
864.691	14020
864.823	13947
864.954	14054
865.086	14016
865.217	13928
865.349	13917
865.48	13940
865.612	13978
865.743	14119
865.875	13997
866.006	13883
866.137	14039
866.269	13951
866.4	13947
866.531	13890
866.662	13807
866.793	13852
866.924	13887
867.055	14012
867.186	13894
867.317	13928
867.448	13890
867.579	13909
867.71	13830
867.841	13913
867.972	13993
868.103	13921
868.233	13951
868.364	13997
868.495	13986
868.625	14077
868.756	14305
868.886	14126
869.017	14259
869.147	14434
869.278	14317
869.408	14271
869.539	14138
869.669	14351
869.799	14313
869.929	14290
870.06	14332
870.19	14629
870.32	14552
870.45	14617
870.58	14636
870.71	14731
870.84	14765
870.97	14602
871.1	14590
871.23	14918
871.36	14815
871.489	14724
871.619	14689
871.749	14804
871.879	14944
872.008	14967
872.138	14876
872.267	14811
872.397	14727
872.526	14575
872.656	14697
872.785	14697
872.915	14864
873.044	14975
873.173	14842
873.303	14998
873.432	14887
873.561	15017
873.69	14921
873.819	14838
873.948	14925
874.077	14933
874.206	14849
874.335	14910
874.464	15093
874.593	15154
874.722	15081
874.851	15214
874.979	15184
875.108	15150
875.237	15176
875.365	15188
875.494	15287
875.623	15279
875.751	15093
875.88	15252
876.008	15336
876.136	15473
876.265	15618
876.393	15823
876.521	15641
876.65	15610
876.778	15694
876.906	15572
877.034	15591
877.162	15595
877.29	15511
877.418	15614
877.546	15545
877.674	15591
877.802	15633
877.93	15542
878.058	15526
878.185	15549
878.313	15618
878.441	15542
878.568	15473
878.696	15599
878.824	15667
878.951	15694
879.079	15793
879.206	15991
879.333	15854
879.461	15656
879.588	15698
879.715	15793
879.842	15945
879.97	15747
880.097	15420
880.224	15386
880.351	15538
880.478	15447
880.605	15469
880.732	15439
880.859	15694
880.986	15580
881.112	15504
881.239	15386
881.366	15211
881.493	15157
881.619	15093
881.746	15108
881.872	15039
881.999	15093
882.125	15104
882.252	15241
882.378	15184
882.505	15287
882.631	15043
882.757	14998
882.883	15051
883.01	14906
883.136	14750
883.262	14876
883.388	14796
883.514	14948
883.64	14918
883.766	14853
883.892	14712
884.018	14830
884.143	14910
884.269	15081
884.395	14640
884.52	14651
884.646	14636
884.772	14530
884.897	14511
885.023	14678
885.148	14785
885.274	14746
885.399	14659
885.524	14701
885.65	14632
885.775	14640
885.9	14621
886.025	14731
886.15	14648
886.275	14644
886.4	14556
886.525	14648
886.65	14568
886.775	14606
886.9	14682
887.025	14815
887.149	14613
887.274	14476
887.399	14408
887.523	14469
887.648	14465
887.773	14336
887.897	14571
888.021	14427
888.146	14499
888.27	14541
888.395	14610
888.519	14590
888.643	14507
888.767	14648
888.891	14324
889.015	14301
889.139	14400
889.263	14298
889.387	14454
889.511	14495
889.635	14419
889.759	14282
889.883	14301
890.006	14362
890.13	14381
890.254	14187
890.377	14347
890.501	14221
890.624	14103
890.748	14168
890.871	14176
890.995	13997
891.118	14012
891.241	14027
891.364	14088
891.488	14172
891.611	14024
891.734	14012
891.857	14077
891.98	14088
892.103	14130
892.226	14115
892.349	14050
892.471	13894
892.594	14054
892.717	14142
892.839	13993
892.962	13978
893.085	14180
893.207	14050
893.33	13906
893.452	13913
893.575	14073
893.697	14050
893.819	14210
893.941	14271
894.064	14218
894.186	14081
894.308	13982
894.43	14195
894.552	14180
894.674	14237
894.796	14046
894.918	14088
895.04	14039
895.161	14172
895.283	14157
895.405	14111
895.526	14164
895.648	14115
895.769	14134
895.891	14145
896.012	14210
896.134	14282
896.255	14202
896.376	14161
896.498	14263
896.619	14221
896.74	14358
896.861	14313
896.982	14522
897.103	14686
897.224	14442
897.345	14522
897.466	14431
897.587	14423
897.708	14663
897.828	14613
897.949	14389
898.07	14339
898.19	14438
898.311	14667
898.431	14503
898.552	14507
898.672	14663
898.792	14750
898.913	14621
899.033	14571
899.153	14438
899.273	14385
899.393	14469
899.513	14423
899.633	14355
899.753	14431
899.873	14465
899.993	14461
900.113	14457
900.232	14476
900.352	14389
900.472	14355
900.591	14317
900.711	14374
900.83	14290
900.95	14374
901.069	14370
901.189	14275
901.308	13986
901.427	13928
901.546	13986
901.665	13993
901.784	14008
901.904	13811
902.023	13837
902.141	13624
902.26	13499
902.379	13708
902.498	13605
902.617	13571
902.735	13537
902.854	13582
902.973	13510
903.091	13327
903.21	13331
903.328	13247
903.446	13209
903.565	13107
903.683	13126
903.801	12993
903.919	13057
904.038	13061
904.156	13080
904.274	13023
904.392	13046
904.51	12932
904.627	12852
904.745	13038
904.863	12886
904.981	12719
905.098	12642
905.216	12688
905.334	12658
905.451	12707
905.569	12589
905.686	12692
905.803	12612
905.921	12494
906.038	12601
906.155	12426
906.272	12323
906.389	12323
906.506	12182
906.623	12171
906.74	12228
906.857	12091
906.974	12171
907.091	12292
907.208	12471
907.324	12273
907.441	12186
907.557	12030
907.674	12007
907.79	11897
907.907	11961
908.023	11969
908.139	11927
908.256	11931
908.372	11748
908.488	11908
908.604	11745
908.72	11710
908.836	11737
908.952	11604
909.068	11798
909.184	11821
909.3	11699
909.415	11703
909.531	11760
909.647	11543
909.762	11448
909.878	11398
909.993	11577
910.108	11505
910.224	11376
910.339	11520
910.454	11406
910.57	11368
910.685	11307
910.8	11623
910.915	11471
911.03	11433
911.145	11159
911.259	11151
911.374	11216
911.489	11056
911.604	11041
911.718	10984
911.833	10972
911.947	10786
912.062	10885
912.176	10934
912.291	10812
912.405	10946
912.519	11147
912.633	11109
912.748	10999
912.862	10995
912.976	10824
913.09	10740
913.204	10698
913.318	10786
913.431	10972
913.545	10904
913.659	10938
913.772	10748
913.886	10778
914	10687
914.113	10854
914.226	10782
914.34	10778
914.453	10691
914.566	10786
914.68	10683
914.793	10656
914.906	10466
915.019	10402
915.132	10303
915.245	10394
915.358	10455
915.47	10447
915.583	10519
915.696	10538
915.809	10554
915.921	10634
916.034	10440
916.146	10375
916.259	10318
916.371	10489
916.483	10531
916.595	10280
916.708	10443
916.82	10417
916.932	10398
917.044	10398
917.156	10413
917.268	10227
917.38	10227
917.491	10207
917.603	10291
917.715	10360
917.826	10386
917.938	10287
918.049	10246
918.161	10257
918.272	10421
918.384	10390
918.495	10242
918.606	10166
918.717	10071
918.828	10082
918.939	10192
919.05	10109
919.161	10158
919.272	9960
919.383	9960
919.494	10280
919.604	10337
919.715	10272
919.826	10109
919.936	10169
920.047	10227
920.157	10219
920.267	10394
920.378	10207
920.488	10135
920.598	10436
920.708	10546
920.818	10413
920.928	10356
921.038	10504
921.148	10531
921.258	10257
921.368	10135
921.477	10029
921.587	10017
921.697	9934
921.806	10036
921.916	10002
922.025	9759
922.134	9736
922.244	9701
922.353	9835
922.462	9644
922.571	9595
922.68	9393
922.789	9382
922.898	9408
923.007	9359
923.116	9431
923.224	9466
923.333	9447
923.442	9325
923.55	9298
923.659	9283
923.767	9359
923.876	9317
923.984	9378
924.092	9195
924.201	9310
924.309	9253
924.417	9279
924.525	9207
924.633	9260
924.741	10200
924.849	9100
924.956	9253
925.064	9093
925.172	9032
925.279	9074
925.387	9154
925.494	9077
925.602	9230
925.709	9199
925.816	8998
925.924	9070
926.031	9214
926.138	9051
926.245	9188
926.352	9097
926.459	9089
926.566	9180
926.673	9043
926.779	8971
926.886	8941
926.993	8819
927.099	8895
927.206	8766
927.312	8792
927.419	8906
927.525	8823
927.631	8864
927.737	8746
927.843	8720
927.95	8590
928.056	8746
928.162	8682
928.267	8724
928.373	9332
928.479	8811
928.585	8552
928.69	8651
928.796	8746
928.901	8625
929.007	8476
929.112	8610
929.218	8674
929.323	8480
929.428	8526
929.533	8674
929.638	8442
929.743	8385
929.848	8560
929.953	8431
930.058	8423
930.163	8267
930.267	8282
930.372	8374
930.477	8271
930.581	8571
930.685	8355
930.79	8187
930.894	8275
930.998	8290
931.103	8385
931.207	8031
931.311	7978
931.415	7909
931.519	7792
931.623	7757
