Data from test_V78500241_1126.txt Node
Date: Fri Mar 25 14:41:33 CST 2022
User: usil
Spectrometer: V785-0024
Trigger mode: 0
Integration Time (sec): 4.000000E-1
Scans to average: 1
Nonlinearity correction enabled: false
Boxcar width: 0
Storing dark spectrum: false
XAxis mode: Wavelengths
Number of Pixels in Spectrum: 1024
>>>>>Begin Spectral Data<<<<<
801.071	22531
801.214	22440
801.356	22268
801.499	22219
801.641	22055
801.783	21892
801.926	21956
802.068	21835
802.211	21850
802.353	21743
802.496	21610
802.638	21389
802.78	21492
802.923	21336
803.065	21325
803.208	21351
803.35	21283
803.492	21370
803.635	21435
803.777	21291
803.919	21401
804.061	21675
804.204	21302
804.346	21226
804.488	21279
804.63	21302
804.773	21176
804.915	21279
805.057	21211
805.199	21119
805.341	21264
805.483	21397
805.626	21291
805.768	21138
805.91	21321
806.052	21230
806.194	21165
806.336	21317
806.478	21272
806.62	21264
806.762	21275
806.904	21431
807.046	21637
807.188	21686
807.33	21557
807.472	21652
807.614	21485
807.756	21618
807.898	21545
808.04	21401
808.182	21393
808.324	21606
808.465	21648
808.607	21618
808.749	21899
808.891	22013
809.033	22173
809.174	21987
809.316	21888
809.458	21861
809.6	21679
809.741	21781
809.883	21819
810.025	21861
810.166	21880
810.308	21869
810.45	21717
810.591	21759
810.733	21580
810.875	21504
811.016	21424
811.158	21511
811.299	21549
811.441	21477
811.582	21523
811.724	21466
811.865	21496
812.007	21439
812.148	21420
812.29	21576
812.431	21595
812.573	21736
812.714	21835
812.855	21987
812.997	22017
813.138	22188
813.279	22082
813.421	22006
813.562	21736
813.703	21800
813.845	21583
813.986	21237
814.127	21112
814.268	21119
814.41	21176
814.551	21013
814.692	21039
814.833	20941
814.974	20921
815.115	20967
815.256	20864
815.397	20849
815.539	20834
815.68	20697
815.821	20625
815.962	20792
816.103	20682
816.244	20514
816.385	20400
816.526	20461
816.666	20271
816.807	20180
816.948	20176
817.089	20290
817.23	20267
817.371	20176
817.512	20062
817.653	20100
817.793	20088
817.934	20050
818.075	20157
818.216	20073
818.356	19997
818.497	19932
818.638	19788
818.778	19791
818.919	19841
819.06	19917
819.2	20008
819.341	20058
819.481	19986
819.622	20039
819.762	20271
819.903	20275
820.043	20164
820.184	20084
820.324	20096
820.465	20145
820.605	20244
820.746	20111
820.886	19845
821.026	20092
821.167	20065
821.307	20081
821.447	20016
821.588	19879
821.728	19681
821.868	19689
822.008	19521
822.149	19441
822.289	19491
822.429	19312
822.569	19152
822.709	19145
822.849	18981
822.99	19027
823.13	18928
823.27	18962
823.41	18760
823.55	18684
823.69	18749
823.83	18806
823.97	18730
824.11	18623
824.25	18604
824.389	18582
824.529	18582
824.669	18604
824.809	18738
824.949	18715
825.089	18696
825.228	18608
825.368	18467
825.508	18513
825.648	18456
825.787	18391
825.927	18456
826.067	18277
826.206	18418
826.346	18281
826.485	18334
826.625	18403
826.765	18437
826.904	18342
827.044	18076
827.183	18140
827.323	18098
827.462	18022
827.601	18076
827.741	18038
827.88	18057
828.02	17870
828.159	18091
828.298	18076
828.437	18197
828.577	18045
828.716	18201
828.855	17980
828.994	17802
829.134	17718
829.273	17889
829.412	17687
829.551	17707
829.69	17767
829.829	17893
829.968	17954
830.107	17817
830.246	17885
830.385	17779
830.524	17722
830.663	17714
830.802	17528
830.941	17444
831.08	17467
831.219	17463
831.357	17421
831.496	17642
831.635	17505
831.774	17520
831.913	17299
832.051	17178
832.19	17212
832.329	17349
832.467	17079
832.606	17056
832.744	17056
832.883	17197
833.022	17098
833.16	17166
833.299	17250
833.437	17121
833.576	17166
833.714	17250
833.852	17220
833.991	17216
834.129	17261
834.267	17231
834.406	17269
834.544	17242
834.682	17231
834.821	17155
834.959	17410
835.097	17033
835.235	17292
835.373	17227
835.511	17159
835.65	17098
835.788	17132
835.926	16980
836.064	16957
836.202	16885
836.34	17140
836.478	17025
836.615	17067
836.753	17140
836.891	17170
837.029	17189
837.167	17090
837.305	16930
837.443	16923
837.58	16927
837.718	17067
837.856	16873
837.993	16850
838.131	16980
838.269	16938
838.406	16934
838.544	16812
838.681	16641
838.819	16561
838.956	16603
839.094	16493
839.231	16500
839.369	16626
839.506	16889
839.643	16759
839.781	16512
839.918	16436
840.055	16440
840.193	16561
840.33	16489
840.467	16451
840.604	16558
840.742	16672
840.879	16440
841.016	16314
841.153	16394
841.29	16599
841.427	16527
841.564	16519
841.701	16497
841.838	16402
841.975	16405
842.112	16363
842.249	16261
842.385	16207
842.522	16447
842.659	16341
842.796	16325
842.933	16253
843.069	16078
843.206	16185
843.343	16318
843.479	16333
843.616	16325
843.752	16063
843.889	16044
844.025	16128
844.162	16063
844.298	16135
844.435	16044
844.571	16124
844.708	16166
844.844	16268
844.98	16150
845.117	16196
845.253	16002
845.389	15983
845.525	16063
845.661	16044
845.798	16109
845.934	16185
846.07	16128
846.206	16314
846.342	16310
846.478	16071
846.614	15804
846.75	15618
846.886	15633
847.022	15717
847.158	15682
847.294	15694
847.429	15606
847.565	15652
847.701	15854
847.837	15302
847.972	15416
848.108	15458
848.244	15473
848.379	15222
848.515	15180
848.65	15233
848.786	15173
848.921	15237
849.057	15279
849.192	15310
849.328	15222
849.463	15272
849.598	15173
849.734	15192
849.869	15043
850.004	14944
850.14	14982
850.275	15020
850.41	14815
850.545	14857
850.68	14986
850.815	15032
850.95	14910
851.085	15093
851.22	15055
851.355	15028
851.49	14914
851.625	14895
851.76	14880
851.895	14902
852.03	14857
852.165	14918
852.299	14994
852.434	15036
852.569	14979
852.703	15032
852.838	14998
852.973	15199
853.107	15116
853.242	15039
853.376	14868
853.511	14659
853.645	14693
853.78	15036
853.914	14895
854.048	14807
854.183	14872
854.317	14864
854.451	14986
854.585	14773
854.72	14861
854.854	14853
854.988	14701
855.122	14792
855.256	14663
855.39	14716
855.524	14887
855.658	14815
855.792	14849
855.926	14887
856.06	14952
856.194	14986
856.327	14811
856.461	14762
856.595	14845
856.729	14902
856.862	14986
856.996	14807
857.13	14857
857.263	14902
857.397	15020
857.53	14811
857.664	14895
857.797	14861
857.931	14975
858.064	14899
858.197	14933
858.331	14868
858.464	14765
858.597	14731
858.731	14819
858.864	14796
858.997	14701
859.13	14925
859.263	14853
859.396	14944
859.529	14830
859.662	14720
859.795	14788
859.928	14804
860.061	15024
860.194	15032
860.327	14941
860.46	14804
860.592	14971
860.725	15062
860.858	14925
860.99	14819
861.123	14811
861.256	14804
861.388	14864
861.521	15568
861.653	14735
861.786	14667
861.918	14743
862.05	14792
862.183	14781
862.315	14849
862.447	14937
862.58	14720
862.712	14731
862.844	14568
862.976	14674
863.108	14701
863.24	14967
863.372	14549
863.504	14545
863.636	14560
863.768	14587
863.9	14514
864.032	14530
864.164	14541
864.296	14682
864.428	14670
864.559	14754
864.691	14735
864.823	14735
864.954	14644
865.086	14705
865.217	14625
865.349	14590
865.48	14575
865.612	14629
865.743	14720
865.875	14701
866.006	14499
866.137	14636
866.269	14514
866.4	14594
866.531	14610
866.662	14511
866.793	14507
866.924	14602
867.055	14530
867.186	14598
867.317	14492
867.448	14442
867.579	14556
867.71	14492
867.841	14499
867.972	14560
868.103	14625
868.233	14594
868.364	14511
868.495	14621
868.625	14880
868.756	14902
868.886	14659
869.017	14868
869.147	14975
869.278	14975
869.408	14792
869.539	14811
869.669	14853
869.799	14861
869.929	14994
870.06	15001
870.19	15176
870.32	15131
870.45	15150
870.58	15237
870.71	15325
870.84	15321
870.97	15199
871.1	15211
871.23	15340
871.36	15447
871.489	15291
871.619	15428
871.749	15450
871.879	15477
872.008	15610
872.138	15435
872.267	15378
872.397	15237
872.526	15264
872.656	15272
872.785	15340
872.915	15443
873.044	15564
873.173	15431
873.303	15496
873.432	15443
873.561	15542
873.69	15507
873.819	15416
873.948	15530
874.077	15526
874.206	15462
874.335	15519
874.464	15576
874.593	15819
874.722	15679
874.851	15797
874.979	15720
875.108	15720
875.237	15854
875.365	15705
875.494	15766
875.623	15785
875.751	15766
875.88	15892
876.008	15857
876.136	15968
876.265	16219
876.393	16310
876.521	16211
876.65	16204
876.778	16158
876.906	16154
877.034	16124
877.162	16116
877.29	16059
877.418	16253
877.546	16253
877.674	16268
877.802	16173
877.93	16299
878.058	16131
878.185	16131
878.313	16135
878.441	16181
878.568	16116
878.696	16158
878.824	16200
878.951	16318
879.079	16443
879.206	16603
879.333	16573
879.461	16375
879.588	16508
879.715	16596
879.842	16641
879.97	16409
880.097	16188
880.224	16051
880.351	16181
880.478	16112
880.605	16040
880.732	16063
880.859	16348
880.986	16078
881.112	16109
881.239	15880
881.366	15747
881.493	15751
881.619	15781
881.746	15770
881.872	15698
881.999	15682
882.125	15705
882.252	15793
882.378	15876
882.505	15876
882.631	15720
882.757	15534
882.883	15637
883.01	15572
883.136	15473
883.262	15363
883.388	15393
883.514	15603
883.64	15625
883.766	15591
883.892	15386
884.018	15344
884.143	15580
884.269	15690
884.395	15386
884.52	15169
884.646	15252
884.772	15230
884.897	15077
885.023	15222
885.148	15302
885.274	15233
885.399	15302
885.524	15321
885.65	15287
885.775	15348
885.9	15150
886.025	15344
886.15	15374
886.275	15157
886.4	15131
886.525	15279
886.65	15207
886.775	15157
886.9	15374
887.025	15424
887.149	15264
887.274	14998
887.399	15055
887.523	15070
887.648	15017
887.773	15005
887.897	15062
888.021	15081
888.146	15055
888.27	15066
888.395	15138
888.519	15119
888.643	15112
888.767	15169
888.891	14918
889.015	14975
889.139	14982
889.263	14960
889.387	14998
889.511	15013
889.635	15028
889.759	14887
889.883	14891
890.006	14986
890.13	15058
890.254	14861
890.377	14765
890.501	14659
890.624	14674
890.748	14819
890.871	14655
890.995	14598
891.118	14503
891.241	14613
891.364	14587
891.488	14762
891.611	14560
891.734	14606
891.857	14526
891.98	14598
892.103	14686
892.226	14686
892.349	14583
892.471	14465
892.594	14587
892.717	14552
892.839	14522
892.962	14632
893.085	14636
893.207	14689
893.33	14476
893.452	14473
893.575	14693
893.697	14583
893.819	14613
893.941	14838
894.064	14720
894.186	14549
894.308	14457
894.43	14731
894.552	14758
894.674	14796
894.796	14503
894.918	14590
895.04	14484
895.161	14689
895.283	14590
895.405	14556
895.526	14697
895.648	14617
895.769	14731
895.891	14868
896.012	14697
896.134	14739
896.255	14689
896.376	14670
896.498	14743
896.619	14727
896.74	14705
896.861	14830
896.982	15074
897.103	15291
897.224	15028
897.345	14921
897.466	14990
897.587	14941
897.708	15062
897.828	15036
897.949	14937
898.07	14872
898.19	14956
898.311	15180
898.431	14975
898.552	14994
898.672	15116
898.792	15161
898.913	15119
899.033	15009
899.153	14952
899.273	14815
899.393	14960
899.513	14952
899.633	14895
899.753	14918
899.873	14834
899.993	14925
900.113	14929
900.232	14910
900.352	14868
900.472	14963
900.591	14750
900.711	14788
900.83	14697
900.95	14925
901.069	14834
901.189	14754
901.308	14438
901.427	14400
901.546	14465
901.665	14480
901.784	14484
901.904	14248
902.023	14244
902.141	14027
902.26	14050
902.379	14073
902.498	13879
902.617	13959
902.735	14016
902.854	13967
902.973	13894
903.091	13765
903.21	13670
903.328	13731
903.446	13685
903.565	13613
903.683	13552
903.801	13438
903.919	13578
904.038	13559
904.156	13392
904.274	13495
904.392	13308
904.51	13373
904.627	13335
904.745	13544
904.863	13430
904.981	13190
905.098	13152
905.216	13053
905.334	13065
905.451	13084
905.569	12996
905.686	13152
905.803	13145
905.921	12848
906.038	12935
906.155	12909
906.272	12760
906.389	12768
906.506	12692
906.623	12673
906.74	12642
906.857	12483
906.974	12566
907.091	12810
907.208	12783
907.324	12734
907.441	12578
907.557	12391
907.674	12380
907.79	12353
907.907	12327
908.023	12384
908.139	12448
908.256	12346
908.372	12289
908.488	12300
908.604	12197
908.72	12110
908.836	12117
908.952	12057
909.068	12155
909.184	12258
909.3	12064
909.415	12197
909.531	12079
909.647	11920
909.762	11813
909.878	11969
909.993	11950
910.108	11866
910.224	11946
910.339	11885
910.454	11851
910.57	11764
910.685	11710
910.8	11965
910.915	11840
911.03	11748
911.145	11581
911.259	11528
911.374	11684
911.489	11467
911.604	11471
911.718	11345
911.833	11383
911.947	11201
912.062	11254
912.176	11307
912.291	11326
912.405	11402
912.519	11505
912.633	11459
912.748	11410
912.862	11349
912.976	11220
913.09	11102
913.204	11246
913.318	11235
913.431	11269
913.545	11341
913.659	11265
913.772	11223
913.886	11121
914	11113
914.113	11201
914.226	11155
914.34	11242
914.453	11003
914.566	11117
914.68	11075
914.793	11003
914.906	10915
915.019	10809
915.132	10744
915.245	10835
915.358	10881
915.47	10908
915.583	10904
915.696	10885
915.809	10984
915.921	10908
916.034	10831
916.146	10862
916.259	10698
916.371	10923
916.483	10847
916.595	10748
916.708	10816
916.82	10793
916.932	10721
917.044	10763
917.156	10733
917.268	10618
917.38	10710
917.491	10637
917.603	10778
917.715	10672
917.826	10767
917.938	10637
918.049	10588
918.161	10618
918.272	10828
918.384	10710
918.495	10752
918.606	10512
918.717	10402
918.828	10542
918.939	10554
919.05	10519
919.161	10462
919.272	10337
919.383	10432
919.494	10561
919.604	10805
919.715	10546
919.826	10500
919.936	10519
920.047	10622
920.157	10538
920.267	10694
920.378	10645
920.488	10615
920.598	10733
920.708	10869
920.818	10736
920.928	10717
921.038	10930
921.148	10961
921.258	10561
921.368	10538
921.477	10363
921.587	10398
921.697	10337
921.806	10409
921.916	10272
922.025	10192
922.134	10082
922.244	10071
922.353	10139
922.462	9983
922.571	9819
922.68	9804
922.789	9812
922.898	9800
923.007	9785
923.116	9857
923.224	9778
923.333	9740
923.442	9660
923.55	9622
923.659	9694
923.767	9747
923.876	9641
923.984	9679
924.092	9625
924.201	9667
924.309	9568
924.417	9599
924.525	9568
924.633	9614
924.741	10325
924.849	9367
924.956	9580
925.064	9439
925.172	9310
925.279	9370
925.387	9488
925.494	9473
925.602	9485
925.709	9553
925.816	9351
925.924	9454
926.031	9500
926.138	9424
926.245	9511
926.352	9386
926.459	9485
926.566	9469
926.673	9355
926.779	9317
926.886	9294
926.993	9116
927.099	9142
927.206	9165
927.312	9039
927.419	9142
927.525	9176
927.631	9165
927.737	9093
927.843	8918
927.95	8864
928.056	8960
928.162	9032
928.267	9017
928.373	9663
928.479	9100
928.585	8826
928.69	8956
928.796	9058
928.901	8960
929.007	8750
929.112	8918
929.218	8872
929.323	8788
929.428	8804
929.533	8918
929.638	8811
929.743	8777
929.848	8826
929.953	8769
930.058	8743
930.163	8575
930.267	8594
930.372	8712
930.477	8537
930.581	8807
930.685	8617
930.79	8526
930.894	8518
930.998	8537
931.103	8686
931.207	8294
931.311	8180
931.415	8176
931.519	8054
931.623	8046
