Data from test_V78500241_169.txt Node
Date: Fri Mar 25 14:34:54 CST 2022
User: usil
Spectrometer: V785-0024
Trigger mode: 0
Integration Time (sec): 4.000000E-1
Scans to average: 1
Nonlinearity correction enabled: false
Boxcar width: 0
Storing dark spectrum: false
XAxis mode: Wavelengths
Number of Pixels in Spectrum: 1024
>>>>>Begin Spectral Data<<<<<
801.071	28740
801.214	28649
801.356	28386
801.499	28246
801.641	28207
801.783	28173
801.926	28166
802.068	28044
802.211	28128
802.353	28082
802.496	27823
802.638	27861
802.78	27732
802.923	27709
803.065	27679
803.208	27774
803.35	27778
803.492	27793
803.635	27854
803.777	27835
803.919	27964
804.061	28150
804.204	27876
804.346	27747
804.488	27743
804.63	27781
804.773	27641
804.915	27781
805.057	27975
805.199	27793
805.341	27899
805.483	28032
805.626	28051
805.768	27873
805.91	27857
806.052	27979
806.194	27827
806.336	28055
806.478	27968
806.62	27964
806.762	28276
806.904	28481
807.046	28554
807.188	28592
807.33	28523
807.472	28725
807.614	28831
807.756	28904
807.898	29010
808.04	29044
808.182	29482
808.324	29847
808.465	30232
808.607	30722
808.749	31240
808.891	31601
809.033	31601
809.174	31194
809.316	30882
809.458	30369
809.6	29859
809.741	29581
809.883	29216
810.025	29360
810.166	29109
810.308	28987
810.45	29086
810.591	28790
810.733	28512
810.875	28668
811.016	28424
811.158	28299
811.299	28497
811.441	28519
811.582	28440
811.724	28367
811.865	28348
812.007	28344
812.148	28344
812.29	28352
812.431	28417
812.573	28497
812.714	28683
812.855	28668
812.997	28854
813.138	28873
813.279	28866
813.421	28672
813.562	28721
813.703	28603
813.845	28451
813.986	28090
814.127	27991
814.268	27842
814.41	27922
814.551	27808
814.692	27747
814.833	27709
814.974	27705
815.115	27751
815.256	27720
815.397	27587
815.539	27504
815.68	27427
815.821	27485
815.962	27724
816.103	27431
816.244	27351
816.385	27268
816.526	27214
816.666	27112
816.807	26891
816.948	26853
817.089	27032
817.23	26975
817.371	26895
817.512	26826
817.653	26819
817.793	26705
817.934	26769
818.075	26876
818.216	26914
818.356	26792
818.497	26750
818.638	26655
818.778	26571
818.919	26609
819.06	26526
819.2	26682
819.341	26697
819.481	26602
819.622	26872
819.762	27157
819.903	26956
820.043	26853
820.184	26845
820.324	26895
820.465	26857
820.605	26929
820.746	26636
820.886	26655
821.026	26853
821.167	26769
821.307	26796
821.447	26807
821.588	26667
821.728	26431
821.868	26275
822.008	26065
822.149	26153
822.289	26168
822.429	25875
822.569	25997
822.709	25750
822.849	25655
822.99	25613
823.13	25674
823.27	25575
823.41	25327
823.55	25343
823.69	25384
823.83	25384
823.97	25312
824.11	25228
824.25	25118
824.389	25076
824.529	25217
824.669	25247
824.809	25377
824.949	25091
825.089	25171
825.228	25285
825.368	25137
825.508	25004
825.648	24848
825.787	24951
825.927	25031
826.067	24947
826.206	24996
826.346	25065
826.485	25137
826.625	24821
826.765	24981
826.904	25023
827.044	24817
827.183	24715
827.323	24494
827.462	24715
827.601	24696
827.741	24608
827.88	24635
828.02	24589
828.159	24631
828.298	24608
828.437	24589
828.577	24525
828.716	24840
828.855	24464
828.994	24418
829.134	24407
829.273	24407
829.412	24315
829.551	24224
829.69	24380
829.829	24323
829.968	24361
830.107	24418
830.246	24254
830.385	24220
830.524	24300
830.663	24117
830.802	24095
830.941	24049
831.08	23851
831.219	23923
831.357	23866
831.496	24174
831.635	23889
831.774	23691
831.913	23695
832.051	23695
832.19	23726
832.329	23775
832.467	23619
832.606	23463
832.744	23520
832.883	23436
833.022	23486
833.16	23611
833.299	23676
833.437	23558
833.576	23649
833.714	23615
833.852	23874
833.991	23642
834.129	23863
834.267	23882
834.406	23760
834.544	23707
834.682	23627
834.821	23600
834.959	23687
835.097	23516
835.235	23596
835.373	23512
835.511	23524
835.65	23455
835.788	23395
835.926	23258
836.064	23181
836.202	23204
836.34	23269
836.478	23448
836.615	23345
836.753	23303
836.891	23436
837.029	23341
837.167	23383
837.305	23193
837.443	23231
837.58	23227
837.718	23318
837.856	23143
837.993	23128
838.131	23052
838.269	23037
838.406	23079
838.544	22934
838.681	22809
838.819	22854
838.956	22611
839.094	22588
839.231	22679
839.369	22675
839.506	22824
839.643	22843
839.781	22561
839.918	22470
840.055	22565
840.193	22527
840.33	22455
840.467	22466
840.604	22485
840.742	22733
840.879	22394
841.016	22440
841.153	22455
841.29	22584
841.427	22417
841.564	22348
841.701	22322
841.838	22405
841.975	22367
842.112	22284
842.249	22166
842.385	22120
842.522	22299
842.659	22253
842.796	22093
842.933	22253
843.069	22082
843.206	22029
843.343	22181
843.479	22341
843.616	22158
843.752	21998
843.889	21975
844.025	22131
844.162	21907
844.298	22143
844.435	22063
844.571	21991
844.708	22112
844.844	22242
844.98	22424
845.117	22299
845.253	22295
845.389	22554
845.525	22930
845.661	23486
845.798	24353
845.934	25050
846.07	25384
846.206	25282
846.342	24817
846.478	23798
846.614	22999
846.75	22246
846.886	21964
847.022	21797
847.158	21599
847.294	21542
847.429	21481
847.565	21389
847.701	21629
847.837	21161
847.972	21241
848.108	21180
848.244	21226
848.379	20990
848.515	20921
848.65	21028
848.786	20960
848.921	20906
849.057	21009
849.192	21020
849.328	20967
849.463	20944
849.598	20883
849.734	20777
849.869	20769
850.004	20655
850.14	20640
850.275	20743
850.41	20613
850.545	20689
850.68	20602
850.815	20739
850.95	20606
851.085	20834
851.22	20777
851.355	20663
851.49	20617
851.625	20480
851.76	20518
851.895	20590
852.03	20476
852.165	20564
852.299	20663
852.434	20644
852.569	20636
852.703	20708
852.838	20663
852.973	20773
853.107	20667
853.242	20632
853.376	20507
853.511	20389
853.645	20320
853.78	20522
853.914	20442
854.048	20469
854.183	20469
854.317	20571
854.451	20705
854.585	20495
854.72	20370
854.854	20522
854.988	20385
855.122	20370
855.256	20355
855.39	20442
855.524	20575
855.658	20526
855.792	20434
855.926	20278
856.06	20431
856.194	20461
856.327	20446
856.461	20370
856.595	20408
856.729	20389
856.862	20564
856.996	20454
857.13	20507
857.263	20480
857.397	20488
857.53	20400
857.664	20438
857.797	20408
857.931	20564
858.064	20457
858.197	20393
858.331	20317
858.464	20339
858.597	20332
858.731	20324
858.864	20294
858.997	20351
859.13	20317
859.263	20347
859.396	20473
859.529	20396
859.662	20290
859.795	20271
859.928	20278
860.061	20396
860.194	20514
860.327	20339
860.46	20305
860.592	20434
860.725	20442
860.858	20450
860.99	20332
861.123	20096
861.256	20290
861.388	20298
861.521	20887
861.653	20199
861.786	20172
861.918	20172
862.05	20259
862.183	20446
862.315	20358
862.447	20415
862.58	20259
862.712	20126
862.844	20122
862.976	20240
863.108	20153
863.24	20408
863.372	20001
863.504	20122
863.636	20145
863.768	20176
863.9	20016
864.032	20046
864.164	20065
864.296	20043
864.428	20039
864.559	20149
864.691	20073
864.823	20062
864.954	20164
865.086	20008
865.217	19928
865.349	19913
865.48	19963
865.612	19921
865.743	20111
865.875	19887
866.006	19947
866.137	19890
866.269	20012
866.4	19909
866.531	19883
866.662	19715
866.793	19932
866.924	19959
867.055	20012
867.186	19841
867.317	19818
867.448	19803
867.579	19932
867.71	19822
867.841	19852
867.972	19849
868.103	19906
868.233	19780
868.364	19822
868.495	20024
868.625	20077
868.756	20206
868.886	19955
869.017	19982
869.147	20233
869.278	20199
869.408	20020
869.539	20115
869.669	20172
869.799	20050
869.929	20248
870.06	20077
870.19	20374
870.32	20252
870.45	20457
870.58	20507
870.71	20594
870.84	20514
870.97	20488
871.1	20442
871.23	20602
871.36	20609
871.489	20514
871.619	20606
871.749	20697
871.879	20655
872.008	20880
872.138	20712
872.267	20720
872.397	20716
872.526	20476
872.656	20552
872.785	20526
872.915	20788
873.044	20735
873.173	20724
873.303	20857
873.432	20720
873.561	20758
873.69	20792
873.819	20781
873.948	20883
874.077	20842
874.206	20701
874.335	20716
874.464	20868
874.593	20952
874.722	20891
874.851	21135
874.979	21001
875.108	20998
875.237	20963
875.365	20956
875.494	21036
875.623	21116
875.751	20937
875.88	21089
876.008	21123
876.136	21336
876.265	21428
876.393	21622
876.521	21625
876.65	21603
876.778	21507
876.906	21526
877.034	21473
877.162	21511
877.29	21469
877.418	21534
877.546	21580
877.674	21538
877.802	21580
877.93	21656
878.058	21587
878.185	21469
878.313	21648
878.441	21720
878.568	21595
878.696	21713
878.824	22051
878.951	22074
879.079	22489
879.206	22694
879.333	23037
879.461	23094
879.588	23303
879.715	23379
879.842	23444
879.97	22866
880.097	22440
880.224	22261
880.351	21926
880.478	21857
880.605	21732
880.732	21774
880.859	22067
880.986	21644
881.112	21797
881.239	21637
881.366	21420
881.493	21462
881.619	21355
881.746	21211
881.872	21412
881.999	21291
882.125	21302
882.252	21401
882.378	21344
882.505	21492
882.631	21283
882.757	21104
882.883	21245
883.01	21116
883.136	20960
883.262	21005
883.388	20864
883.514	21104
883.64	21119
883.766	20944
883.892	20921
884.018	20986
884.143	21077
884.269	21074
884.395	20838
884.52	20724
884.646	20807
884.772	20678
884.897	20640
885.023	20765
885.148	20834
885.274	20861
885.399	20716
885.524	20598
885.65	20731
885.775	20625
885.9	20651
886.025	20708
886.15	20708
886.275	20526
886.4	20423
886.525	20541
886.65	20427
886.775	20564
886.9	20575
887.025	20644
887.149	20492
887.274	20244
887.399	20202
887.523	20233
887.648	20103
887.773	20103
887.897	20206
888.021	20252
888.146	20176
888.27	20301
888.395	20294
888.519	20313
888.643	20145
888.767	20119
888.891	20103
889.015	19940
889.139	20024
889.263	19871
889.387	20035
889.511	20153
889.635	19989
889.759	19826
889.883	19788
890.006	19894
890.13	19940
890.254	19803
890.377	19746
890.501	19567
890.624	19559
890.748	19651
890.871	19518
890.995	19457
891.118	19358
891.241	19483
891.364	19438
891.488	19518
891.611	19426
891.734	19502
891.857	19502
891.98	19434
892.103	19453
892.226	19415
892.349	19396
892.471	19194
892.594	19255
892.717	19301
892.839	19187
892.962	19270
893.085	19457
893.207	19228
893.33	19187
893.452	19114
893.575	19263
893.697	19297
893.819	19381
893.941	19460
894.064	19377
894.186	19213
894.308	19232
894.43	19228
894.552	19495
894.674	19369
894.796	19152
894.918	19297
895.04	19217
895.161	19335
895.283	19301
895.405	19129
895.526	19194
895.648	19190
895.769	19289
895.891	19255
896.012	19354
896.134	19369
896.255	19187
896.376	19228
896.498	19308
896.619	19274
896.74	19343
896.861	19377
896.982	19578
897.103	19677
897.224	19594
897.345	19620
897.466	19464
897.587	19487
897.708	19578
897.828	19495
897.949	19430
898.07	19255
898.19	19438
898.311	19567
898.431	19438
898.552	19270
898.672	19460
898.792	19533
898.913	19457
899.033	19365
899.153	19324
899.273	19095
899.393	19255
899.513	19339
899.633	19202
899.753	19171
899.873	19103
899.993	19240
900.113	19209
900.232	19190
900.352	19076
900.472	19107
900.591	18985
900.711	18935
900.83	18966
900.95	19168
901.069	19175
901.189	18989
901.308	18726
901.427	18582
901.546	18654
901.665	18551
901.784	18494
901.904	18414
902.023	18353
902.141	18239
902.26	18106
902.379	18300
902.498	18148
902.617	18121
902.735	18102
902.854	18034
902.973	18087
903.091	17729
903.21	17786
903.328	17722
903.446	17729
903.565	17638
903.683	17642
903.801	17410
903.919	17619
904.038	17497
904.156	17356
904.274	17463
904.392	17277
904.51	17292
904.627	17345
904.745	17421
904.863	17505
904.981	17132
905.098	17018
905.216	16930
905.334	17071
905.451	17033
905.569	16946
905.686	17037
905.803	16961
905.921	16763
906.038	16866
906.155	16733
906.272	16672
906.389	16763
906.506	16504
906.623	16497
906.74	16584
906.857	16470
906.974	16409
907.091	16645
907.208	16615
907.324	16512
907.441	16367
907.557	16150
907.674	16150
907.79	16071
907.907	16204
908.023	16059
908.139	16215
908.256	16154
908.372	16032
908.488	16059
908.604	15876
908.72	15800
908.836	15983
908.952	15861
909.068	15899
909.184	15854
909.3	15838
909.415	15926
909.531	15842
909.647	15682
909.762	15667
909.878	15637
909.993	15561
910.108	15473
910.224	15603
910.339	15553
910.454	15477
910.57	15359
910.685	15298
910.8	15568
910.915	15576
911.03	15412
911.145	15207
911.259	15222
911.374	15230
911.489	15123
911.604	15161
911.718	14929
911.833	14998
911.947	14807
912.062	14796
912.176	14910
912.291	14887
912.405	14918
912.519	15013
912.633	15032
912.748	14941
912.862	14834
912.976	14659
913.09	14568
913.204	14602
913.318	14708
913.431	14842
913.545	14815
913.659	14796
913.772	14697
913.886	14640
914	14686
914.113	14735
914.226	14712
914.34	14621
914.453	14366
914.566	14549
914.68	14484
914.793	14442
914.906	14309
915.019	14199
915.132	14149
915.245	14252
915.358	14157
915.47	14183
915.583	14138
915.696	14309
915.809	14256
915.921	14282
916.034	14123
916.146	14134
916.259	14134
916.371	14271
916.483	14153
916.595	13993
916.708	13970
916.82	14149
916.932	13978
917.044	14077
917.156	13982
917.268	13841
917.38	13963
917.491	13925
917.603	13795
917.715	13894
917.826	13974
917.938	13772
918.049	13609
918.161	13833
918.272	13856
918.384	13917
918.495	13757
918.606	13655
918.717	13582
918.828	13685
918.939	13666
919.05	13480
919.161	13605
919.272	13384
919.383	13445
919.494	13693
919.604	13788
919.715	13529
919.826	13514
919.936	13476
920.047	13620
920.157	13613
920.267	13719
920.378	13616
920.488	13556
920.598	13704
920.708	13871
920.818	13776
920.928	13689
921.038	13898
921.148	13830
921.258	13556
921.368	13426
921.477	13282
921.587	13293
921.697	13213
921.806	13358
921.916	13137
922.025	13019
922.134	12973
922.244	12848
922.353	12958
922.462	12867
922.571	12795
922.68	12646
922.789	12616
922.898	12639
923.007	12578
923.116	12616
923.224	12593
923.333	12563
923.442	12536
923.55	12536
923.659	12506
923.767	12521
923.876	12433
923.984	12464
924.092	12353
924.201	12369
924.309	12365
924.417	12407
924.525	12270
924.633	12338
924.741	13171
924.849	12095
924.956	12235
925.064	12110
925.172	12091
925.279	12140
925.387	12178
925.494	12133
925.602	12232
925.709	12110
925.816	11961
925.924	11927
926.031	12140
926.138	12003
926.245	12003
926.352	11973
926.459	12106
926.566	12076
926.673	11992
926.779	11836
926.886	11798
926.993	11737
927.099	11748
927.206	11668
927.312	11668
927.419	11726
927.525	11722
927.631	11691
927.737	11570
927.843	11581
927.95	11448
928.056	11528
928.162	11539
928.267	11512
928.373	12106
928.479	11627
928.585	11379
928.69	11524
928.796	11520
928.901	11414
929.007	11242
929.112	11353
929.218	11334
929.323	11239
929.428	11181
929.533	11296
929.638	11124
929.743	11201
929.848	11250
929.953	11204
930.058	11045
930.163	10949
930.267	10915
930.372	11075
930.477	10873
930.581	11071
930.685	11006
930.79	10858
930.894	10778
930.998	10755
931.103	10850
931.207	10573
931.311	10485
931.415	10398
931.519	10204
931.623	10192
