Data from test_V78500241_289.txt Node
Date: Fri Mar 25 14:35:44 CST 2022
User: usil
Spectrometer: V785-0024
Trigger mode: 0
Integration Time (sec): 4.000000E-1
Scans to average: 1
Nonlinearity correction enabled: false
Boxcar width: 0
Storing dark spectrum: false
XAxis mode: Wavelengths
Number of Pixels in Spectrum: 1024
>>>>>Begin Spectral Data<<<<<
801.071	27157
801.214	27131
801.356	26883
801.499	26777
801.641	26777
801.783	26648
801.926	26636
802.068	26507
802.211	26461
802.353	26419
802.496	26233
802.638	26267
802.78	26157
802.923	26191
803.065	26081
803.208	26149
803.35	26157
803.492	26256
803.635	26218
803.777	26275
803.919	26370
804.061	26541
804.204	26343
804.346	26107
804.488	26092
804.63	26199
804.773	26046
804.915	26237
805.057	26336
805.199	26130
805.341	26187
805.483	26214
805.626	26237
805.768	26145
805.91	26134
806.052	26298
806.194	26126
806.336	26427
806.478	26355
806.62	26240
806.762	26275
806.904	26431
807.046	26697
807.188	26549
807.33	26484
807.472	26663
807.614	26587
807.756	26453
807.898	26476
808.04	26396
808.182	26431
808.324	26351
808.465	26469
808.607	26724
808.749	26830
808.891	26830
809.033	27032
809.174	26880
809.316	26708
809.458	26819
809.6	26693
809.741	26693
809.883	26788
810.025	26830
810.166	26944
810.308	26948
810.45	26849
810.591	26811
810.733	26697
810.875	26636
811.016	26602
811.158	26495
811.299	26697
811.441	26731
811.582	26731
811.724	26552
811.865	26396
812.007	26571
812.148	26640
812.29	26640
812.431	26804
812.573	26811
812.714	26952
812.855	27169
812.997	27161
813.138	27245
813.279	27165
813.421	27089
813.562	26967
813.703	27005
813.845	26792
813.986	26663
814.127	26294
814.268	26309
814.41	26275
814.551	26134
814.692	26214
814.833	26126
814.974	26081
815.115	26183
815.256	26008
815.397	25913
815.539	25898
815.68	25830
815.821	25928
815.962	25970
816.103	25906
816.244	25601
816.385	25719
816.526	25491
816.666	25510
816.807	25441
816.948	25312
817.089	25339
817.23	25384
817.371	25202
817.512	25247
817.653	25304
817.793	25114
817.934	25232
818.075	25282
818.216	25282
818.356	25346
818.497	25126
818.638	24962
818.778	25015
818.919	24875
819.06	24890
819.2	25099
819.341	25084
819.481	25190
819.622	25217
819.762	25495
819.903	25472
820.043	25369
820.184	25278
820.324	25396
820.465	25327
820.605	25228
820.746	25232
820.886	24989
821.026	25156
821.167	25137
821.307	25327
821.447	25076
821.588	25057
821.728	24966
821.868	24768
822.008	24540
822.149	24513
822.289	24525
822.429	24148
822.569	24308
822.709	24152
822.849	24144
822.99	24152
823.13	24026
823.27	23931
823.41	23931
823.55	23737
823.69	23950
823.83	23771
823.97	23897
824.11	23661
824.25	23589
824.389	23604
824.529	23722
824.669	23604
824.809	23665
824.949	23630
825.089	23752
825.228	23577
825.368	23497
825.508	23440
825.648	23455
825.787	23505
825.927	23395
826.067	23372
826.206	23292
826.346	23414
826.485	23376
826.625	23273
826.765	23452
826.904	23391
827.044	23197
827.183	23181
827.323	23121
827.462	23132
827.601	23147
827.741	23067
827.88	23140
828.02	22896
828.159	22984
828.298	23033
828.437	23079
828.577	23098
828.716	23064
828.855	22892
828.994	22889
829.134	22687
829.273	22831
829.412	22630
829.551	22653
829.69	22668
829.829	22691
829.968	22820
830.107	22835
830.246	22843
830.385	22603
830.524	22637
830.663	22538
830.802	22348
830.941	22428
831.08	22284
831.219	22428
831.357	22409
831.496	22455
831.635	22287
831.774	22181
831.913	22299
832.051	22070
832.19	22128
832.329	22112
832.467	21956
832.606	21903
832.744	21854
832.883	21857
833.022	21827
833.16	21956
833.299	22044
833.437	21964
833.576	22002
833.714	21979
833.852	22105
833.991	21994
834.129	22059
834.267	22116
834.406	22036
834.544	22021
834.682	21953
834.821	21975
834.959	22124
835.097	21911
835.235	22010
835.373	21953
835.511	21956
835.65	21842
835.788	21827
835.926	21739
836.064	21701
836.202	21713
836.34	21819
836.478	21800
836.615	21762
836.753	21888
836.891	21797
837.029	21819
837.167	21739
837.305	21724
837.443	21652
837.58	21583
837.718	21618
837.856	21641
837.993	21591
838.131	21694
838.269	21561
838.406	21576
838.544	21397
838.681	21252
838.819	21237
838.956	21032
839.094	21104
839.231	21058
839.369	21199
839.506	21336
839.643	21165
839.781	21093
839.918	21009
840.055	20906
840.193	20990
840.33	20956
840.467	20944
840.604	21043
840.742	21268
840.879	20857
841.016	20979
841.153	20937
841.29	21100
841.427	20998
841.564	20960
841.701	21138
841.838	21024
841.975	20845
842.112	20948
842.249	20781
842.385	20678
842.522	20948
842.659	20754
842.796	20746
842.933	20724
843.069	20629
843.206	20632
843.343	20807
843.479	20785
843.616	20636
843.752	20602
843.889	20522
844.025	20560
844.162	20469
844.298	20541
844.435	20511
844.571	20438
844.708	20503
844.844	20686
844.98	20560
845.117	20454
845.253	20374
845.389	20282
845.525	20377
845.661	20469
845.798	20377
845.934	20434
846.07	20244
846.206	20393
846.342	20537
846.478	20320
846.614	20096
846.75	19894
846.886	19944
847.022	19989
847.158	19894
847.294	19909
847.429	19959
847.565	19830
847.701	20126
847.837	19525
847.972	19590
848.108	19727
848.244	19772
848.379	19590
848.515	19445
848.65	19400
848.786	19483
848.921	19457
849.057	19647
849.192	19495
849.328	19525
849.463	19483
849.598	19400
849.734	19426
849.869	19244
850.004	19213
850.14	19304
850.275	19255
850.41	19266
850.545	19152
850.68	19122
850.815	19133
850.95	19156
851.085	19407
851.22	19343
851.355	19168
851.49	19156
851.625	19122
851.76	19118
851.895	19168
852.03	18993
852.165	19190
852.299	19133
852.434	19445
852.569	19236
852.703	19263
852.838	19221
852.973	19308
853.107	19327
853.242	19168
853.376	19099
853.511	18829
853.645	18970
853.78	19152
853.914	19148
854.048	18993
854.183	18981
854.317	19065
854.451	19206
854.585	19015
854.72	18814
854.854	19084
854.988	18939
855.122	18859
855.256	18814
855.39	19023
855.524	19050
855.658	19126
855.792	18935
855.926	19114
856.06	19061
856.194	19050
856.327	19023
856.461	18890
856.595	19091
856.729	18901
856.862	19076
856.996	18958
857.13	19148
857.263	19008
857.397	19114
857.53	18943
857.664	19084
857.797	19065
857.931	19141
858.064	18993
858.197	19126
858.331	18886
858.464	18787
858.597	18859
858.731	18947
858.864	18909
858.997	18924
859.13	19061
859.263	19004
859.396	19122
859.529	19027
859.662	18947
859.795	18810
859.928	18840
860.061	19069
860.194	19240
860.327	18970
860.46	18913
860.592	19038
860.725	18970
860.858	19050
860.99	18947
861.123	18833
861.256	18905
861.388	19015
861.521	19434
861.653	18833
861.786	18856
861.918	18779
862.05	18886
862.183	19091
862.315	18977
862.447	18962
862.58	18935
862.712	18890
862.844	18631
862.976	18684
863.108	18821
863.24	19057
863.372	18623
863.504	18650
863.636	18627
863.768	18821
863.9	18631
864.032	18669
864.164	18684
864.296	18669
864.428	18795
864.559	18734
864.691	18719
864.823	18734
864.954	18661
865.086	18612
865.217	18498
865.349	18551
865.48	18536
865.612	18528
865.743	18654
865.875	18601
866.006	18525
866.137	18585
866.269	18578
866.4	18661
866.531	18589
866.662	18433
866.793	18589
866.924	18547
867.055	18486
867.186	18604
867.317	18448
867.448	18395
867.579	18418
867.71	18486
867.841	18441
867.972	18566
868.103	18456
868.233	18471
868.364	18513
868.495	18677
868.625	18741
868.756	18909
868.886	18650
869.017	18783
869.147	18833
869.278	18856
869.408	18738
869.539	18757
869.669	18692
869.799	18821
869.929	18935
870.06	18856
870.19	19069
870.32	19023
870.45	19091
870.58	19168
870.71	19168
870.84	19255
870.97	19122
871.1	19206
871.23	19266
871.36	19327
871.489	19160
871.619	19244
871.749	19373
871.879	19373
872.008	19525
872.138	19384
872.267	19304
872.397	19293
872.526	19152
872.656	19198
872.785	19133
872.915	19327
873.044	19392
873.173	19400
873.303	19419
873.432	19346
873.561	19449
873.69	19392
873.819	19449
873.948	19403
874.077	19434
874.206	19339
874.335	19381
874.464	19476
874.593	19533
874.722	19552
874.851	19666
874.979	19681
875.108	19655
875.237	19597
875.365	19491
875.494	19594
875.623	19791
875.751	19628
875.88	19704
876.008	19791
876.136	19860
876.265	19909
876.393	20183
876.521	20180
876.65	20130
876.778	20092
876.906	19986
877.034	19944
877.162	19997
877.29	19890
877.418	20050
877.546	19982
877.674	20065
877.802	20100
877.93	20016
878.058	20062
878.185	19913
878.313	20005
878.441	19944
878.568	19864
878.696	19963
878.824	20024
878.951	20065
879.079	20195
879.206	20358
879.333	20229
879.461	20218
879.588	20214
879.715	20301
879.842	20317
879.97	20161
880.097	19837
880.224	19871
880.351	19989
880.478	19864
880.605	19822
880.732	19833
880.859	20218
880.986	19955
881.112	19928
881.239	19734
881.366	19597
881.493	19411
881.619	19483
881.746	19491
881.872	19609
881.999	19495
882.125	19453
882.252	19582
882.378	19525
882.505	19582
882.631	19373
882.757	19312
882.883	19327
883.01	19225
883.136	19148
883.262	19091
883.388	19198
883.514	19247
883.64	19247
883.766	19160
883.892	19084
884.018	19053
884.143	19232
884.269	19369
884.395	19091
884.52	18859
884.646	18958
884.772	18901
884.897	18707
885.023	18973
885.148	18852
885.274	18951
885.399	19126
885.524	18878
885.65	18859
885.775	18924
885.9	18973
886.025	19099
886.15	18985
886.275	18901
886.4	18840
886.525	18829
886.65	18776
886.775	18760
886.9	18932
887.025	19065
887.149	18867
887.274	18642
887.399	18681
887.523	18627
887.648	18665
887.773	18483
887.897	18650
888.021	18669
888.146	18559
888.27	18779
888.395	18821
888.519	18616
888.643	18593
888.767	18589
888.891	18650
889.015	18471
889.139	18460
889.263	18384
889.387	18483
889.511	18669
889.635	18604
889.759	18502
889.883	18410
890.006	18441
890.13	18467
890.254	18384
890.377	18433
890.501	18311
890.624	18190
890.748	18323
890.871	18133
890.995	18015
891.118	17961
891.241	18133
891.364	18087
891.488	18159
891.611	17969
891.734	17980
891.857	18129
891.98	18076
892.103	18152
892.226	18148
892.349	18057
892.471	17866
892.594	18114
892.717	18091
892.839	17961
892.962	18022
893.085	18049
893.207	18057
893.33	17988
893.452	17923
893.575	18015
893.697	18072
893.819	18224
893.941	18209
894.064	18174
894.186	18068
894.308	17813
894.43	18133
894.552	18220
894.674	18053
894.796	17973
894.918	17999
895.04	18007
895.161	18095
895.283	18045
895.405	17958
895.526	18034
895.648	18011
895.769	18011
895.891	18030
896.012	18102
896.134	18186
896.255	18022
896.376	18064
896.498	18155
896.619	18243
896.74	18045
896.861	18213
896.982	18559
897.103	18574
897.224	18445
897.345	18380
897.466	18315
897.587	18391
897.708	18498
897.828	18323
897.949	18399
898.07	18045
898.19	18213
898.311	18441
898.431	18228
898.552	18254
898.672	18315
898.792	18311
898.913	18285
899.033	18194
899.153	18182
899.273	18057
899.393	18049
899.513	18087
899.633	18114
899.753	18098
899.873	18072
899.993	18114
900.113	18019
900.232	17996
900.352	18087
900.472	17939
900.591	17901
900.711	17912
900.83	17836
900.95	17927
901.069	17980
901.189	17878
901.308	17596
901.427	17554
901.546	17608
901.665	17539
901.784	17516
901.904	17429
902.023	17292
902.141	17189
902.26	17117
902.379	17079
902.498	17109
902.617	17090
902.735	17006
902.854	17045
902.973	16828
903.091	16778
903.21	16805
903.328	16752
903.446	16634
903.565	16497
903.683	16622
903.801	16443
903.919	16527
904.038	16538
904.156	16325
904.274	16405
904.392	16322
904.51	16356
904.627	16409
904.745	16352
904.863	16440
904.981	16131
905.098	15964
905.216	16025
905.334	16021
905.451	16013
905.569	15846
905.686	15975
905.803	15991
905.921	15831
906.038	15838
906.155	15827
906.272	15618
906.389	15698
906.506	15545
906.623	15545
906.74	15424
906.857	15389
906.974	15454
907.091	15473
907.208	15728
907.324	15561
907.441	15428
907.557	15264
907.674	15279
907.79	15233
907.907	15207
908.023	15283
908.139	15237
908.256	15116
908.372	15081
908.488	15123
908.604	14944
908.72	14925
908.836	14925
908.952	14834
909.068	14937
909.184	14952
909.3	14990
909.415	15097
909.531	14853
909.647	14659
909.762	14678
909.878	14564
909.993	14587
910.108	14552
910.224	14598
910.339	14648
910.454	14541
910.57	14480
910.685	14476
910.8	14720
910.915	14644
911.03	14404
911.145	14320
911.259	14309
911.374	14240
911.489	14168
911.604	14168
911.718	13993
911.833	14005
911.947	13887
912.062	13818
912.176	13982
912.291	14050
912.405	13955
912.519	14221
912.633	14134
912.748	14077
912.862	13970
912.976	13822
913.09	13780
913.204	13826
913.318	13750
913.431	13925
913.545	13944
913.659	13898
913.772	13947
913.886	13643
914	13643
914.113	13715
914.226	13753
914.34	13685
914.453	13696
914.566	13803
914.68	13567
914.793	13559
914.906	13312
915.019	13365
915.132	13278
915.245	13289
915.358	13384
915.47	13392
915.583	13285
915.696	13343
915.809	13426
915.921	13468
916.034	13278
916.146	13244
916.259	13217
916.371	13373
916.483	13316
916.595	13232
916.708	13145
916.82	13133
916.932	13160
917.044	13198
917.156	13122
917.268	13069
917.38	13038
917.491	13019
917.603	13076
917.715	13061
917.826	13164
917.938	12878
918.049	12962
918.161	13015
918.272	13114
918.384	13194
918.495	13053
918.606	12840
918.717	12719
918.828	12844
918.939	12821
919.05	12673
919.161	12795
919.272	12601
919.383	12757
919.494	12825
919.604	13061
919.715	12875
919.826	12684
919.936	12772
920.047	12798
920.157	12840
920.267	12928
920.378	12726
920.488	12741
920.598	12924
920.708	13141
920.818	12924
920.928	12985
921.038	13008
921.148	13008
921.258	12715
921.368	12639
921.477	12662
921.587	12540
921.697	12445
921.806	12471
921.916	12460
922.025	12300
922.134	12194
922.244	12163
922.353	12235
922.462	12129
922.571	11996
922.68	11942
922.789	11851
922.898	11863
923.007	11771
923.116	11931
923.224	11817
923.333	11836
923.442	11737
923.55	11668
923.659	11684
923.767	11847
923.876	11676
923.984	11756
924.092	11703
924.201	11638
924.309	11649
924.417	11710
924.525	11600
924.633	11562
924.741	12467
924.849	11398
924.956	11592
925.064	11379
925.172	11341
925.279	11379
925.387	11425
925.494	11414
925.602	11532
925.709	11482
925.816	11387
925.924	11406
926.031	11414
926.138	11360
926.245	11322
926.352	11303
926.459	11425
926.566	11406
926.673	11349
926.779	11250
926.886	11204
926.993	11033
927.099	11056
927.206	10976
927.312	10911
927.419	11003
927.525	11022
927.631	11033
927.737	10869
927.843	10885
927.95	10797
928.056	10900
928.162	10866
928.267	10915
928.373	11383
928.479	10984
928.585	10744
928.69	10782
928.796	10885
928.901	10733
929.007	10596
929.112	10733
929.218	10660
929.323	10637
929.428	10538
929.533	10694
929.638	10546
929.743	10588
929.848	10634
929.953	10542
930.058	10577
930.163	10337
930.267	10333
930.372	10462
930.477	10249
930.581	10584
930.685	10352
930.79	10173
930.894	10257
930.998	10223
931.103	10291
931.207	9998
931.311	9911
931.415	9835
931.519	9686
931.623	9675
