Data from test_V78500241_1424.txt Node
Date: Fri Mar 25 14:43:37 CST 2022
User: usil
Spectrometer: V785-0024
Trigger mode: 0
Integration Time (sec): 4.000000E-1
Scans to average: 1
Nonlinearity correction enabled: false
Boxcar width: 0
Storing dark spectrum: false
XAxis mode: Wavelengths
Number of Pixels in Spectrum: 1024
>>>>>Begin Spectral Data<<<<<
801.071	22386
801.214	22360
801.356	22181
801.499	21884
801.641	21827
801.783	21766
801.926	21819
802.068	21739
802.211	21694
802.353	21595
802.496	21359
802.638	21367
802.78	21260
802.923	21275
803.065	21116
803.208	21017
803.35	21188
803.492	21142
803.635	21211
803.777	21214
803.919	21214
804.061	21420
804.204	21252
804.346	21062
804.488	20956
804.63	21055
804.773	20952
804.915	21180
805.057	21169
805.199	21020
805.341	21180
805.483	21146
805.626	21207
805.768	20975
805.91	21100
806.052	21195
806.194	21070
806.336	21241
806.478	21032
806.62	21074
806.762	21112
806.904	21222
807.046	21496
807.188	21355
807.33	21504
807.472	21447
807.614	21348
807.756	21511
807.898	21393
808.04	21112
808.182	21233
808.324	21424
808.465	21439
808.607	21572
808.749	21622
808.891	21854
809.033	21930
809.174	21895
809.316	21705
809.458	21736
809.6	21610
809.741	21800
809.883	21682
810.025	21759
810.166	21808
810.308	21682
810.45	21583
810.591	21625
810.733	21408
810.875	21462
811.016	21218
811.158	21249
811.299	21252
811.441	21530
811.582	21420
811.724	21370
811.865	21214
812.007	21264
812.148	21363
812.29	21241
812.431	21580
812.573	21576
812.714	21705
812.855	21819
812.997	21850
813.138	21937
813.279	21956
813.421	21915
813.562	21739
813.703	21538
813.845	21469
813.986	21135
814.127	20998
814.268	20895
814.41	20937
814.551	20804
814.692	20880
814.833	20910
814.974	20845
815.115	20830
815.256	20712
815.397	20663
815.539	20655
815.68	20450
815.821	20545
815.962	20495
816.103	20465
816.244	20533
816.385	20294
816.526	20377
816.666	20111
816.807	19940
816.948	20073
817.089	20081
817.23	20062
817.371	19917
817.512	20126
817.653	20043
817.793	19879
817.934	19864
818.075	20058
818.216	19993
818.356	19902
818.497	19734
818.638	19544
818.778	19605
818.919	19628
819.06	19727
819.2	19761
819.341	19841
819.481	19807
819.622	19993
819.762	20164
819.903	20081
820.043	19940
820.184	19944
820.324	19970
820.465	19936
820.605	19963
820.746	19837
820.886	19883
821.026	19989
821.167	19978
821.307	19902
821.447	19822
821.588	19818
821.728	19597
821.868	19578
822.008	19362
822.149	19365
822.289	19255
822.429	19202
822.569	19095
822.709	19008
822.849	18810
822.99	18905
823.13	18924
823.27	18745
823.41	18688
823.55	18639
823.69	18703
823.83	18631
823.97	18540
824.11	18414
824.25	18479
824.389	18593
824.529	18506
824.669	18441
824.809	18517
824.949	18437
825.089	18486
825.228	18563
825.368	18247
825.508	18319
825.648	18174
825.787	18224
825.927	18292
826.067	18163
826.206	18117
826.346	18228
826.485	18296
826.625	18148
826.765	18277
826.904	18201
827.044	17935
827.183	18049
827.323	17893
827.462	17931
827.601	17885
827.741	17980
827.88	17912
828.02	17726
828.159	17939
828.298	17832
828.437	17977
828.577	17783
828.716	18098
828.855	17824
828.994	17585
829.134	17611
829.273	17722
829.412	17589
829.551	17535
829.69	17630
829.829	17570
829.968	17729
830.107	17710
830.246	17680
830.385	17589
830.524	17570
830.663	17486
830.802	17372
830.941	17185
831.08	17261
831.219	17185
831.357	17261
831.496	17440
831.635	17269
831.774	17239
831.913	17181
832.051	17075
832.19	17086
832.329	16976
832.467	16995
832.606	16976
832.744	16984
832.883	16942
833.022	16976
833.16	16984
833.299	16908
833.437	16968
833.576	17090
833.714	17025
833.852	17064
833.991	17109
834.129	17121
834.267	16953
834.406	16976
834.544	17113
834.682	17025
834.821	17041
834.959	17143
835.097	16976
835.235	17064
835.373	17022
835.511	17056
835.65	16927
835.788	16934
835.926	16778
836.064	16801
836.202	16767
836.34	16980
836.478	16984
836.615	16816
836.753	16961
836.891	16938
837.029	16968
837.167	16809
837.305	16809
837.443	16774
837.58	16660
837.718	16854
837.856	16801
837.993	16801
838.131	16653
838.269	16645
838.406	16626
838.544	16607
838.681	16466
838.819	16417
838.956	16398
839.094	16367
839.231	16344
839.369	16531
839.506	16683
839.643	16558
839.781	16398
839.918	16230
840.055	16242
840.193	16280
840.33	16226
840.467	16337
840.604	16310
840.742	16523
840.879	16150
841.016	16147
841.153	16150
841.29	16409
841.427	16325
841.564	16363
841.701	16303
841.838	16188
841.975	16207
842.112	16287
842.249	16086
842.385	15979
842.522	16257
842.659	16071
842.796	16116
842.933	16002
843.069	16112
843.206	16093
843.343	16238
843.479	16112
843.616	16158
843.752	15823
843.889	15854
844.025	15994
844.162	15812
844.298	15941
844.435	15895
844.571	15789
844.708	15888
844.844	16036
844.98	15987
845.117	15964
845.253	15739
845.389	15804
845.525	15922
845.661	16017
845.798	15892
845.934	15968
846.07	16021
846.206	16002
846.342	15949
846.478	15770
846.614	15534
846.75	15405
846.886	15401
847.022	15515
847.158	15462
847.294	15435
847.429	15477
847.565	15481
847.701	15728
847.837	15192
847.972	15154
848.108	15199
848.244	15306
848.379	15112
848.515	14910
848.65	14971
848.786	15017
848.921	15039
849.057	15104
849.192	15188
849.328	15081
849.463	15013
849.598	14990
849.734	14921
849.869	14880
850.004	14895
850.14	14868
850.275	14830
850.41	14693
850.545	14838
850.68	14758
850.815	14705
850.95	14796
851.085	14933
851.22	14948
851.355	14819
851.49	14754
851.625	14701
851.76	14762
851.895	14746
852.03	14663
852.165	14826
852.299	14750
852.434	14819
852.569	14781
852.703	14708
852.838	14826
852.973	14918
853.107	14902
853.242	14701
853.376	14636
853.511	14575
853.645	14571
853.78	14868
853.914	14636
854.048	14617
854.183	14625
854.317	14648
854.451	14804
854.585	14640
854.72	14617
854.854	14724
854.988	14526
855.122	14549
855.256	14648
855.39	14636
855.524	14720
855.658	14735
855.792	14644
855.926	14735
856.06	14659
856.194	14689
856.327	14590
856.461	14571
856.595	14602
856.729	14465
856.862	14724
856.996	14708
857.13	14693
857.263	14777
857.397	14811
857.53	14598
857.664	14754
857.797	14746
857.931	14830
858.064	14629
858.197	14724
858.331	14514
858.464	14720
858.597	14575
858.731	14655
858.864	14689
858.997	14598
859.13	14663
859.263	14716
859.396	14720
859.529	14533
859.662	14583
859.795	14587
859.928	14727
860.061	14785
860.194	14845
860.327	14663
860.46	14632
860.592	14686
860.725	14876
860.858	14743
860.99	14632
861.123	14564
861.256	14530
861.388	14602
861.521	15492
861.653	14503
861.786	14423
861.918	14450
862.05	14602
862.183	14629
862.315	14606
862.447	14571
862.58	14686
862.712	14404
862.844	14374
862.976	14484
863.108	14446
863.24	14906
863.372	14298
863.504	14457
863.636	14389
863.768	14396
863.9	14495
864.032	14393
864.164	14275
864.296	14469
864.428	14526
864.559	14606
864.691	14442
864.823	14454
864.954	14431
865.086	14473
865.217	14427
865.349	14343
865.48	14381
865.612	14450
865.743	14514
865.875	14549
866.006	14396
866.137	14396
866.269	14419
866.4	14404
866.531	14351
866.662	14377
866.793	14355
866.924	14290
867.055	14415
867.186	14434
867.317	14438
867.448	14233
867.579	14465
867.71	14339
867.841	14282
867.972	14400
868.103	14507
868.233	14408
868.364	14343
868.495	14473
868.625	14549
868.756	14697
868.886	14480
869.017	14587
869.147	14743
869.278	14773
869.408	14610
869.539	14632
869.669	14716
869.799	14659
869.929	14765
870.06	14651
870.19	14971
870.32	14948
870.45	14960
870.58	15028
870.71	15055
870.84	15077
870.97	15032
871.1	15089
871.23	15214
871.36	15169
871.489	15093
871.619	15116
871.749	15180
871.879	15310
872.008	15355
872.138	15283
872.267	15214
872.397	15093
872.526	15024
872.656	15020
872.785	15108
872.915	15325
873.044	15287
873.173	15169
873.303	15268
873.432	15336
873.561	15348
873.69	15298
873.819	15241
873.948	15355
874.077	15298
874.206	15298
874.335	15256
874.464	15443
874.593	15728
874.722	15412
874.851	15675
874.979	15762
875.108	15682
875.237	15534
875.365	15519
875.494	15549
875.623	15606
875.751	15625
875.88	15606
876.008	15739
876.136	15804
876.265	16013
876.393	16166
876.521	16116
876.65	16051
876.778	16078
876.906	15972
877.034	15937
877.162	16044
877.29	15987
877.418	15994
877.546	16017
877.674	15960
877.802	16044
877.93	15918
878.058	16006
878.185	16013
878.313	16101
878.441	15972
878.568	15838
878.696	15998
878.824	16040
878.951	16090
879.079	16246
879.206	16386
879.333	16314
879.461	16200
879.588	16295
879.715	16455
879.842	16322
879.97	16230
880.097	15953
880.224	15934
880.351	15991
880.478	15930
880.605	15880
880.732	15846
880.859	16215
880.986	15972
881.112	15816
881.239	15846
881.366	15667
881.493	15675
881.619	15572
881.746	15549
881.872	15545
881.999	15458
882.125	15454
882.252	15614
882.378	15633
882.505	15698
882.631	15507
882.757	15367
882.883	15500
883.01	15408
883.136	15313
883.262	15241
883.388	15226
883.514	15450
883.64	15473
883.766	15393
883.892	15203
884.018	15192
884.143	15450
884.269	15416
884.395	15127
884.52	15154
884.646	15146
884.772	15013
884.897	15051
885.023	15039
885.148	15241
885.274	15188
885.399	15256
885.524	15135
885.65	15036
885.775	15195
885.9	15100
886.025	15214
886.15	15154
886.275	15032
886.4	15036
886.525	15047
886.65	15036
886.775	15017
886.9	15199
887.025	15260
887.149	14998
887.274	14982
887.399	14956
887.523	14941
887.648	14815
887.773	14750
887.897	14952
888.021	14979
888.146	14800
888.27	14937
888.395	15066
888.519	14914
888.643	14933
888.767	14845
888.891	14823
889.015	14720
889.139	14765
889.263	14735
889.387	14845
889.511	14906
889.635	14830
889.759	14705
889.883	14727
890.006	14693
890.13	14921
890.254	14674
890.377	14735
890.501	14469
890.624	14465
890.748	14575
890.871	14556
890.995	14484
891.118	14358
891.241	14511
891.364	14454
891.488	14556
891.611	14484
891.734	14366
891.857	14457
891.98	14404
892.103	14461
892.226	14473
892.349	14389
892.471	14275
892.594	14374
892.717	14450
892.839	14484
892.962	14442
893.085	14457
893.207	14488
893.33	14324
893.452	14374
893.575	14484
893.697	14450
893.819	14640
893.941	14621
894.064	14636
894.186	14377
894.308	14450
894.43	14514
894.552	14667
894.674	14537
894.796	14351
894.918	14480
895.04	14434
895.161	14670
895.283	14621
895.405	14495
895.526	14541
895.648	14530
895.769	14648
895.891	14598
896.012	14632
896.134	14697
896.255	14583
896.376	14533
896.498	14587
896.619	14598
896.74	14705
896.861	14667
896.982	14853
897.103	15055
897.224	14811
897.345	14807
897.466	14735
897.587	14823
897.708	14967
897.828	14906
897.949	14796
898.07	14746
898.19	14823
898.311	14963
898.431	14880
898.552	14944
898.672	14998
898.792	15058
898.913	15001
899.033	14891
899.153	14724
899.273	14712
899.393	14632
899.513	14826
899.633	14815
899.753	14823
899.873	14731
899.993	14902
900.113	14746
900.232	14785
900.352	14811
900.472	14693
900.591	14568
900.711	14648
900.83	14754
900.95	14716
901.069	14735
901.189	14625
901.308	14366
901.427	14381
901.546	14282
901.665	14393
901.784	14324
901.904	14195
902.023	14191
902.141	13944
902.26	13894
902.379	14058
902.498	13955
902.617	13909
902.735	13913
902.854	13947
902.973	13738
903.091	13700
903.21	13597
903.328	13647
903.446	13563
903.565	13438
903.683	13438
903.801	13301
903.919	13445
904.038	13381
904.156	13244
904.274	13266
904.392	13217
904.51	13278
904.627	13255
904.745	13331
904.863	13209
904.981	13038
905.098	12913
905.216	12996
905.334	12973
905.451	12989
905.569	12901
905.686	12924
905.803	12924
905.921	12760
906.038	12802
906.155	12787
906.272	12757
906.389	12715
906.506	12528
906.623	12604
906.74	12528
906.857	12448
906.974	12369
907.091	12589
907.208	12738
907.324	12521
907.441	12494
907.557	12300
907.674	12254
907.79	12213
907.907	12292
908.023	12315
908.139	12330
908.256	12285
908.372	12182
908.488	12235
908.604	12041
908.72	11935
908.836	12072
908.952	12155
909.068	12049
909.184	12213
909.3	12026
909.415	12038
909.531	12121
909.647	11832
909.762	11760
909.878	11821
909.993	11794
910.108	11729
910.224	11661
910.339	11817
910.454	11676
910.57	11668
910.685	11516
910.8	11878
910.915	11855
911.03	11726
911.145	11532
911.259	11566
911.374	11566
911.489	11414
911.604	11379
911.718	11299
911.833	11193
911.947	11086
912.062	11006
912.176	11227
912.291	11223
912.405	11204
912.519	11379
912.633	11505
912.748	11330
912.862	11284
912.976	11094
913.09	10972
913.204	11029
913.318	11208
913.431	11208
913.545	11250
913.659	11296
913.772	11147
913.886	10995
914	10999
914.113	11056
914.226	11090
914.34	11105
914.453	10949
914.566	11052
914.68	10961
914.793	10976
914.906	10744
915.019	10687
915.132	10672
915.245	10752
915.358	10721
915.47	10702
915.583	10725
915.696	10824
915.809	10797
915.921	10873
916.034	10675
916.146	10618
916.259	10630
916.371	10805
916.483	10786
916.595	10660
916.708	10675
916.82	10679
916.932	10573
917.044	10596
917.156	10607
917.268	10527
917.38	10596
917.491	10519
917.603	10558
917.715	10649
917.826	10554
917.938	10504
918.049	10440
918.161	10565
918.272	10771
918.384	10645
918.495	10580
918.606	10478
918.717	10363
918.828	10421
918.939	10481
919.05	10314
919.161	10367
919.272	10192
919.383	10306
919.494	10504
919.604	10653
919.715	10508
919.826	10325
919.936	10417
920.047	10455
920.157	10405
920.267	10634
920.378	10470
920.488	10489
920.598	10649
920.708	10763
920.818	10641
920.928	10645
921.038	10778
921.148	10744
921.258	10402
921.368	10333
921.477	10363
921.587	10306
921.697	10120
921.806	10268
921.916	10188
922.025	10029
922.134	9994
922.244	10025
922.353	10025
922.462	9907
922.571	9808
922.68	9682
922.789	9629
922.898	9732
923.007	9580
923.116	9625
923.224	9690
923.333	9622
923.442	9538
923.55	9545
923.659	9591
923.767	9587
923.876	9561
923.984	9587
924.092	9416
924.201	9553
924.309	9534
924.417	9553
924.525	9454
924.633	9511
924.741	10447
924.849	9386
924.956	9389
925.064	9313
925.172	9298
925.279	9264
925.387	9336
925.494	9336
925.602	9466
925.709	9370
925.816	9294
925.924	9253
926.031	9401
926.138	9420
926.245	9363
926.352	9256
926.459	9389
926.566	9439
926.673	9241
926.779	9173
926.886	9150
926.993	9093
927.099	8994
927.206	8975
927.312	9108
927.419	9051
927.525	9055
927.631	9097
927.737	8963
927.843	8857
927.95	8868
928.056	8880
928.162	8948
928.267	9039
928.373	9641
928.479	9036
928.585	8762
928.69	8948
928.796	8990
928.901	8891
929.007	8678
929.112	8842
929.218	8819
929.323	8735
929.428	8701
929.533	8849
929.638	8667
929.743	8693
929.848	8781
929.953	8621
930.058	8632
930.163	8503
930.267	8533
930.372	8678
930.477	8507
930.581	8762
930.685	8545
930.79	8400
930.894	8495
930.998	8396
931.103	8613
931.207	8240
931.311	8168
931.415	8107
931.519	7989
931.623	7944
