Data from test_V78500241_1369.txt Node
Date: Fri Mar 25 14:43:14 CST 2022
User: usil
Spectrometer: V785-0024
Trigger mode: 0
Integration Time (sec): 4.000000E-1
Scans to average: 1
Nonlinearity correction enabled: false
Boxcar width: 0
Storing dark spectrum: false
XAxis mode: Wavelengths
Number of Pixels in Spectrum: 1024
>>>>>Begin Spectral Data<<<<<
801.071	22459
801.214	22318
801.356	22097
801.499	21907
801.641	21816
801.783	21823
801.926	21759
802.068	21660
802.211	21572
802.353	21572
802.496	21454
802.638	21161
802.78	21218
802.923	21237
803.065	21112
803.208	21024
803.35	21226
803.492	21241
803.635	21287
803.777	20952
803.919	21188
804.061	21466
804.204	21188
804.346	21047
804.488	21047
804.63	20990
804.773	21028
804.915	21142
805.057	21211
805.199	20986
805.341	21135
805.483	21195
805.626	21039
805.768	21036
805.91	20986
806.052	21062
806.194	20941
806.336	21207
806.478	21104
806.62	21074
806.762	21180
806.904	21157
807.046	21435
807.188	21344
807.33	21382
807.472	21462
807.614	21298
807.756	21378
807.898	21192
808.04	21283
808.182	21233
808.324	21363
808.465	21416
808.607	21519
808.749	21603
808.891	21694
809.033	21911
809.174	21770
809.316	21667
809.458	21652
809.6	21515
809.741	21511
809.883	21656
810.025	21755
810.166	21561
810.308	21682
810.45	21625
810.591	21389
810.733	21420
810.875	21150
811.016	21150
811.158	21176
811.299	21214
811.441	21393
811.582	21306
811.724	21230
811.865	21157
812.007	21249
812.148	21176
812.29	21237
812.431	21431
812.573	21496
812.714	21606
812.855	21606
812.997	21705
813.138	21949
813.279	21720
813.421	21690
813.562	21660
813.703	21591
813.845	21443
813.986	21165
814.127	20963
814.268	20842
814.41	20872
814.551	20807
814.692	20868
814.833	20682
814.974	20762
815.115	20769
815.256	20571
815.397	20644
815.539	20602
815.68	20457
815.821	20393
815.962	20590
816.103	20408
816.244	20434
816.385	20282
816.526	20298
816.666	20122
816.807	19959
816.948	20031
817.089	20005
817.23	19974
817.371	19932
817.512	19951
817.653	19898
817.793	19871
817.934	19955
818.075	19997
818.216	19978
818.356	19898
818.497	19757
818.638	19609
818.778	19712
818.919	19544
819.06	19548
819.2	19658
819.341	19670
819.481	19765
819.622	19978
819.762	20084
819.903	20008
820.043	19955
820.184	19955
820.324	19947
820.465	19932
820.605	19894
820.746	19936
820.886	19750
821.026	19879
821.167	19909
821.307	19883
821.447	19833
821.588	19712
821.728	19704
821.868	19525
822.008	19331
822.149	19297
822.289	19407
822.429	19091
822.569	19027
822.709	18966
822.849	18856
822.99	18821
823.13	18871
823.27	18783
823.41	18582
823.55	18509
823.69	18555
823.83	18620
823.97	18604
824.11	18365
824.25	18380
824.389	18384
824.529	18445
824.669	18376
824.809	18384
824.949	18528
825.089	18361
825.228	18437
825.368	18289
825.508	17984
825.648	18144
825.787	18296
825.927	18216
826.067	18102
826.206	18224
826.346	18098
826.485	18182
826.625	18159
826.765	18201
826.904	18174
827.044	17893
827.183	17904
827.323	17767
827.462	17847
827.601	17893
827.741	17851
827.88	17809
828.02	17809
828.159	17901
828.298	17874
828.437	17901
828.577	17813
828.716	17958
828.855	17779
828.994	17661
829.134	17649
829.273	17657
829.412	17493
829.551	17509
829.69	17547
829.829	17638
829.968	17707
830.107	17661
830.246	17623
830.385	17539
830.524	17467
830.663	17566
830.802	17315
830.941	17185
831.08	17174
831.219	17250
831.357	17239
831.496	17497
831.635	17208
831.774	17212
831.913	17014
832.051	17071
832.19	16984
832.329	17010
832.467	16908
832.606	16839
832.744	16881
832.883	16900
833.022	16915
833.16	17014
833.299	16961
833.437	16908
833.576	16987
833.714	16991
833.852	17022
833.991	16995
834.129	17075
834.267	16984
834.406	16828
834.544	17014
834.682	16961
834.821	16930
834.959	17227
835.097	16957
835.235	17010
835.373	17060
835.511	17094
835.65	16908
835.788	16938
835.926	16702
836.064	16645
836.202	16626
836.34	16904
836.478	16858
836.615	16889
836.753	16854
836.891	16938
837.029	16904
837.167	16862
837.305	16767
837.443	16797
837.58	16744
837.718	16767
837.856	16672
837.993	16622
838.131	16763
838.269	16744
838.406	16801
838.544	16504
838.681	16542
838.819	16409
838.956	16333
839.094	16207
839.231	16329
839.369	16363
839.506	16710
839.643	16550
839.781	16386
839.918	16249
840.055	16379
840.193	16348
840.33	16215
840.467	16322
840.604	16352
840.742	16478
840.879	16120
841.016	16112
841.153	16154
841.29	16375
841.427	16276
841.564	16310
841.701	16337
841.838	16261
841.975	16101
842.112	16154
842.249	16120
842.385	16063
842.522	16124
842.659	16105
842.796	16135
842.933	16006
843.069	15865
843.206	16051
843.343	16135
843.479	16051
843.616	16124
843.752	15827
843.889	15857
844.025	15945
844.162	15739
844.298	15869
844.435	15876
844.571	15835
844.708	15869
844.844	15937
844.98	15956
845.117	15983
845.253	15873
845.389	15774
845.525	15876
845.661	15934
845.798	15953
845.934	15964
846.07	15876
846.206	16044
846.342	16025
846.478	15793
846.614	15568
846.75	15439
846.886	15408
847.022	15545
847.158	15447
847.294	15389
847.429	15355
847.565	15401
847.701	15625
847.837	15104
847.972	15138
848.108	15252
848.244	15283
848.379	15062
848.515	15131
848.65	14971
848.786	14986
848.921	14982
849.057	15051
849.192	15211
849.328	15024
849.463	15001
849.598	14952
849.734	14918
849.869	14914
850.004	14754
850.14	14899
850.275	14804
850.41	14758
850.545	14636
850.68	14785
850.815	14819
850.95	14750
851.085	14941
851.22	14857
851.355	14773
851.49	14762
851.625	14724
851.76	14819
851.895	14625
852.03	14575
852.165	14663
852.299	14750
852.434	14826
852.569	14754
852.703	14838
852.838	14872
852.973	14941
853.107	14925
853.242	14686
853.376	14625
853.511	14583
853.645	14530
853.78	14845
853.914	14602
854.048	14636
854.183	14571
854.317	14663
854.451	14838
854.585	14590
854.72	14552
854.854	14746
854.988	14644
855.122	14682
855.256	14518
855.39	14579
855.524	14727
855.658	14705
855.792	14655
855.926	14712
856.06	14648
856.194	14674
856.327	14735
856.461	14644
856.595	14575
856.729	14564
856.862	14720
856.996	14750
857.13	14727
857.263	14617
857.397	14804
857.53	14606
857.664	14674
857.797	14788
857.931	14686
858.064	14720
858.197	14632
858.331	14629
858.464	14674
858.597	14507
858.731	14594
858.864	14552
858.997	14537
859.13	14632
859.263	14644
859.396	14686
859.529	14644
859.662	14636
859.795	14560
859.928	14655
860.061	14708
860.194	14834
860.327	14625
860.46	14571
860.592	14804
860.725	14796
860.858	14876
860.99	14602
861.123	14533
861.256	14613
861.388	14663
861.521	15317
861.653	14556
861.786	14473
861.918	14499
862.05	14511
862.183	14537
862.315	14610
862.447	14651
862.58	14533
862.712	14415
862.844	14328
862.976	14454
863.108	14419
863.24	14739
863.372	14336
863.504	14347
863.636	14442
863.768	14400
863.9	14389
864.032	14290
864.164	14385
864.296	14381
864.428	14522
864.559	14590
864.691	14434
864.823	14412
864.954	14434
865.086	14457
865.217	14457
865.349	14309
865.48	14408
865.612	14317
865.743	14541
865.875	14438
866.006	14393
866.137	14396
866.269	14438
866.4	14332
866.531	14434
866.662	14393
866.793	14317
866.924	14301
867.055	14492
867.186	14374
867.317	14339
867.448	14263
867.579	14358
867.71	14355
867.841	14290
867.972	14374
868.103	14396
868.233	14328
868.364	14336
868.495	14465
868.625	14545
868.756	14674
868.886	14575
869.017	14663
869.147	14712
869.278	14674
869.408	14701
869.539	14632
869.669	14705
869.799	14750
869.929	14686
870.06	14781
870.19	14933
870.32	14823
870.45	14902
870.58	15024
870.71	15135
870.84	15119
870.97	15017
871.1	14948
871.23	15157
871.36	15237
871.489	15165
871.619	15192
871.749	15256
871.879	15275
872.008	15291
872.138	15233
872.267	15226
872.397	15173
872.526	15058
872.656	14971
872.785	15047
872.915	15264
873.044	15256
873.173	15268
873.303	15382
873.432	15344
873.561	15374
873.69	15287
873.819	15256
873.948	15363
874.077	15230
874.206	15268
874.335	15272
874.464	15447
874.593	15519
874.722	15564
874.851	15614
874.979	15648
875.108	15614
875.237	15557
875.365	15519
875.494	15507
875.623	15641
875.751	15568
875.88	15641
876.008	15774
876.136	15800
876.265	16051
876.393	16223
876.521	16185
876.65	16071
876.778	15987
876.906	16040
877.034	15903
877.162	15922
877.29	16002
877.418	16029
877.546	15941
877.674	15994
877.802	15949
877.93	16082
878.058	16040
878.185	15979
878.313	16036
878.441	15991
878.568	15850
878.696	15876
878.824	16044
878.951	16109
879.079	16211
879.206	16371
879.333	16253
879.461	16261
879.588	16192
879.715	16379
879.842	16436
879.97	16234
880.097	16029
880.224	15941
880.351	15956
880.478	15911
880.605	15827
880.732	15994
880.859	16166
880.986	15960
881.112	15903
881.239	15770
881.366	15701
881.493	15595
881.619	15580
881.746	15618
881.872	15515
881.999	15568
882.125	15466
882.252	15507
882.378	15572
882.505	15720
882.631	15526
882.757	15428
882.883	15401
883.01	15374
883.136	15272
883.262	15321
883.388	15230
883.514	15336
883.64	15340
883.766	15264
883.892	15077
884.018	15176
884.143	15325
884.269	15382
884.395	15154
884.52	15020
884.646	15154
884.772	14986
884.897	14994
885.023	15104
885.148	15127
885.274	15298
885.399	15138
885.524	15112
885.65	15039
885.775	15100
885.9	15024
886.025	15161
886.15	15089
886.275	15032
886.4	14925
886.525	14990
886.65	15062
886.775	15085
886.9	15188
887.025	15317
887.149	15066
887.274	14952
887.399	14876
887.523	14868
887.648	14807
887.773	14804
887.897	14944
888.021	14895
888.146	14758
888.27	14960
888.395	15001
888.519	14921
888.643	14929
888.767	14971
888.891	14724
889.015	14792
889.139	14773
889.263	14819
889.387	14842
889.511	14963
889.635	14880
889.759	14743
889.883	14788
890.006	14883
890.13	14944
890.254	14579
890.377	14701
890.501	14575
890.624	14530
890.748	14667
890.871	14465
890.995	14408
891.118	14450
891.241	14408
891.364	14446
891.488	14663
891.611	14427
891.734	14412
891.857	14415
891.98	14484
892.103	14503
892.226	14629
892.349	14412
892.471	14237
892.594	14419
892.717	14442
892.839	14446
892.962	14381
893.085	14393
893.207	14351
893.33	14339
893.452	14324
893.575	14434
893.697	14427
893.819	14735
893.941	14651
894.064	14541
894.186	14488
894.308	14385
894.43	14594
894.552	14621
894.674	14545
894.796	14366
894.918	14457
895.04	14476
895.161	14499
895.283	14590
895.405	14480
895.526	14579
895.648	14499
895.769	14499
895.891	14549
896.012	14674
896.134	14617
896.255	14617
896.376	14545
896.498	14625
896.619	14648
896.74	14518
896.861	14735
896.982	14963
897.103	15055
897.224	14937
897.345	14914
897.466	14758
897.587	14834
897.708	14960
897.828	14948
897.949	14815
898.07	14785
898.19	14769
898.311	15039
898.431	14921
898.552	14994
898.672	15074
898.792	15036
898.913	14990
899.033	14788
899.153	14815
899.273	14716
899.393	14826
899.513	14762
899.633	14708
899.753	14864
899.873	14781
899.993	14845
900.113	14667
900.232	14887
900.352	14750
900.472	14724
900.591	14545
900.711	14727
900.83	14587
900.95	14762
901.069	14754
901.189	14610
901.308	14324
901.427	14362
901.546	14324
901.665	14427
901.784	14309
901.904	14199
902.023	14054
902.141	13928
902.26	13936
902.379	13955
902.498	13868
902.617	13776
902.735	13925
902.854	13849
902.973	13826
903.091	13586
903.21	13586
903.328	13632
903.446	13533
903.565	13480
903.683	13521
903.801	13388
903.919	13407
904.038	13400
904.156	13255
904.274	13346
904.392	13247
904.51	13297
904.627	13126
904.745	13304
904.863	13244
904.981	13091
905.098	12970
905.216	12951
905.334	12954
905.451	12878
905.569	12943
905.686	12951
905.803	12935
905.921	12741
906.038	12833
906.155	12791
906.272	12665
906.389	12768
906.506	12536
906.623	12593
906.74	12517
906.857	12369
906.974	12426
907.091	12707
907.208	12620
907.324	12627
907.441	12414
907.557	12350
907.674	12258
907.79	12194
907.907	12247
908.023	12254
908.139	12273
908.256	12254
908.372	12186
908.488	12194
908.604	12144
908.72	11992
908.836	12060
908.952	11969
909.068	12068
909.184	12110
909.3	12019
909.415	12060
909.531	12007
909.647	11828
909.762	11843
909.878	11733
909.993	11817
910.108	11866
910.224	11745
910.339	11802
910.454	11657
910.57	11668
910.685	11562
910.8	11794
910.915	11741
911.03	11710
911.145	11452
911.259	11501
911.374	11490
911.489	11440
911.604	11379
911.718	11231
911.833	11299
911.947	11223
912.062	11029
912.176	11227
912.291	11296
912.405	11223
912.519	11433
912.633	11512
912.748	11288
912.862	11284
912.976	11159
913.09	11045
913.204	11060
913.318	11079
913.431	11254
913.545	11258
913.659	11307
913.772	11124
913.886	11056
914	10976
914.113	11056
914.226	11136
914.34	11067
914.453	10957
914.566	11121
914.68	10949
914.793	10953
914.906	10858
915.019	10767
915.132	10771
915.245	10782
915.358	10835
915.47	10854
915.583	10744
915.696	10816
915.809	10866
915.921	10930
916.034	10729
916.146	10634
916.259	10694
916.371	10790
916.483	10801
916.595	10668
916.708	10664
916.82	10733
916.932	10637
917.044	10622
917.156	10630
917.268	10542
917.38	10485
917.491	10489
917.603	10580
917.715	10641
917.826	10603
917.938	10577
918.049	10443
918.161	10592
918.272	10801
918.384	10714
918.495	10603
918.606	10390
918.717	10344
918.828	10497
918.939	10519
919.05	10390
919.161	10329
919.272	10242
919.383	10367
919.494	10592
919.604	10672
919.715	10584
919.826	10405
919.936	10402
920.047	10455
920.157	10500
920.267	10683
920.378	10428
920.488	10356
920.598	10660
920.708	10782
920.818	10618
920.928	10596
921.038	10710
921.148	10740
921.258	10440
921.368	10371
921.477	10325
921.587	10348
921.697	10154
921.806	10303
921.916	10204
922.025	10040
922.134	10021
922.244	9930
922.353	10147
922.462	9876
922.571	9892
922.68	9816
922.789	9675
922.898	9694
923.007	9595
923.116	9720
923.224	9652
923.333	9732
923.442	9580
923.55	9568
923.659	9614
923.767	9686
923.876	9523
923.984	9545
924.092	9477
924.201	9587
924.309	9561
924.417	9572
924.525	9504
924.633	9519
924.741	10485
924.849	9340
924.956	9466
925.064	9310
925.172	9275
925.279	9298
925.387	9370
925.494	9332
925.602	9428
925.709	9447
925.816	9287
925.924	9302
926.031	9424
926.138	9382
926.245	9382
926.352	9272
926.459	9454
926.566	9370
926.673	9291
926.779	9180
926.886	9165
926.993	9055
927.099	8963
927.206	8963
927.312	8952
927.419	9097
927.525	9081
927.631	9081
927.737	8815
927.843	8952
927.95	8823
928.056	8887
928.162	8948
928.267	8971
928.373	9591
928.479	8975
928.585	8773
928.69	8933
928.796	8990
928.901	8880
929.007	8743
929.112	8811
929.218	8754
929.323	8838
929.428	8724
929.533	8872
929.638	8727
929.743	8731
929.848	8766
929.953	8758
930.058	8720
930.163	8457
930.267	8511
930.372	8621
930.477	8492
930.581	8720
930.685	8625
930.79	8514
930.894	8446
930.998	8427
931.103	8613
931.207	8210
931.311	8123
931.415	8149
931.519	7955
931.623	7921
