Data from test_V78500241_945.txt Node
Date: Fri Mar 25 14:40:17 CST 2022
User: usil
Spectrometer: V785-0024
Trigger mode: 0
Integration Time (sec): 4.000000E-1
Scans to average: 1
Nonlinearity correction enabled: false
Boxcar width: 0
Storing dark spectrum: false
XAxis mode: Wavelengths
Number of Pixels in Spectrum: 1024
>>>>>Begin Spectral Data<<<<<
801.071	24243
801.214	24308
801.356	23996
801.499	23832
801.641	23729
801.783	23619
801.926	23581
802.068	23535
802.211	23490
802.353	23410
802.496	23181
802.638	23109
802.78	23109
802.923	23037
803.065	23010
803.208	23060
803.35	23006
803.492	23105
803.635	23124
803.777	22991
803.919	23117
804.061	23330
804.204	23109
804.346	22968
804.488	22930
804.63	22900
804.773	22915
804.915	23003
805.057	23086
805.199	22953
805.341	23033
805.483	23220
805.626	23029
805.768	22938
805.91	23075
806.052	23151
806.194	22987
806.336	23265
806.478	23060
806.62	23220
806.762	23151
806.904	23493
807.046	23733
807.188	23543
807.33	23581
807.472	23695
807.614	23771
807.756	24015
807.898	23912
808.04	24091
808.182	24159
808.324	24593
808.465	24844
808.607	25217
808.749	25632
808.891	25807
809.033	26149
809.174	25651
809.316	25293
809.458	24932
809.6	24578
809.741	24467
809.883	24254
810.025	24152
810.166	24140
810.308	24076
810.45	23840
810.591	23764
810.733	23619
810.875	23330
811.016	23330
811.158	23227
811.299	23349
811.441	23425
811.582	23414
811.724	23170
811.865	23337
812.007	23307
812.148	23277
812.29	23242
812.431	23417
812.573	23528
812.714	23547
812.855	23710
812.997	23920
813.138	23897
813.279	23893
813.421	23703
813.562	23832
813.703	23535
813.845	23395
813.986	23181
814.127	22869
814.268	22752
814.41	22790
814.551	22778
814.692	22752
814.833	22752
814.974	22687
815.115	22736
815.256	22550
815.397	22557
815.539	22649
815.68	22516
815.821	22333
815.962	22538
816.103	22436
816.244	22295
816.385	22246
816.526	22310
816.666	22131
816.807	21899
816.948	21918
817.089	22150
817.23	21949
817.371	21991
817.512	21941
817.653	21899
817.793	21785
817.934	21812
818.075	21937
818.216	21998
818.356	21671
818.497	21705
818.638	21530
818.778	21545
818.919	21576
819.06	21599
819.2	21770
819.341	21618
819.481	21667
819.622	21842
819.762	22070
819.903	22044
820.043	21922
820.184	21876
820.324	21922
820.465	21823
820.605	21861
820.746	21823
820.886	21663
821.026	21869
821.167	21816
821.307	21899
821.447	21625
821.588	21663
821.728	21530
821.868	21252
822.008	21123
822.149	21142
822.289	21188
822.429	20880
822.569	20785
822.709	20804
822.849	20632
822.99	20701
823.13	20556
823.27	20724
823.41	20431
823.55	20301
823.69	20476
823.83	20492
823.97	20427
824.11	20294
824.25	20275
824.389	20286
824.529	20225
824.669	20149
824.809	20248
824.949	20294
825.089	20195
825.228	20282
825.368	20149
825.508	20043
825.648	20100
825.787	20008
825.927	20187
826.067	19928
826.206	20012
826.346	19997
826.485	20008
826.625	20062
826.765	20024
826.904	20050
827.044	19868
827.183	19723
827.323	19677
827.462	19689
827.601	19628
827.741	19597
827.88	19723
828.02	19559
828.159	19616
828.298	19738
828.437	19788
828.577	19616
828.716	19803
828.855	19502
828.994	19502
829.134	19533
829.273	19343
829.412	19324
829.551	19388
829.69	19449
829.829	19377
829.968	19426
830.107	19373
830.246	19430
830.385	19350
830.524	19263
830.663	19118
830.802	19156
830.941	19072
831.08	18958
831.219	19099
831.357	19076
831.496	19240
831.635	18897
831.774	18871
831.913	18970
832.051	18798
832.19	18825
832.329	18772
832.467	18661
832.606	18684
832.744	18661
832.883	18715
833.022	18684
833.16	18711
833.299	18669
833.437	18715
833.576	18837
833.714	18696
833.852	18719
833.991	18806
834.129	18951
834.267	18856
834.406	18814
834.544	18821
834.682	18859
834.821	18779
834.959	18821
835.097	18760
835.235	18863
835.373	18764
835.511	18768
835.65	18620
835.788	18608
835.926	18448
836.064	18464
836.202	18391
836.34	18566
836.478	18555
836.615	18471
836.753	18559
836.891	18665
837.029	18597
837.167	18559
837.305	18346
837.443	18544
837.58	18433
837.718	18350
837.856	18407
837.993	18403
838.131	18239
838.269	18323
838.406	18369
838.544	18121
838.681	18171
838.819	18026
838.956	17840
839.094	17851
839.231	17916
839.369	18087
839.506	18289
839.643	18106
839.781	17942
839.918	17851
840.055	17931
840.193	17832
840.33	17920
840.467	17817
840.604	17855
840.742	18060
840.879	17748
841.016	17851
841.153	17710
841.29	17977
841.427	17866
841.564	17863
841.701	17882
841.838	17756
841.975	17729
842.112	17665
842.249	17707
842.385	17539
842.522	17821
842.659	17714
842.796	17619
842.933	17657
843.069	17532
843.206	17566
843.343	17748
843.479	17649
843.616	17604
843.752	17482
843.889	17463
844.025	17547
844.162	17478
844.298	17554
844.435	17562
844.571	17493
844.708	17562
844.844	17642
844.98	17687
845.117	17760
845.253	17596
845.389	17805
845.525	18079
845.661	18623
845.798	19403
845.934	19902
846.07	20237
846.206	20119
846.342	19715
846.478	18951
846.614	18125
846.75	17672
846.886	17296
847.022	17345
847.158	17193
847.294	17147
847.429	17094
847.565	17033
847.701	17273
847.837	16793
847.972	16554
848.108	16866
848.244	16713
848.379	16592
848.515	16558
848.65	16519
848.786	16599
848.921	16592
849.057	16717
849.192	16694
849.328	16527
849.463	16580
849.598	16459
849.734	16424
849.869	16421
850.004	16246
850.14	16303
850.275	16268
850.41	16299
850.545	16215
850.68	16284
850.815	16303
850.95	16211
851.085	16363
851.22	16379
851.355	16246
851.49	16211
851.625	16166
851.76	16215
851.895	16246
852.03	16185
852.165	16284
852.299	16287
852.434	16371
852.569	16295
852.703	16242
852.838	16268
852.973	16462
853.107	16432
853.242	16219
853.376	16230
853.511	16006
853.645	16105
853.78	16310
853.914	16147
854.048	16257
854.183	16055
854.317	16105
854.451	16325
854.585	16135
854.72	16139
854.854	16230
854.988	16010
855.122	16120
855.256	15949
855.39	15994
855.524	16150
855.658	16128
855.792	16177
855.926	16154
856.06	16173
856.194	16169
856.327	16162
856.461	16105
856.595	16124
856.729	16078
856.862	16173
856.996	16071
857.13	16173
857.263	16268
857.397	16242
857.53	16105
857.664	16139
857.797	16219
857.931	16215
858.064	16211
858.197	16173
858.331	16071
858.464	16086
858.597	16032
858.731	16219
858.864	16040
858.997	15964
859.13	16112
859.263	16128
859.396	16185
859.529	16048
859.662	15945
859.795	16048
859.928	16128
860.061	16337
860.194	16291
860.327	16021
860.46	16029
860.592	16135
860.725	16223
860.858	16185
860.99	16143
861.123	16025
861.256	15960
861.388	16010
861.521	16713
861.653	16002
861.786	15934
861.918	15873
862.05	15934
862.183	16021
862.315	16166
862.447	16147
862.58	16067
862.712	15850
862.844	15724
862.976	15895
863.108	15903
863.24	16306
863.372	15808
863.504	15827
863.636	15922
863.768	15789
863.9	15778
864.032	15739
864.164	15694
864.296	15835
864.428	15937
864.559	15994
864.691	15911
864.823	15922
864.954	15785
865.086	15713
865.217	15846
865.349	15797
865.48	15728
865.612	15854
865.743	15850
865.875	15816
866.006	15816
866.137	15793
866.269	15785
866.4	15671
866.531	15762
866.662	15603
866.793	15819
866.924	15789
867.055	15785
867.186	15743
867.317	15701
867.448	15682
867.579	15633
867.71	15667
867.841	15660
867.972	15747
868.103	15785
868.233	15599
868.364	15701
868.495	15922
868.625	15949
868.756	16097
868.886	15846
869.017	16063
869.147	16032
869.278	16162
869.408	15979
869.539	15979
869.669	16013
869.799	16116
869.929	16169
870.06	16086
870.19	16390
870.32	16318
870.45	16299
870.58	16402
870.71	16462
870.84	16481
870.97	16500
871.1	16299
871.23	16523
871.36	16569
871.489	16569
871.619	16634
871.749	16538
871.879	16668
872.008	16717
872.138	16550
872.267	16668
872.397	16462
872.526	16394
872.656	16413
872.785	16516
872.915	16519
873.044	16805
873.173	16599
873.303	16634
873.432	16740
873.561	16721
873.69	16725
873.819	16729
873.948	16740
874.077	16664
874.206	16664
874.335	16740
874.464	16858
874.593	16900
874.722	16862
874.851	17010
874.979	17048
875.108	17140
875.237	16930
875.365	16976
875.494	17075
875.623	17140
875.751	17056
875.88	17003
876.008	17128
876.136	17216
876.265	17421
876.393	17649
876.521	17478
876.65	17509
876.778	17452
876.906	17406
877.034	17436
877.162	17459
877.29	17452
877.418	17501
877.546	17444
877.674	17433
877.802	17551
877.93	17608
878.058	17524
878.185	17474
878.313	17478
878.441	17596
878.568	17497
878.696	17661
878.824	17809
878.951	17931
879.079	18273
879.206	18563
879.333	18665
879.461	18741
879.588	18882
879.715	18852
879.842	18993
879.97	18654
880.097	18155
880.224	18041
880.351	17866
880.478	17668
880.605	17790
880.732	17676
880.859	17935
880.986	17638
881.112	17680
881.239	17528
881.366	17280
881.493	17261
881.619	17261
881.746	17296
881.872	17318
881.999	17223
882.125	17261
882.252	17402
882.378	17326
882.505	17395
882.631	17235
882.757	17071
882.883	17204
883.01	17033
883.136	17121
883.262	17010
883.388	16991
883.514	17147
883.64	17113
883.766	16965
883.892	16881
884.018	16957
884.143	17025
884.269	17136
884.395	16812
884.52	16759
884.646	16721
884.772	16736
884.897	16637
885.023	16755
885.148	16889
885.274	16908
885.399	16820
885.524	16740
885.65	16679
885.775	16706
885.9	16607
886.025	16816
886.15	16622
886.275	16516
886.4	16561
886.525	16512
886.65	16561
886.775	16447
886.9	16691
887.025	16713
887.149	16618
887.274	16470
887.399	16398
887.523	16405
887.648	16295
887.773	16333
887.897	16379
888.021	16341
888.146	16253
888.27	16386
888.395	16512
888.519	16413
888.643	16341
888.767	16371
888.891	16181
889.015	16097
889.139	16230
889.263	16063
889.387	16215
889.511	16337
889.635	16200
889.759	16116
889.883	15987
890.006	16143
890.13	16166
890.254	16010
890.377	16139
890.501	15953
890.624	15975
890.748	16013
890.871	15686
890.995	15789
891.118	15671
891.241	15808
891.364	15797
891.488	15838
891.611	15614
891.734	15766
891.857	15823
891.98	15736
892.103	15812
892.226	15717
892.349	15720
892.471	15614
892.594	15663
892.717	15701
892.839	15633
892.962	15728
893.085	15751
893.207	15652
893.33	15625
893.452	15713
893.575	15762
893.697	15705
893.819	15869
893.941	15842
894.064	15793
894.186	15694
894.308	15633
894.43	15781
894.552	15831
894.674	15759
894.796	15572
894.918	15720
895.04	15743
895.161	15701
895.283	15717
895.405	15637
895.526	15705
895.648	15648
895.769	15705
895.891	15713
896.012	15926
896.134	15899
896.255	15739
896.376	15728
896.498	15720
896.619	15884
896.74	15808
896.861	15880
896.982	16055
897.103	16257
897.224	16116
897.345	16090
897.466	15869
897.587	16135
897.708	16185
897.828	16063
897.949	16017
898.07	15941
898.19	16021
898.311	16078
898.431	16036
898.552	16101
898.672	16215
898.792	16131
898.913	16207
899.033	16067
899.153	15930
899.273	15884
899.393	15922
899.513	15956
899.633	16055
899.753	15987
899.873	15983
899.993	15945
900.113	15869
900.232	15972
900.352	15895
900.472	15831
900.591	15717
900.711	15812
900.83	15751
900.95	15812
901.069	15854
901.189	15808
901.308	15473
901.427	15447
901.546	15549
901.665	15462
901.784	15416
901.904	15252
902.023	15272
902.141	15051
902.26	15032
902.379	14998
902.498	14933
902.617	14982
902.735	15013
902.854	14986
902.973	14853
903.091	14655
903.21	14663
903.328	14758
903.446	14606
903.565	14514
903.683	14526
903.801	14442
903.919	14431
904.038	14518
904.156	14389
904.274	14404
904.392	14309
904.51	14263
904.627	14286
904.745	14305
904.863	14377
904.981	14161
905.098	14039
905.216	14054
905.334	14043
905.451	13963
905.569	14005
905.686	13963
905.803	13932
905.921	13753
906.038	13860
906.155	13780
906.272	13670
906.389	13677
906.506	13556
906.623	13521
906.74	13453
906.857	13491
906.974	13434
907.091	13655
907.208	13734
907.324	13548
907.441	13430
907.557	13301
907.674	13335
907.79	13251
907.907	13304
908.023	13213
908.139	13251
908.256	13217
908.372	13164
908.488	13190
908.604	12939
908.72	12996
908.836	12973
908.952	12939
909.068	12981
909.184	13095
909.3	13057
909.415	13015
909.531	12935
909.647	12734
909.762	12776
909.878	12711
909.993	12734
910.108	12681
910.224	12722
910.339	12707
910.454	12547
910.57	12559
910.685	12597
910.8	12741
910.915	12779
911.03	12612
911.145	12384
911.259	12391
911.374	12414
911.489	12311
911.604	12243
911.718	12136
911.833	12243
911.947	12064
912.062	11942
912.176	12095
912.291	12167
912.405	12038
912.519	12262
912.633	12281
912.748	12213
912.862	12095
912.976	12022
913.09	11885
913.204	11973
913.318	11999
913.431	12064
913.545	12079
913.659	12133
913.772	11980
913.886	11878
914	11832
914.113	11969
914.226	12022
914.34	11923
914.453	11779
914.566	11904
914.68	11828
914.793	11783
914.906	11649
915.019	11528
915.132	11535
915.245	11615
915.358	11600
915.47	11592
915.583	11653
915.696	11642
915.809	11653
915.921	11756
916.034	11577
916.146	11520
916.259	11532
916.371	11600
916.483	11608
916.595	11467
916.708	11455
916.82	11493
916.932	11547
917.044	11398
917.156	11452
917.268	11315
917.38	11368
917.491	11345
917.603	11303
917.715	11505
917.826	11505
917.938	11296
918.049	11353
918.161	11391
918.272	11406
918.384	11543
918.495	11395
918.606	11197
918.717	11201
918.828	11216
918.939	11280
919.05	11109
919.161	11109
919.272	10942
919.383	11117
919.494	11273
919.604	11326
919.715	11277
919.826	11117
919.936	11151
920.047	11315
920.157	11254
920.267	11429
920.378	11197
920.488	11204
920.598	11402
920.708	11573
920.818	11379
920.928	11421
921.038	11512
921.148	11596
921.258	11204
921.368	11197
921.477	11014
921.587	11010
921.697	10908
921.806	11045
921.916	10934
922.025	10698
922.134	10702
922.244	10660
922.353	10774
922.462	10588
922.571	10542
922.68	10508
922.789	10421
922.898	10386
923.007	10360
923.116	10417
923.224	10402
923.333	10394
923.442	10249
923.55	10257
923.659	10234
923.767	10322
923.876	10246
923.984	10356
924.092	10272
924.201	10272
924.309	10166
924.417	10238
924.525	10150
924.633	10265
924.741	11003
924.849	10002
924.956	10200
925.064	10002
925.172	9991
925.279	9987
925.387	10010
925.494	9994
925.602	10188
925.709	10101
925.816	9956
925.924	10029
926.031	10013
926.138	10002
926.245	10017
926.352	9934
926.459	9953
926.566	10067
926.673	9968
926.779	9800
926.886	9899
926.993	9671
927.099	9671
927.206	9625
927.312	9660
927.419	9736
927.525	9671
927.631	9747
927.737	9572
927.843	9504
927.95	9469
928.056	9519
928.162	9553
928.267	9599
928.373	10071
928.479	9709
928.585	9439
928.69	9557
928.796	9564
928.901	9500
929.007	9397
929.112	9515
929.218	9466
929.323	9336
929.428	9348
929.533	9439
929.638	9310
929.743	9367
929.848	9458
929.953	9329
930.058	9310
930.163	9169
930.267	9176
930.372	9249
930.477	9058
930.581	9332
930.685	9245
930.79	9047
930.894	9093
930.998	8967
931.103	9135
931.207	8804
931.311	8720
931.415	8720
931.519	8533
931.623	8556
