Data from test_V78500241_3545.txt Node
Date: Fri Mar 25 14:58:24 CST 2022
User: usil
Spectrometer: V785-0024
Trigger mode: 0
Integration Time (sec): 4.000000E-1
Scans to average: 1
Nonlinearity correction enabled: false
Boxcar width: 0
Storing dark spectrum: false
XAxis mode: Wavelengths
Number of Pixels in Spectrum: 1024
>>>>>Begin Spectral Data<<<<<
801.071	21838
801.214	21751
801.356	21504
801.499	21557
801.641	21329
801.783	21256
801.926	21306
802.068	21074
802.211	21089
802.353	21157
802.496	20906
802.638	20823
802.78	20773
802.923	20625
803.065	20552
803.208	20537
803.35	20590
803.492	20720
803.635	20655
803.777	20655
803.919	20701
804.061	20979
804.204	20640
804.346	20484
804.488	20484
804.63	20594
804.773	20400
804.915	20488
805.057	20674
805.199	20465
805.341	20541
805.483	20552
805.626	20609
805.768	20393
805.91	20507
806.052	20556
806.194	20438
806.336	20568
806.478	20389
806.62	20431
806.762	20533
806.904	20659
807.046	20872
807.188	20781
807.33	20765
807.472	20864
807.614	20765
807.756	20743
807.898	20609
808.04	20503
808.182	20465
808.324	20579
808.465	20613
808.607	20750
808.749	20792
808.891	20963
809.033	20986
809.174	20895
809.316	20796
809.458	20807
809.6	20826
809.741	20880
809.883	20929
810.025	21036
810.166	20948
810.308	21020
810.45	20982
810.591	20944
810.733	20785
810.875	20648
811.016	20621
811.158	20465
811.299	20769
811.441	20686
811.582	20716
811.724	20727
811.865	20514
812.007	20606
812.148	20556
812.29	20590
812.431	20716
812.573	21001
812.714	20948
812.855	21070
812.997	21211
813.138	21443
813.279	21214
813.421	21013
813.562	20990
813.703	21001
813.845	20788
813.986	20469
814.127	20305
814.268	20183
814.41	20256
814.551	20065
814.692	20202
814.833	19978
814.974	20062
815.115	20065
815.256	19959
815.397	19940
815.539	19951
815.68	19871
815.821	19845
815.962	19913
816.103	19887
816.244	19734
816.385	19639
816.526	19567
816.666	19426
816.807	19255
816.948	19331
817.089	19514
817.23	19392
817.371	19289
817.512	19369
817.653	19293
817.793	19187
817.934	19430
818.075	19259
818.216	19396
818.356	19324
818.497	19168
818.638	19031
818.778	19050
818.919	19065
819.06	18973
819.2	19141
819.341	19198
819.481	19175
819.622	19194
819.762	19502
819.903	19377
820.043	19365
820.184	19301
820.324	19168
820.465	19346
820.605	19190
820.746	19168
820.886	19103
821.026	19232
821.167	19225
821.307	19255
821.447	19152
821.588	19084
821.728	18951
821.868	18795
822.008	18642
822.149	18661
822.289	18700
822.429	18460
822.569	18308
822.709	18311
822.849	18201
822.99	18186
823.13	18148
823.27	18194
823.41	18007
823.55	17984
823.69	18072
823.83	18007
823.97	17863
824.11	17722
824.25	17737
824.389	17790
824.529	17775
824.669	17726
824.809	17882
824.949	17908
825.089	17764
825.228	17707
825.368	17623
825.508	17532
825.648	17589
825.787	17532
825.927	17539
826.067	17516
826.206	17455
826.346	17543
826.485	17463
826.625	17455
826.765	17543
826.904	17604
827.044	17269
827.183	17299
827.323	17178
827.462	17204
827.601	17284
827.741	17250
827.88	17151
828.02	17079
828.159	17159
828.298	17261
828.437	17277
828.577	17216
828.716	17391
828.855	17102
828.994	17025
829.134	16934
829.273	16991
829.412	16938
829.551	17003
829.69	16908
829.829	17067
829.968	17083
830.107	17056
830.246	17041
830.385	17041
830.524	16957
830.663	16908
830.802	16729
830.941	16656
831.08	16698
831.219	16641
831.357	16618
831.496	16881
831.635	16717
831.774	16497
831.913	16637
832.051	16417
832.19	16363
832.329	16379
832.467	16344
832.606	16295
832.744	16295
832.883	16310
833.022	16242
833.16	16325
833.299	16363
833.437	16386
833.576	16489
833.714	16424
833.852	16497
833.991	16432
834.129	16478
834.267	16470
834.406	16417
834.544	16451
834.682	16398
834.821	16451
834.959	16542
835.097	16367
835.235	16504
835.373	16451
835.511	16508
835.65	16299
835.788	16265
835.926	16181
836.064	16207
836.202	16211
836.34	16402
836.478	16489
836.615	16325
836.753	16371
836.891	16379
837.029	16318
837.167	16291
837.305	16226
837.443	16284
837.58	16177
837.718	16310
837.856	16268
837.993	16078
838.131	16128
838.269	16013
838.406	16109
838.544	16120
838.681	15960
838.819	15831
838.956	15648
839.094	15671
839.231	15812
839.369	15972
839.506	16207
839.643	16010
839.781	15785
839.918	15694
840.055	15797
840.193	15842
840.33	15675
840.467	15751
840.604	15854
840.742	15915
840.879	15675
841.016	15648
841.153	15641
841.29	15873
841.427	15720
841.564	15785
841.701	15728
841.838	15819
841.975	15660
842.112	15713
842.249	15538
842.385	15485
842.522	15705
842.659	15568
842.796	15534
842.933	15515
843.069	15485
843.206	15580
843.343	15637
843.479	15580
843.616	15633
843.752	15428
843.889	15393
844.025	15515
844.162	15279
844.298	15431
844.435	15351
844.571	15302
844.708	15329
844.844	15481
844.98	15454
845.117	15443
845.253	15370
845.389	15176
845.525	15214
845.661	15176
845.798	15062
845.934	15146
846.07	15108
846.206	15116
846.342	15306
846.478	15093
846.614	14979
846.75	14864
846.886	14800
847.022	15001
847.158	14731
847.294	14899
847.429	14864
847.565	14796
847.701	15112
847.837	14667
847.972	14629
848.108	14765
848.244	14708
848.379	14598
848.515	14495
848.65	14518
848.786	14427
848.921	14499
849.057	14571
849.192	14587
849.328	14602
849.463	14457
849.598	14530
849.734	14446
849.869	14408
850.004	14256
850.14	14347
850.275	14332
850.41	14153
850.545	14294
850.68	14214
850.815	14286
850.95	14248
851.085	14404
851.22	14389
851.355	14275
851.49	14237
851.625	14130
851.76	14237
851.895	14206
852.03	14202
852.165	14225
852.299	14324
852.434	14408
852.569	14400
852.703	14358
852.838	14362
852.973	14507
853.107	14442
853.242	14298
853.376	14130
853.511	13997
853.645	14035
853.78	14233
853.914	14084
854.048	14176
854.183	14138
854.317	14096
854.451	14374
854.585	14065
854.72	14100
854.854	14134
854.988	14081
855.122	14145
855.256	13955
855.39	14115
855.524	14267
855.658	14180
855.792	14157
855.926	14256
856.06	14172
856.194	14172
856.327	14195
856.461	14020
856.595	14046
856.729	14153
856.862	14275
856.996	14058
857.13	14183
857.263	14210
857.397	14282
857.53	14081
857.664	14305
857.797	14187
857.931	14278
858.064	14180
858.197	14259
858.331	14073
858.464	14134
858.597	14020
858.731	14111
858.864	14107
858.997	14130
859.13	14191
859.263	14172
859.396	14221
859.529	14187
859.662	14176
859.795	14142
859.928	14103
860.061	14309
860.194	14301
860.327	14218
860.46	14138
860.592	14305
860.725	14328
860.858	14256
860.99	14134
861.123	13982
861.256	14046
861.388	14164
861.521	14933
861.653	14077
861.786	13925
861.918	14073
862.05	14058
862.183	14115
862.315	14092
862.447	14187
862.58	14092
862.712	13902
862.844	13852
862.976	13986
863.108	13913
863.24	14248
863.372	13822
863.504	14001
863.636	13871
863.768	13978
863.9	13856
864.032	13894
864.164	13913
864.296	13951
864.428	14020
864.559	14043
864.691	14046
864.823	14008
864.954	14012
865.086	13993
865.217	13967
865.349	13868
865.48	13909
865.612	13902
865.743	14001
865.875	13993
866.006	13940
866.137	13944
866.269	13993
866.4	14001
866.531	13875
866.662	13814
866.793	13814
866.924	13982
867.055	13982
867.186	13932
867.317	13898
867.448	13818
867.579	13826
867.71	13807
867.841	13894
867.972	13944
868.103	14005
868.233	13811
868.364	13921
868.495	13997
868.625	14073
868.756	14271
868.886	14073
869.017	14138
869.147	14218
869.278	14145
869.408	14187
869.539	14115
869.669	14305
869.799	14225
869.929	14256
870.06	14286
870.19	14412
870.32	14514
870.45	14511
870.58	14556
870.71	14636
870.84	14678
870.97	14682
871.1	14583
871.23	14758
871.36	14800
871.489	14670
871.619	14689
871.749	14773
871.879	14678
872.008	14792
872.138	14731
872.267	14815
872.397	14610
872.526	14556
872.656	14613
872.785	14590
872.915	14826
873.044	14724
873.173	14880
873.303	14948
873.432	14811
873.561	14845
873.69	14853
873.819	14754
873.948	14834
874.077	14849
874.206	14788
874.335	14956
874.464	14971
874.593	15093
874.722	15077
874.851	15192
874.979	15104
875.108	15112
875.237	15112
875.365	14971
875.494	15195
875.623	15184
875.751	15176
875.88	15165
876.008	15222
876.136	15389
876.265	15492
876.393	15709
876.521	15732
876.65	15736
876.778	15473
876.906	15542
877.034	15549
877.162	15542
877.29	15469
877.418	15534
877.546	15580
877.674	15538
877.802	15557
877.93	15622
878.058	15511
878.185	15458
878.313	15443
878.441	15549
878.568	15370
878.696	15515
878.824	15553
878.951	15564
879.079	15789
879.206	15907
879.333	15755
879.461	15686
879.588	15557
879.715	15652
879.842	15884
879.97	15587
880.097	15329
880.224	15367
880.351	15443
880.478	15355
880.605	15325
880.732	15310
880.859	15606
880.986	15401
881.112	15393
881.239	15294
881.366	15211
881.493	15100
881.619	15058
881.746	15005
881.872	15081
881.999	14967
882.125	15081
882.252	15146
882.378	15039
882.505	15218
882.631	15085
882.757	14785
882.883	14918
883.01	14887
883.136	14883
883.262	14746
883.388	14651
883.514	14986
883.64	14918
883.766	14800
883.892	14678
884.018	14712
884.143	14861
884.269	14891
884.395	14716
884.52	14606
884.646	14667
884.772	14556
884.897	14549
885.023	14545
885.148	14735
885.274	14625
885.399	14716
885.524	14560
885.65	14518
885.775	14651
885.9	14503
886.025	14739
886.15	14522
886.275	14518
886.4	14492
886.525	14560
886.65	14556
886.775	14530
886.9	14693
887.025	14712
887.149	14629
887.274	14385
887.399	14347
887.523	14438
887.648	14434
887.773	14271
887.897	14495
888.021	14492
888.146	14362
888.27	14556
888.395	14533
888.519	14511
888.643	14446
888.767	14568
888.891	14339
889.015	14282
889.139	14294
889.263	14168
889.387	14343
889.511	14427
889.635	14442
889.759	14320
889.883	14282
890.006	14267
890.13	14358
890.254	14130
890.377	14221
890.501	14077
890.624	14115
890.748	14187
890.871	14024
890.995	14084
891.118	13928
891.241	13989
891.364	14077
891.488	14214
891.611	14024
891.734	14016
891.857	14008
891.98	14012
892.103	14062
892.226	13986
892.349	13890
892.471	13826
892.594	13982
892.717	13970
892.839	13925
892.962	14016
893.085	14084
893.207	14043
893.33	13860
893.452	13875
893.575	14054
893.697	13947
893.819	14180
893.941	14229
894.064	14103
894.186	13837
894.308	13890
894.43	14149
894.552	14290
894.674	14214
894.796	14050
894.918	14024
895.04	14024
895.161	14168
895.283	14050
895.405	13925
895.526	14157
895.648	14164
895.769	14084
895.891	14225
896.012	14176
896.134	14244
896.255	14119
896.376	14077
896.498	14180
896.619	14233
896.74	14088
896.861	14256
896.982	14492
897.103	14674
897.224	14514
897.345	14366
897.466	14221
897.587	14412
897.708	14556
897.828	14495
897.949	14389
898.07	14176
898.19	14446
898.311	14533
898.431	14408
898.552	14552
898.672	14495
898.792	14602
898.913	14507
899.033	14434
899.153	14393
899.273	14210
899.393	14294
899.513	14294
899.633	14317
899.753	14385
899.873	14298
899.993	14419
900.113	14366
900.232	14427
900.352	14259
900.472	14202
900.591	14176
900.711	14214
900.83	14187
900.95	14339
901.069	14305
901.189	14149
901.308	13936
901.427	13864
901.546	13883
901.665	13780
901.784	13814
901.904	13814
902.023	13712
902.141	13487
902.26	13563
902.379	13506
902.498	13472
902.617	13400
902.735	13514
902.854	13460
902.973	13369
903.091	13187
903.21	13183
903.328	13156
903.446	13103
903.565	12981
903.683	12973
903.801	13053
903.919	13057
904.038	12973
904.156	12913
904.274	12939
904.392	12905
904.51	12871
904.627	12810
904.745	12939
904.863	12787
904.981	12677
905.098	12467
905.216	12551
905.334	12620
905.451	12639
905.569	12536
905.686	12540
905.803	12544
905.921	12403
906.038	12475
906.155	12391
906.272	12308
906.389	12247
906.506	12098
906.623	12140
906.74	12152
906.857	11973
906.974	12098
907.091	12152
907.208	12258
907.324	12201
907.441	12121
907.557	11965
907.674	12011
907.79	11748
907.907	11916
908.023	11939
908.139	11969
908.256	11798
908.372	11817
908.488	11760
908.604	11676
908.72	11729
908.836	11653
908.952	11642
909.068	11634
909.184	11779
909.3	11729
909.415	11737
909.531	11608
909.647	11459
909.762	11433
909.878	11410
909.993	11383
910.108	11372
910.224	11448
910.339	11448
910.454	11391
910.57	11258
910.685	11235
910.8	11467
910.915	11463
911.03	11269
911.145	11075
911.259	11113
911.374	11067
911.489	11006
911.604	10995
911.718	10900
911.833	10900
911.947	10805
912.062	10816
912.176	10847
912.291	10930
912.405	10934
912.519	11136
912.633	11212
912.748	10919
912.862	10889
912.976	10873
913.09	10752
913.204	10668
913.318	10793
913.431	10911
913.545	10892
913.659	10877
913.772	10748
913.886	10653
914	10615
914.113	10778
914.226	10824
914.34	10706
914.453	10558
914.566	10729
914.68	10653
914.793	10599
914.906	10322
915.019	10344
915.132	10382
915.245	10363
915.358	10375
915.47	10382
915.583	10428
915.696	10428
915.809	10573
915.921	10523
916.034	10413
916.146	10337
916.259	10413
916.371	10405
916.483	10356
916.595	10284
916.708	10272
916.82	10413
916.932	10280
917.044	10276
917.156	10303
917.268	10230
917.38	10265
917.491	10219
917.603	10333
917.715	10333
917.826	10379
917.938	10215
918.049	10173
918.161	10196
918.272	10402
918.384	10337
918.495	10310
918.606	10097
918.717	10090
918.828	10131
918.939	10150
919.05	10021
919.161	10135
919.272	9884
919.383	10013
919.494	10166
919.604	10390
919.715	10185
919.826	10006
919.936	10131
920.047	10139
920.157	10139
920.267	10352
920.378	10253
920.488	10124
920.598	10314
920.708	10546
920.818	10284
920.928	10371
921.038	10497
921.148	10409
921.258	10158
921.368	10048
921.477	10025
921.587	9949
921.697	9892
921.806	10059
921.916	9873
922.025	9778
922.134	9686
922.244	9614
922.353	9675
922.462	9534
922.571	9515
922.68	9477
922.789	9348
922.898	9401
923.007	9412
923.116	9466
923.224	9408
923.333	9428
923.442	9294
923.55	9184
923.659	9363
923.767	9310
923.876	9272
923.984	9359
924.092	9165
924.201	9272
924.309	9207
924.417	9253
924.525	9192
924.633	9188
924.741	9964
924.849	8944
924.956	9241
925.064	9070
925.172	8933
925.279	9009
925.387	9070
925.494	9032
925.602	9161
925.709	9085
925.816	8998
925.924	8990
926.031	9138
926.138	9051
926.245	9123
926.352	8990
926.459	9138
926.566	9135
926.673	9001
926.779	8948
926.886	8944
926.993	8811
927.099	8754
927.206	8724
927.312	8689
927.419	8792
927.525	8754
927.631	8861
927.737	8769
927.843	8705
927.95	8556
928.056	8682
928.162	8697
928.267	8659
928.373	9317
928.479	8724
928.585	8514
928.69	8644
928.796	8648
928.901	8590
929.007	8381
929.112	8613
929.218	8571
929.323	8560
929.428	8560
929.533	8560
929.638	8434
929.743	8480
929.848	8473
929.953	8507
930.058	8400
930.163	8275
930.267	8290
930.372	8423
930.477	8210
930.581	8499
930.685	8313
930.79	8180
930.894	8290
930.998	8202
931.103	8324
931.207	8035
931.311	7894
931.415	7868
931.519	7708
931.623	7674
