Data from test_V78500241_3576.txt Node
Date: Fri Mar 25 14:58:37 CST 2022
User: usil
Spectrometer: V785-0024
Trigger mode: 0
Integration Time (sec): 4.000000E-1
Scans to average: 1
Nonlinearity correction enabled: false
Boxcar width: 0
Storing dark spectrum: false
XAxis mode: Wavelengths
Number of Pixels in Spectrum: 1024
>>>>>Begin Spectral Data<<<<<
801.071	21911
801.214	21774
801.356	21519
801.499	21439
801.641	21302
801.783	21283
801.926	21359
802.068	21222
802.211	21081
802.353	20990
802.496	20944
802.638	20754
802.78	20750
802.923	20659
803.065	20629
803.208	20552
803.35	20682
803.492	20682
803.635	20785
803.777	20617
803.919	20682
804.061	20845
804.204	20537
804.346	20533
804.488	20514
804.63	20503
804.773	20434
804.915	20518
805.057	20674
805.199	20503
805.341	20480
805.483	20655
805.626	20537
805.768	20419
805.91	20541
806.052	20533
806.194	20480
806.336	20659
806.478	20366
806.62	20533
806.762	20533
806.904	20674
807.046	20899
807.188	20941
807.33	20804
807.472	20815
807.614	20750
807.756	20743
807.898	20625
808.04	20583
808.182	20609
808.324	20693
808.465	20590
808.607	20807
808.749	20872
808.891	21036
809.033	21005
809.174	20849
809.316	20796
809.458	20925
809.6	20800
809.741	20925
809.883	20967
810.025	20967
810.166	20952
810.308	20963
810.45	20971
810.591	20781
810.733	20735
810.875	20701
811.016	20571
811.158	20564
811.299	20629
811.441	20765
811.582	20712
811.724	20651
811.865	20564
812.007	20621
812.148	20659
812.29	20731
812.431	20727
812.573	20899
812.714	20956
812.855	21176
812.997	21165
813.138	21332
813.279	21184
813.421	21096
813.562	21135
813.703	20883
813.845	20701
813.986	20530
814.127	20351
814.268	20256
814.41	20221
814.551	20237
814.692	20248
814.833	20180
814.974	20096
815.115	20122
815.256	20024
815.397	20050
815.539	20058
815.68	20111
815.821	19890
815.962	19947
816.103	20020
816.244	19788
816.385	19666
816.526	19628
816.666	19487
816.807	19285
816.948	19358
817.089	19411
817.23	19324
817.371	19331
817.512	19301
817.653	19255
817.793	19232
817.934	19198
818.075	19388
818.216	19194
818.356	19213
818.497	19069
818.638	18993
818.778	19065
818.919	19069
819.06	18985
819.2	19240
819.341	19141
819.481	19118
819.622	19415
819.762	19362
819.903	19343
820.043	19377
820.184	19236
820.324	19282
820.465	19396
820.605	19384
820.746	19335
820.886	19114
821.026	19228
821.167	19194
821.307	19206
821.447	19270
821.588	19065
821.728	18954
821.868	18924
822.008	18673
822.149	18677
822.289	18623
822.429	18536
822.569	18323
822.709	18422
822.849	18235
822.99	18190
823.13	18194
823.27	18060
823.41	18068
823.55	18045
823.69	18026
823.83	18011
823.97	17908
824.11	17805
824.25	17699
824.389	17649
824.529	17870
824.669	17699
824.809	17783
824.949	17916
825.089	17866
825.228	17870
825.368	17592
825.508	17558
825.648	17543
825.787	17486
825.927	17615
826.067	17562
826.206	17490
826.346	17649
826.485	17608
826.625	17463
826.765	17630
826.904	17596
827.044	17356
827.183	17364
827.323	17273
827.462	17292
827.601	17364
827.741	17220
827.88	17223
828.02	17121
828.159	17204
828.298	17318
828.437	17334
828.577	17303
828.716	17425
828.855	17269
828.994	16991
829.134	16957
829.273	16984
829.412	16911
829.551	16908
829.69	17033
829.829	17006
829.968	17098
830.107	17128
830.246	17094
830.385	16934
830.524	16946
830.663	16797
830.802	16767
830.941	16675
831.08	16721
831.219	16664
831.357	16668
831.496	16812
831.635	16588
831.774	16542
831.913	16504
832.051	16519
832.19	16436
832.329	16447
832.467	16306
832.606	16280
832.744	16249
832.883	16333
833.022	16162
833.16	16268
833.299	16398
833.437	16352
833.576	16375
833.714	16363
833.852	16413
833.991	16550
834.129	16466
834.267	16402
834.406	16405
834.544	16455
834.682	16402
834.821	16493
834.959	16584
835.097	16360
835.235	16409
835.373	16409
835.511	16314
835.65	16337
835.788	16215
835.926	16238
836.064	16143
836.202	16154
836.34	16268
836.478	16405
836.615	16265
836.753	16276
836.891	16413
837.029	16333
837.167	16295
837.305	16310
837.443	16185
837.58	16181
837.718	16261
837.856	16207
837.993	16067
838.131	16246
838.269	16204
838.406	16097
838.544	16112
838.681	15736
838.819	15785
838.956	15747
839.094	15717
839.231	15816
839.369	16010
839.506	16063
839.643	15991
839.781	15736
839.918	15819
840.055	15686
840.193	15751
840.33	15793
840.467	15679
840.604	15869
840.742	15979
840.879	15580
841.016	15603
841.153	15545
841.29	15937
841.427	15709
841.564	15800
841.701	15736
841.838	15656
841.975	15606
842.112	15633
842.249	15553
842.385	15549
842.522	15747
842.659	15606
842.796	15507
842.933	15450
843.069	15416
843.206	15488
843.343	15625
843.479	15568
843.616	15568
843.752	15310
843.889	15332
844.025	15606
844.162	15291
844.298	15355
844.435	15291
844.571	15226
844.708	15393
844.844	15447
844.98	15439
845.117	15553
845.253	15233
845.389	15188
845.525	15230
845.661	15249
845.798	15119
845.934	15165
846.07	15142
846.206	15142
846.342	15192
846.478	15157
846.614	14921
846.75	14880
846.886	14925
847.022	14933
847.158	14933
847.294	14872
847.429	14956
847.565	14826
847.701	15108
847.837	14625
847.972	14613
848.108	14724
848.244	14568
848.379	14541
848.515	14473
848.65	14419
848.786	14495
848.921	14446
849.057	14583
849.192	14499
849.328	14476
849.463	14499
849.598	14503
849.734	14461
849.869	14366
850.004	14298
850.14	14320
850.275	14214
850.41	14168
850.545	14305
850.68	14244
850.815	14320
850.95	14202
851.085	14423
851.22	14336
851.355	14271
851.49	14271
851.625	14259
851.76	14218
851.895	14206
852.03	14107
852.165	14263
852.299	14313
852.434	14381
852.569	14358
852.703	14267
852.838	14366
852.973	14332
853.107	14343
853.242	14176
853.376	14240
853.511	13993
853.645	14153
853.78	14256
853.914	14221
854.048	14069
854.183	14065
854.317	14115
854.451	14271
854.585	14031
854.72	13986
854.854	14126
854.988	14096
855.122	14149
855.256	13917
855.39	14050
855.524	14138
855.658	14225
855.792	14073
855.926	14126
856.06	14248
856.194	14275
856.327	14134
856.461	13986
856.595	14043
856.729	14138
856.862	14111
856.996	14100
857.13	14218
857.263	14210
857.397	14282
857.53	14183
857.664	14206
857.797	14244
857.931	14191
858.064	14149
858.197	14244
858.331	14096
858.464	14062
858.597	14046
858.731	14058
858.864	14202
858.997	14153
859.13	14130
859.263	14119
859.396	14237
859.529	14138
859.662	14050
859.795	14088
859.928	14069
860.061	14210
860.194	14290
860.327	14206
860.46	14115
860.592	14267
860.725	14252
860.858	14259
860.99	14142
861.123	14001
861.256	14039
861.388	14187
861.521	14921
861.653	14046
861.786	13902
861.918	13826
862.05	14138
862.183	14043
862.315	14031
862.447	14214
862.58	13986
862.712	13890
862.844	13772
862.976	13890
863.108	13917
863.24	14271
863.372	13902
863.504	13909
863.636	13856
863.768	13986
863.9	13951
864.032	13799
864.164	13814
864.296	13959
864.428	13974
864.559	14062
864.691	14039
864.823	14001
864.954	13864
865.086	13883
865.217	13936
865.349	13868
865.48	13887
865.612	13871
865.743	14077
865.875	13868
866.006	13879
866.137	13890
866.269	13883
866.4	13845
866.531	13875
866.662	13761
866.793	13803
866.924	13849
867.055	13818
867.186	13875
867.317	13822
867.448	13803
867.579	13807
867.71	13788
867.841	13719
867.972	13947
868.103	13871
868.233	13849
868.364	13909
868.495	13921
868.625	14092
868.756	14202
868.886	14142
869.017	14180
869.147	14229
869.278	14206
869.408	14157
869.539	14073
869.669	14206
869.799	14237
869.929	14259
870.06	14267
870.19	14476
870.32	14412
870.45	14511
870.58	14454
870.71	14606
870.84	14674
870.97	14507
871.1	14499
871.23	14686
871.36	14724
871.489	14655
871.619	14541
871.749	14823
871.879	14781
872.008	14834
872.138	14727
872.267	14720
872.397	14621
872.526	14602
872.656	14495
872.785	14522
872.915	14727
873.044	14868
873.173	14788
873.303	14800
873.432	14834
873.561	14815
873.69	14693
873.819	14678
873.948	14914
874.077	14830
874.206	14765
874.335	14804
874.464	14868
874.593	15180
874.722	14971
874.851	15146
874.979	15173
875.108	15123
875.237	14975
875.365	15028
875.494	15047
875.623	15161
875.751	15055
875.88	15097
876.008	15294
876.136	15306
876.265	15511
876.393	15652
876.521	15557
876.65	15530
876.778	15667
876.906	15485
877.034	15542
877.162	15420
877.29	15507
877.418	15466
877.546	15610
877.674	15587
877.802	15488
877.93	15542
878.058	15450
878.185	15389
878.313	15397
878.441	15488
878.568	15397
878.696	15473
878.824	15526
878.951	15606
879.079	15709
879.206	15759
879.333	15656
879.461	15564
879.588	15610
879.715	15713
879.842	15827
879.97	15625
880.097	15416
880.224	15302
880.351	15420
880.478	15359
880.605	15325
880.732	15367
880.859	15584
880.986	15458
881.112	15355
881.239	15344
881.366	15127
881.493	15093
881.619	15024
881.746	15036
881.872	15081
881.999	15051
882.125	15058
882.252	15192
882.378	15047
882.505	15176
882.631	14952
882.757	14937
882.883	14899
883.01	14899
883.136	14750
883.262	14731
883.388	14674
883.514	14918
883.64	14929
883.766	14773
883.892	14708
884.018	14625
884.143	14872
884.269	14994
884.395	14693
884.52	14655
884.646	14621
884.772	14495
884.897	14412
885.023	14610
885.148	14785
885.274	14693
885.399	14773
885.524	14655
885.65	14663
885.775	14503
885.9	14549
886.025	14762
886.15	14754
886.275	14541
886.4	14476
886.525	14492
886.65	14617
886.775	14503
886.9	14697
887.025	14868
887.149	14594
887.274	14461
887.399	14328
887.523	14374
887.648	14286
887.773	14309
887.897	14503
888.021	14465
888.146	14317
888.27	14473
888.395	14545
888.519	14526
888.643	14454
888.767	14545
888.891	14434
889.015	14244
889.139	14317
889.263	14233
889.387	14419
889.511	14499
889.635	14389
889.759	14195
889.883	14172
890.006	14332
890.13	14492
890.254	14259
890.377	14187
890.501	14107
890.624	14050
890.748	14180
890.871	13906
890.995	13940
891.118	13925
891.241	13944
891.364	13963
891.488	14130
891.611	13925
891.734	14024
891.857	14157
891.98	13997
892.103	14050
892.226	14126
892.349	13970
892.471	13772
892.594	13917
892.717	13955
892.839	14005
892.962	13940
893.085	13947
893.207	14016
893.33	13947
893.452	13890
893.575	14088
893.697	14062
893.819	14183
893.941	14237
894.064	14263
894.186	13970
894.308	14005
894.43	14168
894.552	14225
894.674	14123
894.796	14005
894.918	13902
895.04	14084
895.161	14145
895.283	14130
895.405	14092
895.526	14092
895.648	14229
895.769	14195
895.891	14206
896.012	14221
896.134	14244
896.255	14157
896.376	14119
896.498	14138
896.619	14149
896.74	14183
896.861	14214
896.982	14423
897.103	14663
897.224	14396
897.345	14442
897.466	14339
897.587	14423
897.708	14560
897.828	14507
897.949	14427
898.07	14275
898.19	14423
898.311	14575
898.431	14415
898.552	14522
898.672	14648
898.792	14590
898.913	14560
899.033	14488
899.153	14389
899.273	14172
899.393	14324
899.513	14385
899.633	14358
899.753	14419
899.873	14351
899.993	14377
900.113	14438
900.232	14393
900.352	14301
900.472	14339
900.591	14145
900.711	14206
900.83	14210
900.95	14309
901.069	14267
901.189	14183
901.308	13959
901.427	13856
901.546	13868
901.665	13986
901.784	13928
901.904	13830
902.023	13723
902.141	13502
902.26	13487
902.379	13487
902.498	13441
902.617	13438
902.735	13525
902.854	13506
902.973	13407
903.091	13118
903.21	13171
903.328	13129
903.446	13114
903.565	13107
903.683	13050
903.801	12985
903.919	12973
904.038	13050
904.156	12871
904.274	12924
904.392	12795
904.51	12867
904.627	12848
904.745	12958
904.863	12985
904.981	12730
905.098	12604
905.216	12566
905.334	12547
905.451	12551
905.569	12555
905.686	12544
905.803	12601
905.921	12376
906.038	12486
906.155	12441
906.272	12228
906.389	12433
906.506	12163
906.623	12182
906.74	12194
906.857	12102
906.974	12083
907.091	12247
907.208	12155
907.324	12121
907.441	12038
907.557	11923
907.674	11912
907.79	11870
907.907	11870
908.023	12019
908.139	11916
908.256	11904
908.372	11832
908.488	11843
908.604	11722
908.72	11532
908.836	11653
908.952	11634
909.068	11638
909.184	11847
909.3	11646
909.415	11745
909.531	11733
909.647	11482
909.762	11482
909.878	11360
909.993	11501
910.108	11345
910.224	11474
910.339	11467
910.454	11395
910.57	11318
910.685	11315
910.8	11410
910.915	11433
911.03	11318
911.145	11201
911.259	11086
911.374	11147
911.489	11010
911.604	10972
911.718	10904
911.833	10892
911.947	10687
912.062	10763
912.176	10850
912.291	10946
912.405	10843
912.519	11170
912.633	11117
912.748	10938
912.862	10839
912.976	10717
913.09	10687
913.204	10736
913.318	10801
913.431	10885
913.545	10889
913.659	10889
913.772	10774
913.886	10611
914	10653
914.113	10736
914.226	10835
914.34	10771
914.453	10611
914.566	10679
914.68	10687
914.793	10634
914.906	10417
915.019	10314
915.132	10268
915.245	10394
915.358	10386
915.47	10417
915.583	10424
915.696	10371
915.809	10592
915.921	10603
916.034	10428
916.146	10413
916.259	10341
916.371	10466
916.483	10402
916.595	10265
916.708	10386
916.82	10413
916.932	10310
917.044	10325
917.156	10246
917.268	10219
917.38	10219
917.491	10211
917.603	10215
917.715	10356
917.826	10356
917.938	10253
918.049	10116
918.161	10242
918.272	10436
918.384	10341
918.495	10322
918.606	10116
918.717	10021
918.828	10158
918.939	10150
919.05	10063
919.161	10109
919.272	9865
919.383	10006
919.494	10124
919.604	10310
919.715	10147
919.826	10071
919.936	10105
920.047	10143
920.157	10150
920.267	10322
920.378	10185
920.488	10105
920.598	10356
920.708	10500
920.818	10299
920.928	10329
921.038	10462
921.148	10367
921.258	10154
921.368	10093
921.477	10036
921.587	9994
921.697	9838
921.806	10055
921.916	9907
922.025	9781
922.134	9671
922.244	9606
922.353	9728
922.462	9538
922.571	9545
922.68	9435
922.789	9374
922.898	9348
923.007	9389
923.116	9416
923.224	9397
923.333	9351
923.442	9275
923.55	9253
923.659	9321
923.767	9355
923.876	9203
923.984	9317
924.092	9237
924.201	9256
924.309	9264
924.417	9313
924.525	9222
924.633	9184
924.741	9991
924.849	9058
924.956	9226
925.064	9093
925.172	8918
925.279	9074
925.387	9070
925.494	9066
925.602	9173
925.709	9116
925.816	9028
925.924	9055
926.031	9108
926.138	9032
926.245	9104
926.352	9039
926.459	9017
926.566	9142
926.673	9020
926.779	8979
926.886	9017
926.993	8777
927.099	8777
927.206	8735
927.312	8766
927.419	8842
927.525	8785
927.631	8758
927.737	8739
927.843	8640
927.95	8507
928.056	8674
928.162	8750
928.267	8777
928.373	9336
928.479	8773
928.585	8526
928.69	8701
928.796	8739
928.901	8549
929.007	8514
929.112	8610
929.218	8556
929.323	8549
929.428	8446
929.533	8648
929.638	8400
929.743	8434
929.848	8556
929.953	8438
930.058	8358
930.163	8214
930.267	8267
930.372	8347
930.477	8164
930.581	8530
930.685	8301
930.79	8138
930.894	8191
930.998	8191
931.103	8400
931.207	8020
931.311	7967
931.415	7909
931.519	7708
931.623	7704
