Data from test_V78500241_2814.txt Node
Date: Fri Mar 25 14:53:18 CST 2022
User: usil
Spectrometer: V785-0024
Trigger mode: 0
Integration Time (sec): 4.000000E-1
Scans to average: 1
Nonlinearity correction enabled: false
Boxcar width: 0
Storing dark spectrum: false
XAxis mode: Wavelengths
Number of Pixels in Spectrum: 1024
>>>>>Begin Spectral Data<<<<<
801.071	22124
801.214	22013
801.356	21755
801.499	21816
801.641	21534
801.783	21443
801.926	21538
802.068	21260
802.211	21302
802.353	21252
802.496	21116
802.638	20998
802.78	20849
802.923	20944
803.065	20781
803.208	20746
803.35	20811
803.492	20857
803.635	20864
803.777	20796
803.919	20857
804.061	21173
804.204	20838
804.346	20682
804.488	20667
804.63	20724
804.773	20568
804.915	20754
805.057	20758
805.199	20621
805.341	20785
805.483	20887
805.626	20804
805.768	20682
805.91	20678
806.052	20602
806.194	20716
806.336	20667
806.478	20663
806.62	20602
806.762	20777
806.904	20899
807.046	21176
807.188	20990
807.33	20963
807.472	20982
807.614	20872
807.756	20834
807.898	20891
808.04	20693
808.182	20762
808.324	20838
808.465	20731
808.607	20967
808.749	20986
808.891	21176
809.033	21146
809.174	21039
809.316	21047
809.458	21032
809.6	21001
809.741	21077
809.883	21180
810.025	21214
810.166	21169
810.308	21150
810.45	21165
810.591	21051
810.733	20826
810.875	20800
811.016	20781
811.158	20712
811.299	20895
811.441	21005
811.582	20918
811.724	20819
811.865	20674
812.007	20807
812.148	20925
812.29	20849
812.431	20998
812.573	21062
812.714	21165
812.855	21310
812.997	21477
813.138	21481
813.279	21477
813.421	21310
813.562	21237
813.703	21142
813.845	20990
813.986	20636
814.127	20503
814.268	20499
814.41	20499
814.551	20328
814.692	20469
814.833	20309
814.974	20210
815.115	20347
815.256	20191
815.397	20214
815.539	20237
815.68	20107
815.821	20054
815.962	20134
816.103	20077
816.244	19826
816.385	19807
816.526	19776
816.666	19696
816.807	19514
816.948	19624
817.089	19567
817.23	19575
817.371	19476
817.512	19548
817.653	19441
817.793	19419
817.934	19506
818.075	19415
818.216	19472
818.356	19445
818.497	19388
818.638	19133
818.778	19129
818.919	19053
819.06	19148
819.2	19441
819.341	19320
819.481	19377
819.622	19666
819.762	19567
819.903	19693
820.043	19407
820.184	19419
820.324	19327
820.465	19540
820.605	19335
820.746	19453
820.886	19327
821.026	19445
821.167	19308
821.307	19552
821.447	19365
821.588	19232
821.728	19179
821.868	18989
822.008	18993
822.149	18901
822.289	18821
822.429	18597
822.569	18574
822.709	18479
822.849	18414
822.99	18319
823.13	18296
823.27	18228
823.41	18270
823.55	18144
823.69	18163
823.83	18186
823.97	18057
824.11	17870
824.25	18057
824.389	17958
824.529	17980
824.669	17988
824.809	17961
824.949	18026
825.089	17946
825.228	17920
825.368	17756
825.508	17752
825.648	17634
825.787	17851
825.927	17634
826.067	17760
826.206	17627
826.346	17783
826.485	17687
826.625	17680
826.765	17817
826.904	17752
827.044	17566
827.183	17455
827.323	17444
827.462	17532
827.601	17349
827.741	17444
827.88	17376
828.02	17379
828.159	17360
828.298	17341
828.437	17429
828.577	17402
828.716	17486
828.855	17341
828.994	17166
829.134	17200
829.273	17250
829.412	17140
829.551	17105
829.69	17200
829.829	17174
829.968	17117
830.107	17124
830.246	17151
830.385	16968
830.524	17067
830.663	16938
830.802	16816
830.941	16702
831.08	16679
831.219	16972
831.357	16801
831.496	16976
831.635	16778
831.774	16706
831.913	16748
832.051	16500
832.19	16481
832.329	16637
832.467	16417
832.606	16371
832.744	16462
832.883	16489
833.022	16417
833.16	16500
833.299	16573
833.437	16436
833.576	16436
833.714	16409
833.852	16527
833.991	16546
834.129	16596
834.267	16607
834.406	16478
834.544	16565
834.682	16478
834.821	16466
834.959	16729
835.097	16558
835.235	16649
835.373	16531
835.511	16542
835.65	16394
835.788	16382
835.926	16162
836.064	16238
836.202	16329
836.34	16455
836.478	16538
836.615	16341
836.753	16413
836.891	16485
837.029	16428
837.167	16413
837.305	16394
837.443	16367
837.58	16257
837.718	16394
837.856	16276
837.993	16226
838.131	16215
838.269	16291
838.406	16219
838.544	16071
838.681	15983
838.819	16032
838.956	15812
839.094	15793
839.231	15911
839.369	16017
839.506	16188
839.643	16067
839.781	16006
839.918	15842
840.055	15800
840.193	15846
840.33	15743
840.467	15880
840.604	15854
840.742	16162
840.879	15766
841.016	15781
841.153	15755
841.29	16036
841.427	15880
841.564	15934
841.701	15797
841.838	15793
841.975	15747
842.112	15762
842.249	15682
842.385	15587
842.522	15762
842.659	15648
842.796	15629
842.933	15572
843.069	15679
843.206	15576
843.343	15747
843.479	15614
843.616	15641
843.752	15507
843.889	15336
844.025	15667
844.162	15355
844.298	15515
844.435	15405
844.571	15389
844.708	15408
844.844	15504
844.98	15561
845.117	15526
845.253	15317
845.389	15184
845.525	15450
845.661	15275
845.798	15188
845.934	15306
846.07	15211
846.206	15237
846.342	15260
846.478	15180
846.614	15001
846.75	14933
846.886	14948
847.022	15062
847.158	14994
847.294	14941
847.429	15017
847.565	14925
847.701	15214
847.837	14857
847.972	14659
848.108	14781
848.244	14819
848.379	14636
848.515	14594
848.65	14499
848.786	14594
848.921	14511
849.057	14682
849.192	14720
849.328	14575
849.463	14571
849.598	14533
849.734	14507
849.869	14473
850.004	14473
850.14	14404
850.275	14347
850.41	14259
850.545	14252
850.68	14278
850.815	14275
850.95	14248
851.085	14522
851.22	14442
851.355	14404
851.49	14313
851.625	14244
851.76	14362
851.895	14149
852.03	14225
852.165	14278
852.299	14347
852.434	14396
852.569	14385
852.703	14324
852.838	14446
852.973	14522
853.107	14408
853.242	14309
853.376	14267
853.511	14145
853.645	14111
853.78	14339
853.914	14176
854.048	14233
854.183	14183
854.317	14210
854.451	14431
854.585	14183
854.72	14183
854.854	14195
854.988	14157
855.122	14199
855.256	14084
855.39	14164
855.524	14298
855.658	14252
855.792	14183
855.926	14275
856.06	14324
856.194	14374
856.327	14111
856.461	14145
856.595	14142
856.729	14161
856.862	14282
856.996	14218
857.13	14149
857.263	14305
857.397	14427
857.53	14172
857.664	14233
857.797	14286
857.931	14431
858.064	14206
858.197	14332
858.331	14275
858.464	14206
858.597	14081
858.731	14130
858.864	14240
858.997	14183
859.13	14263
859.263	14298
859.396	14332
859.529	14187
859.662	14202
859.795	14126
859.928	14214
860.061	14419
860.194	14404
860.327	14199
860.46	14199
860.592	14374
860.725	14282
860.858	14294
860.99	14233
861.123	14164
861.256	14187
861.388	14218
861.521	14902
861.653	14126
861.786	13986
861.918	14123
862.05	14126
862.183	14161
862.315	14256
862.447	14275
862.58	14145
862.712	14111
862.844	13890
862.976	14031
863.108	14107
863.24	14339
863.372	13944
863.504	14054
863.636	13940
863.768	13986
863.9	13982
864.032	13883
864.164	13959
864.296	14005
864.428	14058
864.559	14088
864.691	14096
864.823	14119
864.954	14050
865.086	14035
865.217	13997
865.349	13898
865.48	13963
865.612	13909
865.743	14096
865.875	13974
866.006	13932
866.137	13986
866.269	13940
866.4	13959
866.531	14027
866.662	13932
866.793	13947
866.924	14065
867.055	13940
867.186	13970
867.317	13864
867.448	13833
867.579	13959
867.71	13890
867.841	13989
867.972	14001
868.103	13887
868.233	13917
868.364	13974
868.495	14107
868.625	14202
868.756	14294
868.886	14191
869.017	14244
869.147	14256
869.278	14294
869.408	14301
869.539	14214
869.669	14233
869.799	14339
869.929	14412
870.06	14404
870.19	14590
870.32	14552
870.45	14514
870.58	14667
870.71	14746
870.84	14788
870.97	14549
871.1	14606
871.23	14823
871.36	14838
871.489	14743
871.619	14773
871.749	14861
871.879	14872
872.008	14960
872.138	14887
872.267	14758
872.397	14750
872.526	14625
872.656	14587
872.785	14636
872.915	14826
873.044	14853
873.173	14891
873.303	14937
873.432	14982
873.561	14921
873.69	14857
873.819	14853
873.948	14986
874.077	14845
874.206	14838
874.335	14963
874.464	15024
874.593	15241
874.722	15074
874.851	15218
874.979	15264
875.108	15249
875.237	15097
875.365	15150
875.494	15104
875.623	15294
875.751	15218
875.88	15310
876.008	15420
876.136	15428
876.265	15557
876.393	15808
876.521	15637
876.65	15709
876.778	15587
876.906	15671
877.034	15511
877.162	15595
877.29	15557
877.418	15625
877.546	15591
877.674	15534
877.802	15641
877.93	15595
878.058	15557
878.185	15523
878.313	15542
878.441	15614
878.568	15363
878.696	15454
878.824	15644
878.951	15641
879.079	15766
879.206	15827
879.333	15759
879.461	15644
879.588	15724
879.715	15846
879.842	15975
879.97	15690
880.097	15492
880.224	15511
880.351	15545
880.478	15355
880.605	15500
880.732	15302
880.859	15637
880.986	15393
881.112	15561
881.239	15340
881.366	15275
881.493	15192
881.619	15108
881.746	15112
881.872	15142
881.999	15089
882.125	15112
882.252	15135
882.378	15028
882.505	15226
882.631	15051
882.757	14902
882.883	14963
883.01	14998
883.136	15017
883.262	14788
883.388	14746
883.514	14918
883.64	14899
883.766	14800
883.892	14758
884.018	14815
884.143	14960
884.269	15047
884.395	14640
884.52	14705
884.646	14606
884.772	14621
884.897	14488
885.023	14674
885.148	14754
885.274	14785
885.399	14868
885.524	14697
885.65	14594
885.775	14655
885.9	14712
886.025	14705
886.15	14667
886.275	14579
886.4	14488
886.525	14602
886.65	14583
886.775	14602
886.9	14720
887.025	14845
887.149	14621
887.274	14571
887.399	14412
887.523	14355
887.648	14431
887.773	14362
887.897	14556
888.021	14488
888.146	14450
888.27	14526
888.395	14659
888.519	14450
888.643	14533
888.767	14473
888.891	14457
889.015	14370
889.139	14320
889.263	14374
889.387	14465
889.511	14533
889.635	14495
889.759	14256
889.883	14271
890.006	14328
890.13	14465
890.254	14214
890.377	14332
890.501	14187
890.624	14027
890.748	14225
890.871	14062
890.995	14077
891.118	13871
891.241	13986
891.364	13967
891.488	14191
891.611	14024
891.734	14016
891.857	14176
891.98	14016
892.103	14119
892.226	14103
892.349	14012
892.471	13856
892.594	13997
892.717	13993
892.839	14073
892.962	13959
893.085	14065
893.207	14054
893.33	13917
893.452	14001
893.575	14123
893.697	14012
893.819	14191
893.941	14202
894.064	14164
894.186	14016
894.308	13951
894.43	14138
894.552	14317
894.674	14157
894.796	13989
894.918	14123
895.04	14084
895.161	14199
895.283	14111
895.405	13997
895.526	14092
895.648	14142
895.769	14202
895.891	14225
896.012	14358
896.134	14259
896.255	14183
896.376	14202
896.498	14187
896.619	14248
896.74	14237
896.861	14278
896.982	14556
897.103	14758
897.224	14537
897.345	14499
897.466	14374
897.587	14511
897.708	14537
897.828	14469
897.949	14385
898.07	14347
898.19	14484
898.311	14560
898.431	14461
898.552	14564
898.672	14708
898.792	14716
898.913	14571
899.033	14469
899.153	14396
899.273	14343
899.393	14370
899.513	14427
899.633	14404
899.753	14522
899.873	14400
899.993	14469
900.113	14396
900.232	14465
900.352	14343
900.472	14381
900.591	14275
900.711	14286
900.83	14248
900.95	14400
901.069	14358
901.189	14218
901.308	14081
901.427	13906
901.546	14012
901.665	13963
901.784	14058
901.904	13944
902.023	13753
902.141	13578
902.26	13605
902.379	13609
902.498	13559
902.617	13502
902.735	13613
902.854	13533
902.973	13525
903.091	13183
903.21	13324
903.328	13365
903.446	13171
903.565	13160
903.683	13149
903.801	13027
903.919	13198
904.038	13080
904.156	12966
904.274	13061
904.392	12966
904.51	12966
904.627	12909
904.745	13053
904.863	13004
904.981	12810
905.098	12734
905.216	12726
905.334	12738
905.451	12635
905.569	12631
905.686	12635
905.803	12662
905.921	12460
906.038	12570
906.155	12471
906.272	12338
906.389	12292
906.506	12216
906.623	12262
906.74	12220
906.857	12175
906.974	12266
907.091	12315
907.208	12403
907.324	12270
907.441	12171
907.557	12095
907.674	11973
907.79	11920
907.907	11954
908.023	12011
908.139	11946
908.256	12003
908.372	11920
908.488	11885
908.604	11733
908.72	11752
908.836	11760
908.952	11809
909.068	11691
909.184	11836
909.3	11756
909.415	11805
909.531	11821
909.647	11509
909.762	11585
909.878	11520
909.993	11596
910.108	11467
910.224	11520
910.339	11444
910.454	11467
910.57	11376
910.685	11315
910.8	11512
910.915	11509
911.03	11391
911.145	11220
911.259	11181
911.374	11162
911.489	11147
911.604	11155
911.718	11014
911.833	11048
911.947	10953
912.062	10809
912.176	10968
912.291	10957
912.405	10957
912.519	11124
912.633	11181
912.748	11052
912.862	10965
912.976	10847
913.09	10755
913.204	10801
913.318	10847
913.431	10972
913.545	10927
913.659	10919
913.772	10919
913.886	10801
914	10645
914.113	10740
914.226	10831
914.34	10866
914.453	10607
914.566	10790
914.68	10672
914.793	10790
914.906	10474
915.019	10466
915.132	10462
915.245	10527
915.358	10478
915.47	10485
915.583	10577
915.696	10527
915.809	10611
915.921	10599
916.034	10493
916.146	10451
916.259	10436
916.371	10531
916.483	10474
916.595	10375
916.708	10390
916.82	10291
916.932	10405
917.044	10367
917.156	10428
917.268	10272
917.38	10333
917.491	10287
917.603	10333
917.715	10417
917.826	10356
917.938	10341
918.049	10207
918.161	10333
918.272	10474
918.384	10424
918.495	10329
918.606	10166
918.717	10131
918.828	10253
918.939	10188
919.05	10120
919.161	10135
919.272	9991
919.383	10082
919.494	10272
919.604	10432
919.715	10253
919.826	10116
919.936	10177
920.047	10253
920.157	10234
920.267	10424
920.378	10291
920.488	10143
920.598	10371
920.708	10588
920.818	10443
920.928	10481
921.038	10462
921.148	10512
921.258	10223
921.368	10139
921.477	10044
921.587	10074
921.697	9994
921.806	10147
921.916	9956
922.025	9850
922.134	9766
922.244	9720
922.353	9873
922.462	9641
922.571	9576
922.68	9496
922.789	9481
922.898	9496
923.007	9367
923.116	9526
923.224	9466
923.333	9450
923.442	9325
923.55	9325
923.659	9447
923.767	9469
923.876	9325
923.984	9374
924.092	9313
924.201	9325
924.309	9283
924.417	9329
924.525	9268
924.633	9287
924.741	10109
924.849	9093
924.956	9207
925.064	9119
925.172	9032
925.279	9051
925.387	9161
925.494	9131
925.602	9253
925.709	9199
925.816	9047
925.924	9138
926.031	9241
926.138	9184
926.245	9192
926.352	9116
926.459	9138
926.566	9218
926.673	9077
926.779	8948
926.886	8933
926.993	8861
927.099	8880
927.206	8792
927.312	8834
927.419	8876
927.525	8845
927.631	8880
927.737	8697
927.843	8712
927.95	8579
928.056	8701
928.162	8735
928.267	8754
928.373	9325
928.479	8838
928.585	8617
928.69	8716
928.796	8819
928.901	8606
929.007	8469
929.112	8648
929.218	8552
929.323	8564
929.428	8564
929.533	8678
929.638	8522
929.743	8556
929.848	8541
929.953	8499
930.058	8454
930.163	8240
930.267	8362
930.372	8461
930.477	8294
930.581	8587
930.685	8412
930.79	8191
930.894	8225
930.998	8240
931.103	8396
931.207	8092
931.311	8020
931.415	7982
931.519	7765
931.623	7727
