Data from test_V78500241_487.txt Node
Date: Fri Mar 25 14:37:06 CST 2022
User: usil
Spectrometer: V785-0024
Trigger mode: 0
Integration Time (sec): 4.000000E-1
Scans to average: 1
Nonlinearity correction enabled: false
Boxcar width: 0
Storing dark spectrum: false
XAxis mode: Wavelengths
Number of Pixels in Spectrum: 1024
>>>>>Begin Spectral Data<<<<<
801.071	26549
801.214	26370
801.356	26320
801.499	26218
801.641	25997
801.783	25978
801.926	26058
802.068	25963
802.211	25784
802.353	25750
802.496	25643
802.638	25632
802.78	25586
802.923	25639
803.065	25362
803.208	25491
803.35	25445
803.492	25559
803.635	25613
803.777	25430
803.919	25559
804.061	25955
804.204	25647
804.346	25487
804.488	25499
804.63	25457
804.773	25320
804.915	25422
805.057	25483
805.199	25460
805.341	25597
805.483	25483
805.626	25628
805.768	25582
805.91	25411
806.052	25540
806.194	25343
806.336	25647
806.478	25362
806.62	25514
806.762	25693
806.904	25780
807.046	26001
807.188	25871
807.33	25731
807.472	26115
807.614	25799
807.756	25757
807.898	25738
808.04	25658
808.182	25693
808.324	25993
808.465	25791
808.607	26111
808.749	26065
808.891	26370
809.033	26343
809.174	26301
809.316	26126
809.458	25966
809.6	26149
809.741	26001
809.883	26172
810.025	26248
810.166	26237
810.308	26210
810.45	26005
810.591	26100
810.733	25936
810.875	25788
811.016	25753
811.158	25677
811.299	26027
811.441	25849
811.582	26008
811.724	25788
811.865	25757
812.007	25685
812.148	25772
812.29	25856
812.431	25921
812.573	26176
812.714	26130
812.855	26271
812.997	26313
813.138	26446
813.279	26404
813.421	26393
813.562	26180
813.703	26020
813.845	25986
813.986	25689
814.127	25441
814.268	25301
814.41	25369
814.551	25293
814.692	25400
814.833	25247
814.974	25384
815.115	25350
815.256	25088
815.397	25225
815.539	25137
815.68	25103
815.821	25084
815.962	25061
816.103	25034
816.244	24894
816.385	24890
816.526	24677
816.666	24646
816.807	24540
816.948	24525
817.089	24585
817.23	24490
817.371	24563
817.512	24445
817.653	24445
817.793	24479
817.934	24566
818.075	24296
818.216	24407
818.356	24422
818.497	24323
818.638	24201
818.778	24289
818.919	24136
819.06	24277
819.2	24342
819.341	24403
819.481	24422
819.622	24479
819.762	24677
819.903	24642
820.043	24502
820.184	24372
820.324	24460
820.465	24559
820.605	24308
820.746	24471
820.886	24353
821.026	24429
821.167	24505
821.307	24490
821.447	24273
821.588	24197
821.728	24117
821.868	24015
822.008	23878
822.149	23748
822.289	23699
822.429	23471
822.569	23516
822.709	23478
822.849	23273
822.99	23239
823.13	23132
823.27	23086
823.41	23109
823.55	23029
823.69	23033
823.83	22961
823.97	22862
824.11	22763
824.25	22748
824.389	22767
824.529	22816
824.669	22980
824.809	22927
824.949	22801
825.089	22782
825.228	22866
825.368	22622
825.508	22531
825.648	22542
825.787	22637
825.927	22618
826.067	22618
826.206	22508
826.346	22611
826.485	22580
826.625	22489
826.765	22706
826.904	22516
827.044	22371
827.183	22276
827.323	22200
827.462	22272
827.601	22291
827.741	22223
827.88	22253
828.02	22158
828.159	22348
828.298	22253
828.437	22192
828.577	22154
828.716	22363
828.855	22162
828.994	21949
829.134	21983
829.273	22166
829.412	22063
829.551	21838
829.69	21987
829.829	21975
829.968	22021
830.107	22051
830.246	21975
830.385	21930
830.524	21991
830.663	21755
830.802	21698
830.941	21561
831.08	21580
831.219	21599
831.357	21568
831.496	21686
831.635	21576
831.774	21622
831.913	21466
832.051	21317
832.19	21378
832.329	21367
832.467	21279
832.606	21112
832.744	21013
832.883	21230
833.022	21161
833.16	21138
833.299	21283
833.437	21256
833.576	21214
833.714	21157
833.852	21268
833.991	21203
834.129	21291
834.267	21264
834.406	21154
834.544	21203
834.682	21119
834.821	21146
834.959	21241
835.097	21222
835.235	21138
835.373	21161
835.511	21154
835.65	21127
835.788	21024
835.926	20834
836.064	20864
836.202	20864
836.34	21070
836.478	21066
836.615	21070
836.753	21024
836.891	21119
837.029	21032
837.167	21104
837.305	20765
837.443	20849
837.58	20948
837.718	20960
837.856	20792
837.993	20906
838.131	20899
838.269	20697
838.406	20762
838.544	20727
838.681	20629
838.819	20404
838.956	20370
839.094	20438
839.231	20336
839.369	20651
839.506	20640
839.643	20682
839.781	20332
839.918	20221
840.055	20374
840.193	20271
840.33	20271
840.467	20282
840.604	20355
840.742	20511
840.879	20180
841.016	20176
841.153	20126
841.29	20339
841.427	20221
841.564	20256
841.701	20244
841.838	20088
841.975	20199
842.112	20157
842.249	19974
842.385	19890
842.522	20240
842.659	19986
842.796	20046
842.933	19974
843.069	19913
843.206	19852
843.343	20069
843.479	20020
843.616	19909
843.752	19837
843.889	19677
844.025	19883
844.162	19685
844.298	19780
844.435	19655
844.571	19738
844.708	19734
844.844	19986
844.98	19845
845.117	19833
845.253	19666
845.389	19666
845.525	19689
845.661	19757
845.798	19772
845.934	19898
846.07	19791
846.206	19921
846.342	19887
846.478	19761
846.614	19449
846.75	19236
846.886	19274
847.022	19396
847.158	19244
847.294	19133
847.429	19259
847.565	19133
847.701	19384
847.837	18962
847.972	18878
848.108	19004
848.244	19027
848.379	18852
848.515	18745
848.65	18715
848.786	18639
848.921	18696
849.057	18863
849.192	18871
849.328	18825
849.463	18772
849.598	18673
849.734	18608
849.869	18665
850.004	18517
850.14	18498
850.275	18509
850.41	18475
850.545	18388
850.68	18494
850.815	18490
850.95	18582
851.085	18711
851.22	18707
851.355	18544
851.49	18422
851.625	18483
851.76	18456
851.895	18547
852.03	18338
852.165	18452
852.299	18456
852.434	18540
852.569	18494
852.703	18422
852.838	18555
852.973	18536
853.107	18582
853.242	18395
853.376	18361
853.511	18232
853.645	18296
853.78	18506
853.914	18277
854.048	18330
854.183	18357
854.317	18304
854.451	18544
854.585	18292
854.72	18300
854.854	18346
854.988	18304
855.122	18277
855.256	18178
855.39	18247
855.524	18437
855.658	18308
855.792	18414
855.926	18422
856.06	18403
856.194	18437
856.327	18251
856.461	18216
856.595	18251
856.729	18262
856.862	18460
856.996	18216
857.13	18403
857.263	18338
857.397	18361
857.53	18315
857.664	18334
857.797	18407
857.931	18376
858.064	18334
858.197	18346
858.331	18273
858.464	18136
858.597	18182
858.731	18277
858.864	18281
858.997	18232
859.13	18289
859.263	18327
859.396	18296
859.529	18201
859.662	18216
859.795	18190
859.928	18289
860.061	18311
860.194	18464
860.327	18281
860.46	18243
860.592	18380
860.725	18391
860.858	18323
860.99	18243
861.123	18148
861.256	18121
861.388	18106
861.521	19034
861.653	18110
861.786	18068
861.918	18095
862.05	18178
862.183	18300
862.315	18243
862.447	18281
862.58	18213
862.712	18007
862.844	18076
862.976	18098
863.108	17980
863.24	18422
863.372	17923
863.504	17916
863.636	17984
863.768	18019
863.9	17961
864.032	17961
864.164	17885
864.296	17980
864.428	18049
864.559	18019
864.691	18076
864.823	18083
864.954	17939
865.086	17984
865.217	17885
865.349	17840
865.48	17923
865.612	17927
865.743	18041
865.875	17920
866.006	17920
866.137	17843
866.269	17855
866.4	17805
866.531	17897
866.662	17786
866.793	17783
866.924	17802
867.055	17874
867.186	17847
867.317	17714
867.448	17718
867.579	17805
867.71	17783
867.841	17741
867.972	17805
868.103	17843
868.233	17855
868.364	17901
868.495	17954
868.625	18121
868.756	18144
868.886	18026
869.017	18060
869.147	18155
869.278	18152
869.408	18140
869.539	18076
869.669	18171
869.799	18095
869.929	18182
870.06	18243
870.19	18311
870.32	18369
870.45	18380
870.58	18494
870.71	18681
870.84	18654
870.97	18437
871.1	18365
871.23	18669
871.36	18688
871.489	18616
871.619	18597
871.749	18726
871.879	18669
872.008	18783
872.138	18585
872.267	18604
872.397	18513
872.526	18414
872.656	18475
872.785	18502
872.915	18665
873.044	18692
873.173	18658
873.303	18783
873.432	18700
873.561	18791
873.69	18684
873.819	18593
873.948	18779
874.077	18711
874.206	18635
874.335	18711
874.464	18806
874.593	18970
874.722	18871
874.851	19053
874.979	18981
875.108	18966
875.237	18932
875.365	18928
875.494	18996
875.623	19107
875.751	19027
875.88	18985
876.008	19114
876.136	19076
876.265	19453
876.393	19483
876.521	19502
876.65	19396
876.778	19457
876.906	19354
877.034	19331
877.162	19464
877.29	19373
877.418	19301
877.546	19381
877.674	19384
877.802	19362
877.93	19327
878.058	19384
878.185	19263
878.313	19419
878.441	19453
878.568	19236
878.696	19346
878.824	19552
878.951	19563
879.079	19567
879.206	19750
879.333	19811
879.461	19514
879.588	19647
879.715	19742
879.842	19822
879.97	19571
880.097	19403
880.224	19301
880.351	19263
880.478	19282
880.605	19141
880.732	19206
880.859	19559
880.986	19266
881.112	19221
881.239	19034
881.366	19065
881.493	18894
881.619	18989
881.746	18924
881.872	18875
881.999	18905
882.125	18772
882.252	18840
882.378	18852
882.505	19061
882.631	18814
882.757	18772
882.883	18760
883.01	18601
883.136	18646
883.262	18540
883.388	18445
883.514	18597
883.64	18700
883.766	18483
883.892	18422
884.018	18517
884.143	18582
884.269	18677
884.395	18540
884.52	18410
884.646	18346
884.772	18182
884.897	18197
885.023	18311
885.148	18502
885.274	18509
885.399	18388
885.524	18296
885.65	18323
885.775	18251
885.9	18266
886.025	18483
886.15	18296
886.275	18270
886.4	18144
886.525	18285
886.65	18224
886.775	18254
886.9	18426
887.025	18479
887.149	18125
887.274	18064
887.399	18049
887.523	17988
887.648	18053
887.773	17969
887.897	18102
888.021	18064
888.146	17961
888.27	18235
888.395	18098
888.519	18098
888.643	18019
888.767	18209
888.891	17958
889.015	17908
889.139	17988
889.263	17798
889.387	17992
889.511	18197
889.635	17969
889.759	17798
889.883	17950
890.006	17916
890.13	17939
890.254	17676
890.377	17779
890.501	17589
890.624	17611
890.748	17714
890.871	17501
890.995	17436
891.118	17360
891.241	17493
891.364	17459
891.488	17665
891.611	17474
891.734	17501
891.857	17490
891.98	17539
892.103	17459
892.226	17486
892.349	17421
892.471	17337
892.594	17467
892.717	17501
892.839	17311
892.962	17577
893.085	17547
893.207	17433
893.33	17356
893.452	17280
893.575	17417
893.697	17414
893.819	17596
893.941	17585
894.064	17623
894.186	17421
894.308	17406
894.43	17478
894.552	17543
894.674	17482
894.796	17429
894.918	17474
895.04	17425
895.161	17532
895.283	17547
895.405	17444
895.526	17436
895.648	17452
895.769	17505
895.891	17497
896.012	17634
896.134	17589
896.255	17448
896.376	17573
896.498	17539
896.619	17623
896.74	17665
896.861	17657
896.982	17821
897.103	18148
897.224	17798
897.345	17821
897.466	17752
897.587	17840
897.708	17760
897.828	17760
897.949	17809
898.07	17615
898.19	17592
898.311	17809
898.431	17707
898.552	17726
898.672	17878
898.792	17726
898.913	17859
899.033	17748
899.153	17615
899.273	17398
899.393	17429
899.513	17543
899.633	17543
899.753	17707
899.873	17474
899.993	17630
900.113	17562
900.232	17532
900.352	17490
900.472	17395
900.591	17341
900.711	17433
900.83	17296
900.95	17478
901.069	17512
901.189	17223
901.308	17170
901.427	17060
901.546	17037
901.665	17010
901.784	17098
901.904	16835
902.023	16752
902.141	16653
902.26	16653
902.379	16561
902.498	16527
902.617	16481
902.735	16508
902.854	16497
902.973	16455
903.091	16257
903.21	16200
903.328	16116
903.446	16139
903.565	16055
903.683	16006
903.801	15903
903.919	15956
904.038	15964
904.156	15888
904.274	15953
904.392	15892
904.51	15831
904.627	15732
904.745	15816
904.863	15800
904.981	15671
905.098	15466
905.216	15519
905.334	15530
905.451	15496
905.569	15492
905.686	15523
905.803	15519
905.921	15332
906.038	15294
906.155	15340
906.272	15127
906.389	15214
906.506	15013
906.623	15051
906.74	15032
906.857	14918
906.974	14910
907.091	15146
907.208	15085
907.324	15036
907.441	14826
907.557	14754
907.674	14750
907.79	14697
907.907	14762
908.023	14731
908.139	14758
908.256	14636
908.372	14575
908.488	14568
908.604	14461
908.72	14465
908.836	14514
908.952	14495
909.068	14473
909.184	14533
909.3	14450
909.415	14450
909.531	14427
909.647	14290
909.762	14157
909.878	14065
909.993	14195
910.108	14126
910.224	14043
910.339	14123
910.454	13967
910.57	13974
910.685	13913
910.8	14206
910.915	14088
911.03	13959
911.145	13902
911.259	13799
911.374	13830
911.489	13753
911.604	13685
911.718	13525
911.833	13514
911.947	13468
912.062	13335
912.176	13464
912.291	13609
912.405	13506
912.519	13719
912.633	13738
912.748	13613
912.862	13601
912.976	13354
913.09	13384
913.204	13324
913.318	13358
913.431	13362
913.545	13430
913.659	13544
913.772	13293
913.886	13266
914	13175
914.113	13236
914.226	13350
914.34	13301
914.453	13198
914.566	13247
914.68	13042
914.793	13088
914.906	13015
915.019	12939
915.132	12848
915.245	12935
915.358	12920
915.47	12909
915.583	12878
915.696	12886
915.809	13000
915.921	13023
916.034	12863
916.146	12852
916.259	12821
916.371	12875
916.483	12867
916.595	12665
916.708	12810
916.82	12779
916.932	12703
917.044	12802
917.156	12768
917.268	12623
917.38	12612
917.491	12566
917.603	12646
917.715	12677
917.826	12719
917.938	12566
918.049	12551
918.161	12623
918.272	12703
918.384	12730
918.495	12620
918.606	12452
918.717	12338
918.828	12479
918.939	12448
919.05	12399
919.161	12403
919.272	12201
919.383	12190
919.494	12456
919.604	12570
919.715	12334
919.826	12342
919.936	12437
920.047	12486
920.157	12403
920.267	12574
920.378	12407
920.488	12357
920.598	12490
920.708	12692
920.818	12483
920.928	12544
921.038	12696
921.148	12673
921.258	12429
921.368	12220
921.477	12152
921.587	12144
921.697	12076
921.806	12171
921.916	12064
922.025	11980
922.134	11832
922.244	11855
922.353	11821
922.462	11733
922.571	11665
922.68	11596
922.789	11486
922.898	11471
923.007	11436
923.116	11528
923.224	11425
923.333	11493
923.442	11417
923.55	11318
923.659	11455
923.767	11455
923.876	11395
923.984	11337
924.092	11254
924.201	11368
924.309	11353
924.417	11341
924.525	11204
924.633	11174
924.741	12133
924.849	10991
924.956	11151
925.064	11098
925.172	10915
925.279	10991
925.387	11159
925.494	10999
925.602	11185
925.709	11105
925.816	11105
925.924	10999
926.031	11166
926.138	11079
926.245	11052
926.352	10923
926.459	11014
926.566	11109
926.673	10915
926.779	10850
926.886	10869
926.993	10706
927.099	10710
927.206	10603
927.312	10592
927.419	10820
927.525	10645
927.631	10771
927.737	10554
927.843	10538
927.95	10455
928.056	10527
928.162	10531
928.267	10569
928.373	11083
928.479	10611
928.585	10390
928.69	10443
928.796	10500
928.901	10405
929.007	10223
929.112	10356
929.218	10398
929.323	10371
929.428	10249
929.533	10443
929.638	10227
929.743	10291
929.848	10238
929.953	10280
930.058	10173
930.163	9964
930.267	9991
930.372	10162
930.477	9972
930.581	10219
930.685	10040
930.79	9911
930.894	9972
930.998	9888
931.103	10059
931.207	9629
931.311	9618
931.415	9519
931.519	9359
931.623	9317
