Data from test_V78500241_3524.txt Node
Date: Fri Mar 25 14:58:15 CST 2022
User: usil
Spectrometer: V785-0024
Trigger mode: 0
Integration Time (sec): 4.000000E-1
Scans to average: 1
Nonlinearity correction enabled: false
Boxcar width: 0
Storing dark spectrum: false
XAxis mode: Wavelengths
Number of Pixels in Spectrum: 1024
>>>>>Begin Spectral Data<<<<<
801.071	21945
801.214	21819
801.356	21530
801.499	21466
801.641	21386
801.783	21340
801.926	21279
802.068	21154
802.211	21154
802.353	21184
802.496	20777
802.638	20785
802.78	20720
802.923	20705
803.065	20568
803.208	20613
803.35	20617
803.492	20682
803.635	20708
803.777	20594
803.919	20735
804.061	20883
804.204	20609
804.346	20594
804.488	20431
804.63	20602
804.773	20454
804.915	20556
805.057	20594
805.199	20465
805.341	20621
805.483	20514
805.626	20678
805.768	20415
805.91	20545
806.052	20492
806.194	20480
806.336	20697
806.478	20415
806.62	20419
806.762	20556
806.904	20598
807.046	20807
807.188	20785
807.33	20861
807.472	20868
807.614	20750
807.756	20804
807.898	20594
808.04	20511
808.182	20674
808.324	20545
808.465	20682
808.607	20735
808.749	20842
808.891	20979
809.033	21058
809.174	20990
809.316	20823
809.458	20777
809.6	20765
809.741	21047
809.883	20906
810.025	20952
810.166	20937
810.308	20986
810.45	20963
810.591	20754
810.733	20720
810.875	20701
811.016	20495
811.158	20625
811.299	20705
811.441	20648
811.582	20727
811.724	20659
811.865	20598
812.007	20560
812.148	20598
812.29	20598
812.431	20834
812.573	20944
812.714	20941
812.855	21077
812.997	21195
813.138	21374
813.279	21138
813.421	21127
813.562	20971
813.703	20819
813.845	20754
813.986	20476
814.127	20332
814.268	20218
814.41	20164
814.551	20206
814.692	20210
814.833	19974
814.974	20088
815.115	20172
815.256	20073
815.397	20054
815.539	20096
815.68	19887
815.821	19917
815.962	19814
816.103	19974
816.244	19700
816.385	19620
816.526	19567
816.666	19476
816.807	19377
816.948	19559
817.089	19495
817.23	19350
817.371	19213
817.512	19301
817.653	19358
817.793	19304
817.934	19179
818.075	19232
818.216	19339
818.356	19129
818.497	19034
818.638	18916
818.778	18928
818.919	19080
819.06	18935
819.2	19171
819.341	19156
819.481	19095
819.622	19270
819.762	19464
819.903	19304
820.043	19396
820.184	19354
820.324	19187
820.465	19346
820.605	19259
820.746	19133
820.886	19057
821.026	19312
821.167	19274
821.307	19266
821.447	19141
821.588	19091
821.728	18943
821.868	18810
822.008	18703
822.149	18635
822.289	18677
822.429	18437
822.569	18323
822.709	18350
822.849	18148
822.99	18205
823.13	18201
823.27	18087
823.41	18003
823.55	17870
823.69	17920
823.83	17996
823.97	17843
824.11	17687
824.25	17760
824.389	17760
824.529	17885
824.669	17722
824.809	17824
824.949	17863
825.089	17882
825.228	17741
825.368	17570
825.508	17547
825.648	17497
825.787	17615
825.927	17566
826.067	17376
826.206	17581
826.346	17577
826.485	17547
826.625	17493
826.765	17665
826.904	17490
827.044	17170
827.183	17212
827.323	17151
827.462	17280
827.601	17220
827.741	17204
827.88	17273
828.02	17147
828.159	17292
828.298	17235
828.437	17269
828.577	17208
828.716	17379
828.855	17071
828.994	16980
829.134	16904
829.273	17025
829.412	16869
829.551	16862
829.69	16881
829.829	17033
829.968	17033
830.107	17113
830.246	16896
830.385	16961
830.524	16835
830.663	16812
830.802	16653
830.941	16599
831.08	16637
831.219	16664
831.357	16649
831.496	16869
831.635	16599
831.774	16516
831.913	16512
832.051	16360
832.19	16348
832.329	16356
832.467	16413
832.606	16363
832.744	16295
832.883	16280
833.022	16295
833.16	16291
833.299	16367
833.437	16303
833.576	16375
833.714	16314
833.852	16402
833.991	16337
834.129	16455
834.267	16508
834.406	16348
834.544	16436
834.682	16371
834.821	16390
834.959	16538
835.097	16272
835.235	16375
835.373	16348
835.511	16379
835.65	16234
835.788	16211
835.926	16185
836.064	16166
836.202	16120
836.34	16329
836.478	16386
836.615	16394
836.753	16299
836.891	16356
837.029	16272
837.167	16291
837.305	16215
837.443	16204
837.58	16071
837.718	16249
837.856	16181
837.993	16086
838.131	16188
838.269	16177
838.406	16109
838.544	16120
838.681	15804
838.819	15937
838.956	15804
839.094	15682
839.231	15694
839.369	15846
839.506	16154
839.643	16139
839.781	15770
839.918	15633
840.055	15766
840.193	15781
840.33	15728
840.467	15736
840.604	15709
840.742	16025
840.879	15561
841.016	15694
841.153	15709
841.29	15804
841.427	15701
841.564	15785
841.701	15759
841.838	15663
841.975	15656
842.112	15663
842.249	15526
842.385	15370
842.522	15614
842.659	15625
842.796	15553
842.933	15511
843.069	15431
843.206	15428
843.343	15622
843.479	15580
843.616	15519
843.752	15359
843.889	15321
844.025	15511
844.162	15260
844.298	15405
844.435	15260
844.571	15169
844.708	15283
844.844	15485
844.98	15538
845.117	15450
845.253	15344
845.389	15173
845.525	15188
845.661	15195
845.798	15024
845.934	15154
846.07	14998
846.206	14990
846.342	15180
846.478	15089
846.614	14861
846.75	14857
846.886	14765
847.022	14929
847.158	14929
847.294	14857
847.429	14868
847.565	14792
847.701	15108
847.837	14571
847.972	14629
848.108	14724
848.244	14686
848.379	14545
848.515	14438
848.65	14518
848.786	14415
848.921	14594
849.057	14564
849.192	14636
849.328	14484
849.463	14484
849.598	14552
849.734	14446
849.869	14286
850.004	14263
850.14	14248
850.275	14244
850.41	14069
850.545	14199
850.68	14206
850.815	14374
850.95	14244
851.085	14343
851.22	14385
851.355	14218
851.49	14191
851.625	14229
851.76	14214
851.895	14164
852.03	14065
852.165	14195
852.299	14218
852.434	14343
852.569	14267
852.703	14271
852.838	14358
852.973	14374
853.107	14457
853.242	14244
853.376	14218
853.511	14027
853.645	14145
853.78	14301
853.914	14161
854.048	14126
854.183	14073
854.317	14202
854.451	14366
854.585	14138
854.72	14134
854.854	14180
854.988	14073
855.122	14115
855.256	14005
855.39	14134
855.524	14199
855.658	14225
855.792	14138
855.926	14149
856.06	14252
856.194	14229
856.327	14058
856.461	14050
856.595	14161
856.729	14119
856.862	14218
856.996	14172
857.13	14161
857.263	14244
857.397	14240
857.53	14134
857.664	14282
857.797	14187
857.931	14290
858.064	14290
858.197	14328
858.331	14103
858.464	14210
858.597	14103
858.731	14138
858.864	14168
858.997	14218
859.13	14278
859.263	14126
859.396	14320
859.529	14130
859.662	14005
859.795	14180
859.928	14191
860.061	14374
860.194	14404
860.327	14214
860.46	14199
860.592	14317
860.725	14240
860.858	14229
860.99	14221
861.123	14065
861.256	14096
861.388	14115
861.521	14948
861.653	13921
861.786	13955
861.918	13986
862.05	13989
862.183	14069
862.315	14107
862.447	14180
862.58	14092
862.712	13906
862.844	13887
862.976	14043
863.108	14027
863.24	14339
863.372	13849
863.504	13959
863.636	13936
863.768	14027
863.9	13906
864.032	13883
864.164	13875
864.296	13967
864.428	14088
864.559	13978
864.691	14088
864.823	13993
864.954	13947
865.086	14005
865.217	14005
865.349	13894
865.48	13898
865.612	13940
865.743	14073
865.875	13894
866.006	13906
866.137	13909
866.269	13993
866.4	13978
866.531	13917
866.662	13860
866.793	13841
866.924	13917
867.055	13993
867.186	13921
867.317	13837
867.448	13841
867.579	13890
867.71	13932
867.841	13833
867.972	13928
868.103	13887
868.233	13860
868.364	13978
868.495	14084
868.625	14206
868.756	14256
868.886	14142
869.017	14161
869.147	14324
869.278	14332
869.408	14229
869.539	14153
869.669	14221
869.799	14240
869.929	14240
870.06	14313
870.19	14454
870.32	14442
870.45	14454
870.58	14598
870.71	14625
870.84	14590
870.97	14514
871.1	14522
871.23	14769
871.36	14754
871.489	14598
871.619	14667
871.749	14792
871.879	14785
872.008	14895
872.138	14773
872.267	14731
872.397	14663
872.526	14560
872.656	14663
872.785	14610
872.915	14826
873.044	14792
873.173	14716
873.303	14880
873.432	14804
873.561	14819
873.69	14811
873.819	14849
873.948	14891
874.077	14800
874.206	14834
874.335	14941
874.464	15119
874.593	15138
874.722	15058
874.851	15142
874.979	15093
875.108	15237
875.237	15108
875.365	15036
875.494	15138
875.623	15222
875.751	15062
875.88	15173
876.008	15359
876.136	15420
876.265	15580
876.393	15705
876.521	15701
876.65	15572
876.778	15724
876.906	15500
877.034	15618
877.162	15481
877.29	15485
877.418	15580
877.546	15568
877.674	15561
877.802	15614
877.93	15492
878.058	15397
878.185	15443
878.313	15545
878.441	15515
878.568	15450
878.696	15572
878.824	15504
878.951	15633
879.079	15709
879.206	15884
879.333	15759
879.461	15720
879.588	15682
879.715	15743
879.842	15850
879.97	15644
880.097	15272
880.224	15450
880.351	15454
880.478	15443
880.605	15435
880.732	15329
880.859	15526
880.986	15344
881.112	15454
881.239	15412
881.366	15203
881.493	15146
881.619	15142
881.746	15112
881.872	15112
881.999	15062
882.125	14971
882.252	15138
882.378	15070
882.505	15146
882.631	15062
882.757	14849
882.883	14990
883.01	14929
883.136	14804
883.262	14693
883.388	14739
883.514	14952
883.64	14891
883.766	14792
883.892	14682
884.018	14701
884.143	14982
884.269	14902
884.395	14648
884.52	14514
884.646	14594
884.772	14606
884.897	14488
885.023	14655
885.148	14670
885.274	14811
885.399	14708
885.524	14587
885.65	14571
885.775	14621
885.9	14640
886.025	14674
886.15	14678
886.275	14613
886.4	14461
886.525	14575
886.65	14503
886.775	14526
886.9	14594
887.025	14887
887.149	14495
887.274	14499
887.399	14381
887.523	14377
887.648	14298
887.773	14366
887.897	14499
888.021	14495
888.146	14324
888.27	14503
888.395	14583
888.519	14454
888.643	14438
888.767	14526
888.891	14358
889.015	14374
889.139	14339
889.263	14317
889.387	14381
889.511	14488
889.635	14427
889.759	14240
889.883	14309
890.006	14358
890.13	14343
890.254	14252
890.377	14214
890.501	14058
890.624	14096
890.748	14202
890.871	13967
890.995	13997
891.118	13936
891.241	13970
891.364	13944
891.488	14119
891.611	14050
891.734	14031
891.857	14065
891.98	14081
892.103	14100
892.226	14100
892.349	13940
892.471	13875
892.594	14043
892.717	14043
892.839	13970
892.962	13955
893.085	14065
893.207	13967
893.33	13852
893.452	13955
893.575	14039
893.697	14008
893.819	14058
893.941	14161
894.064	14115
894.186	13959
894.308	13982
894.43	14088
894.552	14142
894.674	14111
894.796	14103
894.918	13967
895.04	13997
895.161	14111
895.283	14134
895.405	13986
895.526	14100
895.648	14065
895.769	14233
895.891	14172
896.012	14225
896.134	14149
896.255	14225
896.376	14081
896.498	14149
896.619	14210
896.74	14100
896.861	14263
896.982	14541
897.103	14587
897.224	14374
897.345	14454
897.466	14317
897.587	14461
897.708	14568
897.828	14419
897.949	14454
898.07	14355
898.19	14332
898.311	14545
898.431	14518
898.552	14579
898.672	14564
898.792	14560
898.913	14526
899.033	14511
899.153	14385
899.273	14343
899.393	14347
899.513	14385
899.633	14336
899.753	14366
899.873	14324
899.993	14492
900.113	14240
900.232	14465
900.352	14317
900.472	14309
900.591	14214
900.711	14229
900.83	14145
900.95	14396
901.069	14278
901.189	14134
901.308	13909
901.427	13780
901.546	13852
901.665	13974
901.784	13932
901.904	13761
902.023	13693
902.141	13480
902.26	13438
902.379	13578
902.498	13438
902.617	13411
902.735	13563
902.854	13449
902.973	13396
903.091	13274
903.21	13168
903.328	13149
903.446	13194
903.565	13027
903.683	13038
903.801	12977
903.919	12947
904.038	12973
904.156	12863
904.274	12837
904.392	12848
904.51	12814
904.627	12848
904.745	12947
904.863	12970
904.981	12681
905.098	12555
905.216	12517
905.334	12528
905.451	12608
905.569	12597
905.686	12490
905.803	12620
905.921	12399
906.038	12437
906.155	12330
906.272	12258
906.389	12171
906.506	12117
906.623	12110
906.74	12148
906.857	12098
906.974	12098
907.091	12205
907.208	12273
907.324	12216
907.441	12064
907.557	11916
907.674	11927
907.79	11817
907.907	11840
908.023	11927
908.139	11961
908.256	11863
908.372	11889
908.488	11802
908.604	11653
908.72	11703
908.836	11642
908.952	11558
909.068	11619
909.184	11748
909.3	11684
909.415	11718
909.531	11745
909.647	11490
909.762	11368
909.878	11391
909.993	11421
910.108	11395
910.224	11402
910.339	11410
910.454	11364
910.57	11315
910.685	11292
910.8	11528
910.915	11482
911.03	11273
911.145	11231
911.259	11216
911.374	11143
911.489	11094
911.604	11064
911.718	10930
911.833	10927
911.947	10729
912.062	10710
912.176	10889
912.291	10900
912.405	10839
912.519	11022
912.633	11162
912.748	10949
912.862	10904
912.976	10809
913.09	10683
913.204	10672
913.318	10877
913.431	10927
913.545	10896
913.659	10885
913.772	10828
913.886	10691
914	10615
914.113	10805
914.226	10782
914.34	10755
914.453	10516
914.566	10748
914.68	10683
914.793	10550
914.906	10390
915.019	10337
915.132	10257
915.245	10462
915.358	10394
915.47	10314
915.583	10447
915.696	10462
915.809	10558
915.921	10569
916.034	10344
916.146	10310
916.259	10390
916.371	10558
916.483	10500
916.595	10295
916.708	10325
916.82	10352
916.932	10371
917.044	10337
917.156	10371
917.268	10124
917.38	10215
917.491	10154
917.603	10314
917.715	10295
917.826	10382
917.938	10181
918.049	10162
918.161	10253
918.272	10341
918.384	10398
918.495	10325
918.606	10090
918.717	10032
918.828	10207
918.939	10219
919.05	10071
919.161	10173
919.272	9968
919.383	9968
919.494	10154
919.604	10341
919.715	10215
919.826	10036
919.936	10116
920.047	10246
920.157	10112
920.267	10360
920.378	10227
920.488	10177
920.598	10295
920.708	10535
920.818	10306
920.928	10421
921.038	10489
921.148	10497
921.258	10109
921.368	10147
921.477	10143
921.587	9979
921.697	9835
921.806	9994
921.916	9979
922.025	9804
922.134	9728
922.244	9663
922.353	9770
922.462	9557
922.571	9530
922.68	9431
922.789	9439
922.898	9526
923.007	9348
923.116	9435
923.224	9428
923.333	9401
923.442	9298
923.55	9325
923.659	9329
923.767	9351
923.876	9302
923.984	9382
924.092	9207
924.201	9344
924.309	9237
924.417	9310
924.525	9214
924.633	9283
924.741	9983
924.849	9108
924.956	9207
925.064	9097
925.172	9024
925.279	9001
925.387	9074
925.494	9058
925.602	9275
925.709	9211
925.816	9062
925.924	9146
926.031	9184
926.138	9058
926.245	9119
926.352	9013
926.459	9104
926.566	9165
926.673	8986
926.779	8971
926.886	8994
926.993	8838
927.099	8746
927.206	8811
927.312	8701
927.419	8845
927.525	8815
927.631	8899
927.737	8758
927.843	8716
927.95	8564
928.056	8659
928.162	8773
928.267	8697
928.373	9355
928.479	8807
928.585	8617
928.69	8629
928.796	8750
928.901	8617
929.007	8480
929.112	8629
929.218	8602
929.323	8526
929.428	8526
929.533	8648
929.638	8511
929.743	8484
929.848	8560
929.953	8526
930.058	8465
930.163	8271
930.267	8366
930.372	8465
930.477	8328
930.581	8560
930.685	8393
930.79	8199
930.894	8240
930.998	8233
931.103	8438
931.207	8081
931.311	7944
931.415	7887
931.519	7731
931.623	7696
