Data from test_V78500241_1231.txt Node
Date: Fri Mar 25 14:42:17 CST 2022
User: usil
Spectrometer: V785-0024
Trigger mode: 0
Integration Time (sec): 4.000000E-1
Scans to average: 1
Nonlinearity correction enabled: false
Boxcar width: 0
Storing dark spectrum: false
XAxis mode: Wavelengths
Number of Pixels in Spectrum: 1024
>>>>>Begin Spectral Data<<<<<
801.071	22531
801.214	22306
801.356	22059
801.499	22055
801.641	21682
801.783	21774
801.926	21785
802.068	21682
802.211	21660
802.353	21492
802.496	21389
802.638	21256
802.78	21214
802.923	21226
803.065	21123
803.208	21066
803.35	21093
803.492	21241
803.635	21397
803.777	21165
803.919	21157
804.061	21488
804.204	21192
804.346	20925
804.488	20918
804.63	21093
804.773	20975
804.915	21066
805.057	21142
805.199	21036
805.341	21089
805.483	21195
805.626	21127
805.768	21028
805.91	20944
806.052	20868
806.194	20861
806.336	21180
806.478	20971
806.62	20960
806.762	21020
806.904	21093
807.046	21367
807.188	21336
807.33	21272
807.472	21481
807.614	21359
807.756	21325
807.898	21214
808.04	21184
808.182	21146
808.324	21154
808.465	21180
808.607	21378
808.749	21492
808.891	21507
809.033	21618
809.174	21679
809.316	21348
809.458	21355
809.6	21424
809.741	21496
809.883	21530
810.025	21610
810.166	21553
810.308	21534
810.45	21530
810.591	21500
810.733	21359
810.875	21291
811.016	21138
811.158	21127
811.299	21302
811.441	21310
811.582	21351
811.724	21260
811.865	21169
812.007	21180
812.148	21192
812.29	21211
812.431	21355
812.573	21568
812.714	21644
812.855	21622
812.997	21854
813.138	22025
813.279	21873
813.421	21701
813.562	21526
813.703	21393
813.845	21275
813.986	21112
814.127	20746
814.268	20864
814.41	20800
814.551	20785
814.692	20815
814.833	20781
814.974	20682
815.115	20686
815.256	20674
815.397	20587
815.539	20659
815.68	20545
815.821	20366
815.962	20644
816.103	20476
816.244	20282
816.385	20240
816.526	20187
816.666	19989
816.807	19906
816.948	20008
817.089	20096
817.23	19932
817.371	19803
817.512	19925
817.653	19917
817.793	19902
817.934	19894
818.075	19986
818.216	19932
818.356	19871
818.497	19681
818.638	19499
818.778	19586
818.919	19510
819.06	19647
819.2	19712
819.341	19871
819.481	19921
819.622	19890
819.762	20069
819.903	20050
820.043	19959
820.184	19906
820.324	19913
820.465	20043
820.605	19871
820.746	19837
820.886	19700
821.026	19887
821.167	19909
821.307	19932
821.447	19807
821.588	19628
821.728	19590
821.868	19400
822.008	19301
822.149	19282
822.289	19293
822.429	19046
822.569	18951
822.709	19012
822.849	18829
822.99	18802
823.13	18749
823.27	18707
823.41	18604
823.55	18604
823.69	18642
823.83	18620
823.97	18513
824.11	18456
824.25	18369
824.389	18357
824.529	18426
824.669	18350
824.809	18498
824.949	18528
825.089	18308
825.228	18346
825.368	18136
825.508	18125
825.648	18136
825.787	18205
825.927	18152
826.067	18148
826.206	18155
826.346	18247
826.485	18228
826.625	18049
826.765	18194
826.904	18155
827.044	17999
827.183	17866
827.323	17840
827.462	18011
827.601	17798
827.741	17824
827.88	17863
828.02	17729
828.159	17828
828.298	17878
828.437	17805
828.577	17764
828.716	17927
828.855	17794
828.994	17672
829.134	17665
829.273	17551
829.412	17585
829.551	17520
829.69	17687
829.829	17562
829.968	17745
830.107	17699
830.246	17623
830.385	17524
830.524	17497
830.663	17368
830.802	17356
830.941	17261
831.08	17166
831.219	17296
831.357	17231
831.496	17547
831.635	17200
831.774	17174
831.913	17124
832.051	16938
832.19	17056
832.329	17162
832.467	16976
832.606	16938
832.744	16850
832.883	17014
833.022	16885
833.16	16961
833.299	16961
833.437	16942
833.576	17033
833.714	17033
833.852	17056
833.991	17014
834.129	17010
834.267	16976
834.406	17041
834.544	17086
834.682	17048
834.821	17060
834.959	17083
835.097	17018
835.235	17083
835.373	16965
835.511	17010
835.65	16881
835.788	16904
835.926	16660
836.064	16634
836.202	16706
836.34	16892
836.478	16927
836.615	16862
836.753	16850
836.891	17037
837.029	16896
837.167	16820
837.305	16866
837.443	16850
837.58	16755
837.718	16812
837.856	16809
837.993	16672
838.131	16782
838.269	16580
838.406	16729
838.544	16725
838.681	16516
838.819	16386
838.956	16451
839.094	16253
839.231	16303
839.369	16344
839.506	16763
839.643	16558
839.781	16261
839.918	16280
840.055	16352
840.193	16333
840.33	16287
840.467	16166
840.604	16284
840.742	16653
840.879	16150
841.016	16310
841.153	16162
841.29	16432
841.427	16379
841.564	16242
841.701	16299
841.838	16303
841.975	16124
842.112	16299
842.249	16154
842.385	16135
842.522	16284
842.659	16215
842.796	16063
842.933	16150
843.069	16013
843.206	16002
843.343	16128
843.479	16135
843.616	16124
843.752	15819
843.889	15816
844.025	16090
844.162	15785
844.298	15994
844.435	15861
844.571	15835
844.708	15907
844.844	16013
844.98	16128
845.117	16006
845.253	15892
845.389	15709
845.525	15895
845.661	15736
845.798	15755
845.934	15793
846.07	15686
846.206	15816
846.342	15869
846.478	15724
846.614	15526
846.75	15412
846.886	15420
847.022	15549
847.158	15526
847.294	15507
847.429	15492
847.565	15435
847.701	15622
847.837	15135
847.972	15119
848.108	15306
848.244	15233
848.379	15039
848.515	15051
848.65	15089
848.786	15131
848.921	15043
849.057	15138
849.192	15081
849.328	15070
849.463	15055
849.598	14994
849.734	15036
849.869	14868
850.004	14895
850.14	14948
850.275	14773
850.41	14659
850.545	14735
850.68	14830
850.815	14720
850.95	14785
851.085	14963
851.22	14868
851.355	14765
851.49	14731
851.625	14788
851.76	14716
851.895	14670
852.03	14674
852.165	14674
852.299	14834
852.434	14906
852.569	14819
852.703	14735
852.838	14937
852.973	14998
853.107	14918
853.242	14731
853.376	14678
853.511	14511
853.645	14632
853.78	14765
853.914	14773
854.048	14708
854.183	14708
854.317	14613
854.451	14967
854.585	14743
854.72	14632
854.854	14632
854.988	14598
855.122	14651
855.256	14552
855.39	14682
855.524	14739
855.658	14708
855.792	14678
855.926	14739
856.06	14746
856.194	14792
856.327	14625
856.461	14568
856.595	14613
856.729	14610
856.862	14746
856.996	14750
857.13	14731
857.263	14746
857.397	14796
857.53	14708
857.664	14788
857.797	14743
857.931	14823
858.064	14689
858.197	14781
858.331	14636
858.464	14640
858.597	14606
858.731	14613
858.864	14541
858.997	14640
859.13	14689
859.263	14750
859.396	14739
859.529	14564
859.662	14560
859.795	14629
859.928	14724
860.061	14929
860.194	14906
860.327	14731
860.46	14636
860.592	14769
860.725	14815
860.858	14883
860.99	14629
861.123	14587
861.256	14651
861.388	14765
861.521	15329
861.653	14545
861.786	14507
861.918	14511
862.05	14613
862.183	14537
862.315	14689
862.447	14697
862.58	14648
862.712	14396
862.844	14396
862.976	14412
863.108	14476
863.24	14883
863.372	14393
863.504	14461
863.636	14377
863.768	14583
863.9	14465
864.032	14408
864.164	14389
864.296	14450
864.428	14442
864.559	14514
864.691	14602
864.823	14571
864.954	14454
865.086	14560
865.217	14431
865.349	14343
865.48	14385
865.612	14419
865.743	14659
865.875	14393
866.006	14374
866.137	14404
866.269	14423
866.4	14385
866.531	14336
866.662	14339
866.793	14309
866.924	14381
867.055	14438
867.186	14423
867.317	14282
867.448	14313
867.579	14518
867.71	14343
867.841	14343
867.972	14461
868.103	14370
868.233	14404
868.364	14446
868.495	14537
868.625	14667
868.756	14762
868.886	14552
869.017	14651
869.147	14773
869.278	14792
869.408	14670
869.539	14743
869.669	14667
869.799	14735
869.929	14746
870.06	14773
870.19	14967
870.32	14952
870.45	15024
870.58	15047
870.71	15207
870.84	15154
870.97	15077
871.1	15089
871.23	15230
871.36	15275
871.489	15173
871.619	15264
871.749	15298
871.879	15317
872.008	15351
872.138	15256
872.267	15279
872.397	15161
872.526	15142
872.656	15074
872.785	15142
872.915	15188
873.044	15485
873.173	15313
873.303	15382
873.432	15408
873.561	15386
873.69	15348
873.819	15340
873.948	15355
874.077	15443
874.206	15211
874.335	15386
874.464	15500
874.593	15576
874.722	15580
874.851	15614
874.979	15580
875.108	15644
875.237	15591
875.365	15519
875.494	15591
875.623	15564
875.751	15652
875.88	15561
876.008	15755
876.136	15759
876.265	15960
876.393	16158
876.521	15945
876.65	16150
876.778	16032
876.906	16029
877.034	16010
877.162	16040
877.29	15956
877.418	16090
877.546	16021
877.674	15972
877.802	16017
877.93	16032
878.058	15915
878.185	15930
878.313	16124
878.441	16074
878.568	15907
878.696	15880
878.824	16101
878.951	16082
879.079	16322
879.206	16348
879.333	16257
879.461	16162
879.588	16154
879.715	16272
879.842	16405
879.97	16147
880.097	16013
880.224	15953
880.351	15915
880.478	15861
880.605	15846
880.732	15835
880.859	16147
880.986	15937
881.112	15964
881.239	15747
881.366	15652
881.493	15580
881.619	15545
881.746	15507
881.872	15515
881.999	15515
882.125	15542
882.252	15576
882.378	15530
882.505	15652
882.631	15526
882.757	15439
882.883	15416
883.01	15374
883.136	15294
883.262	15211
883.388	15294
883.514	15321
883.64	15469
883.766	15272
883.892	15028
884.018	15211
884.143	15462
884.269	15496
884.395	15184
884.52	15074
884.646	15138
884.772	15009
884.897	14990
885.023	15058
885.148	15108
885.274	15287
885.399	15135
885.524	15066
885.65	14952
885.775	15127
885.9	15077
886.025	15039
886.15	15146
886.275	15093
886.4	14994
886.525	15013
886.65	14986
886.775	14982
886.9	15226
887.025	15264
887.149	15051
887.274	14937
887.399	14826
887.523	14785
887.648	14762
887.773	14727
887.897	15013
888.021	14971
888.146	14895
888.27	15020
888.395	15070
888.519	14929
888.643	14887
888.767	14967
888.891	14857
889.015	14880
889.139	14720
889.263	14674
889.387	14842
889.511	14902
889.635	14857
889.759	14750
889.883	14792
890.006	14686
890.13	14819
890.254	14651
890.377	14724
890.501	14518
890.624	14465
890.748	14629
890.871	14427
890.995	14313
891.118	14377
891.241	14431
891.364	14480
891.488	14537
891.611	14431
891.734	14438
891.857	14507
891.98	14469
892.103	14549
892.226	14488
892.349	14377
892.471	14339
892.594	14328
892.717	14457
892.839	14446
892.962	14549
893.085	14415
893.207	14465
893.33	14271
893.452	14366
893.575	14469
893.697	14332
893.819	14583
893.941	14701
894.064	14503
894.186	14351
894.308	14309
894.43	14594
894.552	14746
894.674	14564
894.796	14454
894.918	14564
895.04	14518
895.161	14537
895.283	14625
895.405	14434
895.526	14484
895.648	14495
895.769	14492
895.891	14560
896.012	14701
896.134	14617
896.255	14629
896.376	14590
896.498	14636
896.619	14594
896.74	14640
896.861	14708
896.982	14910
897.103	15051
897.224	14918
897.345	14826
897.466	14834
897.587	14899
897.708	15020
897.828	14891
897.949	14838
898.07	14762
898.19	14735
898.311	14921
898.431	14883
898.552	14842
898.672	15024
898.792	14971
898.913	14998
899.033	14868
899.153	14811
899.273	14663
899.393	14682
899.513	14739
899.633	14788
899.753	14731
899.873	14758
899.993	14804
900.113	14754
900.232	14872
900.352	14705
900.472	14640
900.591	14632
900.711	14606
900.83	14617
900.95	14720
901.069	14693
901.189	14537
901.308	14438
901.427	14237
901.546	14301
901.665	14275
901.784	14313
901.904	14240
902.023	14046
902.141	13852
902.26	13856
902.379	14005
902.498	13845
902.617	13860
902.735	13909
902.854	13822
902.973	13814
903.091	13655
903.21	13624
903.328	13510
903.446	13491
903.565	13472
903.683	13388
903.801	13339
903.919	13502
904.038	13365
904.156	13285
904.274	13362
904.392	13259
904.51	13209
904.627	13206
904.745	13301
904.863	13312
904.981	13061
905.098	12928
905.216	12973
905.334	13008
905.451	12970
905.569	12833
905.686	12989
905.803	12894
905.921	12791
906.038	12848
906.155	12817
906.272	12620
906.389	12654
906.506	12559
906.623	12467
906.74	12479
906.857	12456
906.974	12452
907.091	12597
907.208	12753
907.324	12509
907.441	12544
907.557	12292
907.674	12224
907.79	12254
907.907	12182
908.023	12350
908.139	12346
908.256	12148
908.372	12136
908.488	12140
908.604	11999
908.72	11996
908.836	12110
908.952	12026
909.068	11984
909.184	12129
909.3	12076
909.415	12022
909.531	12015
909.647	11771
909.762	11836
909.878	11752
909.993	11786
910.108	11805
910.224	11680
910.339	11851
910.454	11680
910.57	11665
910.685	11627
910.8	11916
910.915	11859
911.03	11726
911.145	11486
911.259	11463
911.374	11505
911.489	11414
911.604	11376
911.718	11318
911.833	11227
911.947	11143
912.062	11155
912.176	11216
912.291	11288
912.405	11208
912.519	11433
912.633	11524
912.748	11280
912.862	11246
912.976	11178
913.09	11006
913.204	11056
913.318	11132
913.431	11140
913.545	11220
913.659	11235
913.772	11132
913.886	10987
914	10934
914.113	11151
914.226	11109
914.34	11060
914.453	11010
914.566	11064
914.68	10919
914.793	10927
914.906	10733
915.019	10744
915.132	10656
915.245	10698
915.358	10733
915.47	10809
915.583	10824
915.696	10854
915.809	10797
915.921	10908
916.034	10679
916.146	10683
916.259	10592
916.371	10793
916.483	10748
916.595	10630
916.708	10714
916.82	10687
916.932	10698
917.044	10729
917.156	10599
917.268	10607
917.38	10485
917.491	10573
917.603	10558
917.715	10599
917.826	10603
917.938	10531
918.049	10523
918.161	10580
918.272	10660
918.384	10755
918.495	10550
918.606	10322
918.717	10325
918.828	10436
918.939	10451
919.05	10348
919.161	10443
919.272	10223
919.383	10325
919.494	10542
919.604	10687
919.715	10512
919.826	10367
919.936	10531
920.047	10580
920.157	10478
920.267	10698
920.378	10508
920.488	10432
920.598	10672
920.708	10816
920.818	10653
920.928	10615
921.038	10877
921.148	10736
921.258	10481
921.368	10394
921.477	10322
921.587	10261
921.697	10238
921.806	10352
921.916	10207
922.025	10017
922.134	10013
922.244	9972
922.353	9991
922.462	9964
922.571	9774
922.68	9671
922.789	9679
922.898	9728
923.007	9694
923.116	9675
923.224	9679
923.333	9724
923.442	9587
923.55	9637
923.659	9584
923.767	9564
923.876	9473
923.984	9652
924.092	9511
924.201	9507
924.309	9507
924.417	9603
924.525	9504
924.633	9526
924.741	10276
924.849	9287
924.956	9416
925.064	9310
925.172	9237
925.279	9321
925.387	9340
925.494	9253
925.602	9473
925.709	9359
925.816	9272
925.924	9313
926.031	9435
926.138	9272
926.245	9397
926.352	9310
926.459	9401
926.566	9401
926.673	9207
926.779	9199
926.886	9188
926.993	9028
927.099	9066
927.206	8990
927.312	8975
927.419	9135
927.525	9077
927.631	9100
927.737	9017
927.843	8925
927.95	8823
928.056	8853
928.162	8986
928.267	8910
928.373	9633
928.479	8952
928.585	8788
928.69	8883
928.796	8921
928.901	8819
929.007	8731
929.112	8823
929.218	8743
929.323	8796
929.428	8758
929.533	8895
929.638	8655
929.743	8754
929.848	8800
929.953	8648
930.058	8651
930.163	8438
930.267	8537
930.372	8716
930.477	8457
930.581	8617
930.685	8590
930.79	8476
930.894	8450
930.998	8438
931.103	8526
931.207	8195
931.311	8202
931.415	8126
931.519	7921
931.623	7879
