Data from test_V78500241_1502.txt Node
Date: Fri Mar 25 14:44:10 CST 2022
User: usil
Spectrometer: V785-0024
Trigger mode: 0
Integration Time (sec): 4.000000E-1
Scans to average: 1
Nonlinearity correction enabled: false
Boxcar width: 0
Storing dark spectrum: false
XAxis mode: Wavelengths
Number of Pixels in Spectrum: 1024
>>>>>Begin Spectral Data<<<<<
801.071	22417
801.214	22363
801.356	22116
801.499	22063
801.641	21899
801.783	21785
801.926	21751
802.068	21720
802.211	21606
802.353	21583
802.496	21355
802.638	21321
802.78	21264
802.923	21093
803.065	21123
803.208	21112
803.35	21036
803.492	21306
803.635	21336
803.777	21199
803.919	21188
804.061	21428
804.204	21192
804.346	20925
804.488	21005
804.63	21127
804.773	20975
804.915	21062
805.057	21222
805.199	21070
805.341	21058
805.483	21237
805.626	21161
805.768	20921
805.91	21100
806.052	20971
806.194	21039
806.336	21188
806.478	21028
806.62	21070
806.762	21188
806.904	21245
807.046	21416
807.188	21294
807.33	21408
807.472	21462
807.614	21367
807.756	21386
807.898	21241
808.04	21207
808.182	21272
808.324	21268
808.465	21302
808.607	21549
808.749	21759
808.891	21663
809.033	21873
809.174	21739
809.316	21682
809.458	21542
809.6	21545
809.741	21576
809.883	21633
810.025	21599
810.166	21679
810.308	21641
810.45	21717
810.591	21599
810.733	21439
810.875	21192
811.016	21135
811.158	21108
811.299	21306
811.441	21428
811.582	21367
811.724	21199
811.865	21211
812.007	21169
812.148	21313
812.29	21348
812.431	21447
812.573	21564
812.714	21557
812.855	21823
812.997	21797
813.138	21918
813.279	21888
813.421	21736
813.562	21656
813.703	21408
813.845	21504
813.986	21123
814.127	20925
814.268	20933
814.41	20769
814.551	20785
814.692	20845
814.833	20758
814.974	20834
815.115	20815
815.256	20644
815.397	20617
815.539	20644
815.68	20488
815.821	20438
815.962	20454
816.103	20495
816.244	20450
816.385	20275
816.526	20206
816.666	20107
816.807	19963
816.948	20027
817.089	20058
817.23	19997
817.371	19951
817.512	19894
817.653	19841
817.793	19871
817.934	20020
818.075	19894
818.216	19841
818.356	19799
818.497	19803
818.638	19582
818.778	19715
818.919	19575
819.06	19502
819.2	19765
819.341	19769
819.481	19791
819.622	19970
819.762	20077
819.903	20035
820.043	20005
820.184	19951
820.324	19864
820.465	19928
820.605	19818
820.746	19841
820.886	19814
821.026	19864
821.167	19951
821.307	19856
821.447	19738
821.588	19723
821.728	19635
821.868	19457
822.008	19339
822.149	19369
822.289	19209
822.429	19004
822.569	19004
822.709	18943
822.849	18806
822.99	18768
823.13	18798
823.27	18703
823.41	18536
823.55	18559
823.69	18665
823.83	18669
823.97	18509
824.11	18369
824.25	18376
824.389	18323
824.529	18437
824.669	18285
824.809	18521
824.949	18418
825.089	18384
825.228	18395
825.368	18205
825.508	18076
825.648	18201
825.787	18136
825.927	18148
826.067	18045
826.206	18079
826.346	18213
826.485	18194
826.625	18216
826.765	18285
826.904	18159
827.044	17961
827.183	17893
827.323	17821
827.462	17946
827.601	17931
827.741	17783
827.88	17916
828.02	17771
828.159	17783
828.298	17901
828.437	17931
828.577	17794
828.716	17897
828.855	17790
828.994	17657
829.134	17577
829.273	17695
829.412	17516
829.551	17490
829.69	17558
829.829	17653
829.968	17630
830.107	17657
830.246	17714
830.385	17372
830.524	17417
830.663	17353
830.802	17235
830.941	17105
831.08	17132
831.219	17178
831.357	17239
831.496	17345
831.635	17200
831.774	17113
831.913	17090
832.051	16965
832.19	17079
832.329	17105
832.467	16923
832.606	16786
832.744	16858
832.883	16896
833.022	16885
833.16	16923
833.299	17014
833.437	16850
833.576	17006
833.714	16930
833.852	16843
833.991	16942
834.129	17022
834.267	16900
834.406	16858
834.544	17014
834.682	16919
834.821	16946
834.959	17064
835.097	16965
835.235	17052
835.373	16889
835.511	16919
835.65	16786
835.788	16866
835.926	16752
836.064	16615
836.202	16599
836.34	16771
836.478	16942
836.615	16774
836.753	16854
836.891	17006
837.029	16797
837.167	16679
837.305	16809
837.443	16694
837.58	16672
837.718	16828
837.856	16588
837.993	16615
838.131	16637
838.269	16588
838.406	16618
838.544	16622
838.681	16489
838.819	16382
838.956	16131
839.094	16192
839.231	16318
839.369	16360
839.506	16672
839.643	16497
839.781	16185
839.918	16192
840.055	16299
840.193	16295
840.33	16192
840.467	16230
840.604	16150
840.742	16516
840.879	16055
841.016	16154
841.153	16090
841.29	16314
841.427	16291
841.564	16230
841.701	16291
841.838	16158
841.975	16051
842.112	16147
842.249	16120
842.385	15983
842.522	16230
842.659	16090
842.796	16048
842.933	15968
843.069	15949
843.206	15987
843.343	16086
843.479	16055
843.616	15907
843.752	15751
843.889	15747
844.025	16032
844.162	15797
844.298	15918
844.435	15842
844.571	15793
844.708	15835
844.844	15975
844.98	16029
845.117	15899
845.253	15751
845.389	15743
845.525	15774
845.661	15842
845.798	15747
845.934	15899
846.07	15762
846.206	15850
846.342	15869
846.478	15648
846.614	15443
846.75	15370
846.886	15370
847.022	15454
847.158	15393
847.294	15382
847.429	15420
847.565	15416
847.701	15492
847.837	15138
847.972	15005
848.108	15100
848.244	15157
848.379	15051
848.515	14948
848.65	14971
848.786	15055
848.921	14979
849.057	15013
849.192	15043
849.328	14948
849.463	14963
849.598	14887
849.734	14906
849.869	14819
850.004	14750
850.14	14826
850.275	14727
850.41	14667
850.545	14712
850.68	14727
850.815	14686
850.95	14746
851.085	14830
851.22	14769
851.355	14701
851.49	14670
851.625	14689
851.76	14762
851.895	14682
852.03	14575
852.165	14739
852.299	14663
852.434	14811
852.569	14705
852.703	14674
852.838	14819
852.973	14876
853.107	14701
853.242	14693
853.376	14613
853.511	14469
853.645	14568
853.78	14674
853.914	14598
854.048	14613
854.183	14522
854.317	14644
854.451	14731
854.585	14514
854.72	14461
854.854	14587
854.988	14385
855.122	14594
855.256	14328
855.39	14640
855.524	14682
855.658	14686
855.792	14632
855.926	14579
856.06	14503
856.194	14648
856.327	14495
856.461	14560
856.595	14514
856.729	14556
856.862	14625
856.996	14621
857.13	14632
857.263	14659
857.397	14777
857.53	14590
857.664	14686
857.797	14716
857.931	14670
858.064	14727
858.197	14686
858.331	14583
858.464	14594
858.597	14415
858.731	14613
858.864	14625
858.997	14507
859.13	14629
859.263	14610
859.396	14598
859.529	14564
859.662	14552
859.795	14499
859.928	14617
860.061	14682
860.194	14765
860.327	14564
860.46	14537
860.592	14678
860.725	14678
860.858	14655
860.99	14507
861.123	14488
861.256	14526
861.388	14568
861.521	15081
861.653	14522
861.786	14461
861.918	14389
862.05	14514
862.183	14476
862.315	14522
862.447	14579
862.58	14492
862.712	14408
862.844	14328
862.976	14358
863.108	14355
863.24	14823
863.372	14256
863.504	14290
863.636	14431
863.768	14374
863.9	14396
864.032	14305
864.164	14320
864.296	14298
864.428	14408
864.559	14465
864.691	14438
864.823	14434
864.954	14419
865.086	14374
865.217	14290
865.349	14210
865.48	14370
865.612	14294
865.743	14530
865.875	14400
866.006	14298
866.137	14301
866.269	14385
866.4	14355
866.531	14301
866.662	14233
866.793	14267
866.924	14336
867.055	14396
867.186	14320
867.317	14275
867.448	14183
867.579	14366
867.71	14210
867.841	14221
867.972	14362
868.103	14301
868.233	14309
868.364	14396
868.495	14438
868.625	14518
868.756	14644
868.886	14480
869.017	14518
869.147	14636
869.278	14678
869.408	14632
869.539	14537
869.669	14610
869.799	14606
869.929	14655
870.06	14564
870.19	14914
870.32	14807
870.45	14944
870.58	15005
870.71	14952
870.84	15077
870.97	14918
871.1	14998
871.23	15188
871.36	15097
871.489	15024
871.619	15195
871.749	15093
871.879	15150
872.008	15237
872.138	15203
872.267	15157
872.397	15017
872.526	14971
872.656	14952
872.785	14929
872.915	15294
873.044	15294
873.173	15245
873.303	15287
873.432	15275
873.561	15294
873.69	15275
873.819	15222
873.948	15340
874.077	15226
874.206	15138
874.335	15252
874.464	15405
874.593	15496
874.722	15412
874.851	15530
874.979	15496
875.108	15587
875.237	15428
875.365	15424
875.494	15485
875.623	15679
875.751	15469
875.88	15545
876.008	15633
876.136	15679
876.265	15964
876.393	16169
876.521	16082
876.65	16044
876.778	16010
876.906	15899
877.034	15869
877.162	15983
877.29	15941
877.418	15857
877.546	15880
877.674	15941
877.802	15987
877.93	15930
878.058	15903
878.185	15789
878.313	15926
878.441	15922
878.568	15907
878.696	16021
878.824	15892
878.951	16071
879.079	16280
879.206	16325
879.333	16295
879.461	16200
879.588	16074
879.715	16238
879.842	16306
879.97	16162
880.097	15774
880.224	15812
880.351	15816
880.478	15880
880.605	15953
880.732	15816
880.859	16021
880.986	15915
881.112	15922
881.239	15709
881.366	15507
881.493	15504
881.619	15500
881.746	15469
881.872	15405
881.999	15359
882.125	15443
882.252	15466
882.378	15530
882.505	15667
882.631	15412
882.757	15275
882.883	15397
883.01	15317
883.136	15260
883.262	15165
883.388	15093
883.514	15408
883.64	15367
883.766	15275
883.892	15188
884.018	15184
884.143	15218
884.269	15431
884.395	15032
884.52	14960
884.646	15047
884.772	14937
884.897	14956
885.023	15001
885.148	15131
885.274	15097
885.399	15047
885.524	14971
885.65	14986
885.775	14994
885.9	14982
886.025	15093
886.15	15062
886.275	14925
886.4	14883
886.525	14864
886.65	14849
886.775	14887
886.9	15089
887.025	15249
887.149	15028
887.274	14864
887.399	14743
887.523	14720
887.648	14667
887.773	14765
887.897	14990
888.021	14826
888.146	14701
888.27	14887
888.395	14933
888.519	14834
888.643	14906
888.767	14906
888.891	14777
889.015	14708
889.139	14667
889.263	14678
889.387	14857
889.511	14845
889.635	14807
889.759	14667
889.883	14636
890.006	14712
890.13	14777
890.254	14594
890.377	14507
890.501	14419
890.624	14408
890.748	14606
890.871	14355
890.995	14275
891.118	14320
891.241	14469
891.364	14355
891.488	14507
891.611	14366
891.734	14309
891.857	14438
891.98	14396
892.103	14370
892.226	14385
892.349	14328
892.471	14244
892.594	14259
892.717	14298
892.839	14377
892.962	14328
893.085	14393
893.207	14324
893.33	14210
893.452	14199
893.575	14389
893.697	14294
893.819	14461
893.941	14625
894.064	14507
894.186	14233
894.308	14229
894.43	14431
894.552	14480
894.674	14499
894.796	14400
894.918	14408
895.04	14389
895.161	14423
895.283	14507
895.405	14408
895.526	14400
895.648	14442
895.769	14518
895.891	14492
896.012	14541
896.134	14465
896.255	14530
896.376	14465
896.498	14522
896.619	14568
896.74	14427
896.861	14602
896.982	14933
897.103	15085
897.224	14811
897.345	14750
897.466	14640
897.587	14731
897.708	14880
897.828	14788
897.949	14769
898.07	14610
898.19	14781
898.311	14876
898.431	14807
898.552	14914
898.672	14948
898.792	14899
898.913	14944
899.033	14765
899.153	14743
899.273	14602
899.393	14590
899.513	14678
899.633	14785
899.753	14648
899.873	14716
899.993	14697
900.113	14746
900.232	14762
900.352	14689
900.472	14648
900.591	14533
900.711	14541
900.83	14564
900.95	14720
901.069	14644
901.189	14450
901.308	14282
901.427	14168
901.546	14214
901.665	14233
901.784	14278
901.904	14115
902.023	14031
902.141	13841
902.26	13818
902.379	13993
902.498	13772
902.617	13784
902.735	13822
902.854	13845
902.973	13674
903.091	13529
903.21	13552
903.328	13632
903.446	13548
903.565	13339
903.683	13422
903.801	13320
903.919	13358
904.038	13430
904.156	13133
904.274	13209
904.392	13171
904.51	13114
904.627	13194
904.745	13198
904.863	13304
904.981	13023
905.098	12928
905.216	12909
905.334	12905
905.451	12848
905.569	12768
905.686	12863
905.803	12840
905.921	12700
906.038	12791
906.155	12787
906.272	12566
906.389	12688
906.506	12399
906.623	12570
906.74	12433
906.857	12384
906.974	12486
907.091	12460
907.208	12509
907.324	12506
907.441	12403
907.557	12239
907.674	12194
907.79	12140
907.907	12148
908.023	12319
908.139	12213
908.256	12125
908.372	12095
908.488	12106
908.604	12026
908.72	11893
908.836	11980
908.952	11942
909.068	11980
909.184	12083
909.3	11935
909.415	12019
909.531	11988
909.647	11726
909.762	11771
909.878	11653
909.993	11771
910.108	11783
910.224	11710
910.339	11688
910.454	11627
910.57	11661
910.685	11505
910.8	11794
910.915	11729
911.03	11760
911.145	11528
911.259	11395
911.374	11467
911.489	11353
911.604	11269
911.718	11151
911.833	11193
911.947	11067
912.062	10984
912.176	11151
912.291	11162
912.405	11189
912.519	11414
912.633	11345
912.748	11189
912.862	11204
912.976	11064
913.09	10946
913.204	10968
913.318	10995
913.431	11155
913.545	11117
913.659	11193
913.772	11098
913.886	10949
914	10919
914.113	10987
914.226	11033
914.34	11003
914.453	10862
914.566	11033
914.68	10953
914.793	10885
914.906	10656
915.019	10668
915.132	10535
915.245	10725
915.358	10592
915.47	10710
915.583	10698
915.696	10691
915.809	10778
915.921	10835
916.034	10603
916.146	10630
916.259	10565
916.371	10752
916.483	10649
916.595	10626
916.708	10599
916.82	10721
916.932	10542
917.044	10592
917.156	10561
917.268	10424
917.38	10451
917.491	10440
917.603	10466
917.715	10489
917.826	10573
917.938	10535
918.049	10451
918.161	10493
918.272	10645
918.384	10577
918.495	10596
918.606	10329
918.717	10325
918.828	10394
918.939	10398
919.05	10276
919.161	10382
919.272	10150
919.383	10230
919.494	10417
919.604	10554
919.715	10363
919.826	10367
919.936	10398
920.047	10470
920.157	10421
920.267	10607
920.378	10432
920.488	10382
920.598	10607
920.708	10721
920.818	10630
920.928	10622
921.038	10748
921.148	10748
921.258	10394
921.368	10314
921.477	10223
921.587	10257
921.697	10143
921.806	10227
921.916	10166
922.025	9949
922.134	9960
922.244	9865
922.353	10048
922.462	9838
922.571	9732
922.68	9644
922.789	9542
922.898	9625
923.007	9603
923.116	9660
923.224	9648
923.333	9606
923.442	9561
923.55	9538
923.659	9538
923.767	9606
923.876	9515
923.984	9542
924.092	9420
924.201	9462
924.309	9488
924.417	9523
924.525	9378
924.633	9511
924.741	10329
924.849	9256
924.956	9393
925.064	9169
925.172	9150
925.279	9199
925.387	9256
925.494	9226
925.602	9374
925.709	9298
925.816	9184
925.924	9310
926.031	9264
926.138	9245
926.245	9230
926.352	9211
926.459	9405
926.566	9405
926.673	9230
926.779	9138
926.886	9165
926.993	8979
927.099	9013
927.206	8899
927.312	8883
927.419	9051
927.525	8967
927.631	9039
927.737	8967
927.843	8883
927.95	8743
928.056	8861
928.162	8826
928.267	8937
928.373	9458
928.479	8948
928.585	8785
928.69	8861
928.796	8868
928.901	8720
929.007	8610
929.112	8804
929.218	8830
929.323	8750
929.428	8693
929.533	8853
929.638	8587
929.743	8610
929.848	8697
929.953	8670
930.058	8617
930.163	8381
930.267	8484
930.372	8610
930.477	8324
930.581	8648
930.685	8552
930.79	8415
930.894	8495
930.998	8393
931.103	8503
931.207	8229
931.311	8157
931.415	8126
931.519	7909
931.623	7887
