Data from test_V78500241_274.txt Node
Date: Fri Mar 25 14:35:37 CST 2022
User: usil
Spectrometer: V785-0024
Trigger mode: 0
Integration Time (sec): 4.000000E-1
Scans to average: 1
Nonlinearity correction enabled: false
Boxcar width: 0
Storing dark spectrum: false
XAxis mode: Wavelengths
Number of Pixels in Spectrum: 1024
>>>>>Begin Spectral Data<<<<<
801.071	27408
801.214	27192
801.356	26986
801.499	26998
801.641	26727
801.783	26842
801.926	26773
802.068	26724
802.211	26632
802.353	26575
802.496	26423
802.638	26282
802.78	26450
802.923	26271
803.065	26134
803.208	26138
803.35	26214
803.492	26290
803.635	26415
803.777	26301
803.919	26320
804.061	26587
804.204	26259
804.346	26290
804.488	26324
804.63	26187
804.773	26313
804.915	26240
805.057	26343
805.199	26377
805.341	26347
805.483	26351
805.626	26347
805.768	26317
805.91	26434
806.052	26412
806.194	26396
806.336	26689
806.478	26347
806.62	26294
806.762	26492
806.904	26587
807.046	26659
807.188	26636
807.33	26625
807.472	26686
807.614	26731
807.756	26697
807.898	26583
808.04	26469
808.182	26533
808.324	26655
808.465	26659
808.607	26849
808.749	26925
808.891	27119
809.033	27123
809.174	27199
809.316	26902
809.458	27020
809.6	26937
809.741	26872
809.883	26788
810.025	26990
810.166	27055
810.308	27009
810.45	27157
810.591	27032
810.733	26769
810.875	26674
811.016	26625
811.158	26602
811.299	26636
811.441	26857
811.582	26659
811.724	26564
811.865	26568
812.007	26777
812.148	26640
812.29	26773
812.431	26883
812.573	26899
812.714	27127
812.855	27043
812.997	27291
813.138	27317
813.279	27310
813.421	27051
813.562	27108
813.703	26940
813.845	26857
813.986	26526
814.127	26256
814.268	26286
814.41	26259
814.551	26404
814.692	26351
814.833	26214
814.974	26103
815.115	26252
815.256	26088
815.397	26149
815.539	25955
815.68	25947
815.821	25784
815.962	26111
816.103	26027
816.244	25902
816.385	25685
816.526	25731
816.666	25582
816.807	25525
816.948	25491
817.089	25533
817.23	25483
817.371	25362
817.512	25415
817.653	25244
817.793	25266
817.934	25419
818.075	25377
818.216	25346
818.356	25190
818.497	25236
818.638	25099
818.778	25088
818.919	25107
819.06	25209
819.2	25251
819.341	25247
819.481	25297
819.622	25438
819.762	25559
819.903	25552
820.043	25377
820.184	25381
820.324	25320
820.465	25457
820.605	25388
820.746	25392
820.886	25107
821.026	25240
821.167	25346
821.307	25346
821.447	25190
821.588	25209
821.728	24985
821.868	24852
822.008	24589
822.149	24745
822.289	24646
822.429	24452
822.569	24327
822.709	24338
822.849	24129
822.99	24159
823.13	24136
823.27	24041
823.41	24083
823.55	23916
823.69	23920
823.83	23931
823.97	23889
824.11	23722
824.25	23726
824.389	23699
824.529	23722
824.669	23699
824.809	23729
824.949	23767
825.089	23790
825.228	23649
825.368	23623
825.508	23558
825.648	23592
825.787	23589
825.927	23410
826.067	23425
826.206	23474
826.346	23482
826.485	23554
826.625	23528
826.765	23592
826.904	23490
827.044	23140
827.183	23273
827.323	23239
827.462	23143
827.601	23178
827.741	23220
827.88	23094
828.02	22965
828.159	23162
828.298	23098
828.437	23155
828.577	23060
828.716	23322
828.855	23022
828.994	22938
829.134	22858
829.273	22938
829.412	22774
829.551	22847
829.69	22752
829.829	22930
829.968	22961
830.107	23071
830.246	22889
830.385	22748
830.524	22767
830.663	22717
830.802	22675
830.941	22493
831.08	22367
831.219	22596
831.357	22382
831.496	22637
831.635	22402
831.774	22474
831.913	22356
832.051	22169
832.19	22181
832.329	22177
832.467	22173
832.606	21941
832.744	21857
832.883	22063
833.022	22082
833.16	21972
833.299	22101
833.437	22090
833.576	22124
833.714	22082
833.852	22162
833.991	22204
834.129	22063
834.267	22223
834.406	22116
834.544	22040
834.682	21998
834.821	21972
834.959	22234
835.097	22021
835.235	22147
835.373	21994
835.511	22105
835.65	21823
835.788	21937
835.926	21751
836.064	21778
836.202	21865
836.34	21934
836.478	21949
836.615	21865
836.753	21895
836.891	21915
837.029	21895
837.167	21759
837.305	21759
837.443	21774
837.58	21709
837.718	21694
837.856	21812
837.993	21804
838.131	21660
838.269	21595
838.406	21720
838.544	21519
838.681	21389
838.819	21378
838.956	21317
839.094	21237
839.231	21245
839.369	21424
839.506	21572
839.643	21462
839.781	21386
839.918	21108
840.055	21207
840.193	21070
840.33	21058
840.467	21032
840.604	21161
840.742	21317
840.879	20937
841.016	20960
841.153	21043
841.29	21268
841.427	21089
841.564	21104
841.701	21074
841.838	21058
841.975	20960
842.112	21032
842.249	20864
842.385	20826
842.522	21032
842.659	20937
842.796	20765
842.933	20788
843.069	20765
843.206	20731
843.343	20804
843.479	20842
843.616	20792
843.752	20526
843.889	20564
844.025	20743
844.162	20541
844.298	20758
844.435	20583
844.571	20469
844.708	20457
844.844	20781
844.98	20648
845.117	20708
845.253	20609
845.389	20499
845.525	20488
845.661	20427
845.798	20465
845.934	20526
846.07	20362
846.206	20560
846.342	20552
846.478	20377
846.614	20149
846.75	20046
846.886	20126
847.022	20164
847.158	19940
847.294	20005
847.429	20122
847.565	19959
847.701	20240
847.837	19651
847.972	19704
848.108	19780
848.244	19715
848.379	19597
848.515	19628
848.65	19590
848.786	19460
848.921	19540
849.057	19734
849.192	19647
849.328	19537
849.463	19613
849.598	19441
849.734	19422
849.869	19358
850.004	19285
850.14	19388
850.275	19316
850.41	19209
850.545	19320
850.68	19244
850.815	19266
850.95	19384
851.085	19407
851.22	19365
851.355	19365
851.49	19304
851.625	19251
851.76	19213
851.895	19278
852.03	19133
852.165	19297
852.299	19369
852.434	19320
852.569	19289
852.703	19251
852.838	19358
852.973	19285
853.107	19358
853.242	19217
853.376	19217
853.511	19080
853.645	19053
853.78	19236
853.914	19168
854.048	19042
854.183	19095
854.317	19110
854.451	19346
854.585	19145
854.72	19091
854.854	19202
854.988	19027
855.122	19114
855.256	19046
855.39	18973
855.524	19194
855.658	19228
855.792	19148
855.926	19103
856.06	19187
856.194	19148
856.327	19171
856.461	19046
856.595	18924
856.729	18981
856.862	19282
856.996	19202
857.13	19217
857.263	19118
857.397	19110
857.53	18985
857.664	19148
857.797	19084
857.931	19247
858.064	19095
858.197	19133
858.331	19069
858.464	19038
858.597	18981
858.731	18951
858.864	18966
858.997	19080
859.13	19038
859.263	19076
859.396	19126
859.529	19042
859.662	18947
859.795	18916
859.928	19065
860.061	19133
860.194	19099
860.327	19076
860.46	19004
860.592	19072
860.725	19213
860.858	19133
860.99	19046
861.123	18916
861.256	18924
861.388	18951
861.521	19655
861.653	18916
861.786	18787
861.918	18905
862.05	19004
862.183	19019
862.315	19099
862.447	19137
862.58	19076
862.712	18932
862.844	18833
862.976	18890
863.108	18867
863.24	19118
863.372	18730
863.504	18772
863.636	18749
863.768	18856
863.9	18802
864.032	18623
864.164	18669
864.296	18810
864.428	18798
864.559	18875
864.691	18814
864.823	18844
864.954	18772
865.086	18798
865.217	18726
865.349	18551
865.48	18726
865.612	18585
865.743	18749
865.875	18707
866.006	18582
866.137	18730
866.269	18631
866.4	18582
866.531	18654
866.662	18604
866.793	18635
866.924	18669
867.055	18616
867.186	18627
867.317	18525
867.448	18498
867.579	18574
867.71	18513
867.841	18502
867.972	18612
868.103	18528
868.233	18604
868.364	18639
868.495	18745
868.625	18791
868.756	18973
868.886	18673
869.017	18779
869.147	18947
869.278	18932
869.408	18715
869.539	18821
869.669	18943
869.799	18882
869.929	18924
870.06	18962
870.19	19076
870.32	19015
870.45	19152
870.58	19148
870.71	19384
870.84	19217
870.97	19137
871.1	19194
871.23	19354
871.36	19411
871.489	19358
871.619	19468
871.749	19316
871.879	19403
872.008	19506
872.138	19495
872.267	19339
872.397	19228
872.526	19274
872.656	19171
872.785	19240
872.915	19521
873.044	19548
873.173	19540
873.303	19434
873.432	19384
873.561	19499
873.69	19499
873.819	19438
873.948	19609
874.077	19518
874.206	19400
874.335	19472
874.464	19590
874.593	19677
874.722	19674
874.851	19814
874.979	19864
875.108	19814
875.237	19681
875.365	19620
875.494	19651
875.623	19791
875.751	19780
875.88	19769
876.008	19742
876.136	19982
876.265	20168
876.393	20206
876.521	20153
876.65	20259
876.778	20024
876.906	20084
877.034	20001
877.162	20100
877.29	20062
877.418	20161
877.546	20100
877.674	20069
877.802	20153
877.93	20092
878.058	20016
878.185	20005
878.313	20138
878.441	20172
878.568	19993
878.696	20050
878.824	20138
878.951	20183
879.079	20237
879.206	20461
879.333	20412
879.461	20244
879.588	20400
879.715	20396
879.842	20473
879.97	20233
880.097	19993
880.224	19997
880.351	20065
880.478	19955
880.605	19879
880.732	19944
880.859	20172
880.986	19970
881.112	20020
881.239	19803
881.366	19731
881.493	19704
881.619	19647
881.746	19670
881.872	19635
881.999	19597
882.125	19514
882.252	19457
882.378	19601
882.505	19795
882.631	19514
882.757	19289
882.883	19396
883.01	19346
883.136	19312
883.262	19221
883.388	19206
883.514	19377
883.64	19335
883.766	19244
883.892	19107
884.018	19103
884.143	19225
884.269	19430
884.395	19046
884.52	19023
884.646	19061
884.772	18772
884.897	18916
885.023	19034
885.148	19019
885.274	19206
885.399	19107
885.524	19004
885.65	18890
885.775	19012
885.9	18996
886.025	19076
886.15	19061
886.275	19008
886.4	18840
886.525	18817
886.65	18806
886.775	18867
886.9	19015
887.025	19164
887.149	18943
887.274	18730
887.399	18798
887.523	18692
887.648	18623
887.773	18661
887.897	18741
888.021	18829
888.146	18623
888.27	18802
888.395	18920
888.519	18779
888.643	18768
888.767	18730
888.891	18604
889.015	18544
889.139	18620
889.263	18578
889.387	18715
889.511	18810
889.635	18608
889.759	18555
889.883	18486
890.006	18517
890.13	18631
890.254	18525
890.377	18540
890.501	18399
890.624	18270
890.748	18369
890.871	18174
890.995	18083
891.118	18129
891.241	18174
891.364	18117
891.488	18174
891.611	18026
891.734	18224
891.857	18182
891.98	18163
892.103	18224
892.226	18163
892.349	18095
892.471	17923
892.594	18136
892.717	18129
892.839	18041
892.962	18167
893.085	18197
893.207	18064
893.33	17904
893.452	18003
893.575	18125
893.697	18083
893.819	18213
893.941	18155
894.064	18205
894.186	17992
894.308	18003
894.43	18167
894.552	18205
894.674	18144
894.796	17999
894.918	18087
895.04	18068
895.161	18232
895.283	18026
895.405	18060
895.526	18060
895.648	18140
895.769	18163
895.891	18121
896.012	18190
896.134	18197
896.255	18148
896.376	18190
896.498	18136
896.619	18228
896.74	18197
896.861	18228
896.982	18506
897.103	18627
897.224	18490
897.345	18315
897.466	18353
897.587	18372
897.708	18517
897.828	18342
897.949	18357
898.07	18254
898.19	18372
898.311	18483
898.431	18330
898.552	18407
898.672	18525
898.792	18479
898.913	18403
899.033	18266
899.153	18178
899.273	17958
899.393	18091
899.513	18144
899.633	18121
899.753	18155
899.873	18026
899.993	18209
900.113	18171
900.232	18155
900.352	18083
900.472	18041
900.591	17920
900.711	18049
900.83	17942
900.95	18038
901.069	17980
901.189	17920
901.308	17733
901.427	17573
901.546	17589
901.665	17581
901.784	17596
901.904	17471
902.023	17463
902.141	17170
902.26	17117
902.379	17216
902.498	17239
902.617	17102
902.735	17018
902.854	17014
902.973	16999
903.091	16824
903.21	16812
903.328	16778
903.446	16763
903.565	16588
903.683	16599
903.801	16554
903.919	16527
904.038	16580
904.156	16394
904.274	16421
904.392	16375
904.51	16360
904.627	16390
904.745	16489
904.863	16447
904.981	16166
905.098	16013
905.216	16090
905.334	16097
905.451	16093
905.569	16055
905.686	16124
905.803	15915
905.921	15770
906.038	15949
906.155	15861
906.272	15701
906.389	15732
906.506	15595
906.623	15629
906.74	15652
906.857	15523
906.974	15507
907.091	15629
907.208	15656
907.324	15633
907.441	15462
907.557	15275
907.674	15344
907.79	15249
907.907	15310
908.023	15260
908.139	15306
908.256	15222
908.372	15123
908.488	15154
908.604	15001
908.72	14967
908.836	15024
908.952	14925
909.068	14971
909.184	15100
909.3	14986
909.415	15013
909.531	14967
909.647	14785
909.762	14697
909.878	14712
909.993	14629
910.108	14788
910.224	14758
910.339	14674
910.454	14503
910.57	14446
910.685	14423
910.8	14640
910.915	14697
911.03	14492
911.145	14351
911.259	14339
911.374	14286
911.489	14214
911.604	14172
911.718	14134
911.833	14088
911.947	13967
912.062	13982
912.176	14016
912.291	14062
912.405	14065
912.519	14305
912.633	14252
912.748	14084
912.862	14046
912.976	13925
913.09	13674
913.204	13833
913.318	13849
913.431	13978
913.545	14016
913.659	13986
913.772	13822
913.886	13776
914	13666
914.113	13845
914.226	13856
914.34	13734
914.453	13624
914.566	13746
914.68	13651
914.793	13624
914.906	13384
915.019	13365
915.132	13365
915.245	13373
915.358	13308
915.47	13403
915.583	13476
915.696	13422
915.809	13537
915.921	13480
916.034	13285
916.146	13392
916.259	13301
916.371	13358
916.483	13369
916.595	13282
916.708	13225
916.82	13304
916.932	13240
917.044	13259
917.156	13209
917.268	13126
917.38	13118
917.491	13103
917.603	13061
917.715	13187
917.826	13129
917.938	13004
918.049	12932
918.161	13053
918.272	13255
918.384	13114
918.495	13084
918.606	12954
918.717	12856
918.828	12958
918.939	12932
919.05	12764
919.161	12886
919.272	12688
919.383	12715
919.494	12882
919.604	13099
919.715	12886
919.826	12673
919.936	12745
920.047	12909
920.157	12852
920.267	13061
920.378	12772
920.488	12829
920.598	12932
920.708	13046
920.818	13023
920.928	12951
921.038	13084
921.148	13084
921.258	12920
921.368	12753
921.477	12654
921.587	12673
921.697	12513
921.806	12585
921.916	12433
922.025	12327
922.134	12319
922.244	12190
922.353	12186
922.462	12144
922.571	12121
922.68	11961
922.789	11958
922.898	11950
923.007	11859
923.116	11935
923.224	11942
923.333	11885
923.442	11703
923.55	11707
923.659	11794
923.767	11832
923.876	11680
923.984	11718
924.092	11680
924.201	11684
924.309	11695
924.417	11729
924.525	11733
924.633	11680
924.741	12570
924.849	11444
924.956	11589
925.064	11398
925.172	11398
925.279	11356
925.387	11482
925.494	11501
925.602	11596
925.709	11486
925.816	11368
925.924	11455
926.031	11501
926.138	11330
926.245	11467
926.352	11254
926.459	11497
926.566	11463
926.673	11242
926.779	11208
926.886	11223
926.993	11064
927.099	10995
927.206	11006
927.312	11060
927.419	11124
927.525	10961
927.631	11048
927.737	10949
927.843	10919
927.95	10820
928.056	10839
928.162	10949
928.267	10938
928.373	11524
928.479	11014
928.585	10736
928.69	10858
928.796	10839
928.901	10816
929.007	10626
929.112	10801
929.218	10691
929.323	10694
929.428	10622
929.533	10759
929.638	10603
929.743	10672
929.848	10683
929.953	10626
930.058	10569
930.163	10352
930.267	10341
930.372	10413
930.477	10268
930.581	10615
930.685	10447
930.79	10265
930.894	10135
930.998	10230
931.103	10337
931.207	10010
931.311	9998
931.415	9876
931.519	9747
931.623	9686
