Data from test_V78500241_2414.txt Node
Date: Fri Mar 25 14:50:31 CST 2022
User: usil
Spectrometer: V785-0024
Trigger mode: 0
Integration Time (sec): 4.000000E-1
Scans to average: 1
Nonlinearity correction enabled: false
Boxcar width: 0
Storing dark spectrum: false
XAxis mode: Wavelengths
Number of Pixels in Spectrum: 1024
>>>>>Begin Spectral Data<<<<<
801.071	22048
801.214	22044
801.356	21827
801.499	21865
801.641	21519
801.783	21549
801.926	21538
802.068	21431
802.211	21382
802.353	21310
802.496	21146
802.638	20994
802.78	20914
802.923	20937
803.065	20861
803.208	20769
803.35	20834
803.492	20918
803.635	20960
803.777	20769
803.919	20994
804.061	21275
804.204	20830
804.346	20849
804.488	20804
804.63	20762
804.773	20731
804.915	20750
805.057	20929
805.199	20629
805.341	20819
805.483	20868
805.626	20853
805.768	20724
805.91	20746
806.052	20853
806.194	20735
806.336	20963
806.478	20845
806.62	20731
806.762	20785
806.904	21001
807.046	21131
807.188	21017
807.33	21184
807.472	21036
807.614	20967
807.756	21017
807.898	20853
808.04	20876
808.182	20876
808.324	20887
808.465	20868
808.607	21070
808.749	21142
808.891	21359
809.033	21359
809.174	21222
809.316	21020
809.458	21188
809.6	21154
809.741	21325
809.883	21256
810.025	21416
810.166	21161
810.308	21310
810.45	21291
810.591	21131
810.733	21051
810.875	20960
811.016	20800
811.158	20773
811.299	20906
811.441	20937
811.582	21093
811.724	20891
811.865	20872
812.007	20785
812.148	20899
812.29	20944
812.431	21058
812.573	21188
812.714	21363
812.855	21389
812.997	21595
813.138	21564
813.279	21504
813.421	21473
813.562	21222
813.703	21222
813.845	21100
813.986	20727
814.127	20701
814.268	20526
814.41	20434
814.551	20495
814.692	20495
814.833	20408
814.974	20469
815.115	20560
815.256	20240
815.397	20408
815.539	20408
815.68	20187
815.821	20145
815.962	20092
816.103	20202
816.244	20039
816.385	19906
816.526	19856
816.666	19799
816.807	19624
816.948	19643
817.089	19753
817.23	19677
817.371	19510
817.512	19483
817.653	19495
817.793	19548
817.934	19502
818.075	19567
818.216	19506
818.356	19616
818.497	19396
818.638	19206
818.778	19217
818.919	19190
819.06	19331
819.2	19213
819.341	19506
819.481	19502
819.622	19582
819.762	19791
819.903	19772
820.043	19499
820.184	19609
820.324	19601
820.465	19628
820.605	19662
820.746	19430
820.886	19396
821.026	19480
821.167	19506
821.307	19571
821.447	19441
821.588	19339
821.728	19266
821.868	19034
822.008	19046
822.149	19000
822.289	18943
822.429	18738
822.569	18536
822.709	18593
822.849	18460
822.99	18464
823.13	18426
823.27	18407
823.41	18194
823.55	18178
823.69	18205
823.83	18273
823.97	18144
824.11	18003
824.25	18015
824.389	18041
824.529	18114
824.669	17916
824.809	18114
824.949	18152
825.089	18182
825.228	18041
825.368	17859
825.508	17855
825.648	17771
825.787	17832
825.927	17836
826.067	17779
826.206	17859
826.346	17680
826.485	17813
826.625	17783
826.765	17897
826.904	17741
827.044	17714
827.183	17558
827.323	17512
827.462	17558
827.601	17543
827.741	17402
827.88	17520
828.02	17410
828.159	17543
828.298	17512
828.437	17490
828.577	17524
828.716	17558
828.855	17395
828.994	17265
829.134	17250
829.273	17273
829.412	17170
829.551	17166
829.69	17197
829.829	17284
829.968	17315
830.107	17311
830.246	17277
830.385	17143
830.524	17083
830.663	16976
830.802	16972
830.941	16889
831.08	16786
831.219	16938
831.357	16866
831.496	17075
831.635	16915
831.774	16778
831.913	16721
832.051	16622
832.19	16630
832.329	16725
832.467	16508
832.606	16409
832.744	16440
832.883	16565
833.022	16462
833.16	16573
833.299	16645
833.437	16504
833.576	16527
833.714	16497
833.852	16694
833.991	16607
834.129	16584
834.267	16596
834.406	16668
834.544	16622
834.682	16573
834.821	16607
834.959	16755
835.097	16577
835.235	16702
835.373	16584
835.511	16565
835.65	16462
835.788	16447
835.926	16329
836.064	16306
836.202	16234
836.34	16443
836.478	16592
836.615	16474
836.753	16504
836.891	16599
837.029	16508
837.167	16478
837.305	16432
837.443	16356
837.58	16303
837.718	16504
837.856	16462
837.993	16230
838.131	16341
838.269	16223
838.406	16284
838.544	16303
838.681	16059
838.819	16101
838.956	16006
839.094	15888
839.231	15937
839.369	16025
839.506	16303
839.643	16124
839.781	15941
839.918	15895
840.055	15930
840.193	15884
840.33	15903
840.467	15964
840.604	15972
840.742	16158
840.879	15785
841.016	15728
841.153	15816
841.29	15941
841.427	15975
841.564	15960
841.701	15873
841.838	15804
841.975	15785
842.112	15819
842.249	15709
842.385	15587
842.522	15812
842.659	15675
842.796	15698
842.933	15641
843.069	15584
843.206	15557
843.343	15770
843.479	15637
843.616	15816
843.752	15530
843.889	15572
844.025	15648
844.162	15420
844.298	15595
844.435	15336
844.571	15500
844.708	15553
844.844	15526
844.98	15644
845.117	15526
845.253	15515
845.389	15336
845.525	15412
845.661	15344
845.798	15192
845.934	15336
846.07	15302
846.206	15317
846.342	15443
846.478	15355
846.614	15020
846.75	14979
846.886	15005
847.022	15203
847.158	15074
847.294	15077
847.429	15066
847.565	14948
847.701	15218
847.837	14868
847.972	14800
848.108	14807
848.244	14758
848.379	14651
848.515	14674
848.65	14594
848.786	14617
848.921	14617
849.057	14788
849.192	14712
849.328	14720
849.463	14678
849.598	14587
849.734	14621
849.869	14530
850.004	14370
850.14	14446
850.275	14438
850.41	14248
850.545	14412
850.68	14370
850.815	14427
850.95	14358
851.085	14518
851.22	14587
851.355	14377
851.49	14374
851.625	14423
851.76	14328
851.895	14313
852.03	14278
852.165	14298
852.299	14309
852.434	14381
852.569	14358
852.703	14404
852.838	14431
852.973	14552
853.107	14594
853.242	14419
853.376	14275
853.511	14039
853.645	14267
853.78	14404
853.914	14271
854.048	14172
854.183	14172
854.317	14225
854.451	14343
854.585	14259
854.72	14221
854.854	14347
854.988	14206
855.122	14221
855.256	14084
855.39	14267
855.524	14377
855.658	14362
855.792	14240
855.926	14252
856.06	14229
856.194	14351
856.327	14343
856.461	14237
856.595	14119
856.729	14237
856.862	14324
856.996	14336
857.13	14275
857.263	14328
857.397	14339
857.53	14282
857.664	14351
857.797	14396
857.931	14324
858.064	14309
858.197	14377
858.331	14332
858.464	14187
858.597	14164
858.731	14240
858.864	14256
858.997	14229
859.13	14313
859.263	14396
859.396	14355
859.529	14221
859.662	14142
859.795	14206
859.928	14248
860.061	14419
860.194	14381
860.327	14339
860.46	14221
860.592	14385
860.725	14434
860.858	14317
860.99	14248
861.123	14153
861.256	14199
861.388	14214
861.521	14982
861.653	14130
861.786	14119
861.918	14126
862.05	14123
862.183	14252
862.315	14259
862.447	14317
862.58	14221
862.712	14054
862.844	14016
862.976	14183
863.108	14077
863.24	14377
863.372	13921
863.504	14027
863.636	13955
863.768	14183
863.9	14126
864.032	13997
864.164	14039
864.296	14039
864.428	14187
864.559	14096
864.691	14107
864.823	14001
864.954	14012
865.086	14035
865.217	14145
865.349	13997
865.48	14073
865.612	14035
865.743	14153
865.875	13997
866.006	14012
866.137	14005
866.269	14111
866.4	14043
866.531	13921
866.662	13974
866.793	14016
866.924	13993
867.055	14012
867.186	14077
867.317	13967
867.448	13925
867.579	14020
867.71	13887
867.841	13947
867.972	13989
868.103	14054
868.233	14123
868.364	14039
868.495	14096
868.625	14248
868.756	14412
868.886	14218
869.017	14206
869.147	14294
869.278	14434
869.408	14362
869.539	14305
869.669	14374
869.799	14362
869.929	14404
870.06	14419
870.19	14556
870.32	14514
870.45	14533
870.58	14750
870.71	14735
870.84	14781
870.97	14697
871.1	14629
871.23	14910
871.36	14952
871.489	14807
871.619	14880
871.749	14918
871.879	14849
872.008	15070
872.138	14952
872.267	14807
872.397	14838
872.526	14724
872.656	14693
872.785	14781
872.915	14963
873.044	15001
873.173	14899
873.303	14990
873.432	14994
873.561	15039
873.69	14815
873.819	14937
873.948	15070
874.077	14925
874.206	14883
874.335	14948
874.464	15013
874.593	15241
874.722	15184
874.851	15268
874.979	15249
875.108	15268
875.237	15138
875.365	15180
875.494	15169
875.623	15389
875.751	15112
875.88	15272
876.008	15382
876.136	15488
876.265	15599
876.393	15831
876.521	15705
876.65	15705
876.778	15713
876.906	15648
877.034	15553
877.162	15637
877.29	15587
877.418	15774
877.546	15709
877.674	15675
877.802	15675
877.93	15690
878.058	15679
878.185	15564
878.313	15622
878.441	15671
878.568	15462
878.696	15606
878.824	15656
878.951	15705
879.079	15785
879.206	15934
879.333	15781
879.461	15667
879.588	15770
879.715	15884
879.842	15987
879.97	15728
880.097	15545
880.224	15340
880.351	15572
880.478	15523
880.605	15488
880.732	15477
880.859	15781
880.986	15447
881.112	15629
881.239	15439
881.366	15310
881.493	15154
881.619	15241
881.746	15154
881.872	15169
881.999	15207
882.125	15157
882.252	15150
882.378	15176
882.505	15275
882.631	15104
882.757	14937
882.883	14960
883.01	14998
883.136	14902
883.262	14826
883.388	14712
883.514	14998
883.64	15108
883.766	14933
883.892	14712
884.018	14895
884.143	14986
884.269	15135
884.395	14644
884.52	14712
884.646	14697
884.772	14667
884.897	14594
885.023	14648
885.148	14880
885.274	14819
885.399	14830
885.524	14758
885.65	14568
885.775	14686
885.9	14689
886.025	14758
886.15	14731
886.275	14560
886.4	14625
886.525	14648
886.65	14571
886.775	14617
886.9	14815
887.025	14876
887.149	14701
887.274	14514
887.399	14492
887.523	14469
887.648	14522
887.773	14469
887.897	14526
888.021	14655
888.146	14484
888.27	14568
888.395	14644
888.519	14537
888.643	14594
888.767	14640
888.891	14446
889.015	14301
889.139	14400
889.263	14355
889.387	14415
889.511	14537
889.635	14499
889.759	14355
889.883	14377
890.006	14419
890.13	14450
890.254	14278
890.377	14377
890.501	14221
890.624	14103
890.748	14328
890.871	14161
890.995	14046
891.118	13917
891.241	14020
891.364	14081
891.488	14161
891.611	14130
891.734	14103
891.857	14210
891.98	14153
892.103	14164
892.226	14153
892.349	14035
892.471	13970
892.594	14126
892.717	14103
892.839	14016
892.962	14187
893.085	14115
893.207	14100
893.33	13986
893.452	13928
893.575	14183
893.697	14024
893.819	14202
893.941	14305
894.064	14259
894.186	13932
894.308	14024
894.43	14221
894.552	14339
894.674	14161
894.796	14016
894.918	14062
895.04	14027
895.161	14324
895.283	14157
895.405	14221
895.526	14138
895.648	14229
895.769	14225
895.891	14256
896.012	14229
896.134	14221
896.255	14298
896.376	14221
896.498	14225
896.619	14431
896.74	14267
896.861	14317
896.982	14644
897.103	14678
897.224	14587
897.345	14545
897.466	14457
897.587	14484
897.708	14667
897.828	14526
897.949	14442
898.07	14381
898.19	14484
898.311	14655
898.431	14480
898.552	14625
898.672	14731
898.792	14655
898.913	14610
899.033	14587
899.153	14419
899.273	14355
899.393	14374
899.513	14461
899.633	14446
899.753	14488
899.873	14423
899.993	14507
900.113	14484
900.232	14526
900.352	14461
900.472	14370
900.591	14309
900.711	14427
900.83	14328
900.95	14537
901.069	14469
901.189	14317
901.308	14039
901.427	14016
901.546	13925
901.665	14016
901.784	14096
901.904	13978
902.023	13776
902.141	13567
902.26	13559
902.379	13670
902.498	13571
902.617	13567
902.735	13639
902.854	13586
902.973	13529
903.091	13343
903.21	13358
903.328	13236
903.446	13331
903.565	13156
903.683	13244
903.801	13050
903.919	13206
904.038	13114
904.156	12924
904.274	13042
904.392	12977
904.51	12924
904.627	12878
904.745	13076
904.863	12985
904.981	12753
905.098	12654
905.216	12665
905.334	12642
905.451	12612
905.569	12608
905.686	12684
905.803	12669
905.921	12532
906.038	12574
906.155	12486
906.272	12350
906.389	12418
906.506	12270
906.623	12289
906.74	12163
906.857	12079
906.974	12194
907.091	12266
907.208	12418
907.324	12270
907.441	12197
907.557	11939
907.674	11969
907.79	11901
907.907	11980
908.023	11973
908.139	11927
908.256	11863
908.372	11821
908.488	11958
908.604	11745
908.72	11767
908.836	11790
908.952	11737
909.068	11737
909.184	11809
909.3	11786
909.415	11764
909.531	11786
909.647	11505
909.762	11532
909.878	11444
909.993	11474
910.108	11471
910.224	11414
910.339	11532
910.454	11395
910.57	11387
910.685	11296
910.8	11535
910.915	11490
911.03	11311
911.145	11181
911.259	11189
911.374	11227
911.489	11166
911.604	11075
911.718	10957
911.833	11003
911.947	10839
912.062	10831
912.176	10911
912.291	11003
912.405	10987
912.519	11121
912.633	11147
912.748	11075
912.862	11018
912.976	10847
913.09	10717
913.204	10790
913.318	10820
913.431	10908
913.545	10961
913.659	11048
913.772	10866
913.886	10736
914	10706
914.113	10831
914.226	10892
914.34	10721
914.453	10664
914.566	10847
914.68	10782
914.793	10611
914.906	10504
915.019	10474
915.132	10432
915.245	10474
915.358	10527
915.47	10546
915.583	10527
915.696	10580
915.809	10500
915.921	10622
916.034	10516
916.146	10333
916.259	10367
916.371	10405
916.483	10424
916.595	10417
916.708	10382
916.82	10440
916.932	10462
917.044	10474
917.156	10390
917.268	10265
917.38	10402
917.491	10295
917.603	10322
917.715	10402
917.826	10386
917.938	10314
918.049	10223
918.161	10322
918.272	10394
918.384	10481
918.495	10268
918.606	10169
918.717	10116
918.828	10204
918.939	10185
919.05	10150
919.161	10128
919.272	10006
919.383	10101
919.494	10291
919.604	10360
919.715	10227
919.826	10147
919.936	10196
920.047	10287
920.157	10211
920.267	10299
920.378	10238
920.488	10242
920.598	10421
920.708	10462
920.818	10375
920.928	10432
921.038	10497
921.148	10542
921.258	10234
921.368	10139
921.477	10116
921.587	10002
921.697	9945
921.806	10097
921.916	9945
922.025	9766
922.134	9736
922.244	9694
922.353	9793
922.462	9618
922.571	9606
922.68	9469
922.789	9393
922.898	9454
923.007	9359
923.116	9534
923.224	9485
923.333	9500
923.442	9378
923.55	9325
923.659	9351
923.767	9367
923.876	9291
923.984	9435
924.092	9294
924.201	9340
924.309	9260
924.417	9321
924.525	9222
924.633	9355
924.741	10029
924.849	9108
924.956	9291
925.064	9077
925.172	8998
925.279	9051
925.387	9116
925.494	9142
925.602	9214
925.709	9214
925.816	9058
925.924	9108
926.031	9245
926.138	9123
926.245	9138
926.352	9062
926.459	9142
926.566	9218
926.673	9047
926.779	8975
926.886	8994
926.993	8834
927.099	8826
927.206	8807
927.312	8792
927.419	8819
927.525	8823
927.631	8967
927.737	8754
927.843	8693
927.95	8625
928.056	8739
928.162	8705
928.267	8785
928.373	9401
928.479	8777
928.585	8568
928.69	8716
928.796	8731
928.901	8689
929.007	8545
929.112	8625
929.218	8655
929.323	8518
929.428	8533
929.533	8708
929.638	8518
929.743	8495
929.848	8651
929.953	8476
930.058	8442
930.163	8301
930.267	8381
930.372	8514
930.477	8313
930.581	8568
930.685	8419
930.79	8244
930.894	8313
930.998	8259
931.103	8393
931.207	8054
931.311	7989
931.415	7936
931.519	7803
931.623	7776
