Data from test_V78500241_1336.txt Node
Date: Fri Mar 25 14:43:01 CST 2022
User: usil
Spectrometer: V785-0024
Trigger mode: 0
Integration Time (sec): 4.000000E-1
Scans to average: 1
Nonlinearity correction enabled: false
Boxcar width: 0
Storing dark spectrum: false
XAxis mode: Wavelengths
Number of Pixels in Spectrum: 1024
>>>>>Begin Spectral Data<<<<<
801.071	22379
801.214	22360
801.356	22063
801.499	21838
801.641	21804
801.783	21808
801.926	21720
802.068	21781
802.211	21656
802.353	21526
802.496	21195
802.638	21211
802.78	21173
802.923	21150
803.065	21070
803.208	21051
803.35	21077
803.492	21173
803.635	21176
803.777	21074
803.919	21203
804.061	21412
804.204	21176
804.346	21020
804.488	20929
804.63	20990
804.773	20967
804.915	21024
805.057	21150
805.199	21180
805.341	21043
805.483	21135
805.626	20956
805.768	21043
805.91	21001
806.052	20994
806.194	20895
806.336	20960
806.478	21032
806.62	21032
806.762	21036
806.904	21237
807.046	21351
807.188	21351
807.33	21389
807.472	21382
807.614	21443
807.756	21393
807.898	21237
808.04	21123
808.182	21203
808.324	21344
808.465	21344
808.607	21511
808.749	21698
808.891	21690
809.033	21869
809.174	21663
809.316	21671
809.458	21580
809.6	21443
809.741	21443
809.883	21515
810.025	21701
810.166	21488
810.308	21603
810.45	21603
810.591	21431
810.733	21355
810.875	21310
811.016	21043
811.158	21081
811.299	21230
811.441	21287
811.582	21317
811.724	21249
811.865	21161
812.007	21116
812.148	21119
812.29	21138
812.431	21348
812.573	21450
812.714	21496
812.855	21622
812.997	21842
813.138	21899
813.279	21816
813.421	21637
813.562	21682
813.703	21488
813.845	21252
813.986	21112
814.127	20944
814.268	20773
814.41	20838
814.551	20800
814.692	20826
814.833	20697
814.974	20571
815.115	20788
815.256	20488
815.397	20564
815.539	20552
815.68	20533
815.821	20431
815.962	20617
816.103	20522
816.244	20301
816.385	20263
816.526	20202
816.666	20153
816.807	19898
816.948	20050
817.089	20062
817.23	19902
817.371	19841
817.512	19883
817.653	19940
817.793	19826
817.934	19883
818.075	19894
818.216	19902
818.356	19738
818.497	19704
818.638	19632
818.778	19567
818.919	19518
819.06	19601
819.2	19689
819.341	19772
819.481	19788
819.622	19936
819.762	20069
819.903	20012
820.043	19963
820.184	19917
820.324	19856
820.465	19993
820.605	19875
820.746	19947
820.886	19727
821.026	19917
821.167	19803
821.307	19959
821.447	19811
821.588	19670
821.728	19525
821.868	19449
822.008	19274
822.149	19198
822.289	19228
822.429	19118
822.569	19004
822.709	18837
822.849	18719
822.99	18817
823.13	18681
823.27	18779
823.41	18582
823.55	18467
823.69	18589
823.83	18757
823.97	18456
824.11	18315
824.25	18228
824.389	18319
824.529	18429
824.669	18277
824.809	18521
824.949	18490
825.089	18479
825.228	18441
825.368	18171
825.508	18228
825.648	18178
825.787	18186
825.927	18194
826.067	18095
826.206	18182
826.346	18182
826.485	18152
826.625	18144
826.765	18311
826.904	18068
827.044	17908
827.183	17786
827.323	17748
827.462	17817
827.601	17908
827.741	17878
827.88	17870
828.02	17707
828.159	17794
828.298	17817
828.437	17901
828.577	17805
828.716	17954
828.855	17836
828.994	17554
829.134	17543
829.273	17638
829.412	17589
829.551	17459
829.69	17581
829.829	17634
829.968	17741
830.107	17589
830.246	17604
830.385	17611
830.524	17497
830.663	17455
830.802	17410
830.941	17265
831.08	17170
831.219	17322
831.357	17311
831.496	17360
831.635	17140
831.774	17102
831.913	17113
832.051	17014
832.19	16972
832.329	17037
832.467	17052
832.606	16923
832.744	16930
832.883	16942
833.022	16843
833.16	16869
833.299	16949
833.437	16953
833.576	16980
833.714	16984
833.852	17010
833.991	16987
834.129	16976
834.267	17075
834.406	17033
834.544	16957
834.682	16995
834.821	16987
834.959	17052
835.097	16889
835.235	16961
835.373	16934
835.511	17022
835.65	16809
835.788	16889
835.926	16778
836.064	16752
836.202	16668
836.34	16896
836.478	16889
836.615	16793
836.753	16934
836.891	17003
837.029	16949
837.167	16835
837.305	16843
837.443	16713
837.58	16622
837.718	16771
837.856	16664
837.993	16577
838.131	16721
838.269	16668
838.406	16706
838.544	16546
838.681	16500
838.819	16459
838.956	16337
839.094	16265
839.231	16318
839.369	16470
839.506	16611
839.643	16512
839.781	16356
839.918	16314
840.055	16318
840.193	16325
840.33	16226
840.467	16314
840.604	16219
840.742	16481
840.879	16147
841.016	16154
841.153	16158
841.29	16295
841.427	16322
841.564	16265
841.701	16265
841.838	16162
841.975	16158
842.112	16128
842.249	16097
842.385	15998
842.522	16238
842.659	16067
842.796	15926
842.933	16013
843.069	15922
843.206	15953
843.343	16116
843.479	16013
843.616	16200
843.752	15800
843.889	15895
844.025	15987
844.162	15781
844.298	15941
844.435	15892
844.571	15778
844.708	15964
844.844	15972
844.98	16032
845.117	16048
845.253	15762
845.389	15720
845.525	15892
845.661	15907
845.798	15774
845.934	15945
846.07	15789
846.206	15876
846.342	15930
846.478	15903
846.614	15549
846.75	15420
846.886	15393
847.022	15576
847.158	15462
847.294	15393
847.429	15511
847.565	15359
847.701	15584
847.837	15203
847.972	15142
848.108	15218
848.244	15188
848.379	15116
848.515	15020
848.65	14975
848.786	14982
848.921	14929
849.057	15112
849.192	15028
849.328	15135
849.463	15097
849.598	15013
849.734	14944
849.869	14895
850.004	14769
850.14	14777
850.275	14785
850.41	14746
850.545	14606
850.68	14655
850.815	14785
850.95	14823
851.085	15005
851.22	14899
851.355	14819
851.49	14743
851.625	14712
851.76	14701
851.895	14674
852.03	14651
852.165	14800
852.299	14754
852.434	14861
852.569	14777
852.703	14773
852.838	14864
852.973	14883
853.107	14914
853.242	14667
853.376	14648
853.511	14545
853.645	14537
853.78	14792
853.914	14594
854.048	14613
854.183	14621
854.317	14697
854.451	14773
854.585	14648
854.72	14541
854.854	14777
854.988	14511
855.122	14598
855.256	14568
855.39	14625
855.524	14788
855.658	14632
855.792	14549
855.926	14655
856.06	14617
856.194	14796
856.327	14583
856.461	14640
856.595	14598
856.729	14632
856.862	14758
856.996	14708
857.13	14613
857.263	14701
857.397	14735
857.53	14686
857.664	14743
857.797	14777
857.931	14716
858.064	14598
858.197	14731
858.331	14697
858.464	14667
858.597	14579
858.731	14590
858.864	14613
858.997	14568
859.13	14670
859.263	14636
859.396	14674
859.529	14541
859.662	14579
859.795	14629
859.928	14579
860.061	14811
860.194	14842
860.327	14640
860.46	14552
860.592	14815
860.725	14773
860.858	14773
860.99	14590
861.123	14560
861.256	14499
861.388	14682
861.521	15321
861.653	14533
861.786	14484
861.918	14457
862.05	14556
862.183	14503
862.315	14602
862.447	14606
862.58	14590
862.712	14393
862.844	14339
862.976	14549
863.108	14473
863.24	14891
863.372	14328
863.504	14492
863.636	14423
863.768	14507
863.9	14450
864.032	14267
864.164	14290
864.296	14385
864.428	14571
864.559	14495
864.691	14476
864.823	14370
864.954	14469
865.086	14434
865.217	14347
865.349	14404
865.48	14446
865.612	14450
865.743	14518
865.875	14282
866.006	14237
866.137	14438
866.269	14454
866.4	14434
866.531	14393
866.662	14282
866.793	14370
866.924	14278
867.055	14377
867.186	14412
867.317	14381
867.448	14305
867.579	14320
867.71	14294
867.841	14229
867.972	14400
868.103	14313
868.233	14385
868.364	14358
868.495	14404
868.625	14594
868.756	14731
868.886	14564
869.017	14636
869.147	14800
869.278	14712
869.408	14686
869.539	14655
869.669	14590
869.799	14644
869.929	14712
870.06	14754
870.19	14921
870.32	14918
870.45	14971
870.58	15093
870.71	15108
870.84	15032
870.97	14967
871.1	14982
871.23	15127
871.36	15150
871.489	15127
871.619	15218
871.749	15207
871.879	15252
872.008	15344
872.138	15268
872.267	15218
872.397	15074
872.526	15032
872.656	15028
872.785	15119
872.915	15329
873.044	15370
873.173	15283
873.303	15230
873.432	15211
873.561	15302
873.69	15161
873.819	15218
873.948	15355
874.077	15230
874.206	15279
874.335	15294
874.464	15405
874.593	15542
874.722	15507
874.851	15606
874.979	15568
875.108	15534
875.237	15500
875.365	15401
875.494	15572
875.623	15663
875.751	15477
875.88	15701
876.008	15648
876.136	15720
876.265	16090
876.393	16109
876.521	16051
876.65	16120
876.778	16040
876.906	16002
877.034	15884
877.162	15934
877.29	15895
877.418	15991
877.546	16051
877.674	16021
877.802	15968
877.93	16017
878.058	16006
878.185	15865
878.313	15972
878.441	16044
878.568	15918
878.696	15956
878.824	15987
878.951	16078
879.079	16318
879.206	16413
879.333	16257
879.461	16154
879.588	16200
879.715	16284
879.842	16356
879.97	16162
880.097	15953
880.224	15861
880.351	15937
880.478	15895
880.605	15823
880.732	15869
880.859	16177
880.986	15895
881.112	15953
881.239	15903
881.366	15648
881.493	15530
881.619	15435
881.746	15641
881.872	15519
881.999	15485
882.125	15591
882.252	15572
882.378	15580
882.505	15663
882.631	15519
882.757	15310
882.883	15367
883.01	15340
883.136	15260
883.262	15203
883.388	15104
883.514	15336
883.64	15416
883.766	15294
883.892	15131
884.018	15214
884.143	15420
884.269	15450
884.395	15127
884.52	15157
884.646	15097
884.772	14982
884.897	14971
885.023	14971
885.148	15108
885.274	15245
885.399	15161
885.524	15020
885.65	15036
885.775	15085
885.9	15036
886.025	15138
886.15	15112
886.275	14960
886.4	14982
886.525	14994
886.65	15001
886.775	14944
886.9	15180
887.025	15310
887.149	15074
887.274	14834
887.399	14800
887.523	14864
887.648	14769
887.773	14876
887.897	14883
888.021	15001
888.146	14872
888.27	15047
888.395	15032
888.519	14960
888.643	14979
888.767	14937
888.891	14788
889.015	14735
889.139	14750
889.263	14720
889.387	14796
889.511	14872
889.635	14838
889.759	14564
889.883	14689
890.006	14705
890.13	14849
890.254	14663
890.377	14621
890.501	14438
890.624	14461
890.748	14610
890.871	14415
890.995	14355
891.118	14336
891.241	14431
891.364	14484
891.488	14480
891.611	14492
891.734	14457
891.857	14495
891.98	14374
892.103	14446
892.226	14324
892.349	14374
892.471	14286
892.594	14393
892.717	14454
892.839	14298
892.962	14377
893.085	14522
893.207	14419
893.33	14332
893.452	14393
893.575	14560
893.697	14408
893.819	14438
893.941	14651
894.064	14556
894.186	14461
894.308	14419
894.43	14484
894.552	14625
894.674	14594
894.796	14324
894.918	14415
895.04	14427
895.161	14495
895.283	14438
895.405	14484
895.526	14495
895.648	14495
895.769	14556
895.891	14541
896.012	14655
896.134	14629
896.255	14590
896.376	14492
896.498	14571
896.619	14670
896.74	14648
896.861	14602
896.982	14914
897.103	15039
897.224	14853
897.345	14758
897.466	14777
897.587	14826
897.708	14921
897.828	14834
897.949	14811
898.07	14689
898.19	14849
898.311	14921
898.431	14861
898.552	14948
898.672	14990
898.792	14937
898.913	14967
899.033	14788
899.153	14701
899.273	14598
899.393	14659
899.513	14838
899.633	14857
899.753	14746
899.873	14682
899.993	14845
900.113	14727
900.232	14773
900.352	14735
900.472	14731
900.591	14621
900.711	14606
900.83	14526
900.95	14640
901.069	14644
901.189	14556
901.308	14320
901.427	14298
901.546	14278
901.665	14324
901.784	14343
901.904	14065
902.023	14035
902.141	13879
902.26	13830
902.379	13913
902.498	13826
902.617	13746
902.735	13818
902.854	13849
902.973	13830
903.091	13487
903.21	13548
903.328	13613
903.446	13392
903.565	13540
903.683	13514
903.801	13236
903.919	13327
904.038	13438
904.156	13270
904.274	13343
904.392	13289
904.51	13122
904.627	13206
904.745	13217
904.863	13285
904.981	12970
905.098	12939
905.216	12852
905.334	12882
905.451	12859
905.569	12852
905.686	12977
905.803	12932
905.921	12730
906.038	12741
906.155	12669
906.272	12551
906.389	12681
906.506	12555
906.623	12566
906.74	12502
906.857	12433
906.974	12395
907.091	12536
907.208	12646
907.324	12502
907.441	12414
907.557	12254
907.674	12254
907.79	12209
907.907	12197
908.023	12140
908.139	12197
908.256	12243
908.372	12144
908.488	12186
908.604	12030
908.72	11999
908.836	11942
908.952	11931
909.068	12114
909.184	12091
909.3	12083
909.415	11996
909.531	12019
909.647	11783
909.762	11802
909.878	11802
909.993	11840
910.108	11794
910.224	11703
910.339	11748
910.454	11600
910.57	11608
910.685	11592
910.8	11855
910.915	11821
911.03	11676
911.145	11532
911.259	11391
911.374	11490
911.489	11364
911.604	11356
911.718	11208
911.833	11250
911.947	11155
912.062	11105
912.176	11204
912.291	11181
912.405	11231
912.519	11364
912.633	11398
912.748	11299
912.862	11216
912.976	11121
913.09	10991
913.204	11060
913.318	11090
913.431	11235
913.545	11124
913.659	11162
913.772	11041
913.886	10908
914	10984
914.113	11102
914.226	11075
914.34	11056
914.453	10904
914.566	11071
914.68	10968
914.793	10957
914.906	10809
915.019	10698
915.132	10653
915.245	10710
915.358	10774
915.47	10759
915.583	10774
915.696	10736
915.809	10877
915.921	10793
916.034	10672
916.146	10603
916.259	10664
916.371	10763
916.483	10759
916.595	10653
916.708	10611
916.82	10611
916.932	10683
917.044	10622
917.156	10668
917.268	10531
917.38	10466
917.491	10508
917.603	10512
917.715	10550
917.826	10645
917.938	10443
918.049	10470
918.161	10569
918.272	10664
918.384	10698
918.495	10497
918.606	10424
918.717	10280
918.828	10451
918.939	10443
919.05	10295
919.161	10428
919.272	10200
919.383	10303
919.494	10428
919.604	10687
919.715	10493
919.826	10344
919.936	10413
920.047	10538
920.157	10443
920.267	10710
920.378	10516
920.488	10386
920.598	10607
920.708	10725
920.818	10660
920.928	10626
921.038	10801
921.148	10706
921.258	10432
921.368	10325
921.477	10306
921.587	10291
921.697	10147
921.806	10211
921.916	10169
922.025	9926
922.134	9960
922.244	9960
922.353	10010
922.462	9850
922.571	9884
922.68	9709
922.789	9698
922.898	9580
923.007	9625
923.116	9671
923.224	9625
923.333	9679
923.442	9587
923.55	9576
923.659	9564
923.767	9648
923.876	9519
923.984	9606
924.092	9450
924.201	9599
924.309	9507
924.417	9534
924.525	9492
924.633	9538
924.741	10417
924.849	9260
924.956	9420
925.064	9302
925.172	9260
925.279	9241
925.387	9321
925.494	9294
925.602	9447
925.709	9389
925.816	9268
925.924	9272
926.031	9405
926.138	9367
926.245	9329
926.352	9222
926.459	9313
926.566	9389
926.673	9310
926.779	9222
926.886	9112
926.993	9108
927.099	9005
927.206	8967
927.312	8963
927.419	9051
927.525	9024
927.631	9047
927.737	8880
927.843	8914
927.95	8811
928.056	8910
928.162	8823
928.267	8910
928.373	9564
928.479	8929
928.585	8720
928.69	8826
928.796	8902
928.901	8826
929.007	8705
929.112	8845
929.218	8720
929.323	8739
929.428	8731
929.533	8883
929.638	8640
929.743	8705
929.848	8777
929.953	8746
930.058	8636
930.163	8423
930.267	8442
930.372	8575
930.477	8438
930.581	8636
930.685	8571
930.79	8419
930.894	8503
930.998	8381
931.103	8495
931.207	8210
931.311	8195
931.415	8069
931.519	7921
931.623	7898
