Data from test_V78500241_511.txt Node
Date: Fri Mar 25 14:37:16 CST 2022
User: usil
Spectrometer: V785-0024
Trigger mode: 0
Integration Time (sec): 4.000000E-1
Scans to average: 1
Nonlinearity correction enabled: false
Boxcar width: 0
Storing dark spectrum: false
XAxis mode: Wavelengths
Number of Pixels in Spectrum: 1024
>>>>>Begin Spectral Data<<<<<
801.071	26979
801.214	26918
801.356	26659
801.499	26499
801.641	26613
801.783	26389
801.926	26507
802.068	26358
802.211	26317
802.353	26206
802.496	25906
802.638	25879
802.78	25776
802.923	25803
803.065	25685
803.208	25906
803.35	25803
803.492	25883
803.635	26012
803.777	25875
803.919	25925
804.061	26210
804.204	25845
804.346	25818
804.488	25830
804.63	25791
804.773	25696
804.915	25860
805.057	25978
805.199	25803
805.341	25871
805.483	26020
805.626	25970
805.768	25742
805.91	25906
806.052	25887
806.194	25845
806.336	26058
806.478	25909
806.62	25970
806.762	26065
806.904	26309
807.046	26602
807.188	26484
807.33	26480
807.472	26724
807.614	26712
807.756	26823
807.898	26739
808.04	26906
808.182	27180
808.324	27431
808.465	27884
808.607	28337
808.749	28645
808.891	28927
809.033	29083
809.174	28755
809.316	28314
809.458	27949
809.6	27564
809.741	27382
809.883	27272
810.025	27085
810.166	27005
810.308	26792
810.45	26807
810.591	26583
810.733	26499
810.875	26408
811.016	26358
811.158	26275
811.299	26404
811.441	26400
811.582	26499
811.724	26317
811.865	26115
812.007	26119
812.148	26347
812.29	26286
812.431	26218
812.573	26305
812.714	26499
812.855	26746
812.997	26727
813.138	26929
813.279	26781
813.421	26560
813.562	26434
813.703	26343
813.845	26282
813.986	26096
814.127	25879
814.268	25772
814.41	25696
814.551	25677
814.692	25852
814.833	25635
814.974	25655
815.115	25571
815.256	25476
815.397	25468
815.539	25453
815.68	25365
815.821	25327
815.962	25407
816.103	25244
816.244	25240
816.385	25072
816.526	25053
816.666	24806
816.807	24795
816.948	24856
817.089	24954
817.23	24734
817.371	24688
817.512	24696
817.653	24787
817.793	24692
817.934	24726
818.075	24768
818.216	24829
818.356	24692
818.497	24555
818.638	24414
818.778	24452
818.919	24369
819.06	24433
819.2	24441
819.341	24688
819.481	24661
819.622	24859
819.762	25084
819.903	25034
820.043	24882
820.184	24776
820.324	24703
820.465	24776
820.605	24722
820.746	24711
820.886	24517
821.026	24684
821.167	24719
821.307	24798
821.447	24661
821.588	24639
821.728	24346
821.868	24273
822.008	24072
822.149	24060
822.289	23958
822.429	23764
822.569	23710
822.709	23661
822.849	23474
822.99	23509
823.13	23391
823.27	23334
823.41	23467
823.55	23162
823.69	23265
823.83	23223
823.97	23178
824.11	23044
824.25	22904
824.389	23071
824.529	23124
824.669	23037
824.809	23159
824.949	23124
825.089	23178
825.228	22991
825.368	22885
825.508	22873
825.648	22934
825.787	22862
825.927	22862
826.067	22801
826.206	22683
826.346	22889
826.485	22850
826.625	22843
826.765	22896
826.904	22908
827.044	22561
827.183	22634
827.323	22440
827.462	22546
827.601	22466
827.741	22493
827.88	22489
828.02	22337
828.159	22527
828.298	22550
828.437	22500
828.577	22394
828.716	22508
828.855	22341
828.994	22207
829.134	22116
829.273	22261
829.412	22067
829.551	22128
829.69	22082
829.829	22181
829.968	22169
830.107	22230
830.246	22150
830.385	22109
830.524	22055
830.663	21968
830.802	21903
830.941	21857
831.08	21850
831.219	21895
831.357	21846
831.496	21926
831.635	21800
831.774	21679
831.913	21564
832.051	21572
832.19	21515
832.329	21534
832.467	21485
832.606	21325
832.744	21306
832.883	21466
833.022	21370
833.16	21580
833.299	21523
833.437	21412
833.576	21561
833.714	21526
833.852	21557
833.991	21534
834.129	21614
834.267	21644
834.406	21595
834.544	21576
834.682	21580
834.821	21473
834.959	21682
835.097	21454
835.235	21443
835.373	21507
835.511	21500
835.65	21367
835.788	21344
835.926	21104
836.064	21093
836.202	21112
836.34	21313
836.478	21310
836.615	21256
836.753	21329
836.891	21340
837.029	21348
837.167	21112
837.305	21226
837.443	21142
837.58	21100
837.718	21127
837.856	21176
837.993	21020
838.131	21066
838.269	21062
838.406	21005
838.544	20979
838.681	20826
838.819	20758
838.956	20629
839.094	20636
839.231	20575
839.369	20697
839.506	21001
839.643	20777
839.781	20621
839.918	20518
840.055	20507
840.193	20511
840.33	20400
840.467	20583
840.604	20484
840.742	20705
840.879	20393
841.016	20541
841.153	20434
841.29	20488
841.427	20541
841.564	20412
841.701	20511
841.838	20450
841.975	20343
842.112	20294
842.249	20157
842.385	20153
842.522	20351
842.659	20237
842.796	20183
842.933	20221
843.069	20168
843.206	20195
843.343	20339
843.479	20195
843.616	20237
843.752	20088
843.889	19997
844.025	20157
844.162	20058
844.298	20172
844.435	19982
844.571	19989
844.708	20115
844.844	20271
844.98	20290
845.117	20381
845.253	20263
845.389	20415
845.525	20807
845.661	21378
845.798	22070
845.934	22607
846.07	22824
846.206	22850
846.342	22504
846.478	21682
846.614	20735
846.75	20202
846.886	19818
847.022	19845
847.158	19518
847.294	19491
847.429	19533
847.565	19544
847.701	19753
847.837	19221
847.972	19213
848.108	19324
848.244	19198
848.379	18977
848.515	19095
848.65	18977
848.786	19004
848.921	19004
849.057	19160
849.192	19171
849.328	19034
849.463	18928
849.598	19015
849.734	18905
849.869	18840
850.004	18688
850.14	18783
850.275	18696
850.41	18658
850.545	18768
850.68	18700
850.815	18673
850.95	18734
851.085	18905
851.22	18726
851.355	18658
851.49	18566
851.625	18646
851.76	18635
851.895	18483
852.03	18582
852.165	18726
852.299	18669
852.434	18768
852.569	18658
852.703	18700
852.838	18738
852.973	18768
853.107	18764
853.242	18601
853.376	18517
853.511	18452
853.645	18486
853.78	18635
853.914	18601
854.048	18517
854.183	18589
854.317	18582
854.451	18700
854.585	18566
854.72	18585
854.854	18669
854.988	18471
855.122	18540
855.256	18388
855.39	18490
855.524	18585
855.658	18582
855.792	18513
855.926	18471
856.06	18536
856.194	18620
856.327	18517
856.461	18483
856.595	18403
856.729	18422
856.862	18578
856.996	18441
857.13	18570
857.263	18570
857.397	18513
857.53	18486
857.664	18528
857.797	18612
857.931	18547
858.064	18555
858.197	18544
858.331	18521
858.464	18437
858.597	18334
858.731	18445
858.864	18369
858.997	18445
859.13	18448
859.263	18513
859.396	18479
859.529	18384
859.662	18448
859.795	18475
859.928	18380
860.061	18536
860.194	18574
860.327	18452
860.46	18414
860.592	18597
860.725	18574
860.858	18582
860.99	18448
861.123	18426
861.256	18330
861.388	18372
861.521	19168
861.653	18338
861.786	18292
861.918	18407
862.05	18471
862.183	18426
862.315	18536
862.447	18437
862.58	18456
862.712	18251
862.844	18262
862.976	18247
863.108	18311
863.24	18635
863.372	18102
863.504	18098
863.636	18216
863.768	18334
863.9	18167
864.032	18041
864.164	18159
864.296	18133
864.428	18289
864.559	18232
864.691	18270
864.823	18133
864.954	18197
865.086	18148
865.217	18152
865.349	18038
865.48	18068
865.612	18136
865.743	18281
865.875	18053
866.006	18148
866.137	18129
866.269	18057
866.4	18045
866.531	18060
866.662	18022
866.793	17950
866.924	18003
867.055	17969
867.186	18019
867.317	17904
867.448	18007
867.579	17821
867.71	17859
867.841	17920
867.972	18034
868.103	18022
868.233	18095
868.364	18102
868.495	18007
868.625	18262
868.756	18403
868.886	18163
869.017	18296
869.147	18380
869.278	18319
869.408	18235
869.539	18152
869.669	18350
869.799	18296
869.929	18388
870.06	18327
870.19	18582
870.32	18608
870.45	18646
870.58	18658
870.71	18707
870.84	18749
870.97	18760
871.1	18711
871.23	18696
871.36	18920
871.489	18741
871.619	18848
871.749	18810
871.879	18905
872.008	19004
872.138	18863
872.267	18852
872.397	18810
872.526	18692
872.656	18802
872.785	18703
872.915	18993
873.044	18890
873.173	18958
873.303	18989
873.432	18886
873.561	19080
873.69	18863
873.819	19042
873.948	18989
874.077	18924
874.206	18962
874.335	19031
874.464	19091
874.593	19346
874.722	19232
874.851	19358
874.979	19331
875.108	19350
875.237	19213
875.365	19091
875.494	19217
875.623	19255
875.751	19175
875.88	19293
876.008	19263
876.136	19377
876.265	19719
876.393	19628
876.521	19666
876.65	19628
876.778	19624
876.906	19620
877.034	19670
877.162	19655
877.29	19613
877.418	19875
877.546	19708
877.674	19765
877.802	19864
877.93	19830
878.058	19780
878.185	19677
878.313	19860
878.441	19894
878.568	19689
878.696	19807
878.824	19959
878.951	20252
879.079	20442
879.206	20785
879.333	20952
879.461	21108
879.588	21313
879.715	21294
879.842	21340
879.97	20796
880.097	20457
880.224	20267
880.351	20191
880.478	20001
880.605	19887
880.732	19871
880.859	20130
880.986	19852
881.112	19887
881.239	19784
881.366	19643
881.493	19582
881.619	19624
881.746	19403
881.872	19567
881.999	19487
882.125	19373
882.252	19537
882.378	19449
882.505	19628
882.631	19457
882.757	19228
882.883	19251
883.01	19308
883.136	19270
883.262	19164
883.388	19069
883.514	19282
883.64	19266
883.766	19198
883.892	19015
884.018	19015
884.143	19179
884.269	19339
884.395	19000
884.52	18886
884.646	19012
884.772	18894
884.897	18856
885.023	19031
885.148	18962
885.274	18962
885.399	18981
885.524	18916
885.65	18848
885.775	18757
885.9	18798
886.025	19027
886.15	18859
886.275	18681
886.4	18707
886.525	18673
886.65	18578
886.775	18604
886.9	18821
887.025	18920
887.149	18623
887.274	18544
887.399	18486
887.523	18521
887.648	18448
887.773	18350
887.897	18521
888.021	18486
888.146	18441
888.27	18475
888.395	18604
888.519	18357
888.643	18475
888.767	18448
888.891	18391
889.015	18201
889.139	18224
889.263	18167
889.387	18357
889.511	18311
889.635	18433
889.759	18102
889.883	18205
890.006	18171
890.13	18342
890.254	18152
890.377	18190
890.501	18007
890.624	17931
890.748	18026
890.871	17840
890.995	17840
891.118	17653
891.241	17718
891.364	17817
891.488	17973
891.611	17802
891.734	17813
891.857	17832
891.98	17802
892.103	17885
892.226	17790
892.349	17657
892.471	17471
892.594	17729
892.717	17718
892.839	17615
892.962	17703
893.085	17752
893.207	17687
893.33	17581
893.452	17558
893.575	17649
893.697	17589
893.819	17790
893.941	17882
894.064	17741
894.186	17703
894.308	17509
894.43	17653
894.552	17901
894.674	17722
894.796	17585
894.918	17619
895.04	17699
895.161	17695
895.283	17756
895.405	17646
895.526	17684
895.648	17634
895.769	17691
895.891	17836
896.012	17802
896.134	17817
896.255	17722
896.376	17741
896.498	17737
896.619	17756
896.74	17680
896.861	17870
896.982	18079
897.103	18292
897.224	17950
897.345	17916
897.466	17908
897.587	17942
897.708	18083
897.828	18019
897.949	17973
898.07	17790
898.19	17855
898.311	17988
898.431	17946
898.552	17999
898.672	18041
898.792	18038
898.913	18019
899.033	17882
899.153	17805
899.273	17657
899.393	17684
899.513	17802
899.633	17790
899.753	17741
899.873	17672
899.993	17722
900.113	17760
900.232	17832
900.352	17771
900.472	17615
900.591	17665
900.711	17627
900.83	17516
900.95	17745
901.069	17783
901.189	17539
901.308	17345
901.427	17124
901.546	17360
901.665	17258
901.784	17132
901.904	17105
902.023	16908
902.141	16847
902.26	16706
902.379	16847
902.498	16725
902.617	16694
902.735	16618
902.854	16664
902.973	16679
903.091	16386
903.21	16421
903.328	16394
903.446	16306
903.565	16219
903.683	16242
903.801	16051
903.919	16166
904.038	16128
904.156	16078
904.274	16059
904.392	15911
904.51	16082
904.627	16006
904.745	15983
904.863	16032
904.981	15835
905.098	15561
905.216	15709
905.334	15603
905.451	15622
905.569	15504
905.686	15739
905.803	15717
905.921	15466
906.038	15576
906.155	15443
906.272	15344
906.389	15389
906.506	15230
906.623	15249
906.74	15176
906.857	15013
906.974	15119
907.091	15256
907.208	15287
907.324	15230
907.441	15036
907.557	14891
907.674	14845
907.79	14697
907.907	14918
908.023	14891
908.139	14861
908.256	14826
908.372	14716
908.488	14765
908.604	14648
908.72	14564
908.836	14640
908.952	14526
909.068	14644
909.184	14743
909.3	14583
909.415	14545
909.531	14514
909.647	14282
909.762	14172
909.878	14210
909.993	14313
910.108	14012
910.224	14199
910.339	14358
910.454	14237
910.57	14084
910.685	14001
910.8	14324
910.915	14256
911.03	14138
911.145	13887
911.259	13947
911.374	13856
911.489	13883
911.604	13795
911.718	13651
911.833	13616
911.947	13552
912.062	13502
912.176	13537
912.291	13594
912.405	13685
912.519	13769
912.633	13811
912.748	13674
912.862	13582
912.976	13453
913.09	13434
913.204	13422
913.318	13438
913.431	13533
913.545	13434
913.659	13559
913.772	13457
913.886	13377
914	13259
914.113	13312
914.226	13438
914.34	13362
914.453	13301
914.566	13400
914.68	13236
914.793	13110
914.906	13031
915.019	13034
915.132	13012
915.245	12970
915.358	13000
915.47	13023
915.583	12966
915.696	13031
915.809	13095
915.921	13152
916.034	12973
916.146	12981
916.259	12894
916.371	12981
916.483	12939
916.595	12844
916.708	12935
916.82	12928
916.932	12791
917.044	12863
917.156	12840
917.268	12688
917.38	12734
917.491	12722
917.603	12734
917.715	12757
917.826	12848
917.938	12646
918.049	12578
918.161	12745
918.272	12867
918.384	12760
918.495	12753
918.606	12593
918.717	12479
918.828	12525
918.939	12471
919.05	12441
919.161	12441
919.272	12224
919.383	12353
919.494	12433
919.604	12738
919.715	12540
919.826	12361
919.936	12433
920.047	12555
920.157	12559
920.267	12604
920.378	12513
920.488	12528
920.598	12608
920.708	12817
920.818	12639
920.928	12616
921.038	12783
921.148	12681
921.258	12388
921.368	12323
921.477	12289
921.587	12194
921.697	12178
921.806	12353
921.916	12106
922.025	12076
922.134	11984
922.244	11920
922.353	11939
922.462	11802
922.571	11722
922.68	11627
922.789	11543
922.898	11653
923.007	11535
923.116	11535
923.224	11501
923.333	11509
923.442	11532
923.55	11368
923.659	11448
923.767	11589
923.876	11349
923.984	11402
924.092	11303
924.201	11345
924.309	11349
924.417	11455
924.525	11326
924.633	11379
924.741	12247
924.849	11201
924.956	11280
925.064	11121
925.172	11067
925.279	11079
925.387	11113
925.494	11117
925.602	11311
925.709	11208
925.816	11117
925.924	11185
926.031	11174
926.138	11075
926.245	11105
926.352	11041
926.459	11136
926.566	11083
926.673	11083
926.779	11018
926.886	10957
926.993	10782
927.099	10717
927.206	10687
927.312	10645
927.419	10793
927.525	10694
927.631	10717
927.737	10656
927.843	10603
927.95	10523
928.056	10558
928.162	10577
928.267	10618
928.373	11201
928.479	10691
928.585	10428
928.69	10660
928.796	10573
928.901	10493
929.007	10360
929.112	10508
929.218	10379
929.323	10360
929.428	10379
929.533	10497
929.638	10227
929.743	10314
929.848	10405
929.953	10257
930.058	10230
930.163	10131
930.267	10040
930.372	10280
930.477	10090
930.581	10352
930.685	10204
930.79	10025
930.894	10017
930.998	9922
931.103	10097
931.207	9736
931.311	9679
931.415	9599
931.519	9435
931.623	9424
