Data from test_V78500241_558.txt Node
Date: Fri Mar 25 14:37:36 CST 2022
User: usil
Spectrometer: V785-0024
Trigger mode: 0
Integration Time (sec): 4.000000E-1
Scans to average: 1
Nonlinearity correction enabled: false
Boxcar width: 0
Storing dark spectrum: false
XAxis mode: Wavelengths
Number of Pixels in Spectrum: 1024
>>>>>Begin Spectral Data<<<<<
801.071	27728
801.214	27553
801.356	27374
801.499	27249
801.641	27233
801.783	27077
801.926	27127
802.068	26933
802.211	26929
802.353	26834
802.496	26678
802.638	26575
802.78	26549
802.923	26545
803.065	26442
803.208	26670
803.35	26625
803.492	26560
803.635	26712
803.777	26648
803.919	26727
804.061	26902
804.204	26686
804.346	26476
804.488	26590
804.63	26773
804.773	26686
804.915	26731
805.057	26735
805.199	26785
805.341	26861
805.483	27017
805.626	26960
805.768	26876
805.91	26982
806.052	27096
806.194	27108
806.336	27351
806.478	27233
806.62	27245
806.762	27538
806.904	27838
807.046	28322
807.188	28249
807.33	28573
807.472	28809
807.614	28968
807.756	29592
807.898	30057
808.04	30620
808.182	31731
808.324	32921
808.465	34405
808.607	36076
808.749	37502
808.891	38202
809.033	38480
809.174	37457
809.316	35939
809.458	34291
809.6	32583
809.741	31510
809.883	30616
810.025	29851
810.166	29497
810.308	29014
810.45	28637
810.591	28485
810.733	28036
810.875	27850
811.016	27614
811.158	27538
811.299	27656
811.441	27713
811.582	27644
811.724	27386
811.865	27218
812.007	27192
812.148	27203
812.29	27077
812.431	27268
812.573	27408
812.714	27427
812.855	27511
812.997	27439
813.138	27762
813.279	27682
813.421	27545
813.562	27450
813.703	27192
813.845	26982
813.986	26777
814.127	26549
814.268	26450
814.41	26533
814.551	26484
814.692	26461
814.833	26263
814.974	26320
815.115	26233
815.256	26191
815.397	26294
815.539	26130
815.68	26161
815.821	25830
815.962	26046
816.103	25966
816.244	25898
816.385	25818
816.526	25525
816.666	25502
816.807	25510
816.948	25529
817.089	25396
817.23	25365
817.371	25384
817.512	25263
817.653	25221
817.793	25350
817.934	25346
818.075	25354
818.216	25301
818.356	25304
818.497	25240
818.638	25027
818.778	25050
818.919	24970
819.06	25141
819.2	25251
819.341	25141
819.481	25084
819.622	25369
819.762	25479
819.903	25483
820.043	25453
820.184	25335
820.324	25190
820.465	25293
820.605	25259
820.746	25194
820.886	25038
821.026	25129
821.167	25190
821.307	25141
821.447	25061
821.588	24878
821.728	24722
821.868	24677
822.008	24479
822.149	24513
822.289	24426
822.429	24308
822.569	24129
822.709	24174
822.849	24041
822.99	24053
823.13	23954
823.27	23859
823.41	23764
823.55	23596
823.69	23676
823.83	23756
823.97	23707
824.11	23646
824.25	23482
824.389	23486
824.529	23512
824.669	23471
824.809	23615
824.949	23528
825.089	23585
825.228	23455
825.368	23128
825.508	23284
825.648	23288
825.787	23261
825.927	23250
826.067	23193
826.206	23242
826.346	23307
826.485	23261
826.625	23200
826.765	23372
826.904	23318
827.044	23060
827.183	22953
827.323	22972
827.462	22976
827.601	22892
827.741	22877
827.88	22942
828.02	22740
828.159	22961
828.298	22862
828.437	23006
828.577	22759
828.716	22949
828.855	22854
828.994	22630
829.134	22596
829.273	22580
829.412	22478
829.551	22565
829.69	22660
829.829	22710
829.968	22771
830.107	22710
830.246	22603
830.385	22508
830.524	22428
830.663	22341
830.802	22192
830.941	22318
831.08	22215
831.219	22261
831.357	22211
831.496	22284
831.635	22162
831.774	21975
831.913	22143
832.051	21960
832.19	21949
832.329	21983
832.467	21934
832.606	21831
832.744	21816
832.883	22074
833.022	21926
833.16	22051
833.299	22078
833.437	22246
833.576	22223
833.714	22173
833.852	22394
833.991	22371
834.129	22459
834.267	22535
834.406	22417
834.544	22440
834.682	22360
834.821	22276
834.959	22398
835.097	22112
835.235	22226
835.373	22059
835.511	21998
835.65	21941
835.788	21797
835.926	21595
836.064	21568
836.202	21717
836.34	21781
836.478	21690
836.615	21660
836.753	21671
836.891	21793
837.029	21648
837.167	21610
837.305	21599
837.443	21519
837.58	21477
837.718	21599
837.856	21587
837.993	21572
838.131	21447
838.269	21317
838.406	21386
838.544	21359
838.681	21344
838.819	21112
838.956	20979
839.094	20834
839.231	21108
839.369	21089
839.506	21272
839.643	21039
839.781	20971
839.918	20792
840.055	20868
840.193	20914
840.33	20906
840.467	20838
840.604	20823
840.742	21131
840.879	20648
841.016	20765
841.153	20750
841.29	20880
841.427	20876
841.564	20918
841.701	20758
841.838	20788
841.975	20788
842.112	20781
842.249	20648
842.385	20549
842.522	20735
842.659	20590
842.796	20552
842.933	20667
843.069	20625
843.206	20568
843.343	20689
843.479	20655
843.616	20636
843.752	20571
843.889	20518
844.025	20579
844.162	20556
844.298	20693
844.435	20785
844.571	20750
844.708	20975
844.844	21184
844.98	21351
845.117	21591
845.253	21945
845.389	22740
845.525	24422
845.661	26906
845.798	30304
845.934	33074
846.07	33975
846.206	33393
846.342	31571
846.478	28029
846.614	25206
846.75	23185
846.886	21972
847.022	21283
847.158	20842
847.294	20526
847.429	20374
847.565	20161
847.701	20275
847.837	19814
847.972	19700
848.108	19883
848.244	19845
848.379	19658
848.515	19601
848.65	19590
848.786	19449
848.921	19499
849.057	19533
849.192	19590
849.328	19544
849.463	19331
849.598	19491
849.734	19244
849.869	19346
850.004	19129
850.14	19297
850.275	19137
850.41	19168
850.545	19099
850.68	19107
850.815	19046
850.95	19137
851.085	19301
851.22	19240
851.355	19103
851.49	19114
851.625	19091
851.76	19107
851.895	19133
852.03	18981
852.165	19088
852.299	19225
852.434	19316
852.569	19190
852.703	19171
852.838	19213
852.973	19457
853.107	19232
853.242	19114
853.376	19110
853.511	18985
853.645	19133
853.78	19175
853.914	19099
854.048	19190
854.183	19164
854.317	19236
854.451	19297
854.585	19069
854.72	19107
854.854	19282
854.988	19046
855.122	19053
855.256	18951
855.39	19107
855.524	18966
855.658	19019
855.792	19126
855.926	19038
856.06	19076
856.194	19072
856.327	18939
856.461	18928
856.595	18840
856.729	18814
856.862	19027
856.996	19019
857.13	19031
857.263	18996
857.397	19152
857.53	18848
857.664	19000
857.797	18996
857.931	18989
858.064	18966
858.197	18951
858.331	18764
858.464	18859
858.597	18760
858.731	18897
858.864	18970
858.997	18935
859.13	18875
859.263	18916
859.396	18844
859.529	18783
859.662	18745
859.795	18722
859.928	18924
860.061	18886
860.194	19015
860.327	18772
860.46	18848
860.592	19050
860.725	18905
860.858	18905
860.99	18795
861.123	18722
861.256	18741
861.388	18821
861.521	19529
861.653	18745
861.786	18574
861.918	18703
862.05	18829
862.183	18757
862.315	18837
862.447	18882
862.58	18810
862.712	18517
862.844	18528
862.976	18604
863.108	18631
863.24	18958
863.372	18490
863.504	18582
863.636	18452
863.768	18623
863.9	18597
864.032	18380
864.164	18471
864.296	18585
864.428	18623
864.559	18582
864.691	18452
864.823	18479
864.954	18578
865.086	18475
865.217	18578
865.349	18353
865.48	18490
865.612	18483
865.743	18441
865.875	18494
866.006	18422
866.137	18391
866.269	18289
866.4	18376
866.531	18327
866.662	18292
866.793	18357
866.924	18327
867.055	18342
867.186	18471
867.317	18422
867.448	18319
867.579	18353
867.71	18300
867.841	18353
867.972	18376
868.103	18426
868.233	18380
868.364	18399
868.495	18525
868.625	18612
868.756	18692
868.886	18525
869.017	18521
869.147	18711
869.278	18741
869.408	18719
869.539	18650
869.669	18798
869.799	18719
869.929	18684
870.06	18700
870.19	18875
870.32	19050
870.45	18985
870.58	19076
870.71	19091
870.84	19209
870.97	19076
871.1	19076
871.23	19213
871.36	19266
871.489	19126
871.619	19289
871.749	19301
871.879	19266
872.008	19396
872.138	19274
872.267	19327
872.397	19095
872.526	19179
872.656	19168
872.785	19103
872.915	19415
873.044	19430
873.173	19422
873.303	19518
873.432	19506
873.561	19571
873.69	19510
873.819	19480
873.948	19559
874.077	19575
874.206	19373
874.335	19480
874.464	19518
874.593	19757
874.722	19742
874.851	19871
874.979	19868
875.108	19860
875.237	19852
875.365	19765
875.494	19955
875.623	19928
875.751	19883
875.88	19830
876.008	20103
876.136	20286
876.265	20514
876.393	20564
876.521	20545
876.65	20560
876.778	20511
876.906	20434
877.034	20549
877.162	20454
877.29	20533
877.418	20777
877.546	20697
877.674	20739
877.802	20891
877.93	20834
878.058	20979
878.185	20937
878.313	21119
878.441	21298
878.568	21256
878.696	21739
878.824	22196
878.951	22634
879.079	23455
879.206	24623
879.333	25689
879.461	26377
879.588	26902
879.715	26845
879.842	26609
879.97	25518
880.097	24361
880.224	23535
880.351	23105
880.478	22546
880.605	22192
880.732	22116
880.859	22341
880.986	21895
881.112	21884
881.239	21698
881.366	21485
881.493	21606
881.619	21553
881.746	21507
881.872	21603
881.999	21488
882.125	21515
882.252	21587
882.378	21610
882.505	21583
882.631	21492
882.757	21283
882.883	21507
883.01	21302
883.136	21279
883.262	21214
883.388	21154
883.514	21298
883.64	21351
883.766	21241
883.892	21024
884.018	21093
884.143	21367
884.269	21370
884.395	21028
884.52	21062
884.646	20982
884.772	20979
884.897	20902
885.023	21100
885.148	21043
885.274	20986
885.399	20944
885.524	20918
885.65	20819
885.775	20735
885.9	20636
886.025	20575
886.15	20568
886.275	20514
886.4	20389
886.525	20305
886.65	20138
886.775	20229
886.9	20275
887.025	20370
887.149	20058
887.274	19811
887.399	19772
887.523	19784
887.648	19677
887.773	19480
887.897	19776
888.021	19597
888.146	19441
888.27	19681
888.395	19578
888.519	19635
888.643	19544
888.767	19632
888.891	19472
889.015	19187
889.139	19293
889.263	19236
889.387	19308
889.511	19388
889.635	19282
889.759	19137
889.883	19213
890.006	19148
890.13	19343
890.254	19107
890.377	19038
890.501	18958
890.624	18852
890.748	18901
890.871	18817
890.995	18661
891.118	18681
891.241	18574
891.364	18642
891.488	18665
891.611	18490
891.734	18479
891.857	18559
891.98	18585
892.103	18620
892.226	18513
892.349	18498
892.471	18369
892.594	18448
892.717	18467
892.839	18365
892.962	18445
893.085	18471
893.207	18273
893.33	18178
893.452	18216
893.575	18319
893.697	18232
893.819	18498
893.941	18407
894.064	18380
894.186	18171
894.308	18121
894.43	18304
894.552	18315
894.674	18467
894.796	18144
894.918	18163
895.04	18125
895.161	18121
895.283	18270
895.405	18136
895.526	18114
895.648	18140
895.769	18239
895.891	18308
896.012	18163
896.134	18209
896.255	18292
896.376	18213
896.498	18083
896.619	18281
896.74	18205
896.861	18323
896.982	18608
897.103	18776
897.224	18422
897.345	18304
897.466	18350
897.587	18490
897.708	18460
897.828	18407
897.949	18346
898.07	18323
898.19	18311
898.311	18517
898.431	18232
898.552	18315
898.672	18456
898.792	18490
898.913	18521
899.033	18277
899.153	18327
899.273	18152
899.393	18178
899.513	18232
899.633	18277
899.753	18194
899.873	18117
899.993	18110
900.113	18068
900.232	18102
900.352	18133
900.472	18129
900.591	18011
900.711	17977
900.83	17889
900.95	18072
901.069	18045
901.189	17927
901.308	17684
901.427	17665
901.546	17585
901.665	17665
901.784	17596
901.904	17421
902.023	17296
902.141	17174
902.26	17170
902.379	17185
902.498	17003
902.617	16911
902.735	17086
902.854	17006
902.973	16942
903.091	16790
903.21	16668
903.328	16744
903.446	16596
903.565	16538
903.683	16584
903.801	16352
903.919	16516
904.038	16466
904.156	16322
904.274	16440
904.392	16249
904.51	16344
904.627	16234
904.745	16352
904.863	16246
904.981	16044
905.098	15979
905.216	15884
905.334	15987
905.451	15930
905.569	15975
905.686	15934
905.803	15895
905.921	15675
906.038	15720
906.155	15633
906.272	15564
906.389	15534
906.506	15473
906.623	15507
906.74	15428
906.857	15317
906.974	15344
907.091	15526
907.208	15572
907.324	15443
907.441	15386
907.557	15138
907.674	15066
907.79	14986
907.907	15077
908.023	15089
908.139	15043
908.256	15165
908.372	15127
908.488	15009
908.604	14899
908.72	14750
908.836	14906
908.952	14743
909.068	14807
909.184	14861
909.3	14834
909.415	14868
909.531	14830
909.647	14511
909.762	14495
909.878	14583
909.993	14575
910.108	14514
910.224	14541
910.339	14560
910.454	14408
910.57	14442
910.685	14252
910.8	14587
910.915	14514
911.03	14461
911.145	14214
911.259	14142
911.374	14153
911.489	14100
911.604	13997
911.718	13887
911.833	13898
911.947	13822
912.062	13753
912.176	13944
912.291	13928
912.405	13887
912.519	13982
912.633	14107
912.748	14005
912.862	13883
912.976	13647
913.09	13544
913.204	13696
913.318	13731
913.431	13753
913.545	13814
913.659	13788
913.772	13765
913.886	13632
914	13548
914.113	13643
914.226	13715
914.34	13670
914.453	13582
914.566	13636
914.68	13518
914.793	13533
914.906	13316
915.019	13266
915.132	13255
915.245	13289
915.358	13221
915.47	13316
915.583	13312
915.696	13259
915.809	13392
915.921	13362
916.034	13187
916.146	13255
916.259	13202
916.371	13324
916.483	13285
916.595	13198
916.708	13251
916.82	13099
916.932	13179
917.044	13042
917.156	13072
917.268	12989
917.38	13050
917.491	13023
917.603	13027
917.715	13091
917.826	13053
917.938	12863
918.049	12840
918.161	12970
918.272	13019
918.384	13133
918.495	12928
918.606	12757
918.717	12753
918.828	12764
918.939	12856
919.05	12623
919.161	12802
919.272	12506
919.383	12597
919.494	12715
919.604	12985
919.715	12730
919.826	12738
919.936	12791
920.047	12795
920.157	12719
920.267	12920
920.378	12719
920.488	12677
920.598	12783
920.708	12973
920.818	12840
920.928	12833
921.038	13019
921.148	12875
921.258	12696
921.368	12566
921.477	12525
921.587	12479
921.697	12380
921.806	12441
921.916	12338
922.025	12159
922.134	12209
922.244	12076
922.353	12152
922.462	12049
922.571	12011
922.68	11802
922.789	11809
922.898	11893
923.007	11783
923.116	11817
923.224	11828
923.333	11836
923.442	11729
923.55	11604
923.659	11695
923.767	11665
923.876	11604
923.984	11726
924.092	11573
924.201	11592
924.309	11570
924.417	11608
924.525	11619
924.633	11570
924.741	12365
924.849	11315
924.956	11471
925.064	11433
925.172	11280
925.279	11280
925.387	11258
925.494	11383
925.602	11402
925.709	11410
925.816	11341
925.924	11307
926.031	11383
926.138	11277
926.245	11261
926.352	11231
926.459	11326
926.566	11345
926.673	11174
926.779	11136
926.886	11029
926.993	10900
927.099	10984
927.206	10820
927.312	10889
927.419	10953
927.525	10915
927.631	10904
927.737	10881
927.843	10744
927.95	10637
928.056	10828
928.162	10763
928.267	10839
928.373	11402
928.479	10869
928.585	10607
928.69	10771
928.796	10858
928.901	10694
929.007	10500
929.112	10702
929.218	10611
929.323	10588
929.428	10561
929.533	10729
929.638	10504
929.743	10542
929.848	10607
929.953	10485
930.058	10451
930.163	10272
930.267	10299
930.372	10440
930.477	10249
930.581	10489
930.685	10356
930.79	10177
930.894	10207
930.998	10219
931.103	10402
931.207	9964
931.311	9899
931.415	9804
931.519	9633
931.623	9568
