Data from test_V78500241_230.txt Node
Date: Fri Mar 25 14:35:19 CST 2022
User: usil
Spectrometer: V785-0024
Trigger mode: 0
Integration Time (sec): 4.000000E-1
Scans to average: 1
Nonlinearity correction enabled: false
Boxcar width: 0
Storing dark spectrum: false
XAxis mode: Wavelengths
Number of Pixels in Spectrum: 1024
>>>>>Begin Spectral Data<<<<<
801.071	27622
801.214	27713
801.356	27507
801.499	27256
801.641	27199
801.783	27157
801.926	27203
802.068	26994
802.211	26956
802.353	26815
802.496	26625
802.638	26693
802.78	26530
802.923	26689
803.065	26522
803.208	26674
803.35	26632
803.492	26811
803.635	26781
803.777	26632
803.919	26708
804.061	26956
804.204	26670
804.346	26606
804.488	26587
804.63	26629
804.773	26473
804.915	26575
805.057	26788
805.199	26648
805.341	26693
805.483	26765
805.626	26743
805.768	26606
805.91	26781
806.052	26625
806.194	26568
806.336	26853
806.478	26693
806.62	26762
806.762	26788
806.904	26921
807.046	27058
807.188	26994
807.33	27074
807.472	27184
807.614	27093
807.756	27017
807.898	27017
808.04	26895
808.182	27036
808.324	27077
808.465	27047
808.607	27313
808.749	27466
808.891	27644
809.033	27667
809.174	27568
809.316	27549
809.458	27386
809.6	27298
809.741	27321
809.883	27287
810.025	27367
810.166	27367
810.308	27450
810.45	27378
810.591	27306
810.733	27085
810.875	27313
811.016	26971
811.158	26975
811.299	27203
811.441	27043
811.582	27199
811.724	27051
811.865	27043
812.007	27017
812.148	27100
812.29	27055
812.431	27135
812.573	27393
812.714	27363
812.855	27583
812.997	27576
813.138	27770
813.279	27652
813.421	27481
813.562	27435
813.703	27165
813.845	27287
813.986	26967
814.127	26655
814.268	26716
814.41	26670
814.551	26526
814.692	26663
814.833	26385
814.974	26602
815.115	26503
815.256	26400
815.397	26465
815.539	26377
815.68	26370
815.821	26168
815.962	26313
816.103	26263
816.244	26164
816.385	26107
816.526	26065
816.666	25788
816.807	25784
816.948	25909
817.089	25837
817.23	25715
817.371	25765
817.512	25674
817.653	25807
817.793	25643
817.934	25670
818.075	25674
818.216	25700
818.356	25734
818.497	25696
818.638	25438
818.778	25556
818.919	25438
819.06	25419
819.2	25563
819.341	25533
819.481	25544
819.622	25902
819.762	26024
819.903	25814
820.043	25700
820.184	25658
820.324	25685
820.465	25685
820.605	25616
820.746	25715
820.886	25605
821.026	25582
821.167	25597
821.307	25689
821.447	25582
821.588	25415
821.728	25441
821.868	25137
822.008	25008
822.149	25080
822.289	25080
822.429	24688
822.569	24757
822.709	24764
822.849	24429
822.99	24475
823.13	24540
823.27	24452
823.41	24410
823.55	24254
823.69	24292
823.83	24304
823.97	24209
824.11	24022
824.25	24003
824.389	24095
824.529	24216
824.669	24125
824.809	24045
824.949	24152
825.089	24133
825.228	24205
825.368	23859
825.508	23904
825.648	23828
825.787	23893
825.927	23821
826.067	23817
826.206	23790
826.346	23771
826.485	23798
826.625	23901
826.765	23897
826.904	23813
827.044	23589
827.183	23547
827.323	23459
827.462	23551
827.601	23611
827.741	23547
827.88	23501
828.02	23410
828.159	23429
828.298	23573
828.437	23554
828.577	23425
828.716	23585
828.855	23467
828.994	23303
829.134	23143
829.273	23330
829.412	23102
829.551	23136
829.69	23071
829.829	23269
829.968	23292
830.107	23277
830.246	23121
830.385	23075
830.524	23067
830.663	23033
830.802	22919
830.941	22725
831.08	22675
831.219	22805
831.357	22771
831.496	22934
831.635	22828
831.774	22713
831.913	22706
832.051	22660
832.19	22489
832.329	22580
832.467	22474
832.606	22394
832.744	22291
832.883	22382
833.022	22352
833.16	22424
833.299	22440
833.437	22462
833.576	22531
833.714	22474
833.852	22390
833.991	22413
834.129	22523
834.267	22485
834.406	22417
834.544	22481
834.682	22451
834.821	22402
834.959	22535
835.097	22272
835.235	22394
835.373	22386
835.511	22337
835.65	22360
835.788	22295
835.926	22074
836.064	22032
836.202	22128
836.34	22265
836.478	22272
836.615	22116
836.753	22204
836.891	22226
837.029	22078
837.167	22177
837.305	22169
837.443	22166
837.58	22124
837.718	22253
837.856	21968
837.993	21930
838.131	22078
838.269	21899
838.406	21953
838.544	21888
838.681	21759
838.819	21583
838.956	21564
839.094	21439
839.231	21523
839.369	21724
839.506	21774
839.643	21720
839.781	21603
839.918	21526
840.055	21534
840.193	21412
840.33	21443
840.467	21367
840.604	21515
840.742	21728
840.879	21363
841.016	21252
841.153	21283
841.29	21412
841.427	21298
841.564	21458
841.701	21321
841.838	21252
841.975	21256
842.112	21279
842.249	21241
842.385	21096
842.522	21313
842.659	21218
842.796	21150
842.933	21108
843.069	21028
843.206	21062
843.343	21184
843.479	21207
843.616	21077
843.752	20765
843.889	20902
844.025	20975
844.162	20853
844.298	20929
844.435	20891
844.571	20887
844.708	20880
844.844	20960
844.98	20963
845.117	20933
845.253	20804
845.389	20861
845.525	20952
845.661	20876
845.798	20994
845.934	21077
846.07	21104
846.206	21009
846.342	21150
846.478	20986
846.614	20651
846.75	20450
846.886	20446
847.022	20351
847.158	20457
847.294	20317
847.429	20431
847.565	20381
847.701	20514
847.837	20172
847.972	20024
848.108	20081
848.244	20073
848.379	19947
848.515	19883
848.65	19772
848.786	19906
848.921	19803
849.057	19890
849.192	19970
849.328	19807
849.463	19704
849.598	19811
849.734	19753
849.869	19670
850.004	19601
850.14	19658
850.275	19567
850.41	19529
850.545	19548
850.68	19677
850.815	19537
850.95	19537
851.085	19651
851.22	19738
851.355	19537
851.49	19529
851.625	19540
851.76	19483
851.895	19510
852.03	19411
852.165	19480
852.299	19518
852.434	19693
852.569	19495
852.703	19567
852.838	19601
852.973	19616
853.107	19689
853.242	19506
853.376	19415
853.511	19331
853.645	19377
853.78	19601
853.914	19521
854.048	19422
854.183	19468
854.317	19476
854.451	19609
854.585	19396
854.72	19426
854.854	19529
854.988	19343
855.122	19476
855.256	19240
855.39	19255
855.524	19480
855.658	19430
855.792	19354
855.926	19350
856.06	19464
856.194	19480
856.327	19339
856.461	19236
856.595	19297
856.729	19327
856.862	19407
856.996	19476
857.13	19464
857.263	19388
857.397	19312
857.53	19274
857.664	19365
857.797	19415
857.931	19537
858.064	19240
858.197	19407
858.331	19304
858.464	19297
858.597	19148
858.731	19343
858.864	19289
858.997	19209
859.13	19297
859.263	19259
859.396	19316
859.529	19274
859.662	19247
859.795	19274
859.928	19354
860.061	19441
860.194	19472
860.327	19384
860.46	19316
860.592	19373
860.725	19426
860.858	19388
860.99	19297
861.123	19270
861.256	19339
861.388	19316
861.521	19864
861.653	19133
861.786	19065
861.918	19152
862.05	19255
862.183	19247
862.315	19324
862.447	19441
862.58	19426
862.712	19053
862.844	19141
862.976	19175
863.108	19034
863.24	19354
863.372	18989
863.504	19038
863.636	18973
863.768	19088
863.9	19069
864.032	19012
864.164	18970
864.296	19137
864.428	19183
864.559	18973
864.691	19152
864.823	19061
864.954	19072
865.086	19034
865.217	18989
865.349	18856
865.48	18947
865.612	18939
865.743	19103
865.875	18924
866.006	18878
866.137	18829
866.269	18890
866.4	18954
866.531	18993
866.662	18920
866.793	18810
866.924	18787
867.055	18913
867.186	18878
867.317	18939
867.448	18806
867.579	18852
867.71	18913
867.841	18772
867.972	18810
868.103	18958
868.233	18894
868.364	18916
868.495	18932
868.625	19000
868.756	19160
868.886	19004
869.017	19091
869.147	19148
869.278	19232
869.408	19183
869.539	19088
869.669	19145
869.799	19114
869.929	19266
870.06	19274
870.19	19518
870.32	19392
870.45	19480
870.58	19358
870.71	19472
870.84	19666
870.97	19544
871.1	19571
871.23	19624
871.36	19582
871.489	19601
871.619	19708
871.749	19651
871.879	19765
872.008	19932
872.138	19677
872.267	19769
872.397	19677
872.526	19499
872.656	19457
872.785	19537
872.915	19700
873.044	19746
873.173	19727
873.303	19978
873.432	19746
873.561	19788
873.69	19708
873.819	19795
873.948	19742
874.077	19704
874.206	19700
874.335	19632
874.464	19780
874.593	19940
874.722	19890
874.851	20054
874.979	20062
875.108	20084
875.237	20008
875.365	19849
875.494	19978
875.623	20122
875.751	19982
875.88	19993
876.008	20115
876.136	20168
876.265	20381
876.393	20415
876.521	20400
876.65	20533
876.778	20423
876.906	20225
877.034	20438
877.162	20385
877.29	20309
877.418	20336
877.546	20370
877.674	20434
877.802	20412
877.93	20419
878.058	20317
878.185	20309
878.313	20393
878.441	20362
878.568	20347
878.696	20294
878.824	20404
878.951	20408
879.079	20625
879.206	20887
879.333	20724
879.461	20541
879.588	20773
879.715	20765
879.842	20800
879.97	20655
880.097	20313
880.224	20324
880.351	20267
880.478	20465
880.605	20256
880.732	20248
880.859	20488
880.986	20396
881.112	20218
881.239	20134
881.366	19955
881.493	19906
881.619	19883
881.746	19883
881.872	19879
881.999	19879
882.125	19765
882.252	19967
882.378	19890
882.505	20027
882.631	19765
882.757	19605
882.883	19616
883.01	19624
883.136	19495
883.262	19495
883.388	19483
883.514	19655
883.64	19662
883.766	19575
883.892	19578
884.018	19468
884.143	19643
884.269	19677
884.395	19289
884.52	19316
884.646	19304
884.772	19274
884.897	19198
885.023	19289
885.148	19354
885.274	19552
885.399	19362
885.524	19270
885.65	19297
885.775	19274
885.9	19240
886.025	19327
886.15	19419
886.275	19225
886.4	19175
886.525	19129
886.65	19145
886.775	19164
886.9	19426
887.025	19445
887.149	19107
887.274	19023
887.399	19099
887.523	18993
887.648	18939
887.773	18939
887.897	19069
888.021	19065
888.146	18932
888.27	19008
888.395	19042
888.519	19061
888.643	19012
888.767	19076
888.891	18859
889.015	18768
889.139	18856
889.263	18768
889.387	18817
889.511	18894
889.635	18996
889.759	18772
889.883	18753
890.006	18795
890.13	18935
890.254	18654
890.377	18688
890.501	18490
890.624	18502
890.748	18658
890.871	18517
890.995	18384
891.118	18365
891.241	18365
891.364	18490
891.488	18540
891.611	18361
891.734	18372
891.857	18334
891.98	18456
892.103	18445
892.226	18410
892.349	18448
892.471	18171
892.594	18456
892.717	18369
892.839	18319
892.962	18300
893.085	18395
893.207	18292
893.33	18262
893.452	18254
893.575	18350
893.697	18338
893.819	18525
893.941	18566
894.064	18437
894.186	18338
894.308	18281
894.43	18479
894.552	18490
894.674	18395
894.796	18342
894.918	18315
895.04	18350
895.161	18410
895.283	18251
895.405	18361
895.526	18251
895.648	18422
895.769	18426
895.891	18445
896.012	18479
896.134	18388
896.255	18350
896.376	18437
896.498	18395
896.619	18399
896.74	18350
896.861	18464
896.982	18779
897.103	18924
897.224	18692
897.345	18722
897.466	18616
897.587	18654
897.708	18753
897.828	18616
897.949	18627
898.07	18384
898.19	18502
898.311	18764
898.431	18601
898.552	18585
898.672	18620
898.792	18654
898.913	18608
899.033	18570
899.153	18441
899.273	18407
899.393	18365
899.513	18467
899.633	18464
899.753	18403
899.873	18247
899.993	18422
900.113	18311
900.232	18399
900.352	18273
900.472	18350
900.591	18308
900.711	18247
900.83	18201
900.95	18327
901.069	18285
901.189	18148
901.308	17889
901.427	17897
901.546	17798
901.665	17794
901.784	17866
901.904	17638
902.023	17566
902.141	17376
902.26	17311
902.379	17387
902.498	17337
902.617	17277
902.735	17341
902.854	17288
902.973	17170
903.091	17022
903.21	16946
903.328	17102
903.446	16930
903.565	16896
903.683	16896
903.801	16759
903.919	16816
904.038	16740
904.156	16596
904.274	16801
904.392	16550
904.51	16535
904.627	16538
904.745	16618
904.863	16668
904.981	16314
905.098	16166
905.216	16257
905.334	16230
905.451	16291
905.569	16185
905.686	16371
905.803	16268
905.921	15987
906.038	16158
906.155	16112
906.272	15884
906.389	15960
906.506	15781
906.623	15884
906.74	15827
906.857	15629
906.974	15648
907.091	15846
907.208	15907
907.324	15857
907.441	15584
907.557	15534
907.674	15363
907.79	15454
907.907	15473
908.023	15542
908.139	15447
908.256	15351
908.372	15408
908.488	15340
908.604	15195
908.72	15252
908.836	15192
908.952	15218
909.068	15203
909.184	15310
909.3	15097
909.415	15195
909.531	15108
909.647	14910
909.762	14891
909.878	14769
909.993	14861
910.108	14880
910.224	14853
910.339	14941
910.454	14708
910.57	14693
910.685	14625
910.8	14826
910.915	14800
911.03	14644
911.145	14598
911.259	14537
911.374	14431
911.489	14507
911.604	14355
911.718	14145
911.833	14275
911.947	14210
912.062	14024
912.176	14218
912.291	14233
912.405	14153
912.519	14324
912.633	14358
912.748	14240
912.862	14202
912.976	14107
913.09	13909
913.204	13986
913.318	14225
913.431	14195
913.545	14149
913.659	14172
913.772	14027
913.886	13921
914	13837
914.113	14008
914.226	14138
914.34	14024
914.453	13746
914.566	13982
914.68	13791
914.793	13742
914.906	13582
915.019	13521
915.132	13495
915.245	13578
915.358	13601
915.47	13548
915.583	13518
915.696	13590
915.809	13639
915.921	13662
916.034	13483
916.146	13472
916.259	13460
916.371	13537
916.483	13521
916.595	13415
916.708	13373
916.82	13422
916.932	13343
917.044	13369
917.156	13422
917.268	13259
917.38	13285
917.491	13274
917.603	13270
917.715	13354
917.826	13263
917.938	13285
918.049	13080
918.161	13278
918.272	13346
918.384	13419
918.495	13270
918.606	13129
918.717	13015
918.828	13080
918.939	13084
919.05	12901
919.161	13027
919.272	12882
919.383	12802
919.494	12985
919.604	13251
919.715	13023
919.826	12973
919.936	13053
920.047	13072
920.157	12985
920.267	13164
920.378	13000
920.488	12989
920.598	13084
920.708	13324
920.818	13152
920.928	13137
921.038	13259
921.148	13240
921.258	12966
921.368	12905
921.477	12764
921.587	12783
921.697	12601
921.806	12787
921.916	12616
922.025	12506
922.134	12426
922.244	12391
922.353	12464
922.462	12270
922.571	12209
922.68	12125
922.789	12155
922.898	12087
923.007	12019
923.116	12121
923.224	12015
923.333	12076
923.442	12019
923.55	11897
923.659	12041
923.767	11969
923.876	11832
923.984	11977
924.092	11851
924.201	11843
924.309	11885
924.417	11805
924.525	11889
924.633	11809
924.741	12730
924.849	11551
924.956	11657
925.064	11558
925.172	11501
925.279	11596
925.387	11604
925.494	11554
925.602	11688
925.709	11566
925.816	11455
925.924	11520
926.031	11661
926.138	11474
926.245	11532
926.352	11482
926.459	11646
926.566	11554
926.673	11402
926.779	11402
926.886	11376
926.993	11178
927.099	11102
927.206	11140
927.312	11025
927.419	11185
927.525	11197
927.631	11235
927.737	11162
927.843	11041
927.95	10889
928.056	11006
928.162	11048
928.267	11109
928.373	11589
928.479	11067
928.585	10866
928.69	11014
928.796	10976
928.901	10847
929.007	10831
929.112	10877
929.218	10809
929.323	10809
929.428	10759
929.533	10835
929.638	10752
929.743	10759
929.848	10828
929.953	10675
930.058	10634
930.163	10546
930.267	10523
930.372	10668
930.477	10440
930.581	10698
930.685	10504
930.79	10382
930.894	10428
930.998	10318
931.103	10504
931.207	10093
931.311	10063
931.415	10040
931.519	9884
931.623	9774
