Data from test_V78500241_3682.txt Node
Date: Fri Mar 25 14:59:21 CST 2022
User: usil
Spectrometer: V785-0024
Trigger mode: 0
Integration Time (sec): 4.000000E-1
Scans to average: 1
Nonlinearity correction enabled: false
Boxcar width: 0
Storing dark spectrum: false
XAxis mode: Wavelengths
Number of Pixels in Spectrum: 1024
>>>>>Begin Spectral Data<<<<<
801.071	21911
801.214	21888
801.356	21576
801.499	21431
801.641	21469
801.783	21393
801.926	21462
802.068	21203
802.211	21195
802.353	21074
802.496	20838
802.638	20727
802.78	20617
802.923	20659
803.065	20613
803.208	20625
803.35	20602
803.492	20701
803.635	20739
803.777	20648
803.919	20640
804.061	20963
804.204	20739
804.346	20667
804.488	20476
804.63	20617
804.773	20457
804.915	20571
805.057	20587
805.199	20476
805.341	20545
805.483	20716
805.626	20507
805.768	20495
805.91	20579
806.052	20568
806.194	20438
806.336	20731
806.478	20556
806.62	20476
806.762	20545
806.904	20777
807.046	20800
807.188	20811
807.33	20819
807.472	20891
807.614	20716
807.756	20777
807.898	20773
808.04	20552
808.182	20503
808.324	20625
808.465	20503
808.607	20796
808.749	20925
808.891	21024
809.033	21013
809.174	20902
809.316	20830
809.458	20804
809.6	20788
809.741	20941
809.883	20914
810.025	20979
810.166	20998
810.308	20944
810.45	20975
810.591	20887
810.733	20678
810.875	20686
811.016	20552
811.158	20533
811.299	20739
811.441	20834
811.582	20708
811.724	20644
811.865	20556
812.007	20594
812.148	20632
812.29	20602
812.431	20769
812.573	20891
812.714	21043
812.855	21142
812.997	21233
813.138	21359
813.279	21093
813.421	21123
813.562	21058
813.703	20872
813.845	20815
813.986	20537
814.127	20404
814.268	20248
814.41	20103
814.551	20164
814.692	20309
814.833	20134
814.974	20035
815.115	20161
815.256	20046
815.397	20043
815.539	20065
815.68	19864
815.821	19696
815.962	19887
816.103	19826
816.244	19753
816.385	19620
816.526	19571
816.666	19491
816.807	19331
816.948	19354
817.089	19525
817.23	19426
817.371	19308
817.512	19255
817.653	19232
817.793	19251
817.934	19445
818.075	19346
818.216	19293
818.356	19160
818.497	19107
818.638	18993
818.778	19034
818.919	18920
819.06	18958
819.2	19148
819.341	19129
819.481	19137
819.622	19289
819.762	19472
819.903	19502
820.043	19251
820.184	19247
820.324	19282
820.465	19339
820.605	19270
820.746	19339
820.886	19160
821.026	19407
821.167	19129
821.307	19240
821.447	19190
821.588	19141
821.728	18954
821.868	18829
822.008	18798
822.149	18681
822.289	18700
822.429	18407
822.569	18395
822.709	18273
822.849	18266
822.99	18182
823.13	18201
823.27	18159
823.41	18079
823.55	17855
823.69	17954
823.83	18076
823.97	17901
824.11	17764
824.25	17756
824.389	17798
824.529	17824
824.669	17687
824.809	17923
824.949	17901
825.089	17729
825.228	17596
825.368	17638
825.508	17604
825.648	17558
825.787	17505
825.927	17661
826.067	17368
826.206	17459
826.346	17467
826.485	17482
826.625	17532
826.765	17642
826.904	17642
827.044	17299
827.183	17360
827.323	17277
827.462	17258
827.601	17216
827.741	17155
827.88	17140
828.02	17140
828.159	17280
828.298	17227
828.437	17307
828.577	17212
828.716	17425
828.855	17273
828.994	16972
829.134	16908
829.273	16949
829.412	16892
829.551	16965
829.69	17056
829.829	16953
829.968	17105
830.107	16987
830.246	17025
830.385	16805
830.524	16911
830.663	16812
830.802	16679
830.941	16698
831.08	16561
831.219	16660
831.357	16645
831.496	16744
831.635	16637
831.774	16497
831.913	16527
832.051	16413
832.19	16474
832.329	16371
832.467	16276
832.606	16272
832.744	16188
832.883	16242
833.022	16314
833.16	16402
833.299	16363
833.437	16409
833.576	16371
833.714	16337
833.852	16413
833.991	16394
834.129	16333
834.267	16512
834.406	16478
834.544	16474
834.682	16428
834.821	16451
834.959	16615
835.097	16440
835.235	16432
835.373	16371
835.511	16360
835.65	16291
835.788	16219
835.926	16185
836.064	16120
836.202	16116
836.34	16367
836.478	16402
836.615	16268
836.753	16363
836.891	16268
837.029	16257
837.167	16249
837.305	16265
837.443	16192
837.58	16109
837.718	16276
837.856	16139
837.993	16040
838.131	16181
838.269	16021
838.406	16074
838.544	15979
838.681	15804
838.819	15838
838.956	15728
839.094	15762
839.231	15793
839.369	15842
839.506	16074
839.643	15987
839.781	15682
839.918	15682
840.055	15736
840.193	15675
840.33	15686
840.467	15732
840.604	15800
840.742	16006
840.879	15568
841.016	15603
841.153	15595
841.29	15949
841.427	15762
841.564	15846
841.701	15789
841.838	15599
841.975	15553
842.112	15633
842.249	15648
842.385	15564
842.522	15732
842.659	15572
842.796	15462
842.933	15534
843.069	15492
843.206	15450
843.343	15591
843.479	15549
843.616	15500
843.752	15268
843.889	15355
844.025	15496
844.162	15279
844.298	15382
844.435	15325
844.571	15287
844.708	15348
844.844	15496
844.98	15428
845.117	15481
845.253	15275
845.389	15108
845.525	15116
845.661	15203
845.798	15009
845.934	15108
846.07	15028
846.206	15180
846.342	15127
846.478	15089
846.614	14918
846.75	14743
846.886	14895
847.022	14979
847.158	14823
847.294	14929
847.429	14864
847.565	14769
847.701	15062
847.837	14537
847.972	14575
848.108	14705
848.244	14708
848.379	14499
848.515	14526
848.65	14450
848.786	14393
848.921	14461
849.057	14556
849.192	14503
849.328	14454
849.463	14518
849.598	14412
849.734	14358
849.869	14336
850.004	14271
850.14	14309
850.275	14275
850.41	14161
850.545	14202
850.68	14218
850.815	14214
850.95	14225
851.085	14419
851.22	14347
851.355	14183
851.49	14145
851.625	14103
851.76	14263
851.895	14161
852.03	14123
852.165	14248
852.299	14263
852.434	14423
852.569	14229
852.703	14183
852.838	14328
852.973	14408
853.107	14385
853.242	14214
853.376	14180
853.511	14001
853.645	14096
853.78	14210
853.914	14164
854.048	14073
854.183	14058
854.317	14168
854.451	14259
854.585	14103
854.72	14145
854.854	14107
854.988	14043
855.122	14027
855.256	13917
855.39	14176
855.524	14290
855.658	14161
855.792	14142
855.926	14134
856.06	14103
856.194	14278
856.327	14168
856.461	14043
856.595	14176
856.729	14039
856.862	14282
856.996	14115
857.13	14107
857.263	14290
857.397	14164
857.53	14084
857.664	14145
857.797	14263
857.931	14176
858.064	14115
858.197	14138
858.331	14130
858.464	14081
858.597	13993
858.731	14073
858.864	14126
858.997	14123
859.13	14180
859.263	14206
859.396	14195
859.529	14088
859.662	14035
859.795	14084
859.928	14096
860.061	14320
860.194	14309
860.327	14180
860.46	14126
860.592	14324
860.725	14248
860.858	14309
860.99	13993
861.123	14096
861.256	14012
861.388	14111
861.521	14792
861.653	14046
861.786	13871
861.918	14001
862.05	14024
862.183	14058
862.315	14138
862.447	14206
862.58	14123
862.712	13860
862.844	13883
862.976	13963
863.108	13928
863.24	14305
863.372	13917
863.504	13822
863.636	13902
863.768	13951
863.9	13826
864.032	13837
864.164	13928
864.296	13852
864.428	13997
864.559	14046
864.691	13955
864.823	13925
864.954	13909
865.086	13974
865.217	13947
865.349	13818
865.48	13925
865.612	13807
865.743	14035
865.875	13852
866.006	13841
866.137	13921
866.269	13928
866.4	13833
866.531	13841
866.662	13750
866.793	13776
866.924	13807
867.055	13890
867.186	13917
867.317	13822
867.448	13822
867.579	13780
867.71	13921
867.841	13738
867.972	13860
868.103	13887
868.233	13951
868.364	13894
868.495	13917
868.625	14100
868.756	14221
868.886	14008
869.017	14081
869.147	14267
869.278	14252
869.408	14119
869.539	14168
869.669	14168
869.799	14103
869.929	14366
870.06	14305
870.19	14503
870.32	14499
870.45	14389
870.58	14507
870.71	14629
870.84	14571
870.97	14492
871.1	14457
871.23	14705
871.36	14819
871.489	14575
871.619	14674
871.749	14659
871.879	14750
872.008	14842
872.138	14769
872.267	14731
872.397	14541
872.526	14545
872.656	14632
872.785	14476
872.915	14758
873.044	14804
873.173	14796
873.303	14800
873.432	14834
873.561	14963
873.69	14788
873.819	14712
873.948	14887
874.077	14788
874.206	14682
874.335	14731
874.464	15017
874.593	15077
874.722	14948
874.851	15112
874.979	15127
875.108	14994
875.237	15024
875.365	15036
875.494	15108
875.623	15230
875.751	15188
875.88	15146
876.008	15222
876.136	15302
876.265	15534
876.393	15686
876.521	15545
876.65	15587
876.778	15584
876.906	15542
877.034	15439
877.162	15530
877.29	15363
877.418	15447
877.546	15542
877.674	15530
877.802	15526
877.93	15530
878.058	15538
878.185	15416
878.313	15477
878.441	15538
878.568	15374
878.696	15458
878.824	15485
878.951	15462
879.079	15679
879.206	15842
879.333	15622
879.461	15469
879.588	15618
879.715	15732
879.842	15827
879.97	15545
880.097	15287
880.224	15408
880.351	15424
880.478	15542
880.605	15389
880.732	15325
880.859	15637
880.986	15355
881.112	15431
881.239	15275
881.366	15218
881.493	15150
881.619	15055
881.746	15070
881.872	15055
881.999	15039
882.125	15028
882.252	15085
882.378	14998
882.505	15199
882.631	14842
882.757	14853
882.883	14891
883.01	14785
883.136	14788
883.262	14727
883.388	14693
883.514	14887
883.64	14906
883.766	14811
883.892	14678
884.018	14667
884.143	14853
884.269	14963
884.395	14632
884.52	14465
884.646	14602
884.772	14571
884.897	14415
885.023	14499
885.148	14636
885.274	14716
885.399	14617
885.524	14556
885.65	14587
885.775	14667
885.9	14598
886.025	14724
886.15	14621
886.275	14457
886.4	14488
886.525	14533
886.65	14511
886.775	14408
886.9	14636
887.025	14815
887.149	14530
887.274	14396
887.399	14320
887.523	14366
887.648	14263
887.773	14328
887.897	14465
888.021	14484
888.146	14339
888.27	14434
888.395	14469
888.519	14457
888.643	14457
888.767	14533
888.891	14218
889.015	14199
889.139	14351
889.263	14267
889.387	14278
889.511	14461
889.635	14374
889.759	14218
889.883	14233
890.006	14313
890.13	14400
890.254	14225
890.377	14218
890.501	14008
890.624	14065
890.748	14062
890.871	14096
890.995	13959
891.118	13940
891.241	13936
891.364	14012
891.488	14016
891.611	14031
891.734	14031
891.857	14069
891.98	13982
892.103	13978
892.226	13986
892.349	13944
892.471	13731
892.594	13955
892.717	13913
892.839	13932
892.962	13970
893.085	14020
893.207	13974
893.33	13902
893.452	13951
893.575	13902
893.697	13989
893.819	14187
893.941	14191
894.064	14252
894.186	13913
894.308	13909
894.43	14008
894.552	14176
894.674	14107
894.796	13940
894.918	14043
895.04	14016
895.161	14100
895.283	14111
895.405	13997
895.526	14069
895.648	14005
895.769	14153
895.891	14168
896.012	14187
896.134	14161
896.255	14100
896.376	14164
896.498	14100
896.619	14225
896.74	14142
896.861	14317
896.982	14473
897.103	14632
897.224	14473
897.345	14324
897.466	14385
897.587	14362
897.708	14560
897.828	14541
897.949	14438
898.07	14301
898.19	14343
898.311	14587
898.431	14495
898.552	14419
898.672	14564
898.792	14682
898.913	14571
899.033	14454
899.153	14396
899.273	14240
899.393	14385
899.513	14278
899.633	14305
899.753	14355
899.873	14305
899.993	14309
900.113	14339
900.232	14415
900.352	14298
900.472	14267
900.591	14172
900.711	14111
900.83	14252
900.95	14294
901.069	14320
901.189	14183
901.308	13902
901.427	13814
901.546	13803
901.665	13845
901.784	13898
901.904	13765
902.023	13693
902.141	13460
902.26	13438
902.379	13487
902.498	13518
902.617	13415
902.735	13563
902.854	13392
902.973	13369
903.091	13156
903.21	13171
903.328	13228
903.446	13110
903.565	12970
903.683	12973
903.801	12981
903.919	13015
904.038	12973
904.156	12840
904.274	12932
904.392	12844
904.51	12810
904.627	12738
904.745	12882
904.863	12993
904.981	12654
905.098	12585
905.216	12585
905.334	12513
905.451	12532
905.569	12460
905.686	12498
905.803	12593
905.921	12388
906.038	12437
906.155	12369
906.272	12247
906.389	12228
906.506	12102
906.623	12190
906.74	12129
906.857	11973
906.974	11965
907.091	12247
907.208	12254
907.324	12220
907.441	12091
907.557	11904
907.674	11802
907.79	11809
907.907	11878
908.023	11901
908.139	11893
908.256	11920
908.372	11843
908.488	11813
908.604	11722
908.72	11608
908.836	11688
908.952	11699
909.068	11596
909.184	11672
909.3	11642
909.415	11680
909.531	11657
909.647	11391
909.762	11417
909.878	11315
909.993	11467
910.108	11395
910.224	11356
910.339	11395
910.454	11334
910.57	11330
910.685	11178
910.8	11448
910.915	11387
911.03	11292
911.145	11132
911.259	11094
911.374	11151
911.489	11037
911.604	10972
911.718	10854
911.833	10889
911.947	10778
912.062	10698
912.176	10831
912.291	10881
912.405	10816
912.519	10987
912.633	11117
912.748	10938
912.862	10923
912.976	10725
913.09	10615
913.204	10694
913.318	10774
913.431	10828
913.545	10854
913.659	10900
913.772	10691
913.886	10672
914	10630
914.113	10748
914.226	10698
914.34	10656
914.453	10550
914.566	10782
914.68	10622
914.793	10580
914.906	10337
915.019	10398
915.132	10268
915.245	10356
915.358	10421
915.47	10440
915.583	10432
915.696	10421
915.809	10577
915.921	10569
916.034	10379
916.146	10421
916.259	10360
916.371	10322
916.483	10363
916.595	10303
916.708	10299
916.82	10341
916.932	10394
917.044	10268
917.156	10257
917.268	10173
917.38	10272
917.491	10238
917.603	10211
917.715	10291
917.826	10227
917.938	10196
918.049	10116
918.161	10124
918.272	10394
918.384	10352
918.495	10268
918.606	10090
918.717	10025
918.828	10150
918.939	10158
919.05	9972
919.161	10093
919.272	9918
919.383	9895
919.494	10185
919.604	10253
919.715	10120
919.826	10090
919.936	10154
920.047	10215
920.157	10181
920.267	10303
920.378	10204
920.488	10112
920.598	10348
920.708	10413
920.818	10337
920.928	10341
921.038	10481
921.148	10417
921.258	10188
921.368	10139
921.477	9964
921.587	9918
921.697	9800
921.806	9983
921.916	9861
922.025	9686
922.134	9671
922.244	9701
922.353	9819
922.462	9485
922.571	9557
922.68	9355
922.789	9332
922.898	9405
923.007	9359
923.116	9420
923.224	9386
923.333	9386
923.442	9230
923.55	9180
923.659	9279
923.767	9317
923.876	9249
923.984	9310
924.092	9211
924.201	9203
924.309	9214
924.417	9195
924.525	9207
924.633	9123
924.741	9964
924.849	8998
924.956	9211
925.064	8979
925.172	8963
925.279	9009
925.387	9020
925.494	9047
925.602	9161
925.709	9032
925.816	9001
925.924	9017
926.031	9074
926.138	9085
926.245	9074
926.352	8918
926.459	9066
926.566	9097
926.673	8990
926.779	8941
926.886	8887
926.993	8796
927.099	8819
927.206	8708
927.312	8720
927.419	8830
927.525	8758
927.631	8826
927.737	8705
927.843	8716
927.95	8518
928.056	8674
928.162	8613
928.267	8735
928.373	9154
928.479	8785
928.585	8533
928.69	8571
928.796	8686
928.901	8495
929.007	8427
929.112	8629
929.218	8579
929.323	8488
929.428	8484
929.533	8583
929.638	8408
929.743	8446
929.848	8541
929.953	8362
930.058	8362
930.163	8240
930.267	8267
930.372	8332
930.477	8259
930.581	8454
930.685	8305
930.79	8126
930.894	8172
930.998	8107
931.103	8324
931.207	7993
931.311	7947
931.415	7917
931.519	7753
931.623	7632
