Data from test_V78500241_2676.txt Node
Date: Fri Mar 25 14:52:20 CST 2022
User: usil
Spectrometer: V785-0024
Trigger mode: 0
Integration Time (sec): 4.000000E-1
Scans to average: 1
Nonlinearity correction enabled: false
Boxcar width: 0
Storing dark spectrum: false
XAxis mode: Wavelengths
Number of Pixels in Spectrum: 1024
>>>>>Begin Spectral Data<<<<<
801.071	22074
801.214	21934
801.356	21637
801.499	21587
801.641	21424
801.783	21389
801.926	21447
802.068	21321
802.211	21268
802.353	21165
802.496	20979
802.638	20925
802.78	20807
802.923	20720
803.065	20785
803.208	20743
803.35	20781
803.492	20872
803.635	20826
803.777	20758
803.919	20701
804.061	20952
804.204	20743
804.346	20549
804.488	20644
804.63	20705
804.773	20651
804.915	20621
805.057	20724
805.199	20571
805.341	20651
805.483	20701
805.626	20640
805.768	20571
805.91	20602
806.052	20659
806.194	20427
806.336	20674
806.478	20579
806.62	20796
806.762	20708
806.904	20785
807.046	21001
807.188	20998
807.33	20998
807.472	20941
807.614	20887
807.756	20937
807.898	20804
808.04	20613
808.182	20720
808.324	20689
808.465	20682
808.607	20929
808.749	21020
808.891	21093
809.033	21112
809.174	21089
809.316	20914
809.458	20948
809.6	20853
809.741	20994
809.883	21005
810.025	21081
810.166	21077
810.308	21203
810.45	21093
810.591	20971
810.733	20948
810.875	20743
811.016	20632
811.158	20697
811.299	20796
811.441	20864
811.582	20838
811.724	20823
811.865	20708
812.007	20674
812.148	20659
812.29	20743
812.431	20929
812.573	21089
812.714	21127
812.855	21176
812.997	21363
813.138	21564
813.279	21363
813.421	21306
813.562	21188
813.703	20963
813.845	20792
813.986	20602
814.127	20396
814.268	20332
814.41	20412
814.551	20332
814.692	20324
814.833	20195
814.974	20237
815.115	20286
815.256	20282
815.397	20187
815.539	20214
815.68	20176
815.821	19928
815.962	19974
816.103	19978
816.244	19833
816.385	19757
816.526	19746
816.666	19533
816.807	19468
816.948	19666
817.089	19472
817.23	19533
817.371	19403
817.512	19453
817.653	19445
817.793	19460
817.934	19335
818.075	19537
818.216	19468
818.356	19346
818.497	19240
818.638	19168
818.778	19179
818.919	19160
819.06	19160
819.2	19133
819.341	19350
819.481	19297
819.622	19392
819.762	19605
819.903	19601
820.043	19460
820.184	19422
820.324	19392
820.465	19499
820.605	19400
820.746	19453
820.886	19228
821.026	19377
821.167	19346
821.307	19400
821.447	19411
821.588	19206
821.728	19091
821.868	18958
822.008	18852
822.149	18810
822.289	18829
822.429	18498
822.569	18471
822.709	18547
822.849	18308
822.99	18403
823.13	18289
823.27	18254
823.41	18098
823.55	18026
823.69	18015
823.83	18186
823.97	18030
824.11	17859
824.25	17855
824.389	17901
824.529	17942
824.669	17851
824.809	17999
824.949	17965
825.089	18041
825.228	17859
825.368	17676
825.508	17695
825.648	17745
825.787	17699
825.927	17756
826.067	17684
826.206	17668
826.346	17703
826.485	17687
826.625	17657
826.765	17870
826.904	17741
827.044	17581
827.183	17490
827.323	17364
827.462	17474
827.601	17486
827.741	17391
827.88	17452
828.02	17254
828.159	17452
828.298	17417
828.437	17372
828.577	17379
828.716	17417
828.855	17360
828.994	17189
829.134	17174
829.273	17166
829.412	17124
829.551	17060
829.69	17140
829.829	17159
829.968	17307
830.107	17189
830.246	17128
830.385	17014
830.524	17193
830.663	17079
830.802	16892
830.941	16816
831.08	16721
831.219	16805
831.357	16774
831.496	16984
831.635	16786
831.774	16679
831.913	16588
832.051	16603
832.19	16611
832.329	16675
832.467	16462
832.606	16440
832.744	16500
832.883	16428
833.022	16352
833.16	16500
833.299	16504
833.437	16508
833.576	16550
833.714	16440
833.852	16432
833.991	16531
834.129	16660
834.267	16675
834.406	16478
834.544	16558
834.682	16573
834.821	16523
834.959	16622
835.097	16531
835.235	16565
835.373	16558
835.511	16550
835.65	16428
835.788	16451
835.926	16287
836.064	16234
836.202	16188
836.34	16519
836.478	16569
836.615	16428
836.753	16436
836.891	16516
837.029	16493
837.167	16394
837.305	16348
837.443	16314
837.58	16284
837.718	16322
837.856	16375
837.993	16192
838.131	16291
838.269	16287
838.406	16211
838.544	16097
838.681	16032
838.819	15915
838.956	15892
839.094	15762
839.231	15895
839.369	16109
839.506	16226
839.643	16166
839.781	15903
839.918	15804
840.055	15869
840.193	15850
840.33	15857
840.467	15705
840.604	15869
840.742	16032
840.879	15778
841.016	15713
841.153	15747
841.29	16040
841.427	15865
841.564	15876
841.701	15835
841.838	15770
841.975	15698
842.112	15774
842.249	15705
842.385	15549
842.522	15785
842.659	15663
842.796	15625
842.933	15587
843.069	15469
843.206	15500
843.343	15804
843.479	15667
843.616	15648
843.752	15473
843.889	15435
844.025	15538
844.162	15325
844.298	15526
844.435	15408
844.571	15458
844.708	15488
844.844	15652
844.98	15564
845.117	15644
845.253	15329
845.389	15336
845.525	15275
845.661	15313
845.798	15241
845.934	15279
846.07	15100
846.206	15230
846.342	15359
846.478	15207
846.614	14986
846.75	14937
846.886	14975
847.022	15013
847.158	14990
847.294	14998
847.429	15001
847.565	14971
847.701	15211
847.837	14686
847.972	14629
848.108	14914
848.244	14796
848.379	14655
848.515	14587
848.65	14602
848.786	14583
848.921	14689
849.057	14655
849.192	14674
849.328	14636
849.463	14636
849.598	14545
849.734	14495
849.869	14484
850.004	14442
850.14	14412
850.275	14282
850.41	14252
850.545	14317
850.68	14309
850.815	14358
850.95	14332
851.085	14556
851.22	14400
851.355	14427
851.49	14332
851.625	14366
851.76	14286
851.895	14252
852.03	14206
852.165	14396
852.299	14358
852.434	14511
852.569	14499
852.703	14431
852.838	14404
852.973	14476
853.107	14552
853.242	14278
853.376	14389
853.511	14126
853.645	14233
853.78	14347
853.914	14259
854.048	14180
854.183	14161
854.317	14199
854.451	14442
854.585	14180
854.72	14130
854.854	14271
854.988	14157
855.122	14275
855.256	14142
855.39	14218
855.524	14343
855.658	14233
855.792	14259
855.926	14301
856.06	14324
856.194	14393
856.327	14309
856.461	14180
856.595	14164
856.729	14157
856.862	14320
856.996	14298
857.13	14309
857.263	14347
857.397	14400
857.53	14210
857.664	14351
857.797	14271
857.931	14450
858.064	14309
858.197	14317
858.331	14240
858.464	14149
858.597	14103
858.731	14221
858.864	14214
858.997	14168
859.13	14248
859.263	14343
859.396	14389
859.529	14275
859.662	14233
859.795	14103
859.928	14282
860.061	14370
860.194	14385
860.327	14290
860.46	14259
860.592	14389
860.725	14400
860.858	14320
860.99	14176
861.123	14142
861.256	14164
861.388	14191
861.521	14826
861.653	14081
861.786	14126
861.918	14107
862.05	14244
862.183	14214
862.315	14153
862.447	14336
862.58	14145
862.712	13986
862.844	13947
862.976	14153
863.108	14058
863.24	14278
863.372	14039
863.504	13951
863.636	14046
863.768	14054
863.9	13997
864.032	14001
864.164	14005
864.296	14046
864.428	14092
864.559	14187
864.691	14054
864.823	14119
864.954	14081
865.086	14016
865.217	14077
865.349	13887
865.48	13906
865.612	14031
865.743	14157
865.875	14035
866.006	14016
866.137	14039
866.269	13951
866.4	14054
866.531	13837
866.662	14024
866.793	13989
866.924	13871
867.055	14050
867.186	13947
867.317	13955
867.448	13940
867.579	13852
867.71	13913
867.841	13887
867.972	14020
868.103	14027
868.233	14084
868.364	14016
868.495	14111
868.625	14233
868.756	14320
868.886	14225
869.017	14214
869.147	14351
869.278	14313
869.408	14176
869.539	14252
869.669	14298
869.799	14298
869.929	14362
870.06	14400
870.19	14522
870.32	14598
870.45	14655
870.58	14655
870.71	14785
870.84	14659
870.97	14655
871.1	14602
871.23	14849
871.36	14823
871.489	14823
871.619	14861
871.749	14811
871.879	14891
872.008	14891
872.138	14895
872.267	14800
872.397	14842
872.526	14655
872.656	14606
872.785	14644
872.915	14880
873.044	14952
873.173	14921
873.303	14944
873.432	14963
873.561	14948
873.69	14971
873.819	14910
873.948	14979
874.077	14921
874.206	14880
874.335	15001
874.464	15066
874.593	15260
874.722	15070
874.851	15329
874.979	15279
875.108	15291
875.237	15104
875.365	15161
875.494	15211
875.623	15298
875.751	15203
875.88	15237
876.008	15416
876.136	15420
876.265	15595
876.393	15827
876.521	15698
876.65	15720
876.778	15709
876.906	15599
877.034	15557
877.162	15633
877.29	15595
877.418	15694
877.546	15591
877.674	15614
877.802	15614
877.93	15686
878.058	15511
878.185	15466
878.313	15587
878.441	15641
878.568	15424
878.696	15580
878.824	15694
878.951	15747
879.079	15781
879.206	15785
879.333	15846
879.461	15743
879.588	15743
879.715	15838
879.842	15880
879.97	15545
880.097	15504
880.224	15485
880.351	15348
880.478	15450
880.605	15496
880.732	15515
880.859	15736
880.986	15519
881.112	15507
881.239	15416
881.366	15260
881.493	15150
881.619	15150
881.746	15180
881.872	15154
881.999	15157
882.125	15093
882.252	15165
882.378	15195
882.505	15279
882.631	15138
882.757	14921
882.883	14956
883.01	14956
883.136	14861
883.262	14880
883.388	14743
883.514	14975
883.64	14986
883.766	14861
883.892	14849
884.018	14765
884.143	14902
884.269	14937
884.395	14644
884.52	14613
884.646	14606
884.772	14583
884.897	14613
885.023	14636
885.148	14716
885.274	14758
885.399	14743
885.524	14678
885.65	14689
885.775	14701
885.9	14682
886.025	14727
886.15	14762
886.275	14583
886.4	14602
886.525	14598
886.65	14625
886.775	14625
886.9	14823
887.025	14815
887.149	14739
887.274	14526
887.399	14488
887.523	14522
887.648	14377
887.773	14434
887.897	14625
888.021	14530
888.146	14362
888.27	14594
888.395	14678
888.519	14571
888.643	14571
888.767	14556
888.891	14480
889.015	14336
889.139	14488
889.263	14263
889.387	14419
889.511	14492
889.635	14514
889.759	14343
889.883	14324
890.006	14381
890.13	14610
890.254	14278
890.377	14355
890.501	14161
890.624	14142
890.748	14267
890.871	14119
890.995	14062
891.118	13955
891.241	14180
891.364	14069
891.488	14248
891.611	14020
891.734	14103
891.857	14115
891.98	14107
892.103	14062
892.226	14191
892.349	14183
892.471	13928
892.594	13978
892.717	14084
892.839	14020
892.962	14084
893.085	14103
893.207	14058
893.33	13925
893.452	13986
893.575	14130
893.697	14008
893.819	14237
893.941	14324
894.064	14153
894.186	13982
894.308	14027
894.43	14172
894.552	14221
894.674	14248
894.796	14035
894.918	14134
895.04	14100
895.161	14195
895.283	14191
895.405	14161
895.526	14046
895.648	14183
895.769	14229
895.891	14248
896.012	14221
896.134	14256
896.255	14199
896.376	14355
896.498	14153
896.619	14240
896.74	14172
896.861	14290
896.982	14552
897.103	14686
897.224	14587
897.345	14461
897.466	14381
897.587	14457
897.708	14590
897.828	14590
897.949	14446
898.07	14370
898.19	14511
898.311	14712
898.431	14511
898.552	14549
898.672	14678
898.792	14670
898.913	14507
899.033	14431
899.153	14332
899.273	14415
899.393	14442
899.513	14290
899.633	14396
899.753	14415
899.873	14374
899.993	14454
900.113	14305
900.232	14473
900.352	14404
900.472	14358
900.591	14286
900.711	14309
900.83	14278
900.95	14313
901.069	14396
901.189	14210
901.308	13997
901.427	13951
901.546	13932
901.665	13917
901.784	14111
901.904	13845
902.023	13769
902.141	13609
902.26	13559
902.379	13639
902.498	13540
902.617	13487
902.735	13502
902.854	13571
902.973	13411
903.091	13362
903.21	13236
903.328	13327
903.446	13236
903.565	13103
903.683	13175
903.801	13065
903.919	13084
904.038	13023
904.156	12951
904.274	13065
904.392	12894
904.51	12901
904.627	12905
904.745	12989
904.863	12993
904.981	12726
905.098	12563
905.216	12673
905.334	12593
905.451	12662
905.569	12559
905.686	12707
905.803	12681
905.921	12456
906.038	12540
906.155	12391
906.272	12308
906.389	12361
906.506	12319
906.623	12292
906.74	12190
906.857	11999
906.974	12201
907.091	12232
907.208	12327
907.324	12292
907.441	12091
907.557	11980
907.674	11843
907.79	11836
907.907	11931
908.023	12019
908.139	11859
908.256	11920
908.372	11882
908.488	11794
908.604	11733
908.72	11726
908.836	11741
908.952	11688
909.068	11714
909.184	11779
909.3	11729
909.415	11790
909.531	11764
909.647	11486
909.762	11490
909.878	11459
909.993	11532
910.108	11467
910.224	11478
910.339	11478
910.454	11429
910.57	11376
910.685	11246
910.8	11585
910.915	11520
911.03	11383
911.145	11231
911.259	11189
911.374	11113
911.489	11033
911.604	11155
911.718	10930
911.833	10930
911.947	10782
912.062	10797
912.176	10889
912.291	10892
912.405	10934
912.519	11090
912.633	11064
912.748	11045
912.862	10934
912.976	10858
913.09	10759
913.204	10828
913.318	10824
913.431	10953
913.545	10968
913.659	10938
913.772	10862
913.886	10721
914	10679
914.113	10847
914.226	10801
914.34	10820
914.453	10687
914.566	10782
914.68	10660
914.793	10656
914.906	10550
915.019	10455
915.132	10322
915.245	10379
915.358	10398
915.47	10489
915.583	10504
915.696	10443
915.809	10607
915.921	10649
916.034	10375
916.146	10459
916.259	10375
916.371	10478
916.483	10459
916.595	10402
916.708	10379
916.82	10432
916.932	10390
917.044	10341
917.156	10348
917.268	10215
917.38	10325
917.491	10280
917.603	10299
917.715	10367
917.826	10386
917.938	10234
918.049	10150
918.161	10291
918.272	10440
918.384	10394
918.495	10337
918.606	10162
918.717	10090
918.828	10166
918.939	10280
919.05	10150
919.161	10173
919.272	9937
919.383	9987
919.494	10276
919.604	10390
919.715	10169
919.826	10135
919.936	10112
920.047	10223
920.157	10303
920.267	10348
920.378	10147
920.488	10139
920.598	10356
920.708	10569
920.818	10337
920.928	10363
921.038	10538
921.148	10523
921.258	10124
921.368	10173
921.477	10010
921.587	10082
921.697	9975
921.806	10086
921.916	9972
922.025	9766
922.134	9701
922.244	9690
922.353	9804
922.462	9641
922.571	9542
922.68	9447
922.789	9424
922.898	9454
923.007	9466
923.116	9450
923.224	9408
923.333	9439
923.442	9332
923.55	9287
923.659	9272
923.767	9428
923.876	9310
923.984	9340
924.092	9321
924.201	9374
924.309	9336
924.417	9336
924.525	9279
924.633	9230
924.741	10017
924.849	9077
924.956	9249
925.064	9089
925.172	9009
925.279	9127
925.387	9093
925.494	9119
925.602	9233
925.709	9173
925.816	8975
925.924	9066
926.031	9142
926.138	9104
926.245	9169
926.352	8971
926.459	9165
926.566	9211
926.673	9123
926.779	8960
926.886	8948
926.993	8819
927.099	8731
927.206	8743
927.312	8739
927.419	8861
927.525	8792
927.631	8834
927.737	8674
927.843	8606
927.95	8625
928.056	8621
928.162	8678
928.267	8754
928.373	9287
928.479	8872
928.585	8583
928.69	8610
928.796	8697
928.901	8659
929.007	8541
929.112	8632
929.218	8541
929.323	8560
929.428	8583
929.533	8712
929.638	8469
929.743	8469
929.848	8533
929.953	8488
930.058	8495
930.163	8248
930.267	8343
930.372	8465
930.477	8305
930.581	8476
930.685	8355
930.79	8263
930.894	8313
930.998	8244
931.103	8423
931.207	8073
931.311	7944
931.415	7871
931.519	7746
931.623	7780
