Data from test_V78500241_1196.txt Node
Date: Fri Mar 25 14:42:02 CST 2022
User: usil
Spectrometer: V785-0024
Trigger mode: 0
Integration Time (sec): 4.000000E-1
Scans to average: 1
Nonlinearity correction enabled: false
Boxcar width: 0
Storing dark spectrum: false
XAxis mode: Wavelengths
Number of Pixels in Spectrum: 1024
>>>>>Begin Spectral Data<<<<<
801.071	22386
801.214	22386
801.356	22135
801.499	22029
801.641	21842
801.783	21838
801.926	21880
802.068	21717
802.211	21759
802.353	21648
802.496	21485
802.638	21424
802.78	21378
802.923	21165
803.065	21150
803.208	21230
803.35	21207
803.492	21245
803.635	21256
803.777	21112
803.919	21142
804.061	21564
804.204	21211
804.346	21039
804.488	21070
804.63	21070
804.773	21058
804.915	21119
805.057	21408
805.199	21058
805.341	21180
805.483	21272
805.626	21256
805.768	21066
805.91	21051
806.052	21135
806.194	21017
806.336	21211
806.478	21074
806.62	21039
806.762	21199
806.904	21283
807.046	21576
807.188	21321
807.33	21428
807.472	21348
807.614	21329
807.756	21355
807.898	21230
808.04	21207
808.182	21180
808.324	21165
808.465	21256
808.607	21485
808.749	21481
808.891	21660
809.033	21576
809.174	21717
809.316	21538
809.458	21504
809.6	21504
809.741	21526
809.883	21564
810.025	21755
810.166	21614
810.308	21667
810.45	21595
810.591	21523
810.733	21431
810.875	21313
811.016	21176
811.158	21241
811.299	21363
811.441	21336
811.582	21321
811.724	21176
811.865	21192
812.007	21104
812.148	21169
812.29	21214
812.431	21530
812.573	21572
812.714	21614
812.855	21724
812.997	21789
813.138	22006
813.279	21797
813.421	21823
813.562	21701
813.703	21599
813.845	21416
813.986	21089
814.127	20960
814.268	20899
814.41	20880
814.551	20777
814.692	20849
814.833	20781
814.974	20781
815.115	20785
815.256	20708
815.397	20678
815.539	20750
815.68	20492
815.821	20469
815.962	20590
816.103	20560
816.244	20374
816.385	20271
816.526	20248
816.666	20058
816.807	19997
816.948	20115
817.089	20142
817.23	20012
817.371	19883
817.512	20077
817.653	20012
817.793	20035
817.934	20020
818.075	20039
818.216	20039
818.356	19906
818.497	19788
818.638	19715
818.778	19613
818.919	19586
819.06	19662
819.2	19852
819.341	19875
819.481	19849
819.622	19936
819.762	20233
819.903	20035
820.043	20001
820.184	19959
820.324	19951
820.465	20088
820.605	19936
820.746	19944
820.886	19761
821.026	19868
821.167	19906
821.307	19978
821.447	19799
821.588	19708
821.728	19586
821.868	19506
822.008	19350
822.149	19320
822.289	19331
822.429	19152
822.569	18932
822.709	19088
822.849	18844
822.99	18871
823.13	18833
823.27	18825
823.41	18700
823.55	18620
823.69	18589
823.83	18574
823.97	18589
824.11	18418
824.25	18410
824.389	18315
824.529	18585
824.669	18483
824.809	18506
824.949	18464
825.089	18631
825.228	18460
825.368	18270
825.508	18129
825.648	18251
825.787	18300
825.927	18251
826.067	18163
826.206	18148
826.346	18262
826.485	18201
826.625	18148
826.765	18357
826.904	18273
827.044	17942
827.183	17965
827.323	17912
827.462	17992
827.601	17889
827.741	17783
827.88	17904
828.02	17805
828.159	17980
828.298	17882
828.437	18026
828.577	17870
828.716	17996
828.855	17828
828.994	17649
829.134	17547
829.273	17783
829.412	17707
829.551	17600
829.69	17627
829.829	17737
829.968	17760
830.107	17676
830.246	17756
830.385	17573
830.524	17577
830.663	17486
830.802	17398
830.941	17337
831.08	17292
831.219	17414
831.357	17376
831.496	17490
831.635	17227
831.774	17277
831.913	17147
832.051	17124
832.19	17048
832.329	17178
832.467	17014
832.606	16900
832.744	16946
832.883	16980
833.022	16965
833.16	16991
833.299	17113
833.437	17155
833.576	16968
833.714	17090
833.852	16991
833.991	17155
834.129	17178
834.267	17098
834.406	17121
834.544	17090
834.682	17067
834.821	17022
834.959	17280
835.097	17064
835.235	16980
835.373	17064
835.511	17159
835.65	16965
835.788	17006
835.926	16877
836.064	16733
836.202	16820
836.34	17022
836.478	17022
836.615	16968
836.753	16942
836.891	17098
837.029	16968
837.167	16889
837.305	16881
837.443	16755
837.58	16763
837.718	16949
837.856	16809
837.993	16755
838.131	16835
838.269	16759
838.406	16748
838.544	16721
838.681	16569
838.819	16466
838.956	16409
839.094	16390
839.231	16424
839.369	16481
839.506	16824
839.643	16607
839.781	16379
839.918	16303
840.055	16379
840.193	16390
840.33	16352
840.467	16341
840.604	16402
840.742	16668
840.879	16242
841.016	16276
841.153	16261
841.29	16497
841.427	16443
841.564	16413
841.701	16333
841.838	16306
841.975	16318
842.112	16287
842.249	16211
842.385	16147
842.522	16329
842.659	16105
842.796	16173
842.933	16162
843.069	16086
843.206	16200
843.343	16150
843.479	16173
843.616	16265
843.752	15968
843.889	15926
844.025	16109
844.162	15953
844.298	16124
844.435	15835
844.571	15937
844.708	16044
844.844	16120
844.98	16021
845.117	16090
845.253	15808
845.389	15918
845.525	15892
845.661	15899
845.798	15899
845.934	15854
846.07	15827
846.206	15903
846.342	15949
846.478	15827
846.614	15545
846.75	15515
846.886	15450
847.022	15519
847.158	15534
847.294	15568
847.429	15485
847.565	15439
847.701	15759
847.837	15249
847.972	15161
848.108	15336
848.244	15332
848.379	15161
848.515	15051
848.65	15093
848.786	15047
848.921	15135
849.057	15214
849.192	15184
849.328	15131
849.463	15176
849.598	15058
849.734	15009
849.869	14975
850.004	14982
850.14	14868
850.275	14876
850.41	14914
850.545	14811
850.68	14830
850.815	14944
850.95	14864
851.085	15066
851.22	14872
851.355	14845
851.49	14788
851.625	14891
851.76	14906
851.895	14712
852.03	14853
852.165	14781
852.299	14925
852.434	15036
852.569	14792
852.703	14887
852.838	14891
852.973	15017
853.107	14971
853.242	14796
853.376	14777
853.511	14590
853.645	14754
853.78	14838
853.914	14765
854.048	14674
854.183	14606
854.317	14830
854.451	14788
854.585	14788
854.72	14743
854.854	14788
854.988	14693
855.122	14686
855.256	14530
855.39	14689
855.524	14857
855.658	14857
855.792	14792
855.926	14788
856.06	14811
856.194	14781
856.327	14610
856.461	14800
856.595	14667
856.729	14800
856.862	14838
856.996	14781
857.13	14762
857.263	14887
857.397	14864
857.53	14697
857.664	14823
857.797	14796
857.931	14826
858.064	14769
858.197	14944
858.331	14785
858.464	14571
858.597	14648
858.731	14739
858.864	14800
858.997	14743
859.13	14701
859.263	14659
859.396	14819
859.529	14701
859.662	14674
859.795	14606
859.928	14800
860.061	14864
860.194	14914
860.327	14838
860.46	14765
860.592	14910
860.725	14929
860.858	14849
860.99	14682
861.123	14632
861.256	14693
861.388	14720
861.521	15401
861.653	14640
861.786	14530
861.918	14632
862.05	14667
862.183	14727
862.315	14727
862.447	14739
862.58	14568
862.712	14469
862.844	14396
862.976	14480
863.108	14545
863.24	14952
863.372	14438
863.504	14446
863.636	14438
863.768	14594
863.9	14556
864.032	14381
864.164	14507
864.296	14537
864.428	14541
864.559	14545
864.691	14621
864.823	14514
864.954	14590
865.086	14590
865.217	14457
865.349	14366
865.48	14492
865.612	14412
865.743	14533
865.875	14492
866.006	14507
866.137	14511
866.269	14541
866.4	14473
866.531	14473
866.662	14385
866.793	14484
866.924	14415
867.055	14465
867.186	14492
867.317	14434
867.448	14396
867.579	14427
867.71	14366
867.841	14374
867.972	14385
868.103	14484
868.233	14511
868.364	14343
868.495	14625
868.625	14670
868.756	14720
868.886	14655
869.017	14754
869.147	14910
869.278	14853
869.408	14765
869.539	14777
869.669	14838
869.799	14716
869.929	14838
870.06	14830
870.19	14994
870.32	14982
870.45	15074
870.58	15268
870.71	15135
870.84	15165
870.97	15142
871.1	15024
871.23	15249
871.36	15287
871.489	15192
871.619	15378
871.749	15348
871.879	15382
872.008	15405
872.138	15344
872.267	15294
872.397	15184
872.526	15180
872.656	15161
872.785	15218
872.915	15351
873.044	15492
873.173	15439
873.303	15370
873.432	15500
873.561	15447
873.69	15378
873.819	15405
873.948	15477
874.077	15450
874.206	15389
874.335	15420
874.464	15481
874.593	15698
874.722	15682
874.851	15656
874.979	15739
875.108	15739
875.237	15690
875.365	15580
875.494	15660
875.623	15618
875.751	15667
875.88	15675
876.008	15793
876.136	15922
876.265	16021
876.393	16280
876.521	16226
876.65	16215
876.778	16143
876.906	16013
877.034	16112
877.162	16032
877.29	16059
877.418	16093
877.546	16078
877.674	16101
877.802	16063
877.93	16051
878.058	16078
878.185	15975
878.313	16074
878.441	16051
878.568	16025
878.696	16074
878.824	16215
878.951	16109
879.079	16261
879.206	16481
879.333	16348
879.461	16055
879.588	16268
879.715	16405
879.842	16443
879.97	16268
880.097	16025
880.224	15934
880.351	15975
880.478	16048
880.605	15934
880.732	15915
880.859	16158
880.986	15987
881.112	16017
881.239	15846
881.366	15785
881.493	15671
881.619	15603
881.746	15679
881.872	15606
881.999	15584
882.125	15545
882.252	15747
882.378	15633
882.505	15610
882.631	15595
882.757	15553
882.883	15428
883.01	15378
883.136	15355
883.262	15268
883.388	15279
883.514	15424
883.64	15511
883.766	15287
883.892	15241
884.018	15245
884.143	15363
884.269	15450
884.395	15165
884.52	15154
884.646	15100
884.772	15116
884.897	15097
885.023	15165
885.148	15173
885.274	15135
885.399	15146
885.524	15062
885.65	15180
885.775	15039
885.9	15173
886.025	15222
886.15	15142
886.275	15055
886.4	15017
886.525	15119
886.65	15020
886.775	15154
886.9	15222
887.025	15329
887.149	15108
887.274	14990
887.399	14990
887.523	14864
887.648	14883
887.773	14842
887.897	15001
888.021	15081
888.146	14876
888.27	14979
888.395	15051
888.519	14918
888.643	14963
888.767	14937
888.891	14902
889.015	14769
889.139	14864
889.263	14823
889.387	14921
889.511	14994
889.635	14876
889.759	14724
889.883	14598
890.006	14796
890.13	14891
890.254	14629
890.377	14708
890.501	14693
890.624	14564
890.748	14674
890.871	14613
890.995	14396
891.118	14320
891.241	14499
891.364	14530
891.488	14533
891.611	14617
891.734	14514
891.857	14632
891.98	14503
892.103	14632
892.226	14511
892.349	14438
892.471	14366
892.594	14370
892.717	14537
892.839	14492
892.962	14476
893.085	14503
893.207	14511
893.33	14328
893.452	14446
893.575	14473
893.697	14476
893.819	14602
893.941	14686
894.064	14621
894.186	14431
894.308	14438
894.43	14571
894.552	14708
894.674	14590
894.796	14503
894.918	14560
895.04	14415
895.161	14568
895.283	14674
895.405	14552
895.526	14507
895.648	14602
895.769	14575
895.891	14526
896.012	14746
896.134	14625
896.255	14640
896.376	14621
896.498	14590
896.619	14705
896.74	14735
896.861	14670
896.982	14982
897.103	15119
897.224	14948
897.345	14826
897.466	14781
897.587	14899
897.708	14986
897.828	14895
897.949	14807
898.07	14701
898.19	14834
898.311	15001
898.431	14956
898.552	14963
898.672	15062
898.792	15138
898.913	14998
899.033	14899
899.153	14823
899.273	14701
899.393	14765
899.513	14785
899.633	14906
899.753	14788
899.873	14746
899.993	14883
900.113	14731
900.232	14883
900.352	14819
900.472	14743
900.591	14621
900.711	14750
900.83	14625
900.95	14785
901.069	14830
901.189	14556
901.308	14438
901.427	14237
901.546	14313
901.665	14404
901.784	14423
901.904	14183
902.023	14062
902.141	13928
902.26	13963
902.379	13989
902.498	13841
902.617	13913
902.735	13898
902.854	13871
902.973	13932
903.091	13628
903.21	13670
903.328	13731
903.446	13529
903.565	13476
903.683	13521
903.801	13415
903.919	13506
904.038	13343
904.156	13282
904.274	13434
904.392	13274
904.51	13301
904.627	13266
904.745	13388
904.863	13411
904.981	13012
905.098	13034
905.216	12996
905.334	13023
905.451	12947
905.569	12943
905.686	12909
905.803	13015
905.921	12817
906.038	12897
906.155	12859
906.272	12787
906.389	12711
906.506	12563
906.623	12544
906.74	12593
906.857	12486
906.974	12574
907.091	12620
907.208	12669
907.324	12620
907.441	12547
907.557	12414
907.674	12308
907.79	12319
907.907	12315
908.023	12353
908.139	12361
908.256	12308
908.372	12228
908.488	12205
908.604	12247
908.72	11965
908.836	12079
908.952	12015
909.068	12114
909.184	12171
909.3	12140
909.415	12072
909.531	12152
909.647	11935
909.762	11802
909.878	11764
909.993	11798
910.108	11821
910.224	11783
910.339	11889
910.454	11653
910.57	11676
910.685	11577
910.8	11863
910.915	11828
911.03	11703
911.145	11596
911.259	11570
911.374	11611
911.489	11516
911.604	11322
911.718	11318
911.833	11273
911.947	11227
912.062	11162
912.176	11330
912.291	11261
912.405	11193
912.519	11501
912.633	11490
912.748	11322
912.862	11280
912.976	11048
913.09	11029
913.204	11067
913.318	11181
913.431	11170
913.545	11269
913.659	11311
913.772	11189
913.886	11025
914	11010
914.113	11162
914.226	11185
914.34	11090
914.453	10923
914.566	11056
914.68	10889
914.793	10961
914.906	10839
915.019	10710
915.132	10660
915.245	10759
915.358	10767
915.47	10763
915.583	10854
915.696	10866
915.809	11006
915.921	10892
916.034	10786
916.146	10763
916.259	10740
916.371	10767
916.483	10774
916.595	10698
916.708	10668
916.82	10706
916.932	10714
917.044	10615
917.156	10611
917.268	10535
917.38	10618
917.491	10535
917.603	10584
917.715	10649
917.826	10660
917.938	10630
918.049	10432
918.161	10584
918.272	10702
918.384	10752
918.495	10596
918.606	10451
918.717	10432
918.828	10455
918.939	10478
919.05	10287
919.161	10405
919.272	10303
919.383	10306
919.494	10542
919.604	10748
919.715	10466
919.826	10428
919.936	10478
920.047	10577
920.157	10474
920.267	10714
920.378	10493
920.488	10512
920.598	10653
920.708	10767
920.818	10672
920.928	10584
921.038	10805
921.148	10786
921.258	10462
921.368	10382
921.477	10382
921.587	10310
921.697	10204
921.806	10348
921.916	10207
922.025	10067
922.134	9998
922.244	9972
922.353	10029
922.462	9972
922.571	9899
922.68	9770
922.789	9622
922.898	9732
923.007	9698
923.116	9755
923.224	9762
923.333	9755
923.442	9618
923.55	9667
923.659	9641
923.767	9561
923.876	9557
923.984	9625
924.092	9530
924.201	9572
924.309	9568
924.417	9614
924.525	9511
924.633	9450
924.741	10272
924.849	9359
924.956	9466
925.064	9378
925.172	9245
925.279	9268
925.387	9332
925.494	9367
925.602	9428
925.709	9439
925.816	9313
925.924	9359
926.031	9435
926.138	9363
926.245	9477
926.352	9249
926.459	9431
926.566	9519
926.673	9264
926.779	9188
926.886	9214
926.993	9005
927.099	9009
927.206	8925
927.312	8967
927.419	9150
927.525	9116
927.631	9116
927.737	9013
927.843	8895
927.95	8868
928.056	8906
928.162	8918
928.267	9005
928.373	9614
928.479	9009
928.585	8834
928.69	8918
928.796	8933
928.901	8857
929.007	8712
929.112	8838
929.218	8811
929.323	8792
929.428	8762
929.533	8895
929.638	8689
929.743	8735
929.848	8838
929.953	8735
930.058	8705
930.163	8522
930.267	8438
930.372	8697
930.477	8480
930.581	8720
930.685	8632
930.79	8461
930.894	8488
930.998	8408
931.103	8583
931.207	8256
931.311	8191
931.415	8145
931.519	7993
931.623	7959
