Data from test_V78500241_352.txt Node
Date: Fri Mar 25 14:36:10 CST 2022
User: usil
Spectrometer: V785-0024
Trigger mode: 0
Integration Time (sec): 4.000000E-1
Scans to average: 1
Nonlinearity correction enabled: false
Boxcar width: 0
Storing dark spectrum: false
XAxis mode: Wavelengths
Number of Pixels in Spectrum: 1024
>>>>>Begin Spectral Data<<<<<
801.071	26819
801.214	26800
801.356	26457
801.499	26522
801.641	26366
801.783	26362
801.926	26313
802.068	26103
802.211	26214
802.353	26111
802.496	25966
802.638	25807
802.78	25849
802.923	25921
803.065	25795
803.208	25970
803.35	25811
803.492	25685
803.635	25940
803.777	25849
803.919	25997
804.061	26210
804.204	25860
804.346	25849
804.488	25658
804.63	25830
804.773	25693
804.915	25811
805.057	25837
805.199	25826
805.341	25738
805.483	25788
805.626	25849
805.768	25750
805.91	25966
806.052	25898
806.194	25757
806.336	25959
806.478	25811
806.62	25841
806.762	25909
806.904	26168
807.046	26237
807.188	26240
807.33	26218
807.472	26244
807.614	26263
807.756	26191
807.898	25921
808.04	25947
808.182	26005
808.324	26065
808.465	26020
808.607	26202
808.749	26301
808.891	26503
809.033	26568
809.174	26484
809.316	26404
809.458	26339
809.6	26271
809.741	26427
809.883	26415
810.025	26545
810.166	26514
810.308	26514
810.45	26427
810.591	26514
810.733	26187
810.875	26187
811.016	26176
811.158	26077
811.299	26180
811.441	26275
811.582	26252
811.724	26164
811.865	26149
812.007	26214
812.148	26210
812.29	26225
812.431	26278
812.573	26362
812.714	26431
812.855	26587
812.997	26785
813.138	26861
813.279	26804
813.421	26758
813.562	26667
813.703	26598
813.845	26267
813.986	26054
814.127	25868
814.268	25864
814.41	25750
814.551	25704
814.692	25772
814.833	25693
814.974	25620
815.115	25639
815.256	25594
815.397	25590
815.539	25544
815.68	25525
815.821	25422
815.962	25556
816.103	25373
816.244	25415
816.385	25179
816.526	25225
816.666	25103
816.807	24867
816.948	24909
817.089	25027
817.23	24977
817.371	24814
817.512	24947
817.653	24924
817.793	24772
817.934	24916
818.075	24859
818.216	24852
818.356	24719
818.497	24604
818.638	24566
818.778	24620
818.919	24570
819.06	24582
819.2	24707
819.341	24703
819.481	24741
819.622	24897
819.762	25137
819.903	25099
820.043	24943
820.184	24814
820.324	24856
820.465	24852
820.605	24913
820.746	24734
820.886	24646
821.026	24753
821.167	24745
821.307	24783
821.447	24745
821.588	24608
821.728	24528
821.868	24422
822.008	24216
822.149	24155
822.289	24342
822.429	23824
822.569	23973
822.709	23992
822.849	23627
822.99	23714
823.13	23562
823.27	23376
823.41	23570
823.55	23322
823.69	23535
823.83	23356
823.97	23364
824.11	23292
824.25	23170
824.389	23189
824.529	23208
824.669	23151
824.809	23318
824.949	23223
825.089	23292
825.228	23235
825.368	23140
825.508	23003
825.648	23056
825.787	22968
825.927	23003
826.067	22999
826.206	22923
826.346	22999
826.485	23029
826.625	22885
826.765	23204
826.904	23044
827.044	22820
827.183	22767
827.323	22729
827.462	22908
827.601	22736
827.741	22691
827.88	22668
828.02	22569
828.159	22588
828.298	22660
828.437	22782
828.577	22603
828.716	22744
828.855	22432
828.994	22451
829.134	22295
829.273	22489
829.412	22246
829.551	22310
829.69	22322
829.829	22356
829.968	22447
830.107	22348
830.246	22360
830.385	22325
830.524	22226
830.663	22196
830.802	22029
830.941	22036
831.08	21934
831.219	21934
831.357	22048
831.496	22246
831.635	21873
831.774	21907
831.913	21812
832.051	21660
832.19	21717
832.329	21842
832.467	21641
832.606	21587
832.744	21523
832.883	21515
833.022	21564
833.16	21644
833.299	21652
833.437	21656
833.576	21625
833.714	21591
833.852	21629
833.991	21625
834.129	21759
834.267	21660
834.406	21572
834.544	21599
834.682	21667
834.821	21591
834.959	21793
835.097	21477
835.235	21698
835.373	21595
835.511	21580
835.65	21302
835.788	21458
835.926	21355
836.064	21211
836.202	21222
836.34	21348
836.478	21428
836.615	21317
836.753	21450
836.891	21523
837.029	21431
837.167	21340
837.305	21363
837.443	21275
837.58	21317
837.718	21363
837.856	21268
837.993	21214
838.131	21275
838.269	21131
838.406	21214
838.544	21066
838.681	20849
838.819	20948
838.956	20769
839.094	20750
839.231	20796
839.369	20895
839.506	21081
839.643	20990
839.781	20857
839.918	20621
840.055	20762
840.193	20674
840.33	20648
840.467	20598
840.604	20758
840.742	21001
840.879	20393
841.016	20556
841.153	20560
841.29	20777
841.427	20689
841.564	20663
841.701	20583
841.838	20469
841.975	20507
842.112	20526
842.249	20438
842.385	20381
842.522	20511
842.659	20427
842.796	20366
842.933	20351
843.069	20362
843.206	20362
843.343	20347
843.479	20343
843.616	20305
843.752	20183
843.889	20271
844.025	20347
844.162	20153
844.298	20145
844.435	20119
844.571	19944
844.708	20176
844.844	20161
844.98	20176
845.117	20122
845.253	20069
845.389	19978
845.525	19944
845.661	19997
845.798	19917
845.934	19936
846.07	19989
846.206	19898
846.342	20031
846.478	19887
846.614	19662
846.75	19628
846.886	19552
847.022	19651
847.158	19643
847.294	19662
847.429	19567
847.565	19548
847.701	19826
847.837	19270
847.972	19198
848.108	19396
848.244	19362
848.379	19050
848.515	19198
848.65	19129
848.786	19187
848.921	19148
849.057	19266
849.192	19187
849.328	19206
849.463	19156
849.598	19027
849.734	19015
849.869	19004
850.004	18939
850.14	18825
850.275	18871
850.41	18840
850.545	18886
850.68	18856
850.815	18909
850.95	18787
851.085	19008
851.22	19015
851.355	18867
851.49	18810
851.625	18852
851.76	18833
851.895	18768
852.03	18665
852.165	18802
852.299	18810
852.434	19019
852.569	18913
852.703	18776
852.838	18878
852.973	19038
853.107	19046
853.242	18829
853.376	18760
853.511	18703
853.645	18684
853.78	18715
853.914	18734
854.048	18673
854.183	18597
854.317	18715
854.451	18768
854.585	18639
854.72	18654
854.854	18650
854.988	18673
855.122	18715
855.256	18597
855.39	18711
855.524	18741
855.658	18734
855.792	18681
855.926	18760
856.06	18787
856.194	18684
856.327	18681
856.461	18696
856.595	18616
856.729	18745
856.862	18677
856.996	18635
857.13	18776
857.263	18719
857.397	18715
857.53	18623
857.664	18669
857.797	18684
857.931	18772
858.064	18570
858.197	18734
858.331	18620
858.464	18684
858.597	18483
858.731	18536
858.864	18692
858.997	18631
859.13	18612
859.263	18639
859.396	18711
859.529	18627
859.662	18574
859.795	18593
859.928	18677
860.061	18707
860.194	18833
860.327	18681
860.46	18620
860.592	18639
860.725	18802
860.858	18658
860.99	18574
861.123	18525
861.256	18650
861.388	18654
861.521	19365
861.653	18483
861.786	18410
861.918	18521
862.05	18566
862.183	18688
862.315	18715
862.447	18684
862.58	18551
862.712	18357
862.844	18380
862.976	18498
863.108	18334
863.24	18719
863.372	18361
863.504	18304
863.636	18292
863.768	18399
863.9	18353
864.032	18319
864.164	18235
864.296	18273
864.428	18460
864.559	18361
864.691	18494
864.823	18262
864.954	18403
865.086	18338
865.217	18254
865.349	18079
865.48	18224
865.612	18243
865.743	18334
865.875	18285
866.006	18133
866.137	18296
866.269	18323
866.4	18232
866.531	18152
866.662	18190
866.793	18201
866.924	18155
867.055	18171
867.186	18254
867.317	18251
867.448	18144
867.579	18182
867.71	18053
867.841	18087
867.972	18292
868.103	18224
868.233	18194
868.364	18163
868.495	18216
868.625	18448
868.756	18582
868.886	18327
869.017	18369
869.147	18467
869.278	18471
869.408	18414
869.539	18479
869.669	18582
869.799	18410
869.929	18475
870.06	18566
870.19	18700
870.32	18741
870.45	18677
870.58	18829
870.71	18909
870.84	18871
870.97	18886
871.1	18753
871.23	19076
871.36	18973
871.489	18852
871.619	19023
871.749	19088
871.879	19118
872.008	19122
872.138	19091
872.267	19053
872.397	18920
872.526	18894
872.656	18920
872.785	18890
872.915	19110
873.044	19107
873.173	18973
873.303	19095
873.432	19114
873.561	19164
873.69	19019
873.819	18958
873.948	19152
874.077	19065
874.206	19031
874.335	18985
874.464	19209
874.593	19312
874.722	19331
874.851	19354
874.979	19339
875.108	19384
875.237	19221
875.365	19202
875.494	19369
875.623	19377
875.751	19244
875.88	19343
876.008	19556
876.136	19426
876.265	19712
876.393	19795
876.521	19803
876.65	19879
876.778	19742
876.906	19647
877.034	19807
877.162	19742
877.29	19578
877.418	19681
877.546	19765
877.674	19712
877.802	19700
877.93	19746
878.058	19685
878.185	19594
878.313	19635
878.441	19849
878.568	19597
878.696	19548
878.824	19784
878.951	19750
879.079	19871
879.206	20092
879.333	19860
879.461	19746
879.588	19803
879.715	19993
879.842	20005
879.97	19830
880.097	19609
880.224	19552
880.351	19666
880.478	19502
880.605	19445
880.732	19548
880.859	19696
880.986	19693
881.112	19658
881.239	19460
881.366	19297
881.493	19187
881.619	19156
881.746	19156
881.872	19194
881.999	19141
882.125	19103
882.252	19156
882.378	19274
882.505	19339
882.631	19137
882.757	18954
882.883	19118
883.01	18924
883.136	18905
883.262	18920
883.388	18749
883.514	18977
883.64	18954
883.766	18833
883.892	18745
884.018	18772
884.143	18867
884.269	19038
884.395	18623
884.52	18528
884.646	18547
884.772	18509
884.897	18540
885.023	18608
885.148	18730
885.274	18711
885.399	18654
885.524	18585
885.65	18627
885.775	18616
885.9	18597
886.025	18688
886.15	18802
886.275	18642
886.4	18502
886.525	18692
886.65	18528
886.775	18422
886.9	18703
887.025	18806
887.149	18601
887.274	18422
887.399	18376
887.523	18346
887.648	18220
887.773	18251
887.897	18426
888.021	18334
888.146	18228
888.27	18445
888.395	18486
888.519	18361
888.643	18327
888.767	18426
888.891	18186
889.015	18239
889.139	18224
889.263	18201
889.387	18330
889.511	18289
889.635	18353
889.759	18091
889.883	18136
890.006	18201
890.13	18224
890.254	18098
890.377	18026
890.501	17977
890.624	17942
890.748	17954
890.871	17794
890.995	17828
891.118	17707
891.241	17764
891.364	17809
891.488	17908
891.611	17687
891.734	17771
891.857	17927
891.98	17756
892.103	17942
892.226	17756
892.349	17703
892.471	17661
892.594	17710
892.717	17805
892.839	17695
892.962	17589
893.085	17737
893.207	17745
893.33	17638
893.452	17600
893.575	17760
893.697	17653
893.819	17889
893.941	17904
894.064	17817
894.186	17665
894.308	17703
894.43	17794
894.552	17927
894.674	17885
894.796	17657
894.918	17745
895.04	17809
895.161	17798
895.283	17722
895.405	17665
895.526	17707
895.648	17699
895.769	17783
895.891	17756
896.012	17874
896.134	17840
896.255	17779
896.376	17703
896.498	17866
896.619	17889
896.74	17908
896.861	17786
896.982	18209
897.103	18292
897.224	18125
897.345	18003
897.466	18030
897.587	18049
897.708	18136
897.828	18041
897.949	18045
898.07	17786
898.19	17897
898.311	18060
898.431	17901
898.552	18045
898.672	18129
898.792	18060
898.913	18030
899.033	17954
899.153	17840
899.273	17790
899.393	17760
899.513	17752
899.633	17783
899.753	17843
899.873	17710
899.993	17973
900.113	17729
900.232	17882
900.352	17802
900.472	17691
900.591	17539
900.711	17638
900.83	17554
900.95	17695
901.069	17710
901.189	17554
901.308	17280
901.427	17277
901.546	17204
901.665	17269
901.784	17345
901.904	17185
902.023	17048
902.141	16858
902.26	16839
902.379	16816
902.498	16797
902.617	16763
902.735	16733
902.854	16820
902.973	16641
903.091	16500
903.21	16512
903.328	16504
903.446	16276
903.565	16375
903.683	16341
903.801	16120
903.919	16257
904.038	16211
904.156	16200
904.274	16093
904.392	16147
904.51	16112
904.627	15960
904.745	16124
904.863	16044
904.981	15888
905.098	15766
905.216	15785
905.334	15720
905.451	15709
905.569	15774
905.686	15686
905.803	15713
905.921	15469
906.038	15622
906.155	15485
906.272	15477
906.389	15408
906.506	15325
906.623	15306
906.74	15325
906.857	15108
906.974	15233
907.091	15291
907.208	15401
907.324	15222
907.441	15104
907.557	14963
907.674	15039
907.79	14929
907.907	14918
908.023	15020
908.139	14986
908.256	14880
908.372	14883
908.488	14849
908.604	14739
908.72	14606
908.836	14777
908.952	14663
909.068	14598
909.184	14834
909.3	14678
909.415	14705
909.531	14621
909.647	14450
909.762	14465
909.878	14347
909.993	14408
910.108	14259
910.224	14408
910.339	14442
910.454	14286
910.57	14195
910.685	14225
910.8	14488
910.915	14358
911.03	14229
911.145	14062
911.259	13928
911.374	14024
911.489	13970
911.604	14016
911.718	13750
911.833	13875
911.947	13719
912.062	13578
912.176	13750
912.291	13738
912.405	13814
912.519	13909
912.633	13947
912.748	13833
912.862	13704
912.976	13601
913.09	13483
913.204	13651
913.318	13594
913.431	13746
913.545	13567
913.659	13677
913.772	13594
913.886	13480
914	13422
914.113	13430
914.226	13563
914.34	13483
914.453	13358
914.566	13590
914.68	13430
914.793	13324
914.906	13156
915.019	13156
915.132	13080
915.245	13129
915.358	13164
915.47	13168
915.583	13156
915.696	13171
915.809	13263
915.921	13335
916.034	13065
916.146	13080
916.259	13110
916.371	13145
916.483	13053
916.595	13015
916.708	12985
916.82	13012
916.932	13031
917.044	13015
917.156	12939
917.268	12837
917.38	12916
917.491	12848
917.603	12916
917.715	12951
917.826	12977
917.938	12825
918.049	12768
918.161	12867
918.272	12939
918.384	13031
918.495	12829
918.606	12764
918.717	12692
918.828	12798
918.939	12772
919.05	12639
919.161	12620
919.272	12486
919.383	12490
919.494	12776
919.604	12806
919.715	12738
919.826	12555
919.936	12597
920.047	12711
920.157	12642
920.267	12840
920.378	12707
920.488	12669
920.598	12856
920.708	12935
920.818	12776
920.928	12791
921.038	12913
921.148	12935
921.258	12688
921.368	12616
921.477	12418
921.587	12448
921.697	12159
921.806	12422
921.916	12315
922.025	12079
922.134	12041
922.244	11977
922.353	12095
922.462	11992
922.571	11901
922.68	11813
922.789	11783
922.898	11710
923.007	11699
923.116	11775
923.224	11733
923.333	11554
923.442	11615
923.55	11528
923.659	11573
923.767	11642
923.876	11486
923.984	11634
924.092	11493
924.201	11646
924.309	11566
924.417	11440
924.525	11433
924.633	11482
924.741	12224
924.849	11223
924.956	11414
925.064	11258
925.172	11185
925.279	11212
925.387	11307
925.494	11280
925.602	11349
925.709	11417
925.816	11136
925.924	11299
926.031	11299
926.138	11201
926.245	11330
926.352	11147
926.459	11311
926.566	11303
926.673	11185
926.779	11121
926.886	11037
926.993	10915
927.099	10847
927.206	10805
927.312	10900
927.419	10976
927.525	10793
927.631	10850
927.737	10843
927.843	10767
927.95	10664
928.056	10797
928.162	10744
928.267	10771
928.373	11387
928.479	10858
928.585	10535
928.69	10778
928.796	10755
928.901	10611
929.007	10447
929.112	10588
929.218	10645
929.323	10481
929.428	10470
929.533	10565
929.638	10481
929.743	10462
929.848	10588
929.953	10474
930.058	10356
930.163	10234
930.267	10223
930.372	10375
930.477	10211
930.581	10451
930.685	10272
930.79	10078
930.894	10188
930.998	10128
931.103	10230
931.207	9895
931.311	9804
931.415	9713
931.519	9549
931.623	9545
