Data from test_V78500241_2871.txt Node
Date: Fri Mar 25 14:53:42 CST 2022
User: usil
Spectrometer: V785-0024
Trigger mode: 0
Integration Time (sec): 4.000000E-1
Scans to average: 1
Nonlinearity correction enabled: false
Boxcar width: 0
Storing dark spectrum: false
XAxis mode: Wavelengths
Number of Pixels in Spectrum: 1024
>>>>>Begin Spectral Data<<<<<
801.071	22032
801.214	21907
801.356	21644
801.499	21720
801.641	21469
801.783	21420
801.926	21439
802.068	21458
802.211	21298
802.353	21154
802.496	20967
802.638	21009
802.78	20895
802.923	20796
803.065	20758
803.208	20762
803.35	20815
803.492	20792
803.635	20819
803.777	20769
803.919	20838
804.061	21062
804.204	20929
804.346	20727
804.488	20682
804.63	20739
804.773	20686
804.915	20842
805.057	20746
805.199	20606
805.341	20648
805.483	20720
805.626	20712
805.768	20575
805.91	20613
806.052	20693
806.194	20556
806.336	20788
806.478	20590
806.62	20545
806.762	20659
806.904	20743
807.046	21100
807.188	21062
807.33	20971
807.472	21070
807.614	20990
807.756	20750
807.898	20861
808.04	20720
808.182	20648
808.324	20739
808.465	20902
808.607	21005
808.749	20937
808.891	21154
809.033	21291
809.174	20986
809.316	20918
809.458	21032
809.6	21028
809.741	21108
809.883	21089
810.025	21264
810.166	21176
810.308	21237
810.45	21047
810.591	21055
810.733	20861
810.875	20826
811.016	20640
811.158	20693
811.299	20811
811.441	21009
811.582	20849
811.724	20727
811.865	20720
812.007	20796
812.148	20705
812.29	20781
812.431	21051
812.573	21150
812.714	21066
812.855	21268
812.997	21332
813.138	21492
813.279	21359
813.421	21241
813.562	21241
813.703	21074
813.845	20910
813.986	20800
814.127	20408
814.268	20393
814.41	20427
814.551	20358
814.692	20457
814.833	20275
814.974	20259
815.115	20427
815.256	20290
815.397	20180
815.539	20161
815.68	20122
815.821	20016
815.962	20237
816.103	20103
816.244	19944
816.385	19807
816.526	19879
816.666	19658
816.807	19449
816.948	19559
817.089	19624
817.23	19594
817.371	19537
817.512	19434
817.653	19480
817.793	19506
817.934	19514
818.075	19464
818.216	19430
818.356	19464
818.497	19266
818.638	19103
818.778	19072
818.919	19225
819.06	19259
819.2	19308
819.341	19381
819.481	19331
819.622	19438
819.762	19704
819.903	19571
820.043	19483
820.184	19514
820.324	19369
820.465	19537
820.605	19502
820.746	19320
820.886	19396
821.026	19422
821.167	19335
821.307	19369
821.447	19422
821.588	19175
821.728	19080
821.868	19069
822.008	18806
822.149	18859
822.289	18810
822.429	18703
822.569	18536
822.709	18547
822.849	18426
822.99	18315
823.13	18437
823.27	18266
823.41	18174
823.55	18041
823.69	18194
823.83	18083
823.97	18026
824.11	18003
824.25	17889
824.389	17973
824.529	17904
824.669	17908
824.809	18030
824.949	18030
825.089	17977
825.228	17954
825.368	17699
825.508	17775
825.648	17737
825.787	17809
825.927	17748
826.067	17775
826.206	17752
826.346	17760
826.485	17729
826.625	17707
826.765	17745
826.904	17703
827.044	17577
827.183	17474
827.323	17410
827.462	17429
827.601	17433
827.741	17322
827.88	17315
828.02	17220
828.159	17433
828.298	17376
828.437	17471
828.577	17337
828.716	17570
828.855	17299
828.994	17124
829.134	17223
829.273	17098
829.412	17128
829.551	17079
829.69	17166
829.829	17117
829.968	17258
830.107	17136
830.246	17166
830.385	17003
830.524	16961
830.663	16900
830.802	16843
830.941	16812
831.08	16702
831.219	16866
831.357	16820
831.496	17022
831.635	16656
831.774	16577
831.913	16668
832.051	16451
832.19	16466
832.329	16561
832.467	16432
832.606	16409
832.744	16466
832.883	16443
833.022	16394
833.16	16459
833.299	16462
833.437	16432
833.576	16493
833.714	16542
833.852	16497
833.991	16474
834.129	16538
834.267	16535
834.406	16470
834.544	16500
834.682	16561
834.821	16474
834.959	16713
835.097	16455
835.235	16550
835.373	16478
835.511	16516
835.65	16489
835.788	16363
835.926	16188
836.064	16154
836.202	16325
836.34	16428
836.478	16500
836.615	16272
836.753	16462
836.891	16474
837.029	16443
837.167	16287
837.305	16295
837.443	16352
837.58	16177
837.718	16363
837.856	16238
837.993	16230
838.131	16306
838.269	16223
838.406	16177
838.544	16128
838.681	16078
838.819	15876
838.956	15857
839.094	15743
839.231	15888
839.369	15964
839.506	16196
839.643	16010
839.781	15781
839.918	15785
840.055	15930
840.193	15747
840.33	15789
840.467	15755
840.604	15884
840.742	16021
840.879	15709
841.016	15831
841.153	15774
841.29	15922
841.427	15865
841.564	15759
841.701	15724
841.838	15850
841.975	15728
842.112	15736
842.249	15610
842.385	15564
842.522	15793
842.659	15591
842.796	15504
842.933	15618
843.069	15572
843.206	15458
843.343	15660
843.479	15675
843.616	15610
843.752	15431
843.889	15378
844.025	15515
844.162	15344
844.298	15450
844.435	15420
844.571	15412
844.708	15477
844.844	15549
844.98	15496
845.117	15473
845.253	15283
845.389	15211
845.525	15386
845.661	15275
845.798	15127
845.934	15192
846.07	15176
846.206	15218
846.342	15222
846.478	15108
846.614	15017
846.75	14963
846.886	14883
847.022	15036
847.158	14902
847.294	14975
847.429	14986
847.565	14800
847.701	15131
847.837	14636
847.972	14640
848.108	14823
848.244	14788
848.379	14625
848.515	14473
848.65	14537
848.786	14503
848.921	14495
849.057	14636
849.192	14640
849.328	14552
849.463	14610
849.598	14518
849.734	14465
849.869	14358
850.004	14362
850.14	14336
850.275	14317
850.41	14225
850.545	14183
850.68	14343
850.815	14313
850.95	14385
851.085	14530
851.22	14465
851.355	14423
851.49	14275
851.625	14278
851.76	14377
851.895	14225
852.03	14263
852.165	14233
852.299	14400
852.434	14393
852.569	14351
852.703	14309
852.838	14476
852.973	14518
853.107	14484
853.242	14309
853.376	14278
853.511	14172
853.645	14233
853.78	14377
853.914	14263
854.048	14115
854.183	14161
854.317	14256
854.451	14389
854.585	14187
854.72	14263
854.854	14347
854.988	14202
855.122	14199
855.256	14149
855.39	14191
855.524	14370
855.658	14195
855.792	14233
855.926	14252
856.06	14214
856.194	14298
856.327	14218
856.461	14176
856.595	14206
856.729	14164
856.862	14393
856.996	14229
857.13	14256
857.263	14355
857.397	14381
857.53	14240
857.664	14317
857.797	14336
857.931	14301
858.064	14339
858.197	14381
858.331	14278
858.464	14145
858.597	14183
858.731	14195
858.864	14225
858.997	14252
859.13	14309
859.263	14339
859.396	14343
859.529	14202
859.662	14164
859.795	14229
859.928	14240
860.061	14358
860.194	14396
860.327	14183
860.46	14195
860.592	14317
860.725	14374
860.858	14412
860.99	14298
861.123	14290
861.256	14214
861.388	14347
861.521	14807
861.653	14168
861.786	14054
861.918	14062
862.05	14233
862.183	14176
862.315	14176
862.447	14278
862.58	14240
862.712	14134
862.844	13993
862.976	14111
863.108	14062
863.24	14389
863.372	13959
863.504	13997
863.636	14005
863.768	13970
863.9	13970
864.032	13936
864.164	14069
864.296	14050
864.428	14225
864.559	14115
864.691	14073
864.823	14123
864.954	13997
865.086	14020
865.217	14005
865.349	13997
865.48	14005
865.612	14031
865.743	14134
865.875	14008
866.006	13944
866.137	13997
866.269	13982
866.4	13989
866.531	14065
866.662	13955
866.793	13890
866.924	13879
867.055	14001
867.186	13997
867.317	13898
867.448	13909
867.579	14016
867.71	13879
867.841	13925
867.972	14035
868.103	13947
868.233	13993
868.364	14081
868.495	14065
868.625	14183
868.756	14305
868.886	14172
869.017	14130
869.147	14328
869.278	14328
869.408	14309
869.539	14225
869.669	14263
869.799	14282
869.929	14313
870.06	14328
870.19	14556
870.32	14533
870.45	14526
870.58	14697
870.71	14644
870.84	14788
870.97	14568
871.1	14602
871.23	14826
871.36	14857
871.489	14708
871.619	14838
871.749	14937
871.879	14849
872.008	15013
872.138	14727
872.267	14823
872.397	14773
872.526	14670
872.656	14705
872.785	14625
872.915	14925
873.044	14914
873.173	14815
873.303	14941
873.432	14944
873.561	14979
873.69	14921
873.819	14941
873.948	14975
874.077	14868
874.206	14849
874.335	14834
874.464	15062
874.593	15154
874.722	15199
874.851	15093
874.979	15222
875.108	15222
875.237	15150
875.365	15077
875.494	15142
875.623	15218
875.751	15161
875.88	15264
876.008	15416
876.136	15401
876.265	15709
876.393	15709
876.521	15641
876.65	15587
876.778	15618
876.906	15572
877.034	15439
877.162	15511
877.29	15591
877.418	15671
877.546	15610
877.674	15633
877.802	15629
877.93	15637
878.058	15561
878.185	15587
878.313	15538
878.441	15679
878.568	15580
878.696	15587
878.824	15641
878.951	15644
879.079	15842
879.206	15926
879.333	15762
879.461	15709
879.588	15698
879.715	15831
879.842	16002
879.97	15751
880.097	15424
880.224	15378
880.351	15466
880.478	15466
880.605	15439
880.732	15511
880.859	15698
880.986	15557
881.112	15599
881.239	15325
881.366	15279
881.493	15150
881.619	15131
881.746	15165
881.872	15085
881.999	15112
882.125	15039
882.252	15100
882.378	15188
882.505	15230
882.631	15100
882.757	14887
882.883	14963
883.01	14986
883.136	14861
883.262	14845
883.388	14716
883.514	14960
883.64	14963
883.766	14906
883.892	14746
884.018	14788
884.143	14948
884.269	15001
884.395	14804
884.52	14598
884.646	14644
884.772	14552
884.897	14571
885.023	14705
885.148	14727
885.274	14838
885.399	14750
885.524	14659
885.65	14663
885.775	14670
885.9	14648
886.025	14762
886.15	14670
886.275	14602
886.4	14610
886.525	14617
886.65	14625
886.775	14564
886.9	14815
887.025	14883
887.149	14682
887.274	14564
887.399	14412
887.523	14434
887.648	14355
887.773	14381
887.897	14560
888.021	14541
888.146	14404
888.27	14518
888.395	14640
888.519	14568
888.643	14438
888.767	14651
888.891	14374
889.015	14328
889.139	14347
889.263	14347
889.387	14503
889.511	14602
889.635	14549
889.759	14355
889.883	14278
890.006	14404
890.13	14434
890.254	14328
890.377	14355
890.501	14096
890.624	14145
890.748	14214
890.871	14035
890.995	13982
891.118	13959
891.241	13947
891.364	14035
891.488	14069
891.611	14058
891.734	13932
891.857	14218
891.98	14073
892.103	14134
892.226	14081
892.349	14069
892.471	14012
892.594	14054
892.717	14119
892.839	14020
892.962	13955
893.085	14084
893.207	14103
893.33	13982
893.452	13951
893.575	13993
893.697	14077
893.819	14187
893.941	14351
894.064	14126
894.186	13978
894.308	14050
894.43	14031
894.552	14252
894.674	14115
894.796	14012
894.918	14145
895.04	14138
895.161	14187
895.283	14046
895.405	14157
895.526	14130
895.648	14225
895.769	14191
895.891	14164
896.012	14286
896.134	14252
896.255	14252
896.376	14199
896.498	14313
896.619	14229
896.74	14263
896.861	14221
896.982	14613
897.103	14670
897.224	14533
897.345	14450
897.466	14396
897.587	14549
897.708	14533
897.828	14488
897.949	14431
898.07	14282
898.19	14469
898.311	14754
898.431	14522
898.552	14568
898.672	14613
898.792	14670
898.913	14587
899.033	14526
899.153	14393
899.273	14309
899.393	14362
899.513	14385
899.633	14442
899.753	14480
899.873	14374
899.993	14571
900.113	14434
900.232	14526
900.352	14389
900.472	14370
900.591	14294
900.711	14294
900.83	14187
900.95	14339
901.069	14313
901.189	14305
901.308	14084
901.427	13925
901.546	14027
901.665	13932
901.784	13982
901.904	13830
902.023	13738
902.141	13666
902.26	13540
902.379	13590
902.498	13605
902.617	13419
902.735	13540
902.854	13559
902.973	13480
903.091	13263
903.21	13259
903.328	13247
903.446	13183
903.565	13099
903.683	13061
903.801	12981
903.919	13103
904.038	13095
904.156	12951
904.274	13000
904.392	13027
904.51	12894
904.627	12916
904.745	12996
904.863	13069
904.981	12662
905.098	12597
905.216	12566
905.334	12650
905.451	12620
905.569	12566
905.686	12658
905.803	12547
905.921	12391
906.038	12483
906.155	12372
906.272	12315
906.389	12410
906.506	12239
906.623	12243
906.74	12133
906.857	12049
906.974	12034
907.091	12281
907.208	12372
907.324	12270
907.441	12194
907.557	12026
907.674	11942
907.79	11855
907.907	11973
908.023	11939
908.139	11939
908.256	11946
908.372	11851
908.488	11859
908.604	11733
908.72	11695
908.836	11714
908.952	11695
909.068	11767
909.184	11843
909.3	11748
909.415	11836
909.531	11760
909.647	11501
909.762	11512
909.878	11455
909.993	11482
910.108	11471
910.224	11509
910.339	11429
910.454	11341
910.57	11307
910.685	11296
910.8	11535
910.915	11535
911.03	11364
911.145	11147
911.259	11147
911.374	11132
911.489	11071
911.604	11128
911.718	10995
911.833	10904
911.947	10816
912.062	10767
912.176	10980
912.291	10889
912.405	10866
912.519	11102
912.633	11140
912.748	11010
912.862	11018
912.976	10911
913.09	10702
913.204	10843
913.318	10824
913.431	10869
913.545	10831
913.659	10976
913.772	10835
913.886	10714
914	10660
914.113	10759
914.226	10850
914.34	10790
914.453	10615
914.566	10736
914.68	10702
914.793	10607
914.906	10436
915.019	10337
915.132	10390
915.245	10432
915.358	10421
915.47	10478
915.583	10432
915.696	10538
915.809	10607
915.921	10535
916.034	10432
916.146	10363
916.259	10322
916.371	10500
916.483	10478
916.595	10402
916.708	10432
916.82	10462
916.932	10295
917.044	10390
917.156	10303
917.268	10257
917.38	10238
917.491	10287
917.603	10291
917.715	10390
917.826	10481
917.938	10295
918.049	10253
918.161	10318
918.272	10402
918.384	10402
918.495	10280
918.606	10143
918.717	10112
918.828	10185
918.939	10169
919.05	10078
919.161	10162
919.272	9994
919.383	9972
919.494	10287
919.604	10413
919.715	10234
919.826	10147
919.936	10238
920.047	10230
920.157	10227
920.267	10424
920.378	10230
920.488	10166
920.598	10436
920.708	10599
920.818	10352
920.928	10451
921.038	10538
921.148	10527
921.258	10284
921.368	10135
921.477	10090
921.587	10013
921.697	9956
921.806	10044
921.916	9987
922.025	9835
922.134	9789
922.244	9724
922.353	9812
922.462	9679
922.571	9553
922.68	9530
922.789	9488
922.898	9488
923.007	9477
923.116	9523
923.224	9405
923.333	9519
923.442	9477
923.55	9279
923.659	9443
923.767	9359
923.876	9401
923.984	9397
924.092	9294
924.201	9291
924.309	9412
924.417	9325
924.525	9367
924.633	9291
924.741	10234
924.849	9032
924.956	9291
925.064	9112
925.172	9005
925.279	9093
925.387	9192
925.494	9165
925.602	9245
925.709	9249
925.816	9127
925.924	9066
926.031	9173
926.138	9154
926.245	9173
926.352	9062
926.459	9237
926.566	9253
926.673	9093
926.779	9058
926.886	8990
926.993	8937
927.099	8845
927.206	8796
927.312	8762
927.419	8868
927.525	8899
927.631	8883
927.737	8743
927.843	8739
927.95	8648
928.056	8720
928.162	8743
928.267	8800
928.373	9336
928.479	8800
928.585	8617
928.69	8727
928.796	8766
928.901	8621
929.007	8552
929.112	8632
929.218	8556
929.323	8610
929.428	8552
929.533	8731
929.638	8488
929.743	8503
929.848	8571
929.953	8587
930.058	8412
930.163	8320
930.267	8347
930.372	8492
930.477	8374
930.581	8549
930.685	8423
930.79	8290
930.894	8328
930.998	8221
931.103	8362
931.207	8084
931.311	8069
931.415	8043
931.519	7757
931.623	7712
