Data from test_V78500241_2878.txt Node
Date: Fri Mar 25 14:53:45 CST 2022
User: usil
Spectrometer: V785-0024
Trigger mode: 0
Integration Time (sec): 4.000000E-1
Scans to average: 1
Nonlinearity correction enabled: false
Boxcar width: 0
Storing dark spectrum: false
XAxis mode: Wavelengths
Number of Pixels in Spectrum: 1024
>>>>>Begin Spectral Data<<<<<
801.071	22135
801.214	21884
801.356	21732
801.499	21572
801.641	21553
801.783	21454
801.926	21424
802.068	21336
802.211	21279
802.353	21245
802.496	20952
802.638	21051
802.78	20986
802.923	20781
803.065	20758
803.208	20686
803.35	20762
803.492	20967
803.635	20830
803.777	20632
803.919	20876
804.061	21096
804.204	20800
804.346	20617
804.488	20682
804.63	20720
804.773	20625
804.915	20636
805.057	20830
805.199	20735
805.341	20701
805.483	20746
805.626	20796
805.768	20739
805.91	20769
806.052	20750
806.194	20716
806.336	20830
806.478	20705
806.62	20568
806.762	20804
806.904	20933
807.046	21176
807.188	20979
807.33	20937
807.472	21070
807.614	20933
807.756	21104
807.898	20944
808.04	20769
808.182	20807
808.324	20701
808.465	20845
808.607	20967
808.749	21074
808.891	21157
809.033	21336
809.174	21218
809.316	21024
809.458	21123
809.6	20948
809.741	21013
809.883	21138
810.025	21100
810.166	21142
810.308	21222
810.45	21291
810.591	21051
810.733	20929
810.875	20777
811.016	20769
811.158	20678
811.299	20849
811.441	20792
811.582	20914
811.724	20754
811.865	20727
812.007	20941
812.148	20823
812.29	20834
812.431	21024
812.573	21081
812.714	21211
812.855	21317
812.997	21485
813.138	21492
813.279	21370
813.421	21378
813.562	21264
813.703	21146
813.845	20872
813.986	20655
814.127	20533
814.268	20480
814.41	20339
814.551	20381
814.692	20446
814.833	20225
814.974	20328
815.115	20415
815.256	20088
815.397	20237
815.539	20172
815.68	20092
815.821	20020
815.962	20183
816.103	20100
816.244	19951
816.385	19932
816.526	19826
816.666	19643
816.807	19582
816.948	19601
817.089	19708
817.23	19487
817.371	19483
817.512	19460
817.653	19388
817.793	19544
817.934	19567
818.075	19563
818.216	19457
818.356	19457
818.497	19225
818.638	19129
818.778	19194
818.919	19168
819.06	19259
819.2	19289
819.341	19487
819.481	19476
819.622	19658
819.762	19791
819.903	19632
820.043	19586
820.184	19464
820.324	19426
820.465	19605
820.605	19548
820.746	19419
820.886	19407
821.026	19434
821.167	19407
821.307	19362
821.447	19434
821.588	19339
821.728	19221
821.868	19053
822.008	18837
822.149	18878
822.289	18856
822.429	18741
822.569	18608
822.709	18506
822.849	18429
822.99	18254
823.13	18380
823.27	18254
823.41	18125
823.55	18174
823.69	18171
823.83	18232
823.97	18159
824.11	18060
824.25	17882
824.389	17977
824.529	18019
824.669	18049
824.809	18041
824.949	18110
825.089	18053
825.228	18026
825.368	17733
825.508	17653
825.648	17794
825.787	17718
825.927	17786
826.067	17668
826.206	17779
826.346	17802
826.485	17733
826.625	17691
826.765	17889
826.904	17767
827.044	17402
827.183	17512
827.323	17398
827.462	17509
827.601	17364
827.741	17368
827.88	17471
828.02	17318
828.159	17349
828.298	17448
828.437	17570
828.577	17364
828.716	17512
828.855	17299
828.994	17246
829.134	17151
829.273	17261
829.412	17227
829.551	17083
829.69	17239
829.829	17189
829.968	17250
830.107	17140
830.246	17246
830.385	17143
830.524	16953
830.663	17067
830.802	16919
830.941	16828
831.08	16706
831.219	16850
831.357	16854
831.496	17067
831.635	16771
831.774	16672
831.913	16645
832.051	16599
832.19	16603
832.329	16649
832.467	16497
832.606	16512
832.744	16478
832.883	16398
833.022	16394
833.16	16478
833.299	16504
833.437	16523
833.576	16523
833.714	16500
833.852	16565
833.991	16550
834.129	16649
834.267	16691
834.406	16489
834.544	16611
834.682	16504
834.821	16554
834.959	16687
835.097	16535
835.235	16618
835.373	16554
835.511	16558
835.65	16443
835.788	16459
835.926	16268
836.064	16207
836.202	16253
836.34	16462
836.478	16466
836.615	16382
836.753	16356
836.891	16508
837.029	16497
837.167	16367
837.305	16352
837.443	16325
837.58	16318
837.718	16402
837.856	16329
837.993	16268
838.131	16253
838.269	16192
838.406	16150
838.544	16158
838.681	16055
838.819	15960
838.956	15838
839.094	15823
839.231	15884
839.369	15937
839.506	16169
839.643	15998
839.781	15823
839.918	15842
840.055	15960
840.193	15835
840.33	15816
840.467	15789
840.604	15846
840.742	15956
840.879	15778
841.016	15717
841.153	15797
841.29	15998
841.427	15808
841.564	15880
841.701	15838
841.838	15781
841.975	15667
842.112	15850
842.249	15644
842.385	15580
842.522	15637
842.659	15587
842.796	15675
842.933	15652
843.069	15606
843.206	15515
843.343	15637
843.479	15622
843.616	15625
843.752	15355
843.889	15397
844.025	15450
844.162	15310
844.298	15485
844.435	15348
844.571	15386
844.708	15530
844.844	15530
844.98	15587
845.117	15637
845.253	15401
845.389	15313
845.525	15317
845.661	15264
845.798	15138
845.934	15222
846.07	15203
846.206	15214
846.342	15321
846.478	15119
846.614	15005
846.75	14925
846.886	15005
847.022	15089
847.158	14960
847.294	14941
847.429	15024
847.565	14956
847.701	15252
847.837	14765
847.972	14758
848.108	14804
848.244	14823
848.379	14621
848.515	14613
848.65	14507
848.786	14568
848.921	14571
849.057	14720
849.192	14632
849.328	14648
849.463	14514
849.598	14537
849.734	14480
849.869	14427
850.004	14381
850.14	14366
850.275	14457
850.41	14282
850.545	14233
850.68	14286
850.815	14290
850.95	14290
851.085	14579
851.22	14396
851.355	14438
851.49	14366
851.625	14252
851.76	14259
851.895	14126
852.03	14229
852.165	14339
852.299	14374
852.434	14336
852.569	14298
852.703	14381
852.838	14396
852.973	14533
853.107	14552
853.242	14282
853.376	14229
853.511	14092
853.645	14157
853.78	14370
853.914	14237
854.048	14142
854.183	14142
854.317	14298
854.451	14393
854.585	14218
854.72	14100
854.854	14263
854.988	14145
855.122	14225
855.256	14073
855.39	14180
855.524	14298
855.658	14229
855.792	14206
855.926	14256
856.06	14206
856.194	14328
856.327	14240
856.461	14103
856.595	14130
856.729	14176
856.862	14313
856.996	14278
857.13	14237
857.263	14320
857.397	14199
857.53	14172
857.664	14282
857.797	14271
857.931	14355
858.064	14176
858.197	14301
858.331	14263
858.464	14161
858.597	14145
858.731	14107
858.864	14248
858.997	14172
859.13	14202
859.263	14275
859.396	14252
859.529	14172
859.662	14126
859.795	14153
859.928	14259
860.061	14351
860.194	14404
860.327	14206
860.46	14111
860.592	14237
860.725	14290
860.858	14237
860.99	14161
861.123	14183
861.256	14149
861.388	14199
861.521	14800
861.653	14069
861.786	13940
861.918	14065
862.05	14153
862.183	14199
862.315	14244
862.447	14267
862.58	14126
862.712	13963
862.844	13913
862.976	14073
863.108	13967
863.24	14476
863.372	13875
863.504	13970
863.636	14005
863.768	14081
863.9	13967
864.032	13883
864.164	13978
864.296	14020
864.428	14126
864.559	14031
864.691	14046
864.823	14035
864.954	14005
865.086	14031
865.217	14046
865.349	13967
865.48	14024
865.612	14027
865.743	14130
865.875	13974
866.006	13875
866.137	14016
866.269	13902
866.4	13955
866.531	13928
866.662	13875
866.793	13875
866.924	13898
867.055	13989
867.186	14020
867.317	13940
867.448	13902
867.579	13947
867.71	13974
867.841	13864
867.972	13986
868.103	13978
868.233	13951
868.364	13951
868.495	14100
868.625	14161
868.756	14218
868.886	14081
869.017	14191
869.147	14351
869.278	14366
869.408	14252
869.539	14218
869.669	14294
869.799	14183
869.929	14298
870.06	14332
870.19	14549
870.32	14518
870.45	14488
870.58	14556
870.71	14651
870.84	14724
870.97	14575
871.1	14473
871.23	14743
871.36	14769
871.489	14720
871.619	14800
871.749	14902
871.879	14887
872.008	14804
872.138	14735
872.267	14754
872.397	14697
872.526	14750
872.656	14537
872.785	14651
872.915	14853
873.044	14906
873.173	14880
873.303	14845
873.432	14906
873.561	14971
873.69	14929
873.819	14880
873.948	15001
874.077	14921
874.206	14868
874.335	14834
874.464	14990
874.593	15161
874.722	15100
874.851	15161
874.979	15154
875.108	15161
875.237	15123
875.365	15218
875.494	15138
875.623	15298
875.751	15070
875.88	15275
876.008	15355
876.136	15378
876.265	15595
876.393	15732
876.521	15675
876.65	15633
876.778	15618
876.906	15576
877.034	15648
877.162	15603
877.29	15557
877.418	15572
877.546	15633
877.674	15595
877.802	15515
877.93	15641
878.058	15500
878.185	15485
878.313	15523
878.441	15538
878.568	15450
878.696	15511
878.824	15728
878.951	15648
879.079	15747
879.206	15911
879.333	15876
879.461	15679
879.588	15759
879.715	15766
879.842	15789
879.97	15819
880.097	15348
880.224	15272
880.351	15462
880.478	15507
880.605	15367
880.732	15450
880.859	15812
880.986	15450
881.112	15507
881.239	15264
881.366	15173
881.493	15142
881.619	15085
881.746	15116
881.872	15081
881.999	15081
882.125	15055
882.252	15119
882.378	15180
882.505	15150
882.631	15093
882.757	14826
882.883	15020
883.01	14941
883.136	14899
883.262	14826
883.388	14769
883.514	14921
883.64	14906
883.766	14861
883.892	14667
884.018	14785
884.143	14963
884.269	14990
884.395	14743
884.52	14560
884.646	14670
884.772	14587
884.897	14446
885.023	14602
885.148	14785
885.274	14811
885.399	14746
885.524	14621
885.65	14659
885.775	14579
885.9	14556
886.025	14667
886.15	14750
886.275	14526
886.4	14434
886.525	14583
886.65	14514
886.775	14530
886.9	14724
887.025	14781
887.149	14686
887.274	14522
887.399	14419
887.523	14442
887.648	14442
887.773	14301
887.897	14560
888.021	14469
888.146	14381
888.27	14507
888.395	14473
888.519	14511
888.643	14438
888.767	14575
888.891	14442
889.015	14229
889.139	14313
889.263	14298
889.387	14408
889.511	14575
889.635	14415
889.759	14305
889.883	14286
890.006	14415
890.13	14476
890.254	14259
890.377	14237
890.501	14069
890.624	14138
890.748	14123
890.871	14111
890.995	13967
891.118	13963
891.241	14035
891.364	14016
891.488	14168
891.611	14046
891.734	14062
891.857	14069
891.98	14050
892.103	14073
892.226	14039
892.349	14081
892.471	13833
892.594	14062
892.717	13997
892.839	13982
892.962	13955
893.085	14035
893.207	14027
893.33	13921
893.452	13997
893.575	14138
893.697	13921
893.819	14195
893.941	14256
894.064	14237
894.186	13936
894.308	13967
894.43	14149
894.552	14278
894.674	14183
894.796	13986
894.918	14062
895.04	14027
895.161	14126
895.283	14062
895.405	14088
895.526	14126
895.648	14103
895.769	14172
895.891	14210
896.012	14282
896.134	14275
896.255	14259
896.376	14164
896.498	14180
896.619	14256
896.74	14221
896.861	14240
896.982	14541
897.103	14663
897.224	14480
897.345	14408
897.466	14286
897.587	14495
897.708	14651
897.828	14526
897.949	14434
898.07	14298
898.19	14454
898.311	14549
898.431	14465
898.552	14488
898.672	14636
898.792	14667
898.913	14526
899.033	14552
899.153	14431
899.273	14370
899.393	14419
899.513	14484
899.633	14442
899.753	14454
899.873	14442
899.993	14454
900.113	14415
900.232	14450
900.352	14385
900.472	14374
900.591	14336
900.711	14438
900.83	14267
900.95	14305
901.069	14492
901.189	14229
901.308	14001
901.427	14001
901.546	13982
901.665	13978
901.784	14024
901.904	13860
902.023	13795
902.141	13483
902.26	13529
902.379	13620
902.498	13533
902.617	13540
902.735	13563
902.854	13582
902.973	13544
903.091	13263
903.21	13156
903.328	13274
903.446	13221
903.565	13137
903.683	13118
903.801	13069
903.919	13015
904.038	13091
904.156	12878
904.274	13000
904.392	12863
904.51	12897
904.627	12954
904.745	12897
904.863	12962
904.981	12677
905.098	12642
905.216	12639
905.334	12662
905.451	12566
905.569	12604
905.686	12662
905.803	12662
905.921	12361
906.038	12479
906.155	12334
906.272	12311
906.389	12346
906.506	12190
906.623	12247
906.74	12155
906.857	11984
906.974	12136
907.091	12266
907.208	12281
907.324	12163
907.441	12091
907.557	11866
907.674	11893
907.79	11828
907.907	12003
908.023	11878
908.139	11935
908.256	11851
908.372	11901
908.488	11828
908.604	11794
908.72	11688
908.836	11684
908.952	11657
909.068	11802
909.184	11866
909.3	11752
909.415	11695
909.531	11718
909.647	11535
909.762	11463
909.878	11448
909.993	11497
910.108	11395
910.224	11383
910.339	11414
910.454	11372
910.57	11284
910.685	11261
910.8	11532
910.915	11509
911.03	11372
911.145	11201
911.259	11117
911.374	11143
911.489	11086
911.604	11117
911.718	10949
911.833	11003
911.947	10873
912.062	10702
912.176	10847
912.291	10927
912.405	10911
912.519	11140
912.633	11079
912.748	11105
912.862	10976
912.976	10778
913.09	10740
913.204	10790
913.318	10790
913.431	10862
913.545	10862
913.659	10911
913.772	10759
913.886	10645
914	10714
914.113	10687
914.226	10862
914.34	10790
914.453	10615
914.566	10744
914.68	10672
914.793	10565
914.906	10436
915.019	10455
915.132	10382
915.245	10459
915.358	10424
915.47	10451
915.583	10504
915.696	10459
915.809	10538
915.921	10596
916.034	10440
916.146	10440
916.259	10417
916.371	10417
916.483	10455
916.595	10413
916.708	10375
916.82	10310
916.932	10402
917.044	10382
917.156	10257
917.268	10310
917.38	10261
917.491	10287
917.603	10348
917.715	10253
917.826	10421
917.938	10227
918.049	10101
918.161	10272
918.272	10394
918.384	10390
918.495	10348
918.606	10211
918.717	10063
918.828	10147
918.939	10166
919.05	10044
919.161	10090
919.272	10017
919.383	9979
919.494	10177
919.604	10375
919.715	10230
919.826	10082
919.936	10128
920.047	10162
920.157	10166
920.267	10390
920.378	10227
920.488	10154
920.598	10337
920.708	10440
920.818	10333
920.928	10375
921.038	10622
921.148	10512
921.258	10181
921.368	10158
921.477	10002
921.587	10006
921.697	9903
921.806	10006
921.916	9953
922.025	9724
922.134	9743
922.244	9652
922.353	9724
922.462	9526
922.571	9629
922.68	9408
922.789	9481
922.898	9408
923.007	9382
923.116	9431
923.224	9462
923.333	9393
923.442	9283
923.55	9310
923.659	9340
923.767	9268
923.876	9321
923.984	9329
924.092	9192
924.201	9256
924.309	9272
924.417	9313
924.525	9199
924.633	9260
924.741	10112
924.849	9066
924.956	9169
925.064	9131
925.172	8971
925.279	9089
925.387	9066
925.494	9051
925.602	9199
925.709	9184
925.816	9028
925.924	9062
926.031	9173
926.138	9081
926.245	9157
926.352	9024
926.459	9260
926.566	9211
926.673	8986
926.779	8925
926.886	8914
926.993	8762
927.099	8815
927.206	8785
927.312	8739
927.419	8826
927.525	8823
927.631	8918
927.737	8777
927.843	8667
927.95	8560
928.056	8636
928.162	8606
928.267	8781
928.373	9291
928.479	8773
928.585	8571
928.69	8678
928.796	8731
928.901	8602
929.007	8511
929.112	8492
929.218	8560
929.323	8545
929.428	8457
929.533	8640
929.638	8473
929.743	8526
929.848	8533
929.953	8446
930.058	8473
930.163	8248
930.267	8290
930.372	8408
930.477	8229
930.581	8503
930.685	8419
930.79	8221
930.894	8244
930.998	8206
931.103	8347
931.207	8084
931.311	7936
931.415	7849
931.519	7708
931.623	7738
