Data from test_V78500241_2145.txt Node
Date: Fri Mar 25 14:48:38 CST 2022
User: usil
Spectrometer: V785-0024
Trigger mode: 0
Integration Time (sec): 4.000000E-1
Scans to average: 1
Nonlinearity correction enabled: false
Boxcar width: 0
Storing dark spectrum: false
XAxis mode: Wavelengths
Number of Pixels in Spectrum: 1024
>>>>>Begin Spectral Data<<<<<
801.071	22154
801.214	22067
801.356	21762
801.499	21709
801.641	21599
801.783	21606
801.926	21515
802.068	21557
802.211	21504
802.353	21321
802.496	21226
802.638	21074
802.78	21066
802.923	20979
803.065	20937
803.208	20948
803.35	20937
803.492	20998
803.635	21077
803.777	20880
803.919	21165
804.061	21230
804.204	21009
804.346	20834
804.488	20735
804.63	20788
804.773	20720
804.915	20720
805.057	20902
805.199	20731
805.341	20887
805.483	20849
805.626	20918
805.768	20815
805.91	20815
806.052	20956
806.194	20701
806.336	20971
806.478	20727
806.62	20727
806.762	20921
806.904	21123
807.046	21150
807.188	21024
807.33	21135
807.472	21218
807.614	21112
807.756	21085
807.898	20921
808.04	20925
808.182	20883
808.324	20986
808.465	20994
808.607	21195
808.749	21169
808.891	21294
809.033	21416
809.174	21268
809.316	21089
809.458	21131
809.6	21093
809.741	21218
809.883	21294
810.025	21477
810.166	21310
810.308	21367
810.45	21275
810.591	21195
810.733	21138
810.875	20971
811.016	20921
811.158	20941
811.299	21116
811.441	21268
811.582	21032
811.724	20982
811.865	20929
812.007	21017
812.148	20956
812.29	21017
812.431	21245
812.573	21161
812.714	21397
812.855	21477
812.997	21633
813.138	21660
813.279	21606
813.421	21454
813.562	21397
813.703	21310
813.845	21192
813.986	20933
814.127	20552
814.268	20629
814.41	20636
814.551	20560
814.692	20556
814.833	20518
814.974	20484
815.115	20533
815.256	20438
815.397	20332
815.539	20328
815.68	20324
815.821	20199
815.962	20237
816.103	20267
816.244	20301
816.385	20092
816.526	20039
816.666	19750
816.807	19578
816.948	19719
817.089	19849
817.23	19776
817.371	19731
817.512	19639
817.653	19658
817.793	19597
817.934	19613
818.075	19609
818.216	19662
818.356	19594
818.497	19445
818.638	19362
818.778	19320
818.919	19369
819.06	19335
819.2	19514
819.341	19472
819.481	19377
819.622	19704
819.762	19833
819.903	19750
820.043	19632
820.184	19643
820.324	19628
820.465	19693
820.605	19742
820.746	19727
820.886	19384
821.026	19616
821.167	19533
821.307	19655
821.447	19597
821.588	19400
821.728	19457
821.868	19148
822.008	19050
822.149	19107
822.289	19004
822.429	18783
822.569	18715
822.709	18654
822.849	18490
822.99	18551
823.13	18498
823.27	18502
823.41	18304
823.55	18281
823.69	18391
823.83	18437
823.97	18292
824.11	18144
824.25	18026
824.389	18182
824.529	18117
824.669	18186
824.809	18281
824.949	18190
825.089	18148
825.228	18159
825.368	17908
825.508	17882
825.648	18045
825.787	17958
825.927	17836
826.067	17840
826.206	17828
826.346	17874
826.485	17859
826.625	17897
826.765	18064
826.904	17946
827.044	17737
827.183	17638
827.323	17573
827.462	17767
827.601	17516
827.741	17630
827.88	17543
828.02	17414
828.159	17562
828.298	17623
828.437	17657
828.577	17657
828.716	17703
828.855	17581
828.994	17330
829.134	17315
829.273	17395
829.412	17402
829.551	17299
829.69	17379
829.829	17356
829.968	17474
830.107	17402
830.246	17379
830.385	17273
830.524	17193
830.663	17216
830.802	17094
830.941	16919
831.08	16949
831.219	17037
831.357	16984
831.496	17052
831.635	16968
831.774	16919
831.913	16847
832.051	16759
832.19	16683
832.329	16755
832.467	16672
832.606	16653
832.744	16752
832.883	16645
833.022	16558
833.16	16569
833.299	16733
833.437	16577
833.576	16759
833.714	16687
833.852	16736
833.991	16721
834.129	16839
834.267	16710
834.406	16706
834.544	16771
834.682	16774
834.821	16725
834.959	16892
835.097	16561
835.235	16733
835.373	16687
835.511	16615
835.65	16618
835.788	16717
835.926	16462
836.064	16371
836.202	16398
836.34	16512
836.478	16668
836.615	16573
836.753	16660
836.891	16694
837.029	16637
837.167	16691
837.305	16470
837.443	16405
837.58	16485
837.718	16493
837.856	16527
837.993	16356
838.131	16417
838.269	16398
838.406	16394
838.544	16356
838.681	16348
838.819	16063
838.956	16048
839.094	16090
839.231	15994
839.369	16211
839.506	16402
839.643	16287
839.781	16025
839.918	15899
840.055	16036
840.193	15975
840.33	16051
840.467	15994
840.604	16086
840.742	16230
840.879	15915
841.016	15911
841.153	15907
841.29	16238
841.427	15983
841.564	15968
841.701	15915
841.838	15915
841.975	15918
842.112	15926
842.249	15915
842.385	15781
842.522	15922
842.659	15865
842.796	15743
842.933	15873
843.069	15762
843.206	15838
843.343	15823
843.479	15747
843.616	15709
843.752	15580
843.889	15618
844.025	15743
844.162	15603
844.298	15652
844.435	15507
844.571	15549
844.708	15603
844.844	15778
844.98	15648
845.117	15606
845.253	15507
845.389	15504
845.525	15534
845.661	15488
845.798	15389
845.934	15420
846.07	15317
846.206	15492
846.342	15412
846.478	15268
846.614	15157
846.75	15146
846.886	15116
847.022	15211
847.158	15112
847.294	15097
847.429	15226
847.565	15127
847.701	15336
847.837	14895
847.972	14937
848.108	15013
848.244	14937
848.379	14845
848.515	14686
848.65	14655
848.786	14796
848.921	14762
849.057	14853
849.192	14765
849.328	14724
849.463	14769
849.598	14727
849.734	14629
849.869	14617
850.004	14533
850.14	14602
850.275	14488
850.41	14400
850.545	14541
850.68	14423
850.815	14514
850.95	14465
851.085	14686
851.22	14518
851.355	14503
851.49	14571
851.625	14476
851.76	14530
851.895	14396
852.03	14377
852.165	14431
852.299	14575
852.434	14644
852.569	14511
852.703	14404
852.838	14594
852.973	14644
853.107	14663
853.242	14412
853.376	14374
853.511	14313
853.645	14362
853.78	14507
853.914	14423
854.048	14358
854.183	14427
854.317	14374
854.451	14518
854.585	14381
854.72	14366
854.854	14450
854.988	14206
855.122	14366
855.256	14218
855.39	14298
855.524	14427
855.658	14469
855.792	14400
855.926	14408
856.06	14400
856.194	14370
856.327	14358
856.461	14259
856.595	14347
856.729	14244
856.862	14442
856.996	14457
857.13	14366
857.263	14450
857.397	14400
857.53	14427
857.664	14457
857.797	14446
857.931	14568
858.064	14408
858.197	14473
858.331	14389
858.464	14377
858.597	14320
858.731	14309
858.864	14351
858.997	14324
859.13	14374
859.263	14415
859.396	14454
859.529	14412
859.662	14339
859.795	14374
859.928	14282
860.061	14530
860.194	14507
860.327	14446
860.46	14415
860.592	14552
860.725	14438
860.858	14518
860.99	14336
861.123	14324
861.256	14377
861.388	14480
861.521	15097
861.653	14240
861.786	14176
861.918	14248
862.05	14282
862.183	14343
862.315	14351
862.447	14473
862.58	14370
862.712	14115
862.844	14130
862.976	14191
863.108	14282
863.24	14514
863.372	14039
863.504	14161
863.636	14130
863.768	14206
863.9	14142
864.032	14046
864.164	14103
864.296	14172
864.428	14161
864.559	14206
864.691	14199
864.823	14149
864.954	14130
865.086	14214
865.217	14145
865.349	14008
865.48	14100
865.612	14130
865.743	14225
865.875	14199
866.006	14172
866.137	14221
866.269	14073
866.4	14123
866.531	14123
866.662	14115
866.793	14103
866.924	14069
867.055	14142
867.186	14130
867.317	14103
867.448	14012
867.579	14027
867.71	14008
867.841	14031
867.972	14161
868.103	14164
868.233	14161
868.364	14176
868.495	14142
868.625	14404
868.756	14488
868.886	14271
869.017	14362
869.147	14511
869.278	14385
869.408	14507
869.539	14362
869.669	14434
869.799	14400
869.929	14454
870.06	14530
870.19	14743
870.32	14613
870.45	14746
870.58	14758
870.71	14880
870.84	14880
870.97	14807
871.1	14785
871.23	14952
871.36	15017
871.489	14823
871.619	15013
871.749	14963
871.879	14956
872.008	15100
872.138	14933
872.267	14963
872.397	14823
872.526	14796
872.656	14735
872.785	14861
872.915	15028
873.044	15074
873.173	14971
873.303	15028
873.432	15001
873.561	15036
873.69	14952
873.819	14944
873.948	15127
874.077	15051
874.206	15001
874.335	15070
874.464	15264
874.593	15363
874.722	15157
874.851	15313
874.979	15424
875.108	15397
875.237	15256
875.365	15249
875.494	15310
875.623	15435
875.751	15332
875.88	15344
876.008	15549
876.136	15568
876.265	15831
876.393	15800
876.521	15846
876.65	15903
876.778	15804
876.906	15755
877.034	15736
877.162	15675
877.29	15675
877.418	15751
877.546	15793
877.674	15854
877.802	15770
877.93	15819
878.058	15751
878.185	15717
878.313	15823
878.441	15888
878.568	15732
878.696	15644
878.824	15675
878.951	15865
879.079	15987
879.206	16013
879.333	15846
879.461	15785
879.588	15808
879.715	15994
879.842	16055
879.97	15884
880.097	15606
880.224	15637
880.351	15622
880.478	15614
880.605	15652
880.732	15667
880.859	15911
880.986	15732
881.112	15576
881.239	15591
881.366	15511
881.493	15272
881.619	15325
881.746	15298
881.872	15199
881.999	15268
882.125	15313
882.252	15275
882.378	15363
882.505	15420
882.631	15199
882.757	15135
882.883	15123
883.01	15070
883.136	15047
883.262	14990
883.388	14910
883.514	15081
883.64	15161
883.766	15081
883.892	14887
884.018	14948
884.143	15081
884.269	15192
884.395	14849
884.52	14788
884.646	14842
884.772	14773
884.897	14697
885.023	14781
885.148	14842
885.274	15017
885.399	14975
885.524	14830
885.65	14765
885.775	14708
885.9	14769
886.025	14941
886.15	14880
886.275	14781
886.4	14689
886.525	14765
886.65	14762
886.775	14659
886.9	14880
887.025	15028
887.149	14781
887.274	14594
887.399	14518
887.523	14651
887.648	14568
887.773	14568
887.897	14727
888.021	14587
888.146	14594
888.27	14659
888.395	14678
888.519	14720
888.643	14640
888.767	14617
888.891	14526
889.015	14450
889.139	14613
889.263	14415
889.387	14621
889.511	14701
889.635	14598
889.759	14507
889.883	14473
890.006	14389
890.13	14670
890.254	14442
890.377	14358
890.501	14214
890.624	14252
890.748	14339
890.871	14290
890.995	14123
891.118	14130
891.241	14233
891.364	14157
891.488	14328
891.611	14157
891.734	14278
891.857	14362
891.98	14199
892.103	14225
892.226	14134
892.349	14172
892.471	14035
892.594	14058
892.717	14172
892.839	14164
892.962	14244
893.085	14229
893.207	14191
893.33	14081
893.452	14130
893.575	14199
893.697	14126
893.819	14294
893.941	14434
894.064	14336
894.186	14176
894.308	14161
894.43	14339
894.552	14461
894.674	14324
894.796	14221
894.918	14123
895.04	14187
895.161	14442
895.283	14339
895.405	14229
895.526	14282
895.648	14393
895.769	14412
895.891	14412
896.012	14370
896.134	14393
896.255	14438
896.376	14309
896.498	14248
896.619	14431
896.74	14263
896.861	14461
896.982	14693
897.103	14826
897.224	14758
897.345	14617
897.466	14526
897.587	14629
897.708	14773
897.828	14746
897.949	14541
898.07	14488
898.19	14594
898.311	14785
898.431	14575
898.552	14769
898.672	14754
898.792	14861
898.913	14781
899.033	14579
899.153	14571
899.273	14518
899.393	14507
899.513	14613
899.633	14381
899.753	14606
899.873	14495
899.993	14617
900.113	14571
900.232	14511
900.352	14503
900.472	14518
900.591	14434
900.711	14434
900.83	14336
900.95	14476
901.069	14587
901.189	14385
901.308	14115
901.427	14092
901.546	14149
901.665	14172
901.784	14183
901.904	14069
902.023	13906
902.141	13632
902.26	13765
902.379	13757
902.498	13658
902.617	13590
902.735	13609
902.854	13590
902.973	13594
903.091	13407
903.21	13426
903.328	13362
903.446	13373
903.565	13152
903.683	13221
903.801	13183
903.919	13145
904.038	13198
904.156	13069
904.274	13133
904.392	13069
904.51	13008
904.627	13084
904.745	13012
904.863	13133
904.981	12852
905.098	12833
905.216	12734
905.334	12734
905.451	12783
905.569	12684
905.686	12829
905.803	12730
905.921	12593
906.038	12654
906.155	12635
906.272	12433
906.389	12528
906.506	12323
906.623	12323
906.74	12239
906.857	12235
906.974	12273
907.091	12388
907.208	12452
907.324	12319
907.441	12247
907.557	12232
907.674	12030
907.79	11939
907.907	12072
908.023	12106
908.139	12087
908.256	12030
908.372	11988
908.488	12019
908.604	11843
908.72	11745
908.836	11843
908.952	11771
909.068	11817
909.184	11885
909.3	11752
909.415	11828
909.531	11855
909.647	11642
909.762	11528
909.878	11509
909.993	11615
910.108	11551
910.224	11573
910.339	11581
910.454	11497
910.57	11391
910.685	11448
910.8	11596
910.915	11676
911.03	11421
911.145	11299
911.259	11284
911.374	11284
911.489	11201
911.604	11216
911.718	11147
911.833	10999
911.947	10938
912.062	10885
912.176	10968
912.291	11025
912.405	11048
912.519	11155
912.633	11246
912.748	11128
912.862	11094
912.976	10980
913.09	10843
913.204	10915
913.318	10987
913.431	11029
913.545	10972
913.659	11079
913.772	10915
913.886	10824
914	10714
914.113	10961
914.226	10949
914.34	10961
914.453	10683
914.566	10892
914.68	10740
914.793	10782
914.906	10637
915.019	10535
915.132	10546
915.245	10462
915.358	10535
915.47	10573
915.583	10599
915.696	10694
915.809	10698
915.921	10656
916.034	10504
916.146	10402
916.259	10421
916.371	10725
916.483	10569
916.595	10447
916.708	10451
916.82	10451
916.932	10538
917.044	10481
917.156	10512
917.268	10325
917.38	10405
917.491	10284
917.603	10402
917.715	10493
917.826	10443
917.938	10390
918.049	10223
918.161	10402
918.272	10516
918.384	10466
918.495	10394
918.606	10280
918.717	10044
918.828	10299
918.939	10314
919.05	10211
919.161	10223
919.272	9983
919.383	10067
919.494	10291
919.604	10421
919.715	10287
919.826	10215
919.936	10177
920.047	10398
920.157	10265
920.267	10432
920.378	10276
920.488	10291
920.598	10421
920.708	10615
920.818	10508
920.928	10436
921.038	10634
921.148	10512
921.258	10363
921.368	10207
921.477	10116
921.587	10086
921.697	9934
921.806	10150
921.916	10013
922.025	9831
922.134	9895
922.244	9793
922.353	9850
922.462	9660
922.571	9675
922.68	9553
922.789	9523
922.898	9519
923.007	9416
923.116	9545
923.224	9549
923.333	9462
923.442	9443
923.55	9367
923.659	9374
923.767	9462
923.876	9355
923.984	9462
924.092	9287
924.201	9367
924.309	9431
924.417	9374
924.525	9287
924.633	9275
924.741	10242
924.849	9154
924.956	9294
925.064	9218
925.172	9074
925.279	9184
925.387	9135
925.494	9173
925.602	9298
925.709	9203
925.816	9142
925.924	9176
926.031	9298
926.138	9249
926.245	9226
926.352	9119
926.459	9180
926.566	9245
926.673	9131
926.779	9013
926.886	9020
926.993	8914
927.099	8861
927.206	8864
927.312	8933
927.419	8990
927.525	8982
927.631	8918
927.737	8823
927.843	8849
927.95	8739
928.056	8766
928.162	8819
928.267	8834
928.373	9332
928.479	8857
928.585	8648
928.69	8785
928.796	8807
928.901	8655
929.007	8610
929.112	8743
929.218	8720
929.323	8606
929.428	8678
929.533	8689
929.638	8571
929.743	8594
929.848	8708
929.953	8617
930.058	8560
930.163	8385
930.267	8355
930.372	8473
930.477	8434
930.581	8636
930.685	8492
930.79	8389
930.894	8370
930.998	8320
931.103	8476
931.207	8103
931.311	8138
931.415	8046
931.519	7860
931.623	7868
