Data from test_V78500241_2142.txt Node
Date: Fri Mar 25 14:48:37 CST 2022
User: usil
Spectrometer: V785-0024
Trigger mode: 0
Integration Time (sec): 4.000000E-1
Scans to average: 1
Nonlinearity correction enabled: false
Boxcar width: 0
Storing dark spectrum: false
XAxis mode: Wavelengths
Number of Pixels in Spectrum: 1024
>>>>>Begin Spectral Data<<<<<
801.071	22112
801.214	22032
801.356	21838
801.499	21797
801.641	21519
801.783	21603
801.926	21557
802.068	21485
802.211	21355
802.353	21344
802.496	21070
802.638	21009
802.78	20872
802.923	21055
803.065	20948
803.208	20838
803.35	20872
803.492	20982
803.635	20990
803.777	20872
803.919	20925
804.061	21264
804.204	20971
804.346	20826
804.488	20815
804.63	20800
804.773	20769
804.915	20815
805.057	20929
805.199	20743
805.341	20979
805.483	20842
805.626	20914
805.768	20682
805.91	20777
806.052	20868
806.194	20887
806.336	20918
806.478	20663
806.62	20868
806.762	20910
806.904	20994
807.046	21245
807.188	21096
807.33	21077
807.472	21211
807.614	20998
807.756	21001
807.898	20921
808.04	20861
808.182	20792
808.324	20967
808.465	21001
808.607	21165
808.749	21176
808.891	21199
809.033	21249
809.174	21298
809.316	21074
809.458	21268
809.6	21055
809.741	21192
809.883	21298
810.025	21279
810.166	21329
810.308	21351
810.45	21245
810.591	21135
810.733	21154
810.875	20944
811.016	20921
811.158	20830
811.299	20982
811.441	21070
811.582	21070
811.724	20956
811.865	21005
812.007	20891
812.148	21039
812.29	21039
812.431	21252
812.573	21237
812.714	21351
812.855	21511
812.997	21625
813.138	21633
813.279	21633
813.421	21580
813.562	21226
813.703	21241
813.845	21085
813.986	20994
814.127	20754
814.268	20598
814.41	20533
814.551	20583
814.692	20682
814.833	20415
814.974	20518
815.115	20488
815.256	20431
815.397	20446
815.539	20427
815.68	20362
815.821	20195
815.962	20351
816.103	20339
816.244	20191
816.385	20027
816.526	20058
816.666	19761
816.807	19746
816.948	19940
817.089	19947
817.23	19833
817.371	19750
817.512	19632
817.653	19750
817.793	19567
817.934	19700
818.075	19772
818.216	19708
818.356	19544
818.497	19468
818.638	19312
818.778	19392
818.919	19438
819.06	19499
819.2	19495
819.341	19681
819.481	19601
819.622	19681
819.762	19856
819.903	19776
820.043	19803
820.184	19616
820.324	19685
820.465	19795
820.605	19738
820.746	19582
820.886	19434
821.026	19700
821.167	19594
821.307	19635
821.447	19556
821.588	19548
821.728	19373
821.868	19236
822.008	19164
822.149	19232
822.289	18924
822.429	18806
822.569	18772
822.709	18753
822.849	18650
822.99	18555
823.13	18525
823.27	18654
823.41	18399
823.55	18205
823.69	18384
823.83	18388
823.97	18304
824.11	18152
824.25	18114
824.389	18140
824.529	18178
824.669	18201
824.809	18182
824.949	18296
825.089	18171
825.228	18197
825.368	17950
825.508	17939
825.648	17942
825.787	17901
825.927	17908
826.067	17904
826.206	17718
826.346	17908
826.485	17855
826.625	17863
826.765	18019
826.904	17931
827.044	17695
827.183	17699
827.323	17554
827.462	17741
827.601	17615
827.741	17570
827.88	17646
828.02	17497
828.159	17535
828.298	17581
828.437	17676
828.577	17528
828.716	17699
828.855	17535
828.994	17387
829.134	17322
829.273	17326
829.412	17376
829.551	17235
829.69	17334
829.829	17311
829.968	17592
830.107	17379
830.246	17391
830.385	17391
830.524	17269
830.663	17029
830.802	17143
830.941	16953
831.08	16957
831.219	17086
831.357	17155
831.496	17098
831.635	17033
831.774	16942
831.913	16900
832.051	16824
832.19	16710
832.329	16740
832.467	16752
832.606	16573
832.744	16679
832.883	16702
833.022	16584
833.16	16683
833.299	16668
833.437	16698
833.576	16691
833.714	16679
833.852	16733
833.991	16729
834.129	16824
834.267	16812
834.406	16710
834.544	16729
834.682	16786
834.821	16656
834.959	16828
835.097	16630
835.235	16782
835.373	16774
835.511	16740
835.65	16634
835.788	16611
835.926	16535
836.064	16405
836.202	16360
836.34	16656
836.478	16569
836.615	16493
836.753	16611
836.891	16733
837.029	16504
837.167	16535
837.305	16493
837.443	16447
837.58	16466
837.718	16504
837.856	16474
837.993	16451
838.131	16447
838.269	16360
838.406	16417
838.544	16379
838.681	16169
838.819	16177
838.956	16025
839.094	16097
839.231	16025
839.369	16143
839.506	16421
839.643	16249
839.781	16082
839.918	16086
840.055	16090
840.193	16082
840.33	15899
840.467	16029
840.604	16029
840.742	16352
840.879	16010
841.016	15956
841.153	15888
841.29	16177
841.427	15953
841.564	16010
841.701	16071
841.838	16025
841.975	16059
842.112	15934
842.249	15876
842.385	15903
842.522	16002
842.659	15895
842.796	15812
842.933	15861
843.069	15785
843.206	15793
843.343	15876
843.479	15755
843.616	15823
843.752	15671
843.889	15629
844.025	15789
844.162	15561
844.298	15682
844.435	15519
844.571	15500
844.708	15610
844.844	15667
844.98	15694
845.117	15743
845.253	15473
845.389	15511
845.525	15572
845.661	15462
845.798	15466
845.934	15420
846.07	15329
846.206	15466
846.342	15603
846.478	15310
846.614	15272
846.75	15161
846.886	15154
847.022	15233
847.158	15127
847.294	15077
847.429	15195
847.565	15180
847.701	15431
847.837	14944
847.972	14960
848.108	15028
848.244	14986
848.379	14804
848.515	14743
848.65	14750
848.786	14678
848.921	14731
849.057	14880
849.192	14872
849.328	14785
849.463	14845
849.598	14781
849.734	14598
849.869	14625
850.004	14579
850.14	14610
850.275	14514
850.41	14431
850.545	14415
850.68	14583
850.815	14583
850.95	14514
851.085	14724
851.22	14758
851.355	14575
851.49	14476
851.625	14522
851.76	14442
851.895	14355
852.03	14446
852.165	14514
852.299	14613
852.434	14552
852.569	14594
852.703	14590
852.838	14632
852.973	14686
853.107	14667
853.242	14427
853.376	14355
853.511	14290
853.645	14328
853.78	14552
853.914	14412
854.048	14385
854.183	14389
854.317	14381
854.451	14503
854.585	14374
854.72	14290
854.854	14393
854.988	14328
855.122	14351
855.256	14233
855.39	14393
855.524	14484
855.658	14484
855.792	14415
855.926	14511
856.06	14492
856.194	14495
856.327	14385
856.461	14320
856.595	14320
856.729	14457
856.862	14476
856.996	14530
857.13	14393
857.263	14522
857.397	14533
857.53	14358
857.664	14442
857.797	14415
857.931	14522
858.064	14423
858.197	14575
858.331	14423
858.464	14313
858.597	14317
858.731	14278
858.864	14347
858.997	14362
859.13	14393
859.263	14396
859.396	14526
859.529	14480
859.662	14419
859.795	14362
859.928	14362
860.061	14446
860.194	14503
860.327	14507
860.46	14408
860.592	14522
860.725	14461
860.858	14415
860.99	14374
861.123	14259
861.256	14366
861.388	14473
861.521	15089
861.653	14225
861.786	14210
861.918	14214
862.05	14252
862.183	14370
862.315	14374
862.447	14473
862.58	14396
862.712	14126
862.844	13997
862.976	14248
863.108	14180
863.24	14606
863.372	14054
863.504	14172
863.636	14164
863.768	14199
863.9	14183
864.032	14100
864.164	14161
864.296	14225
864.428	14286
864.559	14309
864.691	14221
864.823	14176
864.954	14267
865.086	14123
865.217	14191
865.349	14100
865.48	14111
865.612	14050
865.743	14275
865.875	14187
866.006	14088
866.137	14225
866.269	14142
866.4	14195
866.531	14081
866.662	14077
866.793	14092
866.924	14046
867.055	14183
867.186	14077
867.317	14024
867.448	13963
867.579	14062
867.71	14130
867.841	14123
867.972	14176
868.103	14183
868.233	14058
868.364	14202
868.495	14358
868.625	14412
868.756	14484
868.886	14347
869.017	14374
869.147	14568
869.278	14530
869.408	14320
869.539	14457
869.669	14507
869.799	14503
869.929	14579
870.06	14446
870.19	14659
870.32	14617
870.45	14777
870.58	14785
870.71	14895
870.84	14967
870.97	14678
871.1	14762
871.23	14979
871.36	14971
871.489	14868
871.619	15085
871.749	14952
871.879	14971
872.008	15123
872.138	15032
872.267	14982
872.397	14826
872.526	14849
872.656	14788
872.785	14861
872.915	15009
873.044	15123
873.173	15051
873.303	14990
873.432	15081
873.561	15074
873.69	15047
873.819	15074
873.948	15062
874.077	15138
874.206	15043
874.335	15089
874.464	15173
874.593	15233
874.722	15382
874.851	15344
874.979	15382
875.108	15412
875.237	15310
875.365	15272
875.494	15382
875.623	15374
875.751	15378
875.88	15302
876.008	15477
876.136	15549
876.265	15812
876.393	15979
876.521	15797
876.65	15781
876.778	15827
876.906	15713
877.034	15675
877.162	15675
877.29	15671
877.418	15793
877.546	15789
877.674	15705
877.802	15816
877.93	15854
878.058	15682
878.185	15778
878.313	15793
878.441	15808
878.568	15660
878.696	15644
878.824	15880
878.951	15869
879.079	15994
879.206	16139
879.333	15960
879.461	15949
879.588	15865
879.715	15926
879.842	16082
879.97	15854
880.097	15641
880.224	15606
880.351	15625
880.478	15641
880.605	15595
880.732	15686
880.859	15888
880.986	15686
881.112	15747
881.239	15500
881.366	15405
881.493	15359
881.619	15252
881.746	15279
881.872	15359
881.999	15317
882.125	15313
882.252	15367
882.378	15405
882.505	15450
882.631	15184
882.757	15199
882.883	15142
883.01	15154
883.136	15013
883.262	14963
883.388	14979
883.514	15112
883.64	15157
883.766	15089
883.892	14918
884.018	14948
884.143	15085
884.269	15154
884.395	14880
884.52	14693
884.646	14899
884.772	14792
884.897	14663
885.023	14746
885.148	14941
885.274	14982
885.399	14887
885.524	14731
885.65	14842
885.775	14769
885.9	14819
886.025	14815
886.15	14937
886.275	14735
886.4	14674
886.525	14705
886.65	14678
886.775	14796
886.9	14910
887.025	15214
887.149	14754
887.274	14655
887.399	14522
887.523	14568
887.648	14480
887.773	14503
887.897	14735
888.021	14682
888.146	14697
888.27	14758
888.395	14796
888.519	14659
888.643	14632
888.767	14579
888.891	14522
889.015	14480
889.139	14484
889.263	14469
889.387	14526
889.511	14674
889.635	14644
889.759	14457
889.883	14503
890.006	14556
890.13	14602
890.254	14434
890.377	14442
890.501	14294
890.624	14263
890.748	14343
890.871	14191
890.995	14180
891.118	14123
891.241	14259
891.364	14199
891.488	14317
891.611	14210
891.734	14168
891.857	14294
891.98	14195
892.103	14339
892.226	14275
892.349	14252
892.471	13989
892.594	14320
892.717	14149
892.839	14119
892.962	14183
893.085	14214
893.207	14149
893.33	14016
893.452	14183
893.575	14202
893.697	14248
893.819	14294
893.941	14358
894.064	14336
894.186	14126
894.308	14187
894.43	14324
894.552	14396
894.674	14343
894.796	14180
894.918	14237
895.04	14218
895.161	14328
895.283	14294
895.405	14240
895.526	14320
895.648	14275
895.769	14313
895.891	14412
896.012	14427
896.134	14317
896.255	14374
896.376	14267
896.498	14336
896.619	14339
896.74	14286
896.861	14381
896.982	14640
897.103	14880
897.224	14655
897.345	14594
897.466	14549
897.587	14621
897.708	14754
897.828	14693
897.949	14568
898.07	14484
898.19	14640
898.311	14769
898.431	14648
898.552	14640
898.672	14807
898.792	14842
898.913	14746
899.033	14632
899.153	14587
899.273	14473
899.393	14541
899.513	14629
899.633	14556
899.753	14507
899.873	14488
899.993	14587
900.113	14568
900.232	14610
900.352	14499
900.472	14377
900.591	14446
900.711	14461
900.83	14438
900.95	14514
901.069	14537
901.189	14442
901.308	14119
901.427	14054
901.546	14065
901.665	14077
901.784	14191
901.904	14031
902.023	13890
902.141	13689
902.26	13632
902.379	13689
902.498	13647
902.617	13632
902.735	13655
902.854	13662
902.973	13632
903.091	13350
903.21	13293
903.328	13407
903.446	13362
903.565	13308
903.683	13251
903.801	13149
903.919	13247
904.038	13255
904.156	13057
904.274	13198
904.392	13038
904.51	12985
904.627	13053
904.745	13133
904.863	13221
904.981	12920
905.098	12726
905.216	12722
905.334	12764
905.451	12802
905.569	12707
905.686	12741
905.803	12711
905.921	12536
906.038	12646
906.155	12544
906.272	12414
906.389	12547
906.506	12247
906.623	12277
906.74	12334
906.857	12235
906.974	12239
907.091	12330
907.208	12498
907.324	12365
907.441	12216
907.557	12121
907.674	12068
907.79	12038
907.907	11946
908.023	12140
908.139	12102
908.256	11984
908.372	12038
908.488	12049
908.604	11866
908.72	11824
908.836	11882
908.952	11764
909.068	11790
909.184	12057
909.3	11889
909.415	11866
909.531	11923
909.647	11630
909.762	11589
909.878	11543
909.993	11707
910.108	11596
910.224	11619
910.339	11642
910.454	11501
910.57	11493
910.685	11360
910.8	11657
910.915	11589
911.03	11532
911.145	11265
911.259	11383
911.374	11288
911.489	11265
911.604	11227
911.718	11064
911.833	11003
911.947	10930
912.062	10866
912.176	11090
912.291	11083
912.405	11052
912.519	11242
912.633	11280
912.748	11121
912.862	11083
912.976	10900
913.09	10881
913.204	10900
913.318	10927
913.431	11113
913.545	10968
913.659	11041
913.772	10915
913.886	10889
914	10740
914.113	10908
914.226	11018
914.34	10942
914.453	10805
914.566	10892
914.68	10740
914.793	10706
914.906	10554
915.019	10519
915.132	10432
915.245	10599
915.358	10580
915.47	10592
915.583	10531
915.696	10584
915.809	10733
915.921	10755
916.034	10565
916.146	10504
916.259	10424
916.371	10516
916.483	10592
916.595	10470
916.708	10478
916.82	10455
916.932	10565
917.044	10478
917.156	10478
917.268	10367
917.38	10306
917.491	10318
917.603	10398
917.715	10447
917.826	10432
917.938	10367
918.049	10211
918.161	10333
918.272	10497
918.384	10573
918.495	10398
918.606	10257
918.717	10204
918.828	10261
918.939	10287
919.05	10158
919.161	10268
919.272	10090
919.383	10139
919.494	10306
919.604	10519
919.715	10318
919.826	10120
919.936	10227
920.047	10287
920.157	10310
920.267	10508
920.378	10352
920.488	10272
920.598	10451
920.708	10615
920.818	10485
920.928	10481
921.038	10580
921.148	10519
921.258	10276
921.368	10268
921.477	10162
921.587	10120
921.697	10048
921.806	10207
921.916	10078
922.025	9861
922.134	9888
922.244	9789
922.353	9880
922.462	9698
922.571	9713
922.68	9534
922.789	9511
922.898	9576
923.007	9504
923.116	9576
923.224	9519
923.333	9473
923.442	9462
923.55	9374
923.659	9477
923.767	9492
923.876	9329
923.984	9473
924.092	9332
924.201	9401
924.309	9401
924.417	9412
924.525	9336
924.633	9363
924.741	10242
924.849	9214
924.956	9268
925.064	9211
925.172	9127
925.279	9150
925.387	9233
925.494	9192
925.602	9325
925.709	9226
925.816	9077
925.924	9142
926.031	9199
926.138	9188
926.245	9245
926.352	9024
926.459	9260
926.566	9245
926.673	9100
926.779	9070
926.886	9066
926.993	8944
927.099	8887
927.206	8815
927.312	8838
927.419	8906
927.525	8986
927.631	8823
927.737	8785
927.843	8804
927.95	8689
928.056	8724
928.162	8773
928.267	8819
928.373	9332
928.479	8864
928.585	8651
928.69	8743
928.796	8823
928.901	8667
929.007	8571
929.112	8697
929.218	8621
929.323	8640
929.428	8655
929.533	8644
929.638	8552
929.743	8621
929.848	8716
929.953	8602
930.058	8503
930.163	8313
930.267	8362
930.372	8507
930.477	8336
930.581	8575
930.685	8328
930.79	8305
930.894	8343
930.998	8332
931.103	8408
931.207	8115
931.311	8111
931.415	7932
931.519	7765
931.623	7849
