Data from test_V78500241_308.txt Node
Date: Fri Mar 25 14:35:52 CST 2022
User: usil
Spectrometer: V785-0024
Trigger mode: 0
Integration Time (sec): 4.000000E-1
Scans to average: 1
Nonlinearity correction enabled: false
Boxcar width: 0
Storing dark spectrum: false
XAxis mode: Wavelengths
Number of Pixels in Spectrum: 1024
>>>>>Begin Spectral Data<<<<<
801.071	27077
801.214	27058
801.356	26731
801.499	26617
801.641	26644
801.783	26731
801.926	26507
802.068	26408
802.211	26419
802.353	26351
802.496	26267
802.638	26195
802.78	26221
802.923	25917
803.065	26058
803.208	25989
803.35	26119
803.492	26256
803.635	26225
803.777	26107
803.919	26088
804.061	26332
804.204	26172
804.346	26145
804.488	26024
804.63	26278
804.773	25913
804.915	25970
805.057	26024
805.199	26130
805.341	25955
805.483	26214
805.626	26176
805.768	26046
805.91	26180
806.052	26206
806.194	25974
806.336	26381
806.478	26100
806.62	26043
806.762	26233
806.904	26351
807.046	26609
807.188	26419
807.33	26545
807.472	26415
807.614	26450
807.756	26457
807.898	26301
808.04	26305
808.182	26320
808.324	26214
808.465	26290
808.607	26537
808.749	26594
808.891	26644
809.033	26902
809.174	26636
809.316	26632
809.458	26708
809.6	26549
809.741	26682
809.883	26617
810.025	26830
810.166	26826
810.308	26830
810.45	26918
810.591	26705
810.733	26575
810.875	26590
811.016	26393
811.158	26298
811.299	26533
811.441	26541
811.582	26560
811.724	26495
811.865	26545
812.007	26446
812.148	26431
812.29	26419
812.431	26785
812.573	26655
812.714	26857
812.855	27001
812.997	27001
813.138	27195
813.279	26998
813.421	26910
813.562	26906
813.703	26750
813.845	26712
813.986	26313
814.127	26107
814.268	26202
814.41	26092
814.551	25959
814.692	26016
814.833	25966
814.974	25936
815.115	26149
815.256	25875
815.397	25822
815.539	25879
815.68	25883
815.821	25601
815.962	25734
816.103	25723
816.244	25693
816.385	25537
816.526	25373
816.666	25400
816.807	25103
816.948	25282
817.089	25407
817.23	25236
817.371	25202
817.512	25080
817.653	25198
817.793	25084
817.934	25065
818.075	25145
818.216	25209
818.356	25084
818.497	25023
818.638	24856
818.778	24825
818.919	24844
819.06	24863
819.2	24928
819.341	25034
819.481	24932
819.622	25168
819.762	25407
819.903	25206
820.043	25255
820.184	25103
820.324	25126
820.465	25263
820.605	25114
820.746	25004
820.886	24947
821.026	24966
821.167	25038
821.307	24958
821.447	25065
821.588	24890
821.728	24665
821.868	24616
822.008	24540
822.149	24471
822.289	24505
822.429	24258
822.569	24148
822.709	24095
822.849	23950
822.99	23809
823.13	23908
823.27	23920
823.41	23855
823.55	23600
823.69	23608
823.83	23771
823.97	23710
824.11	23566
824.25	23516
824.389	23566
824.529	23543
824.669	23611
824.809	23634
824.949	23558
825.089	23570
825.228	23566
825.368	23391
825.508	23242
825.648	23288
825.787	23326
825.927	23372
826.067	23360
826.206	23326
826.346	23341
826.485	23212
826.625	23132
826.765	23318
826.904	23315
827.044	23029
827.183	23056
827.323	22915
827.462	23037
827.601	22965
827.741	22953
827.88	23071
828.02	22824
828.159	22957
828.298	22900
828.437	23025
828.577	23003
828.716	23075
828.855	22892
828.994	22599
829.134	22672
829.273	22580
829.412	22683
829.551	22519
829.69	22637
829.829	22801
829.968	22660
830.107	22691
830.246	22561
830.385	22516
830.524	22481
830.663	22398
830.802	22257
830.941	22158
831.08	22112
831.219	22261
831.357	22333
831.496	22398
831.635	22196
831.774	22139
831.913	22082
832.051	21975
832.19	21949
832.329	21918
832.467	21842
832.606	21789
832.744	21762
832.883	21846
833.022	21857
833.16	21873
833.299	21945
833.437	21808
833.576	21994
833.714	21945
833.852	21998
833.991	21903
834.129	21983
834.267	21907
834.406	21880
834.544	21930
834.682	21835
834.821	21838
834.959	22048
835.097	21895
835.235	21797
835.373	21759
835.511	21762
835.65	21686
835.788	21679
835.926	21652
836.064	21564
836.202	21549
836.34	21698
836.478	21781
836.615	21663
836.753	21648
836.891	21785
837.029	21770
837.167	21701
837.305	21667
837.443	21663
837.58	21500
837.718	21553
837.856	21538
837.993	21595
838.131	21511
838.269	21363
838.406	21344
838.544	21412
838.681	21192
838.819	21230
838.956	20979
839.094	20948
839.231	21116
839.369	21123
839.506	21370
839.643	21192
839.781	20929
839.918	20994
840.055	20986
840.193	20967
840.33	20895
840.467	20861
840.604	20963
840.742	21142
840.879	20735
841.016	20796
841.153	20743
841.29	20982
841.427	20971
841.564	20994
841.701	20941
841.838	20845
841.975	20674
842.112	20823
842.249	20746
842.385	20636
842.522	20830
842.659	20598
842.796	20644
842.933	20587
843.069	20518
843.206	20590
843.343	20602
843.479	20530
843.616	20651
843.752	20450
843.889	20431
844.025	20431
844.162	20381
844.298	20488
844.435	20366
844.571	20438
844.708	20267
844.844	20575
844.98	20400
845.117	20434
845.253	20358
845.389	20256
845.525	20328
845.661	20248
845.798	20256
845.934	20278
846.07	20164
846.206	20286
846.342	20442
846.478	20149
846.614	19936
846.75	19890
846.886	19875
847.022	19909
847.158	19913
847.294	19742
847.429	19849
847.565	19868
847.701	19940
847.837	19518
847.972	19590
848.108	19567
848.244	19575
848.379	19464
848.515	19438
848.65	19316
848.786	19377
848.921	19354
849.057	19491
849.192	19392
849.328	19434
849.463	19388
849.598	19324
849.734	19297
849.869	19187
850.004	19202
850.14	19114
850.275	19217
850.41	19103
850.545	19080
850.68	19046
850.815	19069
850.95	19103
851.085	19312
851.22	19179
851.355	19221
851.49	19023
851.625	19088
851.76	18973
851.895	19027
852.03	19126
852.165	19004
852.299	19110
852.434	19194
852.569	19015
852.703	19099
852.838	19156
852.973	19156
853.107	19114
853.242	18981
853.376	19012
853.511	18787
853.645	18852
853.78	18951
853.914	18989
854.048	18939
854.183	18890
854.317	18939
854.451	19103
854.585	18977
854.72	18977
854.854	19012
854.988	18878
855.122	18878
855.256	18696
855.39	18913
855.524	19088
855.658	19012
855.792	18882
855.926	18913
856.06	18958
856.194	18981
856.327	18859
856.461	18886
856.595	18829
856.729	18920
856.862	19012
856.996	18852
857.13	18970
857.263	18897
857.397	18943
857.53	18821
857.664	18970
857.797	19019
857.931	18932
858.064	18890
858.197	19080
858.331	18973
858.464	18882
858.597	18757
858.731	18829
858.864	18848
858.997	18764
859.13	18909
859.263	18913
859.396	18886
859.529	18760
859.662	18856
859.795	18772
859.928	18821
860.061	19008
860.194	19046
860.327	18897
860.46	18935
860.592	18787
860.725	18932
860.858	18875
860.99	18894
861.123	18639
861.256	18810
861.388	18795
861.521	19487
861.653	18802
861.786	18677
861.918	18856
862.05	18768
862.183	18772
862.315	18886
862.447	19004
862.58	18844
862.712	18635
862.844	18677
862.976	18719
863.108	18623
863.24	18875
863.372	18555
863.504	18559
863.636	18490
863.768	18711
863.9	18506
864.032	18616
864.164	18547
864.296	18585
864.428	18673
864.559	18608
864.691	18604
864.823	18521
864.954	18582
865.086	18547
865.217	18498
865.349	18410
865.48	18486
865.612	18513
865.743	18646
865.875	18437
866.006	18437
866.137	18460
866.269	18490
866.4	18563
866.531	18445
866.662	18304
866.793	18407
866.924	18410
867.055	18540
867.186	18528
867.317	18555
867.448	18490
867.579	18346
867.71	18414
867.841	18433
867.972	18403
868.103	18372
868.233	18528
868.364	18521
868.495	18490
868.625	18711
868.756	18730
868.886	18551
869.017	18642
869.147	18776
869.278	18833
869.408	18623
869.539	18574
869.669	18779
869.799	18669
869.929	18779
870.06	18795
870.19	18970
870.32	18954
870.45	18954
870.58	19019
870.71	19076
870.84	19160
870.97	19076
871.1	19053
871.23	19304
871.36	19217
871.489	19076
871.619	19255
871.749	19346
871.879	19206
872.008	19384
872.138	19251
872.267	19187
872.397	19164
872.526	19080
872.656	19057
872.785	19088
872.915	19297
873.044	19244
873.173	19236
873.303	19232
873.432	19350
873.561	19483
873.69	19343
873.819	19312
873.948	19411
874.077	19331
874.206	19240
874.335	19228
874.464	19369
874.593	19434
874.722	19495
874.851	19628
874.979	19525
875.108	19594
875.237	19426
875.365	19464
875.494	19594
875.623	19674
875.751	19567
875.88	19483
876.008	19738
876.136	19769
876.265	19932
876.393	20126
876.521	20043
876.65	20035
876.778	19993
876.906	19849
877.034	19993
877.162	19963
877.29	19784
877.418	19986
877.546	20046
877.674	19906
877.802	19864
877.93	19986
878.058	19944
878.185	19932
878.313	19963
878.441	19974
878.568	19875
878.696	19944
878.824	20027
878.951	20024
879.079	20096
879.206	20256
879.333	20142
879.461	20062
879.588	20122
879.715	20225
879.842	20263
879.97	20027
880.097	19750
880.224	19871
880.351	19864
880.478	19807
880.605	19795
880.732	19742
880.859	19955
880.986	19849
881.112	19849
881.239	19601
881.366	19635
881.493	19472
881.619	19426
881.746	19365
881.872	19343
881.999	19373
882.125	19316
882.252	19476
882.378	19396
882.505	19521
882.631	19236
882.757	19160
882.883	19232
883.01	19164
883.136	19206
883.262	19031
883.388	19000
883.514	19251
883.64	19236
883.766	19065
883.892	19034
884.018	18958
884.143	19137
884.269	19152
884.395	18943
884.52	18779
884.646	18905
884.772	18783
884.897	18612
885.023	18890
885.148	18962
885.274	19012
885.399	18951
885.524	18821
885.65	18901
885.775	18875
885.9	18859
886.025	18905
886.15	18962
886.275	18715
886.4	18673
886.525	18726
886.65	18760
886.775	18700
886.9	18878
887.025	19004
887.149	18757
887.274	18563
887.399	18555
887.523	18601
887.648	18513
887.773	18486
887.897	18642
888.021	18604
888.146	18528
888.27	18650
888.395	18559
888.519	18669
888.643	18585
888.767	18593
888.891	18582
889.015	18315
889.139	18403
889.263	18304
889.387	18433
889.511	18540
889.635	18547
889.759	18369
889.883	18372
890.006	18517
890.13	18471
890.254	18308
890.377	18224
890.501	18220
890.624	18239
890.748	18201
890.871	18060
890.995	17904
891.118	17889
891.241	18053
891.364	18019
891.488	18159
891.611	17912
891.734	17939
891.857	17980
891.98	18079
892.103	18015
892.226	18030
892.349	17961
892.471	17802
892.594	17840
892.717	17984
892.839	17958
892.962	18003
893.085	17996
893.207	17961
893.33	17866
893.452	17794
893.575	17977
893.697	17866
893.819	18144
893.941	17984
894.064	18121
894.186	17859
894.308	17809
894.43	17973
894.552	18041
894.674	18030
894.796	17901
894.918	17969
895.04	17897
895.161	18022
895.283	18026
895.405	17859
895.526	18038
895.648	17969
895.769	17980
895.891	18060
896.012	18087
896.134	18159
896.255	17969
896.376	18083
896.498	18079
896.619	18091
896.74	18019
896.861	18152
896.982	18361
897.103	18460
897.224	18220
897.345	18365
897.466	18182
897.587	18155
897.708	18342
897.828	18410
897.949	18213
898.07	18064
898.19	18102
898.311	18304
898.431	18178
898.552	18247
898.672	18338
898.792	18209
898.913	18163
899.033	18091
899.153	18007
899.273	17946
899.393	17984
899.513	17942
899.633	18007
899.753	18041
899.873	17874
899.993	17996
900.113	17874
900.232	17980
900.352	17923
900.472	17855
900.591	17733
900.711	17843
900.83	17642
900.95	17863
901.069	17965
901.189	17695
901.308	17547
901.427	17410
901.546	17539
901.665	17391
901.784	17444
901.904	17433
902.023	17227
902.141	17048
902.26	16976
902.379	16957
902.498	17048
902.617	16942
902.735	16961
902.854	16984
902.973	16816
903.091	16774
903.21	16649
903.328	16660
903.446	16485
903.565	16531
903.683	16500
903.801	16405
903.919	16421
904.038	16322
904.156	16215
904.274	16344
904.392	16211
904.51	16188
904.627	16242
904.745	16314
904.863	16329
904.981	15998
905.098	15941
905.216	15873
905.334	15975
905.451	15922
905.569	15854
905.686	15899
905.803	15895
905.921	15728
906.038	15755
906.155	15736
906.272	15599
906.389	15618
906.506	15496
906.623	15416
906.74	15344
906.857	15363
906.974	15374
907.091	15462
907.208	15614
907.324	15431
907.441	15302
907.557	15226
907.674	15195
907.79	15157
907.907	15173
908.023	15260
908.139	15237
908.256	15150
908.372	15047
908.488	15055
908.604	14948
908.72	14800
908.836	14861
908.952	14823
909.068	14785
909.184	14857
909.3	14823
909.415	14887
909.531	14914
909.647	14697
909.762	14602
909.878	14625
909.993	14659
910.108	14503
910.224	14434
910.339	14590
910.454	14419
910.57	14446
910.685	14404
910.8	14644
910.915	14579
911.03	14393
911.145	14214
911.259	14252
911.374	14240
911.489	14161
911.604	14016
911.718	13970
911.833	13845
911.947	13883
912.062	13803
912.176	13974
912.291	13955
912.405	13970
912.519	14096
912.633	14138
912.748	13913
912.862	13970
912.976	13799
913.09	13639
913.204	13795
913.318	13811
913.431	13795
913.545	13849
913.659	13906
913.772	13734
913.886	13708
914	13605
914.113	13613
914.226	13704
914.34	13723
914.453	13457
914.566	13632
914.68	13605
914.793	13540
914.906	13320
915.019	13259
915.132	13282
915.245	13358
915.358	13335
915.47	13396
915.583	13289
915.696	13369
915.809	13384
915.921	13377
916.034	13209
916.146	13194
916.259	13198
916.371	13297
916.483	13274
916.595	13152
916.708	13190
916.82	13152
916.932	13141
917.044	13118
917.156	13072
917.268	12962
917.38	12981
917.491	12993
917.603	13027
917.715	13091
917.826	13091
917.938	12958
918.049	12848
918.161	12970
918.272	13069
918.384	13065
918.495	12894
918.606	12821
918.717	12745
918.828	12810
918.939	12821
919.05	12734
919.161	12730
919.272	12551
919.383	12639
919.494	12814
919.604	12954
919.715	12814
919.826	12669
919.936	12696
920.047	12810
920.157	12715
920.267	13015
920.378	12726
920.488	12692
920.598	12920
920.708	12951
920.818	12932
920.928	12935
921.038	13050
921.148	12989
921.258	12776
921.368	12597
921.477	12616
921.587	12486
921.697	12365
921.806	12578
921.916	12437
922.025	12216
922.134	12205
922.244	12239
922.353	12144
922.462	12022
922.571	12030
922.68	11828
922.789	11813
922.898	11817
923.007	11703
923.116	11832
923.224	11802
923.333	11775
923.442	11710
923.55	11608
923.659	11726
923.767	11805
923.876	11581
923.984	11817
924.092	11657
924.201	11627
924.309	11661
924.417	11604
924.525	11547
924.633	11512
924.741	12319
924.849	11345
924.956	11482
925.064	11395
925.172	11254
925.279	11349
925.387	11356
925.494	11334
925.602	11520
925.709	11368
925.816	11303
925.924	11326
926.031	11467
926.138	11353
926.245	11349
926.352	11269
926.459	11356
926.566	11341
926.673	11250
926.779	11098
926.886	11212
926.993	10965
927.099	10923
927.206	10968
927.312	10908
927.419	11025
927.525	11079
927.631	11010
927.737	10908
927.843	10843
927.95	10797
928.056	10843
928.162	10805
928.267	10831
928.373	11478
928.479	10946
928.585	10679
928.69	10782
928.796	10812
928.901	10675
929.007	10516
929.112	10691
929.218	10607
929.323	10584
929.428	10508
929.533	10717
929.638	10558
929.743	10478
929.848	10603
929.953	10531
930.058	10417
930.163	10268
930.267	10325
930.372	10451
930.477	10177
930.581	10421
930.685	10356
930.79	10177
930.894	10295
930.998	10093
931.103	10306
931.207	9953
931.311	9968
931.415	9838
931.519	9625
931.623	9644
