Data from test_V78500241_3110.txt Node
Date: Fri Mar 25 14:55:22 CST 2022
User: usil
Spectrometer: V785-0024
Trigger mode: 0
Integration Time (sec): 4.000000E-1
Scans to average: 1
Nonlinearity correction enabled: false
Boxcar width: 0
Storing dark spectrum: false
XAxis mode: Wavelengths
Number of Pixels in Spectrum: 1024
>>>>>Begin Spectral Data<<<<<
801.071	21945
801.214	21983
801.356	21690
801.499	21610
801.641	21564
801.783	21542
801.926	21405
802.068	21439
802.211	21313
802.353	21199
802.496	21005
802.638	21009
802.78	20727
802.923	20861
803.065	20648
803.208	20724
803.35	20727
803.492	20857
803.635	20948
803.777	20720
803.919	20800
804.061	21096
804.204	20807
804.346	20705
804.488	20621
804.63	20769
804.773	20621
804.915	20674
805.057	20720
805.199	20590
805.341	20716
805.483	20701
805.626	20769
805.768	20678
805.91	20678
806.052	20716
806.194	20651
806.336	20823
806.478	20762
806.62	20606
806.762	20674
806.904	20788
807.046	21009
807.188	20975
807.33	20929
807.472	21085
807.614	20891
807.756	20975
807.898	20853
808.04	20693
808.182	20750
808.324	20750
808.465	20849
808.607	20849
808.749	21070
808.891	21233
809.033	21230
809.174	21138
809.316	20876
809.458	21039
809.6	20918
809.741	21074
809.883	21108
810.025	21199
810.166	21245
810.308	21169
810.45	21096
810.591	21032
810.733	20910
810.875	20796
811.016	20659
811.158	20815
811.299	20796
811.441	21039
811.582	20963
811.724	20864
811.865	20804
812.007	20785
812.148	20788
812.29	20727
812.431	20941
812.573	21108
812.714	21211
812.855	21302
812.997	21294
813.138	21534
813.279	21428
813.421	21321
813.562	21264
813.703	21093
813.845	20902
813.986	20651
814.127	20446
814.268	20454
814.41	20282
814.551	20351
814.692	20412
814.833	20419
814.974	20336
815.115	20298
815.256	20195
815.397	20206
815.539	20103
815.68	20073
815.821	20126
815.962	20073
816.103	20039
816.244	19814
816.385	19913
816.526	19746
816.666	19647
816.807	19540
816.948	19674
817.089	19575
817.23	19586
817.371	19495
817.512	19464
817.653	19480
817.793	19464
817.934	19445
818.075	19533
818.216	19487
818.356	19438
818.497	19430
818.638	19168
818.778	19141
818.919	19190
819.06	19145
819.2	19350
819.341	19354
819.481	19346
819.622	19510
819.762	19582
819.903	19578
820.043	19616
820.184	19506
820.324	19362
820.465	19396
820.605	19422
820.746	19438
820.886	19384
821.026	19407
821.167	19392
821.307	19518
821.447	19400
821.588	19228
821.728	19183
821.868	19008
822.008	18863
822.149	18935
822.289	18757
822.429	18604
822.569	18726
822.709	18448
822.849	18323
822.99	18292
823.13	18266
823.27	18304
823.41	18178
823.55	18022
823.69	18144
823.83	18136
823.97	18110
824.11	17923
824.25	17878
824.389	17923
824.529	17996
824.669	17897
824.809	18030
824.949	18011
825.089	17996
825.228	17946
825.368	17786
825.508	17714
825.648	17600
825.787	17794
825.927	17726
826.067	17646
826.206	17684
826.346	17646
826.485	17703
826.625	17665
826.765	17779
826.904	17710
827.044	17383
827.183	17520
827.323	17307
827.462	17482
827.601	17436
827.741	17353
827.88	17429
828.02	17280
828.159	17330
828.298	17372
828.437	17406
828.577	17315
828.716	17429
828.855	17379
828.994	17197
829.134	17071
829.273	17258
829.412	17071
829.551	16999
829.69	17052
829.829	17151
829.968	17227
830.107	17170
830.246	17083
830.385	16984
830.524	16972
830.663	16923
830.802	16843
830.941	16744
831.08	16733
831.219	16778
831.357	16862
831.496	16930
831.635	16683
831.774	16660
831.913	16558
832.051	16485
832.19	16550
832.329	16523
832.467	16447
832.606	16413
832.744	16421
832.883	16394
833.022	16348
833.16	16432
833.299	16363
833.437	16459
833.576	16485
833.714	16424
833.852	16538
833.991	16497
834.129	16615
834.267	16535
834.406	16538
834.544	16546
834.682	16470
834.821	16489
834.959	16615
835.097	16421
835.235	16618
835.373	16363
835.511	16512
835.65	16333
835.788	16371
835.926	16223
836.064	16166
836.202	16131
836.34	16428
836.478	16485
836.615	16306
836.753	16382
836.891	16409
837.029	16386
837.167	16291
837.305	16238
837.443	16261
837.58	16219
837.718	16333
837.856	16223
837.993	16109
838.131	16306
838.269	16204
838.406	16166
838.544	16139
838.681	16013
838.819	15934
838.956	15747
839.094	15812
839.231	15831
839.369	15998
839.506	16143
839.643	16021
839.781	15755
839.918	15747
840.055	15808
840.193	15793
840.33	15713
840.467	15755
840.604	15808
840.742	16093
840.879	15656
841.016	15679
841.153	15709
841.29	15888
841.427	15743
841.564	15819
841.701	15808
841.838	15728
841.975	15667
842.112	15686
842.249	15523
842.385	15538
842.522	15831
842.659	15576
842.796	15488
842.933	15545
843.069	15530
843.206	15542
843.343	15747
843.479	15610
843.616	15667
843.752	15302
843.889	15367
844.025	15553
844.162	15272
844.298	15443
844.435	15355
844.571	15260
844.708	15458
844.844	15576
844.98	15424
845.117	15549
845.253	15317
845.389	15207
845.525	15237
845.661	15291
845.798	15058
845.934	15184
846.07	15157
846.206	15188
846.342	15287
846.478	15116
846.614	14963
846.75	14864
846.886	14861
847.022	15058
847.158	14895
847.294	14910
847.429	15039
847.565	14902
847.701	15085
847.837	14796
847.972	14568
848.108	14811
848.244	14815
848.379	14495
848.515	14476
848.65	14438
848.786	14511
848.921	14385
849.057	14571
849.192	14670
849.328	14575
849.463	14537
849.598	14571
849.734	14412
849.869	14400
850.004	14256
850.14	14362
850.275	14328
850.41	14180
850.545	14290
850.68	14275
850.815	14202
850.95	14282
851.085	14499
851.22	14461
851.355	14252
851.49	14336
851.625	14221
851.76	14195
851.895	14107
852.03	14088
852.165	14123
852.299	14271
852.434	14351
852.569	14324
852.703	14263
852.838	14347
852.973	14484
853.107	14415
853.242	14320
853.376	14233
853.511	14001
853.645	14157
853.78	14206
853.914	14161
854.048	14107
854.183	14134
854.317	14126
854.451	14317
854.585	14161
854.72	14027
854.854	14187
854.988	14081
855.122	14073
855.256	13944
855.39	14100
855.524	14187
855.658	14229
855.792	14180
855.926	14153
856.06	14187
856.194	14275
856.327	14183
856.461	14088
856.595	14237
856.729	14043
856.862	14271
856.996	14168
857.13	14229
857.263	14229
857.397	14221
857.53	14168
857.664	14218
857.797	14252
857.931	14385
858.064	14145
858.197	14317
858.331	14221
858.464	14088
858.597	14183
858.731	14145
858.864	14157
858.997	14092
859.13	14126
859.263	14168
859.396	14263
859.529	14103
859.662	14130
859.795	14103
859.928	14210
860.061	14301
860.194	14332
860.327	14180
860.46	14096
860.592	14229
860.725	14229
860.858	14267
860.99	14161
861.123	14008
861.256	14046
861.388	14161
861.521	14876
861.653	14069
861.786	13963
861.918	14054
862.05	14016
862.183	14084
862.315	14096
862.447	14138
862.58	14054
862.712	13837
862.844	13830
862.976	14016
863.108	13944
863.24	14301
863.372	13852
863.504	13890
863.636	13993
863.768	13951
863.9	13997
864.032	13875
864.164	13837
864.296	14035
864.428	13982
864.559	13932
864.691	14081
864.823	13909
864.954	14008
865.086	14016
865.217	13928
865.349	13833
865.48	13913
865.612	13906
865.743	14031
865.875	13936
866.006	13852
866.137	13921
866.269	13875
866.4	13871
866.531	13875
866.662	13841
866.793	13947
866.924	13822
867.055	13902
867.186	13894
867.317	13841
867.448	13841
867.579	13807
867.71	13898
867.841	13822
867.972	13879
868.103	14012
868.233	13959
868.364	13928
868.495	13970
868.625	14088
868.756	14290
868.886	14069
869.017	14035
869.147	14301
869.278	14298
869.408	14111
869.539	14176
869.669	14309
869.799	14271
869.929	14396
870.06	14278
870.19	14465
870.32	14476
870.45	14461
870.58	14575
870.71	14674
870.84	14769
870.97	14594
871.1	14530
871.23	14769
871.36	14777
871.489	14686
871.619	14792
871.749	14746
871.879	14777
872.008	14895
872.138	14876
872.267	14750
872.397	14541
872.526	14625
872.656	14568
872.785	14617
872.915	14792
873.044	14918
873.173	14876
873.303	14929
873.432	14937
873.561	14895
873.69	14727
873.819	14819
873.948	14887
874.077	14899
874.206	14811
874.335	14750
874.464	14925
874.593	15093
874.722	14963
874.851	15211
874.979	15100
875.108	15188
875.237	15062
875.365	14979
875.494	15009
875.623	15157
875.751	15058
875.88	15192
876.008	15245
876.136	15439
876.265	15591
876.393	15717
876.521	15663
876.65	15591
876.778	15595
876.906	15530
877.034	15469
877.162	15496
877.29	15443
877.418	15515
877.546	15557
877.674	15530
877.802	15610
877.93	15542
878.058	15511
878.185	15477
878.313	15473
878.441	15458
878.568	15481
878.696	15515
878.824	15591
878.951	15625
879.079	15694
879.206	15846
879.333	15728
879.461	15637
879.588	15553
879.715	15663
879.842	15876
879.97	15675
880.097	15443
880.224	15310
880.351	15526
880.478	15496
880.605	15332
880.732	15313
880.859	15625
880.986	15428
881.112	15386
881.239	15268
881.366	15252
881.493	15116
881.619	14990
881.746	15081
881.872	15051
881.999	15005
882.125	15047
882.252	15097
882.378	15066
882.505	15241
882.631	15036
882.757	14826
882.883	14876
883.01	14849
883.136	14811
883.262	14807
883.388	14708
883.514	14944
883.64	14986
883.766	14823
883.892	14697
884.018	14701
884.143	14963
884.269	15028
884.395	14667
884.52	14514
884.646	14594
884.772	14560
884.897	14526
885.023	14533
885.148	14804
885.274	14705
885.399	14689
885.524	14511
885.65	14655
885.775	14636
885.9	14621
886.025	14746
886.15	14705
886.275	14522
886.4	14457
886.525	14488
886.65	14518
886.775	14568
886.9	14651
887.025	14868
887.149	14606
887.274	14385
887.399	14377
887.523	14423
887.648	14351
887.773	14290
887.897	14495
888.021	14454
888.146	14336
888.27	14461
888.395	14484
888.519	14396
888.643	14457
888.767	14461
888.891	14309
889.015	14309
889.139	14396
889.263	14298
889.387	14442
889.511	14484
889.635	14427
889.759	14339
889.883	14229
890.006	14339
890.13	14408
890.254	14221
890.377	14263
890.501	14077
890.624	13993
890.748	14206
890.871	14069
890.995	13917
891.118	13890
891.241	13940
891.364	14115
891.488	14046
891.611	13944
891.734	14027
891.857	14176
891.98	14020
892.103	14001
892.226	14065
892.349	13944
892.471	13803
892.594	13887
892.717	13940
892.839	13978
892.962	13947
893.085	14123
893.207	14058
893.33	13963
893.452	13909
893.575	14115
893.697	14005
893.819	14100
893.941	14145
894.064	14107
894.186	14027
894.308	14043
894.43	14138
894.552	14164
894.674	14092
894.796	13944
894.918	14062
895.04	14069
895.161	14103
895.283	14039
895.405	14043
895.526	14005
895.648	14138
895.769	14157
895.891	14210
896.012	14237
896.134	14229
896.255	14077
896.376	14176
896.498	14183
896.619	14225
896.74	14168
896.861	14191
896.982	14404
897.103	14617
897.224	14457
897.345	14423
897.466	14355
897.587	14442
897.708	14522
897.828	14594
897.949	14469
898.07	14229
898.19	14385
898.311	14484
898.431	14396
898.552	14488
898.672	14613
898.792	14598
898.913	14617
899.033	14396
899.153	14389
899.273	14290
899.393	14332
899.513	14393
899.633	14438
899.753	14461
899.873	14313
899.993	14442
900.113	14370
900.232	14423
900.352	14248
900.472	14339
900.591	14286
900.711	14271
900.83	14210
900.95	14298
901.069	14396
901.189	14256
901.308	13940
901.427	13967
901.546	13860
901.665	13928
901.784	14039
901.904	13776
902.023	13662
902.141	13571
902.26	13556
902.379	13556
902.498	13540
902.617	13472
902.735	13556
902.854	13487
902.973	13438
903.091	13270
903.21	13160
903.328	13179
903.446	13156
903.565	13152
903.683	13015
903.801	13050
903.919	13004
904.038	13057
904.156	12890
904.274	13000
904.392	12825
904.51	12939
904.627	12795
904.745	12916
904.863	12901
904.981	12787
905.098	12528
905.216	12623
905.334	12639
905.451	12631
905.569	12559
905.686	12627
905.803	12532
905.921	12407
906.038	12566
906.155	12452
906.272	12289
906.389	12384
906.506	12148
906.623	12167
906.74	12159
906.857	12068
906.974	12087
907.091	12224
907.208	12330
907.324	12235
907.441	12110
907.557	11931
907.674	11843
907.79	11802
907.907	11874
908.023	11992
908.139	11893
908.256	11840
908.372	11802
908.488	11802
908.604	11680
908.72	11589
908.836	11691
908.952	11615
909.068	11661
909.184	11752
909.3	11699
909.415	11722
909.531	11703
909.647	11433
909.762	11471
909.878	11356
909.993	11383
910.108	11501
910.224	11501
910.339	11490
910.454	11280
910.57	11277
910.685	11250
910.8	11497
910.915	11421
911.03	11303
911.145	11235
911.259	11102
911.374	11132
911.489	11162
911.604	11075
911.718	10816
911.833	10900
911.947	10774
912.062	10710
912.176	10927
912.291	10896
912.405	10862
912.519	11181
912.633	11098
912.748	11048
912.862	10927
912.976	10759
913.09	10645
913.204	10816
913.318	10733
913.431	10915
913.545	10869
913.659	10934
913.772	10733
913.886	10603
914	10687
914.113	10752
914.226	10710
914.34	10725
914.453	10603
914.566	10805
914.68	10603
914.793	10561
914.906	10493
915.019	10348
915.132	10367
915.245	10333
915.358	10459
915.47	10314
915.583	10500
915.696	10451
915.809	10550
915.921	10626
916.034	10531
916.146	10284
916.259	10402
916.371	10459
916.483	10516
916.595	10325
916.708	10363
916.82	10367
916.932	10402
917.044	10249
917.156	10268
917.268	10211
917.38	10188
917.491	10238
917.603	10280
917.715	10341
917.826	10295
917.938	10234
918.049	10109
918.161	10219
918.272	10409
918.384	10352
918.495	10215
918.606	10158
918.717	10029
918.828	10150
918.939	10147
919.05	10029
919.161	10196
919.272	9808
919.383	9968
919.494	10272
919.604	10215
919.715	10169
919.826	10051
919.936	10025
920.047	10188
920.157	10105
920.267	10306
920.378	10120
920.488	10078
920.598	10390
920.708	10443
920.818	10299
920.928	10375
921.038	10599
921.148	10455
921.258	10139
921.368	10090
921.477	9953
921.587	9968
921.697	9876
921.806	9994
921.916	9835
922.025	9747
922.134	9755
922.244	9644
922.353	9713
922.462	9614
922.571	9526
922.68	9393
922.789	9332
922.898	9485
923.007	9405
923.116	9477
923.224	9378
923.333	9405
923.442	9275
923.55	9253
923.659	9256
923.767	9363
923.876	9287
923.984	9351
924.092	9245
924.201	9237
924.309	9264
924.417	9332
924.525	9184
924.633	9294
924.741	10158
924.849	9028
924.956	9173
925.064	9028
925.172	8914
925.279	8994
925.387	9036
925.494	9074
925.602	9195
925.709	9119
925.816	9043
925.924	9062
926.031	9199
926.138	9116
926.245	9119
926.352	9104
926.459	9131
926.566	9176
926.673	9074
926.779	8937
926.886	8952
926.993	8845
927.099	8788
927.206	8750
927.312	8781
927.419	8876
927.525	8792
927.631	8807
927.737	8686
927.843	8678
927.95	8495
928.056	8613
928.162	8708
928.267	8724
928.373	9272
928.479	8712
928.585	8594
928.69	8659
928.796	8724
928.901	8579
929.007	8408
929.112	8568
929.218	8587
929.323	8480
929.428	8537
929.533	8663
929.638	8461
929.743	8571
929.848	8594
929.953	8537
930.058	8374
930.163	8282
930.267	8286
930.372	8404
930.477	8240
930.581	8522
930.685	8240
930.79	8172
930.894	8298
930.998	8252
931.103	8332
931.207	7993
931.311	7989
931.415	7928
931.519	7712
931.623	7780
