Data from test_V78500241_2375.txt Node
Date: Fri Mar 25 14:50:15 CST 2022
User: usil
Spectrometer: V785-0024
Trigger mode: 0
Integration Time (sec): 4.000000E-1
Scans to average: 1
Nonlinearity correction enabled: false
Boxcar width: 0
Storing dark spectrum: false
XAxis mode: Wavelengths
Number of Pixels in Spectrum: 1024
>>>>>Begin Spectral Data<<<<<
801.071	22086
801.214	22101
801.356	21819
801.499	21743
801.641	21530
801.783	21443
801.926	21507
802.068	21481
802.211	21317
802.353	21329
802.496	21055
802.638	21070
802.78	20921
802.923	20891
803.065	20842
803.208	20823
803.35	20853
803.492	20864
803.635	20990
803.777	20800
803.919	20990
804.061	21340
804.204	20861
804.346	20781
804.488	20583
804.63	20887
804.773	20697
804.915	20785
805.057	20781
805.199	20678
805.341	20765
805.483	20838
805.626	20800
805.768	20651
805.91	20838
806.052	20762
806.194	20689
806.336	20796
806.478	20845
806.62	20617
806.762	20834
806.904	20944
807.046	21233
807.188	21074
807.33	21020
807.472	21112
807.614	20876
807.756	21013
807.898	20994
808.04	20788
808.182	20826
808.324	20838
808.465	20914
808.607	21112
808.749	21055
808.891	21241
809.033	21344
809.174	21237
809.316	21017
809.458	21112
809.6	21154
809.741	21279
809.883	21184
810.025	21279
810.166	21268
810.308	21275
810.45	21272
810.591	21123
810.733	21017
810.875	20914
811.016	20861
811.158	20811
811.299	21009
811.441	21066
811.582	21047
811.724	20918
811.865	20864
812.007	21039
812.148	20823
812.29	20845
812.431	21043
812.573	21294
812.714	21302
812.855	21363
812.997	21397
813.138	21648
813.279	21545
813.421	21382
813.562	21310
813.703	21176
813.845	21081
813.986	20777
814.127	20632
814.268	20590
814.41	20568
814.551	20526
814.692	20587
814.833	20362
814.974	20328
815.115	20434
815.256	20290
815.397	20248
815.539	20339
815.68	20229
815.821	20157
815.962	20229
816.103	20202
816.244	20077
816.385	19913
816.526	19947
816.666	19795
816.807	19590
816.948	19651
817.089	19750
817.23	19575
817.371	19708
817.512	19719
817.653	19510
817.793	19495
817.934	19651
818.075	19658
818.216	19613
818.356	19537
818.497	19369
818.638	19232
818.778	19263
818.919	19213
819.06	19392
819.2	19381
819.341	19411
819.481	19563
819.622	19620
819.762	19780
819.903	19742
820.043	19643
820.184	19578
820.324	19544
820.465	19575
820.605	19601
820.746	19476
820.886	19460
821.026	19529
821.167	19407
821.307	19620
821.447	19586
821.588	19449
821.728	19327
821.868	19057
822.008	18962
822.149	18909
822.289	18970
822.429	18753
822.569	18608
822.709	18673
822.849	18323
822.99	18547
823.13	18327
823.27	18388
823.41	18258
823.55	18083
823.69	18171
823.83	18266
823.97	18114
824.11	18186
824.25	18053
824.389	18011
824.529	18098
824.669	18053
824.809	18224
824.949	18140
825.089	18136
825.228	17958
825.368	17824
825.508	17821
825.648	17908
825.787	17916
825.927	17916
826.067	17764
826.206	17828
826.346	17764
826.485	17840
826.625	17798
826.765	17882
826.904	17866
827.044	17570
827.183	17570
827.323	17528
827.462	17570
827.601	17573
827.741	17448
827.88	17471
828.02	17436
828.159	17467
828.298	17505
828.437	17649
828.577	17421
828.716	17634
828.855	17417
828.994	17349
829.134	17383
829.273	17391
829.412	17284
829.551	17280
829.69	17212
829.829	17277
829.968	17391
830.107	17280
830.246	17273
830.385	17254
830.524	17181
830.663	17006
830.802	17010
830.941	16930
831.08	16835
831.219	16976
831.357	16820
831.496	17124
831.635	16828
831.774	16774
831.913	16809
832.051	16733
832.19	16668
832.329	16752
832.467	16558
832.606	16519
832.744	16607
832.883	16474
833.022	16569
833.16	16565
833.299	16660
833.437	16508
833.576	16672
833.714	16607
833.852	16607
833.991	16664
834.129	16668
834.267	16592
834.406	16706
834.544	16675
834.682	16656
834.821	16622
834.959	16828
835.097	16569
835.235	16752
835.373	16736
835.511	16577
835.65	16565
835.788	16523
835.926	16508
836.064	16287
836.202	16303
836.34	16512
836.478	16630
836.615	16569
836.753	16607
836.891	16554
837.029	16588
837.167	16573
837.305	16451
837.443	16367
837.58	16356
837.718	16443
837.856	16440
837.993	16284
838.131	16379
838.269	16192
838.406	16341
838.544	16169
838.681	16200
838.819	16055
838.956	15895
839.094	15907
839.231	15915
839.369	16097
839.506	16268
839.643	16207
839.781	16051
839.918	15934
840.055	15926
840.193	15960
840.33	15915
840.467	15945
840.604	15949
840.742	16200
840.879	15861
841.016	15797
841.153	15804
841.29	15953
841.427	15949
841.564	15892
841.701	15964
841.838	15850
841.975	15884
842.112	15835
842.249	15759
842.385	15720
842.522	15907
842.659	15728
842.796	15724
842.933	15660
843.069	15679
843.206	15675
843.343	15705
843.479	15663
843.616	15751
843.752	15450
843.889	15545
844.025	15690
844.162	15405
844.298	15622
844.435	15526
844.571	15412
844.708	15519
844.844	15728
844.98	15679
845.117	15595
845.253	15473
845.389	15310
845.525	15389
845.661	15374
845.798	15306
845.934	15340
846.07	15275
846.206	15351
846.342	15294
846.478	15211
846.614	15081
846.75	15005
846.886	15097
847.022	15214
847.158	15055
847.294	15024
847.429	15070
847.565	15032
847.701	15218
847.837	14746
847.972	14807
848.108	14925
848.244	14933
848.379	14693
848.515	14636
848.65	14598
848.786	14697
848.921	14663
849.057	14785
849.192	14796
849.328	14705
849.463	14716
849.598	14632
849.734	14632
849.869	14522
850.004	14434
850.14	14545
850.275	14461
850.41	14396
850.545	14362
850.68	14442
850.815	14442
850.95	14465
851.085	14670
851.22	14549
851.355	14526
851.49	14415
851.625	14408
851.76	14423
851.895	14320
852.03	14244
852.165	14450
852.299	14454
852.434	14598
852.569	14415
852.703	14533
852.838	14518
852.973	14648
853.107	14537
853.242	14465
853.376	14282
853.511	14244
853.645	14259
853.78	14423
853.914	14358
854.048	14252
854.183	14328
854.317	14446
854.451	14438
854.585	14290
854.72	14271
854.854	14362
854.988	14313
855.122	14294
855.256	14237
855.39	14271
855.524	14465
855.658	14267
855.792	14332
855.926	14339
856.06	14393
856.194	14324
856.327	14240
856.461	14195
856.595	14294
856.729	14294
856.862	14408
856.996	14305
857.13	14278
857.263	14454
857.397	14419
857.53	14229
857.664	14358
857.797	14461
857.931	14438
858.064	14355
858.197	14457
858.331	14267
858.464	14225
858.597	14210
858.731	14221
858.864	14271
858.997	14263
859.13	14298
859.263	14324
859.396	14298
859.529	14278
859.662	14278
859.795	14301
859.928	14286
860.061	14461
860.194	14511
860.327	14248
860.46	14267
860.592	14343
860.725	14381
860.858	14415
860.99	14282
861.123	14282
861.256	14286
861.388	14267
861.521	14853
861.653	14191
861.786	14130
861.918	14111
862.05	14221
862.183	14240
862.315	14278
862.447	14267
862.58	14161
862.712	14073
862.844	13989
862.976	14069
863.108	14115
863.24	14465
863.372	14043
863.504	14077
863.636	14115
863.768	14195
863.9	14077
864.032	13967
864.164	14027
864.296	14084
864.428	14267
864.559	14081
864.691	14153
864.823	14164
864.954	14191
865.086	14077
865.217	13978
865.349	13913
865.48	14043
865.612	14077
865.743	14210
865.875	14081
866.006	13978
866.137	14081
866.269	14020
866.4	14065
866.531	13936
866.662	13982
866.793	14008
866.924	14039
867.055	14103
867.186	14153
867.317	13928
867.448	13940
867.579	14054
867.71	13921
867.841	14016
867.972	14069
868.103	14054
868.233	14046
868.364	14084
868.495	14100
868.625	14275
868.756	14549
868.886	14237
869.017	14267
869.147	14427
869.278	14355
869.408	14339
869.539	14370
869.669	14381
869.799	14328
869.929	14446
870.06	14438
870.19	14644
870.32	14625
870.45	14663
870.58	14659
870.71	14800
870.84	14792
870.97	14606
871.1	14663
871.23	14872
871.36	14967
871.489	14765
871.619	14834
871.749	14925
871.879	14891
872.008	15024
872.138	14929
872.267	14834
872.397	14807
872.526	14754
872.656	14682
872.785	14735
872.915	14971
873.044	14891
873.173	14891
873.303	14960
873.432	15055
873.561	14971
873.69	14899
873.819	15017
873.948	15024
874.077	15009
874.206	14967
874.335	14998
874.464	15112
874.593	15214
874.722	15222
874.851	15336
874.979	15256
875.108	15313
875.237	15104
875.365	15165
875.494	15161
875.623	15378
875.751	15294
875.88	15310
876.008	15367
876.136	15462
876.265	15633
876.393	15778
876.521	15739
876.65	15846
876.778	15656
876.906	15591
877.034	15675
877.162	15663
877.29	15637
877.418	15743
877.546	15591
877.674	15690
877.802	15603
877.93	15637
878.058	15671
878.185	15545
878.313	15637
878.441	15679
878.568	15504
878.696	15542
878.824	15709
878.951	15713
879.079	15861
879.206	15979
879.333	15694
879.461	15656
879.588	15778
879.715	15911
879.842	15994
879.97	15873
880.097	15447
880.224	15363
880.351	15420
880.478	15481
880.605	15477
880.732	15485
880.859	15724
880.986	15523
881.112	15496
881.239	15355
881.366	15268
881.493	15214
881.619	15222
881.746	15256
881.872	15218
881.999	15119
882.125	15176
882.252	15199
882.378	15165
882.505	15355
882.631	15146
882.757	15047
882.883	15100
883.01	15055
883.136	14918
883.262	14804
883.388	14906
883.514	15081
883.64	15119
883.766	15020
883.892	14788
884.018	14838
884.143	15020
884.269	15104
884.395	14735
884.52	14659
884.646	14731
884.772	14682
884.897	14590
885.023	14697
885.148	14739
885.274	14937
885.399	14781
885.524	14724
885.65	14651
885.775	14659
885.9	14606
886.025	14792
886.15	14731
886.275	14682
886.4	14549
886.525	14682
886.65	14629
886.775	14644
886.9	14792
887.025	14933
887.149	14792
887.274	14518
887.399	14587
887.523	14522
887.648	14446
887.773	14355
887.897	14571
888.021	14598
888.146	14442
888.27	14530
888.395	14678
888.519	14564
888.643	14602
888.767	14522
888.891	14434
889.015	14267
889.139	14438
889.263	14389
889.387	14484
889.511	14552
889.635	14503
889.759	14374
889.883	14431
890.006	14552
890.13	14450
890.254	14252
890.377	14343
890.501	14267
890.624	14191
890.748	14225
890.871	14221
890.995	13951
891.118	13963
891.241	14081
891.364	14073
891.488	14210
891.611	14084
891.734	14233
891.857	14164
891.98	14195
892.103	14088
892.226	14092
892.349	14115
892.471	13849
892.594	13993
892.717	14046
892.839	13989
892.962	14096
893.085	14126
893.207	14065
893.33	14012
893.452	13974
893.575	14157
893.697	14073
893.819	14218
893.941	14278
894.064	14275
894.186	14031
894.308	14145
894.43	14130
894.552	14271
894.674	14263
894.796	14077
894.918	14134
895.04	14138
895.161	14366
895.283	14172
895.405	14229
895.526	14183
895.648	14202
895.769	14225
895.891	14389
896.012	14294
896.134	14294
896.255	14347
896.376	14240
896.498	14248
896.619	14252
896.74	14313
896.861	14358
896.982	14663
897.103	14720
897.224	14549
897.345	14438
897.466	14446
897.587	14446
897.708	14606
897.828	14568
897.949	14560
898.07	14377
898.19	14438
898.311	14689
898.431	14549
898.552	14682
898.672	14708
898.792	14716
898.913	14651
899.033	14568
899.153	14575
899.273	14393
899.393	14412
899.513	14522
899.633	14488
899.753	14564
899.873	14469
899.993	14568
900.113	14389
900.232	14442
900.352	14423
900.472	14355
900.591	14313
900.711	14339
900.83	14385
900.95	14438
901.069	14514
901.189	14381
901.308	14130
901.427	13963
901.546	13944
901.665	14031
901.784	14031
901.904	13959
902.023	13772
902.141	13628
902.26	13601
902.379	13704
902.498	13480
902.617	13597
902.735	13616
902.854	13613
902.973	13525
903.091	13381
903.21	13331
903.328	13377
903.446	13213
903.565	13114
903.683	13266
903.801	13091
903.919	13129
904.038	13183
904.156	12924
904.274	13008
904.392	13000
904.51	12932
904.627	12985
904.745	12947
904.863	12970
904.981	12844
905.098	12612
905.216	12677
905.334	12772
905.451	12642
905.569	12563
905.686	12722
905.803	12662
905.921	12414
906.038	12631
906.155	12467
906.272	12357
906.389	12414
906.506	12323
906.623	12190
906.74	12308
906.857	12186
906.974	12106
907.091	12330
907.208	12437
907.324	12209
907.441	12140
907.557	11946
907.674	11984
907.79	11973
907.907	12003
908.023	12079
908.139	11939
908.256	12015
908.372	11908
908.488	11935
908.604	11817
908.72	11771
908.836	11771
908.952	11707
909.068	11752
909.184	11874
909.3	11771
909.415	11771
909.531	11703
909.647	11524
909.762	11471
909.878	11448
909.993	11535
910.108	11570
910.224	11463
910.339	11497
910.454	11379
910.57	11395
910.685	11292
910.8	11611
910.915	11554
911.03	11368
911.145	11220
911.259	11212
911.374	11246
911.489	11208
911.604	11121
911.718	10961
911.833	11041
911.947	10854
912.062	10790
912.176	11022
912.291	10999
912.405	10927
912.519	11181
912.633	11178
912.748	11022
912.862	11010
912.976	10923
913.09	10752
913.204	10797
913.318	10881
913.431	10972
913.545	10972
913.659	10953
913.772	10915
913.886	10691
914	10687
914.113	10824
914.226	10923
914.34	10900
914.453	10630
914.566	10752
914.68	10660
914.793	10573
914.906	10485
915.019	10481
915.132	10428
915.245	10478
915.358	10451
915.47	10481
915.583	10531
915.696	10485
915.809	10569
915.921	10645
916.034	10432
916.146	10417
916.259	10459
916.371	10512
916.483	10497
916.595	10371
916.708	10424
916.82	10333
916.932	10375
917.044	10344
917.156	10394
917.268	10268
917.38	10371
917.491	10280
917.603	10337
917.715	10348
917.826	10443
917.938	10314
918.049	10158
918.161	10299
918.272	10478
918.384	10462
918.495	10344
918.606	10227
918.717	10139
918.828	10249
918.939	10177
919.05	10135
919.161	10246
919.272	9972
919.383	10036
919.494	10265
919.604	10402
919.715	10207
919.826	10120
919.936	10139
920.047	10310
920.157	10329
920.267	10409
920.378	10295
920.488	10211
920.598	10398
920.708	10599
920.818	10455
920.928	10394
921.038	10558
921.148	10550
921.258	10234
921.368	10116
921.477	10086
921.587	10048
921.697	9876
921.806	10071
921.916	10013
922.025	9812
922.134	9808
922.244	9747
922.353	9895
922.462	9648
922.571	9576
922.68	9462
922.789	9416
922.898	9469
923.007	9466
923.116	9542
923.224	9466
923.333	9447
923.442	9469
923.55	9310
923.659	9317
923.767	9393
923.876	9374
923.984	9370
924.092	9310
924.201	9294
924.309	9367
924.417	9340
924.525	9283
924.633	9226
924.741	10036
924.849	9070
924.956	9264
925.064	9070
925.172	9039
925.279	9036
925.387	9074
925.494	9180
925.602	9249
925.709	9203
925.816	9020
925.924	9032
926.031	9214
926.138	9089
926.245	9173
926.352	8963
926.459	9214
926.566	9192
926.673	9066
926.779	8998
926.886	8956
926.993	8925
927.099	8804
927.206	8766
927.312	8773
927.419	8899
927.525	8830
927.631	8910
927.737	8777
927.843	8651
927.95	8598
928.056	8629
928.162	8727
928.267	8823
928.373	9367
928.479	8834
928.585	8579
928.69	8686
928.796	8811
928.901	8659
929.007	8484
929.112	8716
929.218	8625
929.323	8499
929.428	8556
929.533	8693
929.638	8488
929.743	8499
929.848	8598
929.953	8484
930.058	8473
930.163	8328
930.267	8347
930.372	8522
930.477	8286
930.581	8632
930.685	8408
930.79	8225
930.894	8305
930.998	8252
931.103	8370
931.207	8065
931.311	8024
931.415	7932
931.519	7811
931.623	7757
