Data from test_V78500241_1203.txt Node
Date: Fri Mar 25 14:42:05 CST 2022
User: usil
Spectrometer: V785-0024
Trigger mode: 0
Integration Time (sec): 4.000000E-1
Scans to average: 1
Nonlinearity correction enabled: false
Boxcar width: 0
Storing dark spectrum: false
XAxis mode: Wavelengths
Number of Pixels in Spectrum: 1024
>>>>>Begin Spectral Data<<<<<
801.071	22440
801.214	22322
801.356	22032
801.499	21861
801.641	21705
801.783	21743
801.926	21812
802.068	21743
802.211	21679
802.353	21614
802.496	21374
802.638	21218
802.78	21180
802.923	21051
803.065	21055
803.208	21036
803.35	21184
803.492	21161
803.635	21188
803.777	20994
803.919	21070
804.061	21469
804.204	21138
804.346	20952
804.488	20910
804.63	21020
804.773	20933
804.915	21039
805.057	21169
805.199	21024
805.341	21047
805.483	21131
805.626	21154
805.768	20967
805.91	20948
806.052	20979
806.194	20967
806.336	20971
806.478	20982
806.62	21039
806.762	21062
806.904	21131
807.046	21443
807.188	21454
807.33	21252
807.472	21359
807.614	21344
807.756	21412
807.898	21310
808.04	21135
808.182	21188
808.324	21154
808.465	21161
808.607	21325
808.749	21660
808.891	21599
809.033	21656
809.174	21462
809.316	21370
809.458	21485
809.6	21431
809.741	21504
809.883	21485
810.025	21622
810.166	21652
810.308	21488
810.45	21545
810.591	21549
810.733	21294
810.875	21245
811.016	21089
811.158	21036
811.299	21275
811.441	21359
811.582	21211
811.724	21192
811.865	21180
812.007	21138
812.148	21146
812.29	21157
812.431	21348
812.573	21504
812.714	21629
812.855	21663
812.997	21880
813.138	21949
813.279	21781
813.421	21739
813.562	21606
813.703	21485
813.845	21542
813.986	21085
814.127	20902
814.268	20792
814.41	20819
814.551	20864
814.692	20712
814.833	20785
814.974	20549
815.115	20644
815.256	20518
815.397	20632
815.539	20583
815.68	20507
815.821	20461
815.962	20495
816.103	20423
816.244	20408
816.385	20153
816.526	20176
816.666	19951
816.807	19947
816.948	19982
817.089	20103
817.23	19974
817.371	19868
817.512	19925
817.653	19932
817.793	19818
817.934	19963
818.075	19909
818.216	19902
818.356	19841
818.497	19719
818.638	19609
818.778	19628
818.919	19601
819.06	19727
819.2	19639
819.341	19742
819.481	19746
819.622	19944
819.762	20084
819.903	20126
820.043	19909
820.184	19864
820.324	19993
820.465	19932
820.605	19993
820.746	19864
820.886	19784
821.026	19715
821.167	19879
821.307	19868
821.447	19727
821.588	19731
821.728	19616
821.868	19453
822.008	19339
822.149	19343
822.289	19244
822.429	18958
822.569	19023
822.709	18905
822.849	18852
822.99	18791
823.13	18928
823.27	18810
823.41	18604
823.55	18525
823.69	18719
823.83	18635
823.97	18502
824.11	18517
824.25	18391
824.389	18506
824.529	18399
824.669	18452
824.809	18456
824.949	18517
825.089	18448
825.228	18376
825.368	18140
825.508	18144
825.648	18201
825.787	18251
825.927	18251
826.067	18133
826.206	18159
826.346	18174
826.485	18262
826.625	18159
826.765	18152
826.904	18190
827.044	18003
827.183	17889
827.323	17885
827.462	17984
827.601	17855
827.741	17855
827.88	17805
828.02	17771
828.159	17870
828.298	17813
828.437	17942
828.577	17790
828.716	18064
828.855	17874
828.994	17501
829.134	17634
829.273	17684
829.412	17672
829.551	17512
829.69	17600
829.829	17596
829.968	17695
830.107	17657
830.246	17741
830.385	17573
830.524	17512
830.663	17512
830.802	17330
830.941	17235
831.08	17189
831.219	17296
831.357	17315
831.496	17455
831.635	17185
831.774	17128
831.913	17155
832.051	17124
832.19	17029
832.329	17102
832.467	16953
832.606	16869
832.744	16923
832.883	16938
833.022	16828
833.16	16869
833.299	17018
833.437	17048
833.576	16995
833.714	17010
833.852	17025
833.991	17052
834.129	17067
834.267	17048
834.406	17075
834.544	17109
834.682	17018
834.821	17071
834.959	17235
835.097	16923
835.235	17128
835.373	17136
835.511	17075
835.65	16957
835.788	17033
835.926	16801
836.064	16801
836.202	16672
836.34	16949
836.478	17025
836.615	16953
836.753	16946
836.891	17094
837.029	16896
837.167	16968
837.305	16949
837.443	16889
837.58	16736
837.718	16850
837.856	16774
837.993	16805
838.131	16744
838.269	16710
838.406	16706
838.544	16698
838.681	16466
838.819	16390
838.956	16249
839.094	16341
839.231	16329
839.369	16497
839.506	16850
839.643	16634
839.781	16363
839.918	16284
840.055	16318
840.193	16337
840.33	16299
840.467	16325
840.604	16287
840.742	16626
840.879	16219
841.016	16261
841.153	16363
841.29	16405
841.427	16371
841.564	16303
841.701	16310
841.838	16139
841.975	16249
842.112	16204
842.249	16158
842.385	16021
842.522	16226
842.659	16147
842.796	16059
842.933	16120
843.069	15922
843.206	16036
843.343	16200
843.479	16067
843.616	16154
843.752	15915
843.889	15934
844.025	16055
844.162	15819
844.298	16010
844.435	15869
844.571	15800
844.708	16013
844.844	16097
844.98	16029
845.117	16109
845.253	15934
845.389	15842
845.525	15880
845.661	15827
845.798	15660
845.934	15842
846.07	15724
846.206	15892
846.342	15854
846.478	15755
846.614	15542
846.75	15336
846.886	15492
847.022	15492
847.158	15469
847.294	15549
847.429	15519
847.565	15416
847.701	15717
847.837	15268
847.972	15127
848.108	15359
848.244	15260
848.379	15119
848.515	15017
848.65	15116
848.786	15062
848.921	15058
849.057	15154
849.192	15207
849.328	15097
849.463	14979
849.598	15085
849.734	14868
849.869	14960
850.004	14792
850.14	14952
850.275	14746
850.41	14746
850.545	14773
850.68	14796
850.815	14823
850.95	14735
851.085	14952
851.22	14880
851.355	14735
851.49	14743
851.625	14693
851.76	14838
851.895	14716
852.03	14754
852.165	14739
852.299	14792
852.434	14906
852.569	14830
852.703	14864
852.838	15005
852.973	14914
853.107	14975
853.242	14804
853.376	14701
853.511	14552
853.645	14724
853.78	14781
853.914	14663
854.048	14659
854.183	14610
854.317	14678
854.451	14880
854.585	14602
854.72	14625
854.854	14720
854.988	14564
855.122	14610
855.256	14450
855.39	14655
855.524	14762
855.658	14712
855.792	14826
855.926	14769
856.06	14701
856.194	14800
856.327	14682
856.461	14552
856.595	14648
856.729	14731
856.862	14727
856.996	14754
857.13	14724
857.263	14765
857.397	14864
857.53	14735
857.664	14777
857.797	14811
857.931	14735
858.064	14777
858.197	14788
858.331	14689
858.464	14678
858.597	14644
858.731	14663
858.864	14686
858.997	14708
859.13	14716
859.263	14701
859.396	14750
859.529	14644
859.662	14731
859.795	14727
859.928	14830
860.061	14834
860.194	14910
860.327	14743
860.46	14625
860.592	14819
860.725	14883
860.858	14804
860.99	14765
861.123	14621
861.256	14670
861.388	14743
861.521	15336
861.653	14571
861.786	14545
861.918	14579
862.05	14598
862.183	14575
862.315	14651
862.447	14739
862.58	14568
862.712	14495
862.844	14423
862.976	14575
863.108	14450
863.24	14876
863.372	14454
863.504	14408
863.636	14408
863.768	14499
863.9	14461
864.032	14492
864.164	14461
864.296	14571
864.428	14484
864.559	14663
864.691	14549
864.823	14594
864.954	14473
865.086	14488
865.217	14507
865.349	14408
865.48	14461
865.612	14446
865.743	14667
865.875	14484
866.006	14442
866.137	14492
866.269	14412
866.4	14393
866.531	14370
866.662	14465
866.793	14465
866.924	14408
867.055	14431
867.186	14347
867.317	14552
867.448	14298
867.579	14362
867.71	14294
867.841	14339
867.972	14549
868.103	14465
868.233	14492
868.364	14461
868.495	14545
868.625	14648
868.756	14765
868.886	14560
869.017	14682
869.147	14842
869.278	14853
869.408	14701
869.539	14754
869.669	14800
869.799	14716
869.929	14876
870.06	14781
870.19	15047
870.32	14960
870.45	14998
870.58	15081
870.71	15127
870.84	15157
870.97	15032
871.1	15062
871.23	15222
871.36	15260
871.489	15218
871.619	15135
871.749	15313
871.879	15264
872.008	15435
872.138	15173
872.267	15264
872.397	15154
872.526	15066
872.656	15108
872.785	15070
872.915	15310
873.044	15397
873.173	15298
873.303	15256
873.432	15329
873.561	15466
873.69	15344
873.819	15386
873.948	15370
874.077	15294
874.206	15397
874.335	15249
874.464	15332
874.593	15652
874.722	15568
874.851	15580
874.979	15713
875.108	15656
875.237	15584
875.365	15496
875.494	15576
875.623	15682
875.751	15618
875.88	15701
876.008	15717
876.136	15934
876.265	16032
876.393	16166
876.521	16067
876.65	16135
876.778	16131
876.906	16059
877.034	16017
877.162	16044
877.29	15922
877.418	16013
877.546	16044
877.674	16078
877.802	16074
877.93	16040
878.058	15994
878.185	16040
878.313	15968
878.441	16093
878.568	15888
878.696	15972
878.824	16051
878.951	16135
879.079	16223
879.206	16341
879.333	16325
879.461	16135
879.588	16230
879.715	16314
879.842	16318
879.97	16200
880.097	15949
880.224	15987
880.351	15838
880.478	15915
880.605	15766
880.732	15934
880.859	16131
880.986	15888
881.112	15972
881.239	15770
881.366	15686
881.493	15576
881.619	15557
881.746	15530
881.872	15572
881.999	15584
882.125	15564
882.252	15572
882.378	15603
882.505	15781
882.631	15530
882.757	15405
882.883	15485
883.01	15374
883.136	15272
883.262	15332
883.388	15127
883.514	15382
883.64	15450
883.766	15378
883.892	15150
884.018	15207
884.143	15317
884.269	15447
884.395	15169
884.52	15104
884.646	15055
884.772	15032
884.897	15028
885.023	15085
885.148	15131
885.274	15199
885.399	15211
885.524	15123
885.65	15119
885.775	15173
885.9	15142
886.025	15237
886.15	15192
886.275	15024
886.4	15013
886.525	15043
886.65	15070
886.775	14994
886.9	15135
887.025	15321
887.149	15081
887.274	14979
887.399	14857
887.523	14948
887.648	14868
887.773	14792
887.897	14918
888.021	14944
888.146	14906
888.27	14998
888.395	15047
888.519	14971
888.643	14910
888.767	14956
888.891	14876
889.015	14750
889.139	14785
889.263	14720
889.387	14864
889.511	14998
889.635	14899
889.759	14686
889.883	14838
890.006	14785
890.13	14845
890.254	14701
890.377	14636
890.501	14625
890.624	14526
890.748	14659
890.871	14514
890.995	14400
891.118	14347
891.241	14518
891.364	14465
891.488	14636
891.611	14438
891.734	14408
891.857	14415
891.98	14438
892.103	14575
892.226	14533
892.349	14511
892.471	14324
892.594	14469
892.717	14492
892.839	14412
892.962	14427
893.085	14522
893.207	14461
893.33	14324
893.452	14389
893.575	14526
893.697	14446
893.819	14697
893.941	14693
894.064	14564
894.186	14431
894.308	14446
894.43	14590
894.552	14556
894.674	14575
894.796	14434
894.918	14412
895.04	14431
895.161	14674
895.283	14564
895.405	14465
895.526	14488
895.648	14552
895.769	14454
895.891	14480
896.012	14697
896.134	14579
896.255	14560
896.376	14568
896.498	14590
896.619	14568
896.74	14648
896.861	14659
896.982	14986
897.103	15070
897.224	14990
897.345	14826
897.466	14773
897.587	14758
897.708	14982
897.828	14880
897.949	14769
898.07	14777
898.19	14815
898.311	15070
898.431	14834
898.552	14963
898.672	15020
898.792	15051
898.913	15032
899.033	14910
899.153	14842
899.273	14720
899.393	14754
899.513	14739
899.633	14800
899.753	14811
899.873	14788
899.993	14785
900.113	14762
900.232	14708
900.352	14670
900.472	14712
900.591	14613
900.711	14705
900.83	14610
900.95	14788
901.069	14758
901.189	14598
901.308	14313
901.427	14282
901.546	14339
901.665	14343
901.784	14252
901.904	14221
902.023	14191
902.141	13951
902.26	13906
902.379	13974
902.498	13849
902.617	13803
902.735	13887
902.854	13932
902.973	13837
903.091	13613
903.21	13609
903.328	13636
903.446	13518
903.565	13453
903.683	13358
903.801	13495
903.919	13430
904.038	13343
904.156	13324
904.274	13430
904.392	13285
904.51	13198
904.627	13304
904.745	13301
904.863	13335
904.981	13000
905.098	12951
905.216	12901
905.334	12970
905.451	12939
905.569	12947
905.686	13042
905.803	12954
905.921	12817
906.038	12890
906.155	12795
906.272	12700
906.389	12696
906.506	12410
906.623	12574
906.74	12502
906.857	12445
906.974	12551
907.091	12559
907.208	12662
907.324	12582
907.441	12407
907.557	12319
907.674	12209
907.79	12220
907.907	12258
908.023	12281
908.139	12220
908.256	12213
908.372	12308
908.488	12144
908.604	12003
908.72	11992
908.836	12041
908.952	11992
909.068	12095
909.184	12117
909.3	12015
909.415	12114
909.531	12022
909.647	11885
909.762	11794
909.878	11745
909.993	11882
910.108	11783
910.224	11798
910.339	11824
910.454	11733
910.57	11680
910.685	11539
910.8	11863
910.915	11790
911.03	11703
911.145	11512
911.259	11558
911.374	11516
911.489	11448
911.604	11398
911.718	11288
911.833	11250
911.947	11166
912.062	11037
912.176	11170
912.291	11220
912.405	11208
912.519	11433
912.633	11440
912.748	11406
912.862	11242
912.976	11178
913.09	10984
913.204	11159
913.318	11227
913.431	11254
913.545	11296
913.659	11288
913.772	11143
913.886	10999
914	11083
914.113	11094
914.226	11185
914.34	11094
914.453	10930
914.566	11170
914.68	10957
914.793	11090
914.906	10835
915.019	10736
915.132	10698
915.245	10717
915.358	10812
915.47	10839
915.583	10828
915.696	10862
915.809	10927
915.921	10911
916.034	10748
916.146	10698
916.259	10801
916.371	10881
916.483	10809
916.595	10679
916.708	10740
916.82	10729
916.932	10596
917.044	10645
917.156	10721
917.268	10641
917.38	10607
917.491	10561
917.603	10584
917.715	10733
917.826	10744
917.938	10664
918.049	10565
918.161	10641
918.272	10679
918.384	10694
918.495	10596
918.606	10516
918.717	10455
918.828	10493
918.939	10523
919.05	10402
919.161	10428
919.272	10337
919.383	10352
919.494	10504
919.604	10714
919.715	10489
919.826	10516
919.936	10455
920.047	10573
920.157	10558
920.267	10740
920.378	10516
920.488	10459
920.598	10729
920.708	10854
920.818	10687
920.928	10698
921.038	10839
921.148	10854
921.258	10554
921.368	10512
921.477	10341
921.587	10382
921.697	10227
921.806	10413
921.916	10287
922.025	10071
922.134	10101
922.244	9953
922.353	10021
922.462	9983
922.571	9876
922.68	9854
922.789	9679
922.898	9698
923.007	9766
923.116	9747
923.224	9751
923.333	9667
923.442	9606
923.55	9606
923.659	9656
923.767	9622
923.876	9591
923.984	9656
924.092	9561
924.201	9545
924.309	9625
924.417	9580
924.525	9561
924.633	9504
924.741	10249
924.849	9340
924.956	9526
925.064	9325
925.172	9306
925.279	9363
925.387	9401
925.494	9439
925.602	9447
925.709	9492
925.816	9298
925.924	9378
926.031	9511
926.138	9428
926.245	9435
926.352	9317
926.459	9408
926.566	9443
926.673	9363
926.779	9268
926.886	9256
926.993	9116
927.099	9085
927.206	9020
927.312	9032
927.419	9161
927.525	9077
927.631	9097
927.737	9001
927.843	8982
927.95	8834
928.056	8956
928.162	8975
928.267	9081
928.373	9671
928.479	9066
928.585	8902
928.69	8982
928.796	8979
928.901	8876
929.007	8735
929.112	8887
929.218	8849
929.323	8792
929.428	8804
929.533	8845
929.638	8743
929.743	8746
929.848	8781
929.953	8823
930.058	8674
930.163	8518
930.267	8564
930.372	8670
930.477	8507
930.581	8769
930.685	8655
930.79	8484
930.894	8545
930.998	8461
931.103	8629
931.207	8328
931.311	8263
931.415	8142
931.519	7989
931.623	8001
