Data from test_V78500241_2231.txt Node
Date: Fri Mar 25 14:49:14 CST 2022
User: usil
Spectrometer: V785-0024
Trigger mode: 0
Integration Time (sec): 4.000000E-1
Scans to average: 1
Nonlinearity correction enabled: false
Boxcar width: 0
Storing dark spectrum: false
XAxis mode: Wavelengths
Number of Pixels in Spectrum: 1024
>>>>>Begin Spectral Data<<<<<
801.071	22192
801.214	21964
801.356	21728
801.499	21774
801.641	21622
801.783	21549
801.926	21553
802.068	21458
802.211	21469
802.353	21336
802.496	21112
802.638	20933
802.78	20998
802.923	20937
803.065	20739
803.208	20765
803.35	20853
803.492	20971
803.635	21047
803.777	20823
803.919	20967
804.061	21226
804.204	20944
804.346	20849
804.488	20670
804.63	20857
804.773	20689
804.915	20815
805.057	20925
805.199	20857
805.341	20857
805.483	20967
805.626	20883
805.768	20800
805.91	20826
806.052	20845
806.194	20701
806.336	20853
806.478	20796
806.62	20705
806.762	20849
806.904	20914
807.046	21138
807.188	21024
807.33	21093
807.472	21241
807.614	20925
807.756	21112
807.898	20876
808.04	20956
808.182	21009
808.324	20910
808.465	20891
808.607	21192
808.749	21165
808.891	21283
809.033	21321
809.174	21226
809.316	21123
809.458	21020
809.6	21252
809.741	21173
809.883	21256
810.025	21412
810.166	21424
810.308	21348
810.45	21207
810.591	21096
810.733	20963
810.875	20998
811.016	20804
811.158	20918
811.299	20925
811.441	21009
811.582	20975
811.724	20967
811.865	20982
812.007	20948
812.148	20899
812.29	21081
812.431	21135
812.573	21291
812.714	21329
812.855	21500
812.997	21507
813.138	21572
813.279	21485
813.421	21462
813.562	21447
813.703	21188
813.845	21108
813.986	20754
814.127	20686
814.268	20644
814.41	20617
814.551	20469
814.692	20575
814.833	20461
814.974	20526
815.115	20492
815.256	20267
815.397	20377
815.539	20358
815.68	20301
815.821	20058
815.962	20286
816.103	20256
816.244	20119
816.385	19974
816.526	20027
816.666	19803
816.807	19704
816.948	19723
817.089	19681
817.23	19628
817.371	19624
817.512	19590
817.653	19556
817.793	19514
817.934	19586
818.075	19696
818.216	19651
818.356	19483
818.497	19426
818.638	19209
818.778	19293
818.919	19293
819.06	19278
819.2	19377
819.341	19460
819.481	19434
819.622	19613
819.762	19860
819.903	19757
820.043	19757
820.184	19468
820.324	19704
820.465	19780
820.605	19457
820.746	19567
820.886	19388
821.026	19563
821.167	19537
821.307	19696
821.447	19590
821.588	19514
821.728	19217
821.868	19133
822.008	19053
822.149	19069
822.289	18958
822.429	18829
822.569	18620
822.709	18734
822.849	18509
822.99	18608
823.13	18403
823.27	18486
823.41	18460
823.55	18266
823.69	18338
823.83	18308
823.97	18235
824.11	18049
824.25	18034
824.389	18057
824.529	18167
824.669	18057
824.809	18178
824.949	18098
825.089	18228
825.228	17977
825.368	17904
825.508	17954
825.648	17927
825.787	17946
825.927	17813
826.067	17931
826.206	17851
826.346	17878
826.485	17836
826.625	17764
826.765	17836
826.904	17893
827.044	17687
827.183	17657
827.323	17562
827.462	17558
827.601	17501
827.741	17547
827.88	17577
828.02	17459
828.159	17452
828.298	17566
828.437	17638
828.577	17444
828.716	17703
828.855	17402
828.994	17383
829.134	17273
829.273	17315
829.412	17216
829.551	17220
829.69	17261
829.829	17303
829.968	17459
830.107	17315
830.246	17436
830.385	17246
830.524	17181
830.663	17109
830.802	16980
830.941	16927
831.08	16862
831.219	16923
831.357	16984
831.496	17029
831.635	16828
831.774	16778
831.913	16786
832.051	16736
832.19	16656
832.329	16675
832.467	16618
832.606	16497
832.744	16538
832.883	16508
833.022	16474
833.16	16577
833.299	16713
833.437	16645
833.576	16675
833.714	16542
833.852	16519
833.991	16588
834.129	16694
834.267	16672
834.406	16508
834.544	16675
834.682	16683
834.821	16565
834.959	16778
835.097	16546
835.235	16702
835.373	16603
835.511	16607
835.65	16542
835.788	16459
835.926	16462
836.064	16310
836.202	16382
836.34	16573
836.478	16599
836.615	16478
836.753	16542
836.891	16546
837.029	16462
837.167	16466
837.305	16474
837.443	16459
837.58	16386
837.718	16398
837.856	16348
837.993	16303
838.131	16367
838.269	16223
838.406	16299
838.544	16257
838.681	16090
838.819	16021
838.956	15926
839.094	15987
839.231	15991
839.369	16131
839.506	16234
839.643	16166
839.781	15979
839.918	15880
840.055	15926
840.193	15918
840.33	15895
840.467	15888
840.604	15945
840.742	16120
840.879	15838
841.016	15880
841.153	15751
841.29	16025
841.427	15949
841.564	15949
841.701	15915
841.838	15865
841.975	15850
842.112	15816
842.249	15789
842.385	15732
842.522	15739
842.659	15717
842.796	15625
842.933	15698
843.069	15648
843.206	15667
843.343	15846
843.479	15778
843.616	15724
843.752	15447
843.889	15507
844.025	15656
844.162	15412
844.298	15549
844.435	15447
844.571	15462
844.708	15545
844.844	15713
844.98	15652
845.117	15584
845.253	15450
845.389	15401
845.525	15450
845.661	15348
845.798	15272
845.934	15260
846.07	15256
846.206	15264
846.342	15492
846.478	15359
846.614	15184
846.75	14971
846.886	15013
847.022	15188
847.158	15020
847.294	14979
847.429	15165
847.565	15066
847.701	15188
847.837	14845
847.972	14792
848.108	14906
848.244	14971
848.379	14758
848.515	14667
848.65	14598
848.786	14678
848.921	14598
849.057	14712
849.192	14788
849.328	14765
849.463	14617
849.598	14670
849.734	14640
849.869	14549
850.004	14438
850.14	14560
850.275	14503
850.41	14309
850.545	14427
850.68	14438
850.815	14381
850.95	14461
851.085	14560
851.22	14564
851.355	14457
851.49	14347
851.625	14427
851.76	14427
851.895	14309
852.03	14237
852.165	14370
852.299	14412
852.434	14579
852.569	14587
852.703	14438
852.838	14552
852.973	14507
853.107	14598
853.242	14370
853.376	14385
853.511	14221
853.645	14290
853.78	14320
853.914	14309
854.048	14339
854.183	14240
854.317	14370
854.451	14530
854.585	14332
854.72	14286
854.854	14358
854.988	14244
855.122	14271
855.256	14161
855.39	14271
855.524	14339
855.658	14309
855.792	14415
855.926	14313
856.06	14419
856.194	14427
856.327	14317
856.461	14252
856.595	14332
856.729	14313
856.862	14396
856.996	14218
857.13	14358
857.263	14343
857.397	14362
857.53	14244
857.664	14412
857.797	14457
857.931	14457
858.064	14332
858.197	14431
858.331	14305
858.464	14244
858.597	14180
858.731	14328
858.864	14278
858.997	14278
859.13	14214
859.263	14431
859.396	14385
859.529	14271
859.662	14320
859.795	14324
859.928	14328
860.061	14431
860.194	14499
860.327	14450
860.46	14313
860.592	14385
860.725	14355
860.858	14431
860.99	14362
861.123	14256
861.256	14229
861.388	14305
861.521	14906
861.653	14191
861.786	14081
861.918	14153
862.05	14259
862.183	14248
862.315	14225
862.447	14305
862.58	14191
862.712	14115
862.844	13959
862.976	14157
863.108	14065
863.24	14385
863.372	13978
863.504	14126
863.636	14161
863.768	14130
863.9	14020
864.032	13986
864.164	14012
864.296	14024
864.428	14172
864.559	14199
864.691	14195
864.823	14119
864.954	14138
865.086	14142
865.217	14096
865.349	14031
865.48	14050
865.612	14069
865.743	14145
865.875	14016
866.006	13978
866.137	14134
866.269	14096
866.4	13989
866.531	14008
866.662	14024
866.793	14050
866.924	14020
867.055	14130
867.186	14035
867.317	14001
867.448	14020
867.579	13989
867.71	14050
867.841	13917
867.972	14107
868.103	14088
868.233	14024
868.364	14043
868.495	14172
868.625	14244
868.756	14438
868.886	14183
869.017	14278
869.147	14442
869.278	14461
869.408	14343
869.539	14374
869.669	14473
869.799	14423
869.929	14461
870.06	14465
870.19	14701
870.32	14655
870.45	14693
870.58	14636
870.71	14773
870.84	14743
870.97	14667
871.1	14651
871.23	14826
871.36	15032
871.489	14762
871.619	14807
871.749	14861
871.879	14948
872.008	14998
872.138	14941
872.267	14864
872.397	14819
872.526	14659
872.656	14686
872.785	14849
872.915	14899
873.044	15013
873.173	15001
873.303	14982
873.432	15013
873.561	15047
873.69	14960
873.819	14948
873.948	15058
874.077	14925
874.206	14902
874.335	15036
874.464	15081
874.593	15157
874.722	15195
874.851	15332
874.979	15222
875.108	15348
875.237	15161
875.365	15233
875.494	15275
875.623	15321
875.751	15302
875.88	15256
876.008	15549
876.136	15542
876.265	15694
876.393	15861
876.521	15800
876.65	15789
876.778	15739
876.906	15671
877.034	15614
877.162	15682
877.29	15637
877.418	15652
877.546	15850
877.674	15667
877.802	15656
877.93	15686
878.058	15675
878.185	15530
878.313	15686
878.441	15599
878.568	15572
878.696	15572
878.824	15709
878.951	15713
879.079	15888
879.206	15964
879.333	15838
879.461	15739
879.588	15751
879.715	15808
879.842	15987
879.97	15713
880.097	15580
880.224	15542
880.351	15568
880.478	15526
880.605	15454
880.732	15500
880.859	15800
880.986	15576
881.112	15595
881.239	15454
881.366	15378
881.493	15283
881.619	15237
881.746	15116
881.872	15279
881.999	15097
882.125	15093
882.252	15203
882.378	15233
882.505	15378
882.631	15146
882.757	15043
882.883	15116
883.01	15043
883.136	14956
883.262	14914
883.388	14807
883.514	15028
883.64	15135
883.766	14880
883.892	14887
884.018	14853
884.143	14998
884.269	15001
884.395	14826
884.52	14769
884.646	14708
884.772	14678
884.897	14648
885.023	14758
885.148	14758
885.274	14868
885.399	14807
885.524	14663
885.65	14765
885.775	14750
885.9	14712
886.025	14792
886.15	14640
886.275	14743
886.4	14583
886.525	14670
886.65	14731
886.775	14587
886.9	14697
887.025	14899
887.149	14686
887.274	14583
887.399	14579
887.523	14499
887.648	14473
887.773	14484
887.897	14640
888.021	14594
888.146	14492
888.27	14549
888.395	14674
888.519	14507
888.643	14533
888.767	14598
888.891	14511
889.015	14381
889.139	14336
889.263	14381
889.387	14530
889.511	14579
889.635	14507
889.759	14408
889.883	14339
890.006	14488
890.13	14473
890.254	14248
890.377	14385
890.501	14252
890.624	14195
890.748	14377
890.871	14282
890.995	14001
891.118	13978
891.241	14142
891.364	14180
891.488	14176
891.611	14077
891.734	14062
891.857	14180
891.98	14164
892.103	14161
892.226	14092
892.349	14043
892.471	14024
892.594	14050
892.717	14069
892.839	14115
892.962	14081
893.085	14176
893.207	14058
893.33	14062
893.452	13925
893.575	14107
893.697	14153
893.819	14233
893.941	14271
894.064	14275
894.186	14081
894.308	14092
894.43	14278
894.552	14351
894.674	14313
894.796	14096
894.918	14229
895.04	14149
895.161	14168
895.283	14210
895.405	14275
895.526	14240
895.648	14210
895.769	14286
895.891	14176
896.012	14240
896.134	14305
896.255	14278
896.376	14172
896.498	14278
896.619	14263
896.74	14187
896.861	14404
896.982	14629
897.103	14712
897.224	14598
897.345	14480
897.466	14492
897.587	14473
897.708	14689
897.828	14549
897.949	14533
898.07	14446
898.19	14499
898.311	14697
898.431	14507
898.552	14659
898.672	14750
898.792	14625
898.913	14708
899.033	14651
899.153	14560
899.273	14381
899.393	14351
899.513	14499
899.633	14552
899.753	14556
899.873	14385
899.993	14632
900.113	14518
900.232	14503
900.352	14537
900.472	14377
900.591	14324
900.711	14377
900.83	14317
900.95	14374
901.069	14560
901.189	14332
901.308	14111
901.427	13982
901.546	14031
901.665	14115
901.784	14115
901.904	13906
902.023	13780
902.141	13636
902.26	13575
902.379	13578
902.498	13544
902.617	13567
902.735	13715
902.854	13677
902.973	13510
903.091	13407
903.21	13339
903.328	13240
903.446	13198
903.565	13293
903.683	13202
903.801	13065
903.919	13217
904.038	13122
904.156	12981
904.274	13103
904.392	13019
904.51	13019
904.627	12935
904.745	12993
904.863	13053
904.981	12726
905.098	12608
905.216	12696
905.334	12601
905.451	12673
905.569	12650
905.686	12677
905.803	12665
905.921	12536
906.038	12566
906.155	12502
906.272	12334
906.389	12369
906.506	12281
906.623	12304
906.74	12239
906.857	12205
906.974	12197
907.091	12346
907.208	12342
907.324	12315
907.441	12251
907.557	12053
907.674	12098
907.79	11916
907.907	11954
908.023	12034
908.139	12087
908.256	11916
908.372	11904
908.488	11893
908.604	11771
908.72	11756
908.836	11779
908.952	11676
909.068	11802
909.184	11813
909.3	11794
909.415	11760
909.531	11729
909.647	11516
909.762	11520
909.878	11455
909.993	11562
910.108	11482
910.224	11459
910.339	11497
910.454	11395
910.57	11379
910.685	11356
910.8	11615
910.915	11558
911.03	11486
911.145	11216
911.259	11235
911.374	11239
911.489	11128
911.604	11109
911.718	10915
911.833	11056
911.947	10919
912.062	10869
912.176	10949
912.291	10930
912.405	10991
912.519	11109
912.633	11185
912.748	11033
912.862	11029
912.976	10938
913.09	10797
913.204	10805
913.318	10820
913.431	10965
913.545	10934
913.659	10987
913.772	10866
913.886	10824
914	10725
914.113	10900
914.226	10942
914.34	10900
914.453	10740
914.566	10828
914.68	10736
914.793	10649
914.906	10432
915.019	10459
915.132	10402
915.245	10432
915.358	10447
915.47	10470
915.583	10531
915.696	10535
915.809	10542
915.921	10649
916.034	10478
916.146	10493
916.259	10459
916.371	10558
916.483	10470
916.595	10424
916.708	10424
916.82	10306
916.932	10352
917.044	10405
917.156	10421
917.268	10291
917.38	10303
917.491	10375
917.603	10287
917.715	10470
917.826	10379
917.938	10310
918.049	10223
918.161	10352
918.272	10402
918.384	10413
918.495	10371
918.606	10196
918.717	10154
918.828	10185
918.939	10303
919.05	10196
919.161	10166
919.272	9994
919.383	10112
919.494	10204
919.604	10344
919.715	10215
919.826	10124
919.936	10192
920.047	10291
920.157	10268
920.267	10386
920.378	10169
920.488	10135
920.598	10382
920.708	10588
920.818	10363
920.928	10443
921.038	10599
921.148	10474
921.258	10200
921.368	10211
921.477	10135
921.587	10082
921.697	9964
921.806	10097
921.916	10029
922.025	9857
922.134	9785
922.244	9766
922.353	9884
922.462	9595
922.571	9618
922.68	9477
922.789	9545
922.898	9496
923.007	9447
923.116	9466
923.224	9530
923.333	9507
923.442	9359
923.55	9279
923.659	9447
923.767	9424
923.876	9287
923.984	9378
924.092	9336
924.201	9416
924.309	9321
924.417	9336
924.525	9325
924.633	9291
924.741	10234
924.849	9146
924.956	9264
925.064	9123
925.172	9036
925.279	9055
925.387	9157
925.494	9142
925.602	9241
925.709	9222
925.816	9058
925.924	9135
926.031	9211
926.138	9154
926.245	9123
926.352	9028
926.459	9154
926.566	9207
926.673	9123
926.779	8998
926.886	8986
926.993	8842
927.099	8861
927.206	8762
927.312	8792
927.419	8781
927.525	8811
927.631	8876
927.737	8781
927.843	8758
927.95	8682
928.056	8743
928.162	8754
928.267	8826
928.373	9412
928.479	8815
928.585	8587
928.69	8686
928.796	8766
928.901	8663
929.007	8541
929.112	8621
929.218	8648
929.323	8556
929.428	8545
929.533	8708
929.638	8488
929.743	8511
929.848	8579
929.953	8465
930.058	8461
930.163	8374
930.267	8339
930.372	8480
930.477	8279
930.581	8511
930.685	8446
930.79	8240
930.894	8286
930.998	8305
931.103	8381
931.207	8096
931.311	7974
931.415	7940
931.519	7837
931.623	7769
