Data from test_V78500241_1378.txt Node
Date: Fri Mar 25 14:43:18 CST 2022
User: usil
Spectrometer: V785-0024
Trigger mode: 0
Integration Time (sec): 4.000000E-1
Scans to average: 1
Nonlinearity correction enabled: false
Boxcar width: 0
Storing dark spectrum: false
XAxis mode: Wavelengths
Number of Pixels in Spectrum: 1024
>>>>>Begin Spectral Data<<<<<
801.071	22462
801.214	22337
801.356	22048
801.499	22051
801.641	21728
801.783	21720
801.926	21770
802.068	21720
802.211	21599
802.353	21690
802.496	21272
802.638	21393
802.78	21214
802.923	21195
803.065	21138
803.208	21169
803.35	21127
803.492	21272
803.635	21302
803.777	21055
803.919	21275
804.061	21450
804.204	21127
804.346	21017
804.488	20986
804.63	21039
804.773	20921
804.915	20986
805.057	21135
805.199	21051
805.341	21093
805.483	21104
805.626	21169
805.768	20952
805.91	20906
806.052	21020
806.194	20982
806.336	21199
806.478	21096
806.62	21047
806.762	21169
806.904	21199
807.046	21553
807.188	21431
807.33	21431
807.472	21424
807.614	21488
807.756	21317
807.898	21294
808.04	21176
808.182	21275
808.324	21389
808.465	21291
808.607	21542
808.749	21743
808.891	21789
809.033	21808
809.174	21732
809.316	21622
809.458	21595
809.6	21542
809.741	21580
809.883	21614
810.025	21778
810.166	21690
810.308	21759
810.45	21610
810.591	21481
810.733	21374
810.875	21374
811.016	21184
811.158	21077
811.299	21100
811.441	21405
811.582	21367
811.724	21218
811.865	21184
812.007	21222
812.148	21138
812.29	21363
812.431	21344
812.573	21663
812.714	21652
812.855	21713
812.997	21926
813.138	21949
813.279	21823
813.421	21728
813.562	21523
813.703	21492
813.845	21389
813.986	21138
814.127	20891
814.268	20849
814.41	20853
814.551	20769
814.692	20849
814.833	20697
814.974	20693
815.115	20781
815.256	20545
815.397	20568
815.539	20629
815.68	20377
815.821	20530
815.962	20640
816.103	20480
816.244	20324
816.385	20282
816.526	20229
816.666	20001
816.807	19947
816.948	19940
817.089	20088
817.23	20005
817.371	19909
817.512	19902
817.653	19951
817.793	19849
817.934	19845
818.075	20043
818.216	19997
818.356	19928
818.497	19704
818.638	19628
818.778	19639
818.919	19563
819.06	19689
819.2	19715
819.341	19765
819.481	19715
819.622	19890
819.762	20111
819.903	19925
820.043	19871
820.184	19879
820.324	19967
820.465	19928
820.605	19883
820.746	19898
820.886	19651
821.026	19887
821.167	19982
821.307	20024
821.447	19677
821.588	19662
821.728	19594
821.868	19373
822.008	19282
822.149	19202
822.289	19228
822.429	19027
822.569	19031
822.709	18924
822.849	18757
822.99	18760
823.13	18684
823.27	18719
823.41	18528
823.55	18570
823.69	18608
823.83	18658
823.97	18620
824.11	18433
824.25	18311
824.389	18323
824.529	18479
824.669	18228
824.809	18574
824.949	18479
825.089	18490
825.228	18361
825.368	18258
825.508	18171
825.648	18216
825.787	18098
825.927	18148
826.067	18159
826.206	18136
826.346	18209
826.485	18140
826.625	18159
826.765	18270
826.904	18178
827.044	17931
827.183	17923
827.323	17726
827.462	17866
827.601	17904
827.741	17748
827.88	17798
828.02	17699
828.159	17832
828.298	17897
828.437	17942
828.577	17840
828.716	17958
828.855	17798
828.994	17615
829.134	17661
829.273	17604
829.412	17482
829.551	17592
829.69	17543
829.829	17672
829.968	17748
830.107	17642
830.246	17634
830.385	17524
830.524	17471
830.663	17383
830.802	17315
830.941	17273
831.08	17136
831.219	17307
831.357	17296
831.496	17334
831.635	17227
831.774	17048
831.913	17124
832.051	17029
832.19	17014
832.329	17094
832.467	16923
832.606	16831
832.744	16984
832.883	16919
833.022	16816
833.16	16984
833.299	16942
833.437	16809
833.576	16953
833.714	16957
833.852	16942
833.991	17025
834.129	17010
834.267	16968
834.406	17045
834.544	17022
834.682	16991
834.821	16915
834.959	17105
835.097	16934
835.235	16953
835.373	16919
835.511	16896
835.65	16946
835.788	16877
835.926	16675
836.064	16698
836.202	16675
836.34	16873
836.478	17014
836.615	16965
836.753	16892
836.891	17037
837.029	16839
837.167	16801
837.305	16805
837.443	16767
837.58	16679
837.718	16687
837.856	16767
837.993	16755
838.131	16622
838.269	16618
838.406	16721
838.544	16561
838.681	16303
838.819	16356
838.956	16185
839.094	16265
839.231	16280
839.369	16402
839.506	16641
839.643	16474
839.781	16382
839.918	16223
840.055	16265
840.193	16276
840.33	16219
840.467	16147
840.604	16314
840.742	16504
840.879	16112
841.016	16188
841.153	16181
841.29	16379
841.427	16284
841.564	16417
841.701	16402
841.838	16173
841.975	16169
842.112	16295
842.249	16082
842.385	15998
842.522	16147
842.659	16048
842.796	16029
842.933	16128
843.069	15979
843.206	16036
843.343	16059
843.479	16071
843.616	16021
843.752	15835
843.889	15823
844.025	15991
844.162	15736
844.298	15907
844.435	15842
844.571	15827
844.708	15960
844.844	15937
844.98	16029
845.117	15926
845.253	15770
845.389	15808
845.525	15987
845.661	15949
845.798	15850
845.934	15930
846.07	15808
846.206	16006
846.342	16071
846.478	15861
846.614	15599
846.75	15412
846.886	15420
847.022	15507
847.158	15374
847.294	15367
847.429	15466
847.565	15393
847.701	15625
847.837	15218
847.972	15013
848.108	15256
848.244	15241
848.379	14971
848.515	14921
848.65	14887
848.786	14937
848.921	15005
849.057	14998
849.192	15024
849.328	15005
849.463	15043
849.598	14986
849.734	14891
849.869	14868
850.004	14781
850.14	14826
850.275	14857
850.41	14739
850.545	14659
850.68	14727
850.815	14743
850.95	14746
851.085	14929
851.22	14925
851.355	14826
851.49	14693
851.625	14724
851.76	14720
851.895	14651
852.03	14537
852.165	14765
852.299	14781
852.434	14743
852.569	14842
852.703	14727
852.838	14914
852.973	14971
853.107	14960
853.242	14651
853.376	14667
853.511	14549
853.645	14663
853.78	14788
853.914	14663
854.048	14549
854.183	14659
854.317	14632
854.451	14746
854.585	14693
854.72	14526
854.854	14735
854.988	14583
855.122	14533
855.256	14499
855.39	14602
855.524	14735
855.658	14640
855.792	14583
855.926	14602
856.06	14731
856.194	14697
856.327	14571
856.461	14697
856.595	14549
856.729	14575
856.862	14750
856.996	14648
857.13	14716
857.263	14754
857.397	14705
857.53	14705
857.664	14670
857.797	14727
857.931	14849
858.064	14697
858.197	14727
858.331	14625
858.464	14541
858.597	14484
858.731	14644
858.864	14636
858.997	14537
859.13	14617
859.263	14746
859.396	14705
859.529	14587
859.662	14568
859.795	14552
859.928	14636
860.061	14788
860.194	14762
860.327	14636
860.46	14701
860.592	14765
860.725	14754
860.858	14815
860.99	14663
861.123	14552
861.256	14507
861.388	14632
861.521	15435
861.653	14492
861.786	14427
861.918	14537
862.05	14571
862.183	14484
862.315	14499
862.447	14621
862.58	14587
862.712	14393
862.844	14351
862.976	14511
863.108	14480
863.24	14648
863.372	14278
863.504	14347
863.636	14442
863.768	14480
863.9	14450
864.032	14347
864.164	14396
864.296	14446
864.428	14396
864.559	14541
864.691	14495
864.823	14431
864.954	14419
865.086	14412
865.217	14415
865.349	14305
865.48	14339
865.612	14446
865.743	14530
865.875	14374
866.006	14339
866.137	14419
866.269	14461
866.4	14351
866.531	14301
866.662	14351
866.793	14343
866.924	14355
867.055	14355
867.186	14446
867.317	14244
867.448	14275
867.579	14381
867.71	14339
867.841	14317
867.972	14374
868.103	14511
868.233	14461
868.364	14457
868.495	14541
868.625	14701
868.756	14629
868.886	14640
869.017	14594
869.147	14857
869.278	14720
869.408	14651
869.539	14655
869.669	14720
869.799	14602
869.929	14678
870.06	14727
870.19	14883
870.32	14963
870.45	15001
870.58	15009
870.71	15142
870.84	15100
870.97	15146
871.1	15020
871.23	15176
871.36	15207
871.489	15131
871.619	15211
871.749	15180
871.879	15256
872.008	15351
872.138	15226
872.267	15268
872.397	15093
872.526	15142
872.656	14998
872.785	15055
872.915	15249
873.044	15405
873.173	15283
873.303	15382
873.432	15359
873.561	15378
873.69	15233
873.819	15268
873.948	15389
874.077	15291
874.206	15199
874.335	15329
874.464	15405
874.593	15576
874.722	15511
874.851	15603
874.979	15599
875.108	15637
875.237	15568
875.365	15462
875.494	15568
875.623	15622
875.751	15496
875.88	15625
876.008	15652
876.136	15785
876.265	16021
876.393	16090
876.521	16097
876.65	16071
876.778	16071
876.906	15873
877.034	15994
877.162	16078
877.29	15934
877.418	15979
877.546	16090
877.674	16078
877.802	15975
877.93	16055
878.058	15968
878.185	15903
878.313	16086
878.441	16036
878.568	15865
878.696	15968
878.824	16067
878.951	16128
879.079	16166
879.206	16421
879.333	16318
879.461	16101
879.588	16329
879.715	16303
879.842	16322
879.97	16200
880.097	16059
880.224	15949
880.351	15975
880.478	15960
880.605	15831
880.732	15831
880.859	16185
880.986	15892
881.112	15953
881.239	15800
881.366	15591
881.493	15633
881.619	15572
881.746	15496
881.872	15481
881.999	15504
882.125	15378
882.252	15591
882.378	15572
882.505	15690
882.631	15431
882.757	15367
882.883	15462
883.01	15378
883.136	15374
883.262	15306
883.388	15195
883.514	15351
883.64	15416
883.766	15260
883.892	15123
884.018	15165
884.143	15374
884.269	15386
884.395	15154
884.52	15077
884.646	15119
884.772	14982
884.897	14967
885.023	15123
885.148	15104
885.274	15218
885.399	15176
885.524	15173
885.65	15081
885.775	15066
885.9	15074
886.025	15241
886.15	15131
886.275	15028
886.4	14925
886.525	14994
886.65	15009
886.775	14933
886.9	15195
887.025	15226
887.149	15043
887.274	14921
887.399	14697
887.523	14899
887.648	14872
887.773	14777
887.897	14929
888.021	14895
888.146	14845
888.27	14918
888.395	15047
888.519	14902
888.643	14971
888.767	14857
888.891	14762
889.015	14724
889.139	14758
889.263	14720
889.387	14830
889.511	14956
889.635	14819
889.759	14674
889.883	14743
890.006	14697
890.13	14819
890.254	14541
890.377	14724
890.501	14495
890.624	14560
890.748	14636
890.871	14461
890.995	14419
891.118	14374
891.241	14442
891.364	14332
891.488	14530
891.611	14313
891.734	14461
891.857	14571
891.98	14454
892.103	14495
892.226	14492
892.349	14351
892.471	14256
892.594	14404
892.717	14393
892.839	14294
892.962	14454
893.085	14465
893.207	14347
893.33	14305
893.452	14210
893.575	14454
893.697	14328
893.819	14621
893.941	14617
894.064	14636
894.186	14377
894.308	14244
894.43	14568
894.552	14598
894.674	14511
894.796	14393
894.918	14374
895.04	14404
895.161	14640
895.283	14564
895.405	14469
895.526	14461
895.648	14499
895.769	14606
895.891	14549
896.012	14590
896.134	14579
896.255	14469
896.376	14545
896.498	14613
896.619	14575
896.74	14564
896.861	14625
896.982	14872
897.103	15100
897.224	14823
897.345	14906
897.466	14701
897.587	14842
897.708	14910
897.828	14872
897.949	14834
898.07	14701
898.19	14697
898.311	14971
898.431	14819
898.552	14914
898.672	14925
898.792	14979
898.913	14986
899.033	14811
899.153	14762
899.273	14644
899.393	14693
899.513	14807
899.633	14678
899.753	14845
899.873	14716
899.993	14876
900.113	14716
900.232	14864
900.352	14689
900.472	14648
900.591	14625
900.711	14640
900.83	14602
900.95	14663
901.069	14705
901.189	14640
901.308	14343
901.427	14309
901.546	14305
901.665	14259
901.784	14244
901.904	14187
902.023	14084
902.141	13864
902.26	13860
902.379	13841
902.498	13856
902.617	13875
902.735	13849
902.854	13811
902.973	13723
903.091	13624
903.21	13559
903.328	13578
903.446	13506
903.565	13487
903.683	13483
903.801	13301
903.919	13464
904.038	13464
904.156	13168
904.274	13244
904.392	13137
904.51	13232
904.627	13225
904.745	13255
904.863	13228
904.981	13133
905.098	12935
905.216	12863
905.334	12890
905.451	12871
905.569	12897
905.686	12951
905.803	12886
905.921	12783
906.038	12833
906.155	12779
906.272	12635
906.389	12692
906.506	12517
906.623	12593
906.74	12486
906.857	12414
906.974	12429
907.091	12551
907.208	12658
907.324	12509
907.441	12407
907.557	12342
907.674	12239
907.79	12224
907.907	12163
908.023	12334
908.139	12285
908.256	12224
908.372	12114
908.488	12228
908.604	11965
908.72	11977
908.836	11992
908.952	11988
909.068	11946
909.184	12053
909.3	11923
909.415	12060
909.531	11950
909.647	11775
909.762	11733
909.878	11676
909.993	11752
910.108	11794
910.224	11786
910.339	11771
910.454	11775
910.57	11642
910.685	11539
910.8	11840
910.915	11821
911.03	11634
911.145	11448
911.259	11490
911.374	11417
911.489	11349
911.604	11318
911.718	11265
911.833	11303
911.947	11056
912.062	11121
912.176	11162
912.291	11178
912.405	11235
912.519	11364
912.633	11383
912.748	11341
912.862	11246
912.976	11159
913.09	10965
913.204	11033
913.318	11098
913.431	11223
913.545	11216
913.659	11212
913.772	11067
913.886	11018
914	10942
914.113	11010
914.226	11094
914.34	10957
914.453	10885
914.566	10972
914.68	10858
914.793	10850
914.906	10733
915.019	10656
915.132	10630
915.245	10660
915.358	10683
915.47	10733
915.583	10736
915.696	10771
915.809	10790
915.921	10877
916.034	10702
916.146	10687
916.259	10653
916.371	10744
916.483	10603
916.595	10603
916.708	10611
916.82	10653
916.932	10653
917.044	10535
917.156	10558
917.268	10558
917.38	10535
917.491	10554
917.603	10550
917.715	10721
917.826	10687
917.938	10538
918.049	10352
918.161	10500
918.272	10645
918.384	10641
918.495	10538
918.606	10440
918.717	10322
918.828	10382
918.939	10390
919.05	10265
919.161	10333
919.272	10227
919.383	10230
919.494	10489
919.604	10675
919.715	10386
919.826	10390
919.936	10360
920.047	10424
920.157	10432
920.267	10622
920.378	10558
920.488	10405
920.598	10622
920.708	10782
920.818	10580
920.928	10550
921.038	10786
921.148	10782
921.258	10424
921.368	10371
921.477	10257
921.587	10284
921.697	10177
921.806	10185
921.916	10131
922.025	9987
922.134	9945
922.244	9911
922.353	10040
922.462	9781
922.571	9835
922.68	9705
922.789	9675
922.898	9660
923.007	9603
923.116	9682
923.224	9701
923.333	9698
923.442	9534
923.55	9530
923.659	9568
923.767	9625
923.876	9507
923.984	9618
924.092	9473
924.201	9504
924.309	9469
924.417	9606
924.525	9485
924.633	9496
924.741	10451
924.849	9260
924.956	9378
925.064	9302
925.172	9268
925.279	9283
925.387	9283
925.494	9321
925.602	9408
925.709	9374
925.816	9176
925.924	9207
926.031	9374
926.138	9317
926.245	9382
926.352	9268
926.459	9351
926.566	9431
926.673	9207
926.779	9146
926.886	9192
926.993	9005
927.099	9009
927.206	8933
927.312	8956
927.419	9070
927.525	9024
927.631	9070
927.737	8963
927.843	8994
927.95	8883
928.056	8891
928.162	8929
928.267	9020
928.373	9534
928.479	9039
928.585	8853
928.69	8826
928.796	8918
928.901	8845
929.007	8712
929.112	8849
929.218	8815
929.323	8758
929.428	8705
929.533	8819
929.638	8686
929.743	8750
929.848	8781
929.953	8712
930.058	8648
930.163	8476
930.267	8461
930.372	8610
930.477	8442
930.581	8689
930.685	8537
930.79	8332
930.894	8469
930.998	8461
931.103	8507
931.207	8157
931.311	8199
931.415	8084
931.519	7917
931.623	7814
