Data from test_V78500241_926.txt Node
Date: Fri Mar 25 14:40:09 CST 2022
User: usil
Spectrometer: V785-0024
Trigger mode: 0
Integration Time (sec): 4.000000E-1
Scans to average: 1
Nonlinearity correction enabled: false
Boxcar width: 0
Storing dark spectrum: false
XAxis mode: Wavelengths
Number of Pixels in Spectrum: 1024
>>>>>Begin Spectral Data<<<<<
801.071	24635
801.214	24563
801.356	24289
801.499	24133
801.641	24098
801.783	24034
801.926	24018
802.068	23973
802.211	23855
802.353	23786
802.496	23414
802.638	23368
802.78	23596
802.923	23490
803.065	23334
803.208	23296
803.35	23368
803.492	23444
803.635	23611
803.777	23315
803.919	23444
804.061	23752
804.204	23531
804.346	23391
804.488	23258
804.63	23410
804.773	23132
804.915	23296
805.057	23539
805.199	23311
805.341	23547
805.483	23448
805.626	23497
805.768	23398
805.91	23444
806.052	23433
806.194	23322
806.336	23703
806.478	23425
806.62	23627
806.762	23691
806.904	23817
807.046	24102
807.188	23988
807.33	24045
807.472	24304
807.614	24296
807.756	24407
807.898	24429
808.04	24639
808.182	24837
808.324	25346
808.465	25677
808.607	26313
808.749	26712
808.891	27058
809.033	27108
809.174	26830
809.316	26248
809.458	25845
809.6	25487
809.741	25091
809.883	24878
810.025	24623
810.166	24574
810.308	24536
810.45	24460
810.591	24152
810.733	23992
810.875	23878
811.016	23745
811.158	23741
811.299	23748
811.441	23882
811.582	23794
811.724	23638
811.865	23642
812.007	23611
812.148	23638
812.29	23756
812.431	23760
812.573	23840
812.714	24129
812.855	24091
812.997	24266
813.138	24342
813.279	24209
813.421	24159
813.562	23992
813.703	23935
813.845	23752
813.986	23368
814.127	23383
814.268	23147
814.41	23185
814.551	23197
814.692	23170
814.833	23147
814.974	23079
815.115	23208
815.256	22904
815.397	22949
815.539	22946
815.68	22847
815.821	22854
815.962	22915
816.103	22786
816.244	22607
816.385	22584
816.526	22531
816.666	22360
816.807	22337
816.948	22356
817.089	22405
817.23	22337
817.371	22223
817.512	22249
817.653	22261
817.793	22166
817.934	22063
818.075	22303
818.216	22150
818.356	22067
818.497	22082
818.638	21873
818.778	21964
818.919	21918
819.06	21838
819.2	22048
819.341	22021
819.481	22078
819.622	22246
819.762	22432
819.903	22306
820.043	22166
820.184	22204
820.324	22287
820.465	22116
820.605	22291
820.746	22185
820.886	22013
821.026	22169
821.167	22021
821.307	22280
821.447	22082
821.588	22048
821.728	21789
821.868	21599
822.008	21599
822.149	21454
822.289	21435
822.429	21351
822.569	21188
822.709	21176
822.849	21032
822.99	21036
823.13	21020
823.27	20807
823.41	20785
823.55	20823
823.69	20834
823.83	20708
823.97	20777
824.11	20621
824.25	20480
824.389	20522
824.529	20613
824.669	20667
824.809	20636
824.949	20606
825.089	20579
825.228	20598
825.368	20278
825.508	20355
825.648	20324
825.787	20522
825.927	20343
826.067	20313
826.206	20187
826.346	20404
826.485	20275
826.625	20263
826.765	20389
826.904	20263
827.044	20092
827.183	20039
827.323	20008
827.462	20031
827.601	19970
827.741	19894
827.88	20077
828.02	19890
828.159	19879
828.298	20062
828.437	20039
828.577	19947
828.716	20050
828.855	19868
828.994	19788
829.134	19769
829.273	19803
829.412	19635
829.551	19708
829.69	19795
829.829	19776
829.968	19803
830.107	19780
830.246	19757
830.385	19643
830.524	19552
830.663	19457
830.802	19445
830.941	19343
831.08	19377
831.219	19350
831.357	19495
831.496	19396
831.635	19213
831.774	19160
831.913	19221
832.051	19198
832.19	19141
832.329	19080
832.467	18943
832.606	18958
832.744	18916
832.883	19050
833.022	18924
833.16	18985
833.299	18993
833.437	19031
833.576	19148
833.714	19023
833.852	19183
833.991	19263
834.129	19285
834.267	19308
834.406	19168
834.544	19152
834.682	19160
834.821	19110
834.959	19217
835.097	19053
835.235	19122
835.373	19099
835.511	19034
835.65	18863
835.788	19012
835.926	18817
836.064	18688
836.202	18719
836.34	18924
836.478	18989
836.615	18783
836.753	18875
836.891	18947
837.029	18840
837.167	18734
837.305	18798
837.443	18787
837.58	18658
837.718	18779
837.856	18654
837.993	18654
838.131	18730
838.269	18616
838.406	18692
838.544	18551
838.681	18422
838.819	18270
838.956	18136
839.094	18235
839.231	18235
839.369	18376
839.506	18601
839.643	18452
839.781	18209
839.918	18110
840.055	18220
840.193	18213
840.33	18114
840.467	18178
840.604	18220
840.742	18410
840.879	18072
841.016	18174
841.153	18068
841.29	18228
841.427	18228
841.564	18121
841.701	18106
841.838	18140
841.975	18076
842.112	18117
842.249	17912
842.385	17912
842.522	18186
842.659	18019
842.796	17939
842.933	17942
843.069	17969
843.206	17901
843.343	18030
843.479	17954
843.616	17859
843.752	17729
843.889	17737
844.025	17745
844.162	17741
844.298	17931
844.435	17817
844.571	17760
844.708	17893
844.844	18053
844.98	18148
845.117	18144
845.253	18136
845.389	18311
845.525	18707
845.661	19464
845.798	20343
845.934	21241
846.07	21477
846.206	21252
846.342	20883
846.478	19807
846.614	18890
846.75	18205
846.886	17748
847.022	17653
847.158	17532
847.294	17326
847.429	17482
847.565	17379
847.701	17566
847.837	17094
847.972	17060
848.108	17117
848.244	17113
848.379	16839
848.515	16801
848.65	16820
848.786	16904
848.921	16847
849.057	16995
849.192	16877
849.328	16782
849.463	16793
849.598	16805
849.734	16809
849.869	16637
850.004	16573
850.14	16500
850.275	16599
850.41	16523
850.545	16459
850.68	16523
850.815	16554
850.95	16546
851.085	16702
851.22	16596
851.355	16550
851.49	16508
851.625	16428
851.76	16512
851.895	16280
852.03	16500
852.165	16466
852.299	16497
852.434	16596
852.569	16538
852.703	16607
852.838	16721
852.973	16702
853.107	16721
853.242	16493
853.376	16470
853.511	16451
853.645	16367
853.78	16497
853.914	16405
854.048	16455
854.183	16478
854.317	16470
854.451	16611
854.585	16428
854.72	16382
854.854	16527
854.988	16322
855.122	16375
855.256	16284
855.39	16367
855.524	16455
855.658	16462
855.792	16436
855.926	16421
856.06	16546
856.194	16440
856.327	16405
856.461	16394
856.595	16344
856.729	16394
856.862	16554
856.996	16462
857.13	16531
857.263	16504
857.397	16424
857.53	16394
857.664	16409
857.797	16428
857.931	16497
858.064	16451
858.197	16432
858.331	16356
858.464	16333
858.597	16249
858.731	16333
858.864	16367
858.997	16352
859.13	16394
859.263	16265
859.396	16440
859.529	16265
859.662	16314
859.795	16287
859.928	16421
860.061	16474
860.194	16489
860.327	16382
860.46	16325
860.592	16447
860.725	16459
860.858	16500
860.99	16356
861.123	16226
861.256	16215
861.388	16329
861.521	16972
861.653	16162
861.786	16177
861.918	16234
862.05	16204
862.183	16291
862.315	16314
862.447	16310
862.58	16276
862.712	16131
862.844	16086
862.976	16200
863.108	16067
863.24	16569
863.372	16071
863.504	16109
863.636	16090
863.768	16101
863.9	16078
864.032	15937
864.164	16044
864.296	16131
864.428	16196
864.559	16105
864.691	16261
864.823	16215
864.954	16090
865.086	16101
865.217	15979
865.349	16029
865.48	16101
865.612	16055
865.743	16185
865.875	16143
866.006	16078
866.137	15991
866.269	16086
866.4	16082
866.531	16071
866.662	15899
866.793	15979
866.924	15937
867.055	16093
867.186	15964
867.317	15949
867.448	15956
867.579	15861
867.71	15838
867.841	15960
867.972	16013
868.103	15945
868.233	16071
868.364	16055
868.495	16074
868.625	16158
868.756	16367
868.886	16200
869.017	16261
869.147	16375
869.278	16314
869.408	16261
869.539	16356
869.669	16367
869.799	16200
869.929	16428
870.06	16329
870.19	16618
870.32	16577
870.45	16546
870.58	16603
870.71	16839
870.84	16702
870.97	16679
871.1	16580
871.23	16759
871.36	16946
871.489	16694
871.619	16797
871.749	16892
871.879	16889
872.008	16972
872.138	16790
872.267	16885
872.397	16790
872.526	16611
872.656	16790
872.785	16759
872.915	16866
873.044	16980
873.173	16866
873.303	16942
873.432	17025
873.561	17033
873.69	17006
873.819	16953
873.948	17014
874.077	17029
874.206	16923
874.335	16942
874.464	17094
874.593	17220
874.722	17147
874.851	17334
874.979	17376
875.108	17379
875.237	17208
875.365	17189
875.494	17265
875.623	17299
875.751	17292
875.88	17159
876.008	17501
876.136	17516
876.265	17687
876.393	17824
876.521	17779
876.65	17794
876.778	17771
876.906	17714
877.034	17596
877.162	17805
877.29	17676
877.418	17729
877.546	17817
877.674	17741
877.802	17828
877.93	17847
878.058	17866
878.185	17756
878.313	17893
878.441	17946
878.568	17817
878.696	18106
878.824	18178
878.951	18403
879.079	18608
879.206	19053
879.333	19270
879.461	19449
879.588	19666
879.715	19651
879.842	19559
879.97	19263
880.097	18757
880.224	18399
880.351	18319
880.478	18334
880.605	18136
880.732	18121
880.859	18327
880.986	18098
881.112	17977
881.239	17805
881.366	17836
881.493	17691
881.619	17611
881.746	17634
881.872	17649
881.999	17512
882.125	17596
882.252	17718
882.378	17657
882.505	17703
882.631	17501
882.757	17554
882.883	17482
883.01	17387
883.136	17345
883.262	17299
883.388	17193
883.514	17585
883.64	17444
883.766	17402
883.892	17273
884.018	17337
884.143	17459
884.269	17410
884.395	17162
884.52	17193
884.646	17220
884.772	17090
884.897	17117
885.023	17193
885.148	17288
885.274	17231
885.399	17284
885.524	17029
885.65	17147
885.775	17105
885.9	17003
886.025	17216
886.15	17025
886.275	17006
886.4	16908
886.525	16965
886.65	16938
886.775	17025
886.9	17067
887.025	17170
887.149	16919
887.274	16782
887.399	16767
887.523	16634
887.648	16596
887.773	16577
887.897	16656
888.021	16599
888.146	16485
888.27	16831
888.395	16786
888.519	16615
888.643	16675
888.767	16683
888.891	16493
889.015	16382
889.139	16535
889.263	16500
889.387	16599
889.511	16588
889.635	16554
889.759	16295
889.883	16409
890.006	16432
890.13	16367
890.254	16223
890.377	16295
890.501	16261
890.624	16147
890.748	16162
890.871	16112
890.995	16017
891.118	15987
891.241	16006
891.364	16010
891.488	16169
891.611	16040
891.734	16013
891.857	16025
891.98	15953
892.103	16036
892.226	16040
892.349	16036
892.471	15800
892.594	15987
892.717	15991
892.839	16021
892.962	15987
893.085	15987
893.207	15934
893.33	15895
893.452	15827
893.575	16040
893.697	15854
893.819	16116
893.941	16135
894.064	16036
894.186	15838
894.308	15907
894.43	16090
894.552	16166
894.674	16025
894.796	15865
894.918	15911
895.04	15873
895.161	16074
895.283	15930
895.405	15808
895.526	15975
895.648	15964
895.769	15987
895.891	15953
896.012	16093
896.134	16101
896.255	16036
896.376	16051
896.498	15964
896.619	15998
896.74	16029
896.861	16010
896.982	16337
897.103	16519
897.224	16268
897.345	16207
897.466	16234
897.587	16200
897.708	16440
897.828	16329
897.949	16230
898.07	16124
898.19	16177
898.311	16424
898.431	16246
898.552	16360
898.672	16443
898.792	16371
898.913	16424
899.033	16204
899.153	16185
899.273	16105
899.393	16055
899.513	16219
899.633	16188
899.753	16238
899.873	16067
899.993	16162
900.113	16181
900.232	16223
900.352	16158
900.472	16071
900.591	15979
900.711	16040
900.83	16048
900.95	16128
901.069	16097
901.189	15953
901.308	15724
901.427	15648
901.546	15705
901.665	15728
901.784	15736
901.904	15584
902.023	15313
902.141	15272
902.26	15195
902.379	15321
902.498	15192
902.617	15157
902.735	15195
902.854	15142
902.973	15108
903.091	14948
903.21	14861
903.328	14834
903.446	14667
903.565	14674
903.683	14682
903.801	14564
903.919	14689
904.038	14724
904.156	14503
904.274	14503
904.392	14514
904.51	14503
904.627	14484
904.745	14503
904.863	14625
904.981	14172
905.098	14161
905.216	14119
905.334	14039
905.451	14271
905.569	14111
905.686	14138
905.803	14142
905.921	14001
906.038	14043
906.155	14054
906.272	13799
906.389	13932
906.506	13734
906.623	13715
906.74	13651
906.857	13616
906.974	13597
907.091	13704
907.208	13750
907.324	13670
907.441	13662
907.557	13457
907.674	13354
907.79	13331
907.907	13400
908.023	13381
908.139	13422
908.256	13301
908.372	13373
908.488	13373
908.604	13152
908.72	13145
908.836	13149
908.952	13031
909.068	13141
909.184	13187
909.3	13183
909.415	13190
909.531	13103
909.647	12924
909.762	12913
909.878	12848
909.993	12897
910.108	12882
910.224	12913
910.339	12863
910.454	12783
910.57	12684
910.685	12696
910.8	12932
910.915	12928
911.03	12700
911.145	12669
911.259	12566
911.374	12570
911.489	12490
911.604	12426
911.718	12247
911.833	12376
911.947	12205
912.062	12106
912.176	12220
912.291	12315
912.405	12334
912.519	12467
912.633	12467
912.748	12342
912.862	12254
912.976	12209
913.09	12091
913.204	12178
913.318	12106
913.431	12220
913.545	12289
913.659	12277
913.772	12148
913.886	12076
914	12072
914.113	12110
914.226	12106
914.34	12007
914.453	11973
914.566	12038
914.68	11908
914.793	11912
914.906	11760
915.019	11714
915.132	11649
915.245	11707
915.358	11783
915.47	11729
915.583	11790
915.696	11752
915.809	11851
915.921	11893
916.034	11657
916.146	11668
916.259	11646
916.371	11688
916.483	11703
916.595	11646
916.708	11699
916.82	11600
916.932	11600
917.044	11581
917.156	11551
917.268	11558
917.38	11474
917.491	11509
917.603	11467
917.715	11665
917.826	11634
917.938	11524
918.049	11410
918.161	11592
918.272	11649
918.384	11615
918.495	11566
918.606	11395
918.717	11254
918.828	11414
918.939	11444
919.05	11307
919.161	11425
919.272	11250
919.383	11216
919.494	11417
919.604	11520
919.715	11364
919.826	11296
919.936	11296
920.047	11368
920.157	11360
920.267	11611
920.378	11345
920.488	11356
920.598	11543
920.708	11718
920.818	11501
920.928	11501
921.038	11634
921.148	11604
921.258	11334
921.368	11307
921.477	11223
921.587	11140
921.697	11083
921.806	11143
921.916	11010
922.025	10847
922.134	10820
922.244	10812
922.353	10885
922.462	10809
922.571	10668
922.68	10500
922.789	10478
922.898	10538
923.007	10474
923.116	10523
923.224	10516
923.333	10466
923.442	10333
923.55	10318
923.659	10367
923.767	10451
923.876	10367
923.984	10443
924.092	10215
924.201	10371
924.309	10329
924.417	10356
924.525	10257
924.633	10325
924.741	11117
924.849	10150
924.956	10303
925.064	10139
925.172	10032
925.279	10059
925.387	10082
925.494	10051
925.602	10268
925.709	10196
925.816	10101
925.924	10101
926.031	10234
926.138	10101
926.245	10147
926.352	9956
926.459	10078
926.566	10188
926.673	9998
926.779	10032
926.886	9888
926.993	9823
927.099	9740
927.206	9679
927.312	9724
927.419	9831
927.525	9888
927.631	9827
927.737	9698
927.843	9656
927.95	9542
928.056	9660
928.162	9633
928.267	9728
928.373	10287
928.479	9751
928.585	9595
928.69	9595
928.796	9675
928.901	9682
929.007	9492
929.112	9553
929.218	9523
929.323	9549
929.428	9454
929.533	9576
929.638	9481
929.743	9466
929.848	9492
929.953	9477
930.058	9370
930.163	9226
930.267	9218
930.372	9348
930.477	9169
930.581	9378
930.685	9359
930.79	9169
930.894	9207
930.998	9074
931.103	9245
931.207	8899
931.311	8830
931.415	8788
931.519	8644
931.623	8663
