Data from test_V78500241_2273.txt Node
Date: Fri Mar 25 14:49:32 CST 2022
User: usil
Spectrometer: V785-0024
Trigger mode: 0
Integration Time (sec): 4.000000E-1
Scans to average: 1
Nonlinearity correction enabled: false
Boxcar width: 0
Storing dark spectrum: false
XAxis mode: Wavelengths
Number of Pixels in Spectrum: 1024
>>>>>Begin Spectral Data<<<<<
801.071	22124
801.214	22112
801.356	21842
801.499	21724
801.641	21504
801.783	21523
801.926	21583
802.068	21393
802.211	21386
802.353	21252
802.496	21093
802.638	21089
802.78	21055
802.923	20952
803.065	20902
803.208	20868
803.35	20971
803.492	20967
803.635	21001
803.777	20887
803.919	20994
804.061	21192
804.204	20933
804.346	20887
804.488	20674
804.63	20933
804.773	20765
804.915	20724
805.057	20921
805.199	20773
805.341	20921
805.483	20933
805.626	20845
805.768	20773
805.91	20861
806.052	20914
806.194	20686
806.336	20963
806.478	20876
806.62	20762
806.762	20773
806.904	21135
807.046	21252
807.188	21116
807.33	21218
807.472	21100
807.614	21017
807.756	21005
807.898	20971
808.04	20883
808.182	20876
808.324	20971
808.465	21081
808.607	21108
808.749	21268
808.891	21294
809.033	21416
809.174	21199
809.316	21173
809.458	21199
809.6	21249
809.741	21199
809.883	21241
810.025	21317
810.166	21310
810.308	21336
810.45	21256
810.591	21294
810.733	21036
810.875	21074
811.016	20834
811.158	20857
811.299	20971
811.441	21207
811.582	21157
811.724	20929
811.865	20891
812.007	20891
812.148	20971
812.29	21055
812.431	21100
812.573	21291
812.714	21382
812.855	21420
812.997	21641
813.138	21568
813.279	21538
813.421	21500
813.562	21408
813.703	21207
813.845	21127
813.986	20769
814.127	20648
814.268	20514
814.41	20606
814.551	20514
814.692	20594
814.833	20423
814.974	20389
815.115	20568
815.256	20461
815.397	20442
815.539	20301
815.68	20153
815.821	20149
815.962	20187
816.103	20225
816.244	20199
816.385	20001
816.526	19982
816.666	19898
816.807	19689
816.948	19715
817.089	19750
817.23	19647
817.371	19632
817.512	19620
817.653	19578
817.793	19563
817.934	19696
818.075	19643
818.216	19715
818.356	19632
818.497	19422
818.638	19225
818.778	19308
818.919	19392
819.06	19320
819.2	19476
819.341	19502
819.481	19616
819.622	19731
819.762	19875
819.903	19750
820.043	19647
820.184	19742
820.324	19616
820.465	19677
820.605	19613
820.746	19620
820.886	19559
821.026	19563
821.167	19567
821.307	19616
821.447	19575
821.588	19460
821.728	19225
821.868	19244
822.008	19072
822.149	19107
822.289	18993
822.429	18753
822.569	18673
822.709	18715
822.849	18623
822.99	18426
823.13	18452
823.27	18536
823.41	18338
823.55	18296
823.69	18304
823.83	18353
823.97	18152
824.11	18034
824.25	18022
824.389	18133
824.529	18178
824.669	18072
824.809	18159
824.949	18235
825.089	18083
825.228	18114
825.368	17741
825.508	17908
825.648	17878
825.787	17912
825.927	17939
826.067	17756
826.206	17710
826.346	17882
826.485	17779
826.625	17889
826.765	17999
826.904	17939
827.044	17581
827.183	17627
827.323	17471
827.462	17596
827.601	17543
827.741	17573
827.88	17585
828.02	17528
828.159	17558
828.298	17596
828.437	17687
828.577	17493
828.716	17722
828.855	17433
828.994	17425
829.134	17246
829.273	17242
829.412	17307
829.551	17235
829.69	17269
829.829	17212
829.968	17493
830.107	17356
830.246	17341
830.385	17185
830.524	17242
830.663	17105
830.802	17037
830.941	16862
831.08	16858
831.219	17006
831.357	16968
831.496	17117
831.635	16919
831.774	16873
831.913	16702
832.051	16599
832.19	16687
832.329	16694
832.467	16622
832.606	16546
832.744	16550
832.883	16584
833.022	16523
833.16	16630
833.299	16588
833.437	16603
833.576	16577
833.714	16611
833.852	16679
833.991	16641
834.129	16828
834.267	16733
834.406	16622
834.544	16592
834.682	16596
834.821	16672
834.959	16828
835.097	16535
835.235	16698
835.373	16664
835.511	16622
835.65	16531
835.788	16542
835.926	16356
836.064	16417
836.202	16356
836.34	16538
836.478	16656
836.615	16504
836.753	16493
836.891	16592
837.029	16504
837.167	16516
837.305	16451
837.443	16443
837.58	16360
837.718	16523
837.856	16451
837.993	16356
838.131	16402
838.269	16276
838.406	16325
838.544	16303
838.681	16128
838.819	15915
838.956	15994
839.094	15926
839.231	16082
839.369	16044
839.506	16390
839.643	16200
839.781	16021
839.918	15903
840.055	15956
840.193	15983
840.33	15907
840.467	15930
840.604	15895
840.742	16097
840.879	15922
841.016	15850
841.153	15778
841.29	16048
841.427	15884
841.564	16048
841.701	16013
841.838	15823
841.975	15770
842.112	15850
842.249	15667
842.385	15648
842.522	15884
842.659	15762
842.796	15720
842.933	15819
843.069	15679
843.206	15629
843.343	15781
843.479	15743
843.616	15694
843.752	15450
843.889	15507
844.025	15701
844.162	15523
844.298	15667
844.435	15477
844.571	15428
844.708	15530
844.844	15614
844.98	15542
845.117	15614
845.253	15526
845.389	15351
845.525	15481
845.661	15344
845.798	15344
845.934	15359
846.07	15268
846.206	15393
846.342	15325
846.478	15294
846.614	15100
846.75	15036
846.886	15097
847.022	15173
847.158	15093
847.294	15135
847.429	15074
847.565	15013
847.701	15367
847.837	14682
847.972	14781
848.108	14872
848.244	14849
848.379	14712
848.515	14689
848.65	14594
848.786	14693
848.921	14640
849.057	14735
849.192	14785
849.328	14682
849.463	14674
849.598	14667
849.734	14549
849.869	14613
850.004	14434
850.14	14560
850.275	14412
850.41	14324
850.545	14412
850.68	14415
850.815	14465
850.95	14438
851.085	14606
851.22	14579
851.355	14434
851.49	14404
851.625	14415
851.76	14366
851.895	14259
852.03	14336
852.165	14400
852.299	14450
852.434	14541
852.569	14469
852.703	14465
852.838	14469
852.973	14511
853.107	14594
853.242	14415
853.376	14256
853.511	14218
853.645	14210
853.78	14393
853.914	14309
854.048	14339
854.183	14252
854.317	14389
854.451	14450
854.585	14351
854.72	14259
854.854	14336
854.988	14123
855.122	14221
855.256	14077
855.39	14240
855.524	14313
855.658	14317
855.792	14278
855.926	14286
856.06	14404
856.194	14385
856.327	14221
856.461	14244
856.595	14252
856.729	14320
856.862	14476
856.996	14278
857.13	14347
857.263	14358
857.397	14427
857.53	14259
857.664	14419
857.797	14381
857.931	14408
858.064	14290
858.197	14476
858.331	14263
858.464	14202
858.597	14145
858.731	14233
858.864	14309
858.997	14263
859.13	14328
859.263	14358
859.396	14408
859.529	14252
859.662	14324
859.795	14195
859.928	14366
860.061	14473
860.194	14434
860.327	14298
860.46	14313
860.592	14358
860.725	14438
860.858	14434
860.99	14358
861.123	14305
861.256	14301
861.388	14301
861.521	14815
861.653	14187
861.786	14142
861.918	14069
862.05	14183
862.183	14237
862.315	14290
862.447	14328
862.58	14221
862.712	14092
862.844	14069
862.976	14096
863.108	14103
863.24	14381
863.372	13951
863.504	14046
863.636	14054
863.768	14092
863.9	14153
864.032	13940
864.164	14142
864.296	14084
864.428	14248
864.559	14183
864.691	14172
864.823	14039
864.954	14153
865.086	14183
865.217	13989
865.349	14008
865.48	14111
865.612	14134
865.743	14233
865.875	14043
866.006	14073
866.137	14065
866.269	14024
866.4	13978
866.531	14031
866.662	14016
866.793	13982
866.924	13993
867.055	14126
867.186	14035
867.317	13989
867.448	13906
867.579	13970
867.71	14005
867.841	13989
867.972	14054
868.103	14031
868.233	14008
868.364	14031
868.495	14161
868.625	14263
868.756	14377
868.886	14259
869.017	14221
869.147	14434
869.278	14454
869.408	14286
869.539	14370
869.669	14298
869.799	14412
869.929	14427
870.06	14355
870.19	14579
870.32	14537
870.45	14552
870.58	14720
870.71	14788
870.84	14739
870.97	14746
871.1	14663
871.23	14872
871.36	14872
871.489	14762
871.619	14811
871.749	14758
871.879	14948
872.008	14975
872.138	14902
872.267	14963
872.397	14906
872.526	14648
872.656	14682
872.785	14701
872.915	14868
873.044	15020
873.173	14956
873.303	14990
873.432	14986
873.561	15039
873.69	14956
873.819	14967
873.948	15116
874.077	14876
874.206	14777
874.335	14963
874.464	15085
874.593	15291
874.722	15203
874.851	15256
874.979	15275
875.108	15222
875.237	15199
875.365	15275
875.494	15252
875.623	15214
875.751	15199
875.88	15291
876.008	15397
876.136	15412
876.265	15671
876.393	15743
876.521	15732
876.65	15755
876.778	15671
876.906	15713
877.034	15690
877.162	15595
877.29	15648
877.418	15614
877.546	15633
877.674	15622
877.802	15572
877.93	15679
878.058	15545
878.185	15538
878.313	15739
878.441	15595
878.568	15492
878.696	15587
878.824	15728
878.951	15770
879.079	15857
879.206	15941
879.333	15854
879.461	15720
879.588	15778
879.715	15854
879.842	15911
879.97	15812
880.097	15496
880.224	15458
880.351	15530
880.478	15496
880.605	15485
880.732	15412
880.859	15915
880.986	15545
881.112	15576
881.239	15386
881.366	15363
881.493	15230
881.619	15135
881.746	15135
881.872	15119
881.999	15135
882.125	15020
882.252	15252
882.378	15226
882.505	15279
882.631	15135
882.757	15009
882.883	15028
883.01	14994
883.136	14952
883.262	14773
883.388	14800
883.514	15077
883.64	14994
883.766	14876
883.892	14842
884.018	14750
884.143	14925
884.269	15146
884.395	14765
884.52	14659
884.646	14682
884.772	14545
884.897	14541
885.023	14739
885.148	14769
885.274	14838
885.399	14788
885.524	14743
885.65	14640
885.775	14739
885.9	14735
886.025	14781
886.15	14838
886.275	14621
886.4	14571
886.525	14613
886.65	14629
886.775	14651
886.9	14906
887.025	14921
887.149	14731
887.274	14537
887.399	14522
887.523	14541
887.648	14389
887.773	14366
887.897	14617
888.021	14594
888.146	14476
888.27	14537
888.395	14663
888.519	14507
888.643	14598
888.767	14549
888.891	14381
889.015	14454
889.139	14385
889.263	14400
889.387	14476
889.511	14571
889.635	14473
889.759	14336
889.883	14381
890.006	14423
890.13	14606
890.254	14313
890.377	14374
890.501	14214
890.624	14229
890.748	14309
890.871	14221
890.995	14020
891.118	14043
891.241	14107
891.364	14073
891.488	14168
891.611	14081
891.734	14138
891.857	14256
891.98	14176
892.103	14248
892.226	14126
892.349	14046
892.471	13970
892.594	14039
892.717	14126
892.839	14069
892.962	14092
893.085	14100
893.207	14065
893.33	14050
893.452	14073
893.575	14180
893.697	14035
893.819	14240
893.941	14278
894.064	14240
894.186	14123
894.308	14016
894.43	14252
894.552	14282
894.674	14229
894.796	14069
894.918	14172
895.04	14119
895.161	14180
895.283	14172
895.405	14149
895.526	14244
895.648	14153
895.769	14301
895.891	14336
896.012	14278
896.134	14237
896.255	14278
896.376	14252
896.498	14286
896.619	14183
896.74	14351
896.861	14347
896.982	14541
897.103	14811
897.224	14564
897.345	14442
897.466	14404
897.587	14526
897.708	14625
897.828	14590
897.949	14476
898.07	14396
898.19	14514
898.311	14743
898.431	14499
898.552	14598
898.672	14689
898.792	14670
898.913	14716
899.033	14632
899.153	14446
899.273	14381
899.393	14450
899.513	14511
899.633	14492
899.753	14511
899.873	14419
899.993	14507
900.113	14484
900.232	14389
900.352	14533
900.472	14431
900.591	14374
900.711	14442
900.83	14358
900.95	14461
901.069	14377
901.189	14351
901.308	14107
901.427	13951
901.546	13997
901.665	14111
901.784	14092
901.904	13883
902.023	13818
902.141	13776
902.26	13601
902.379	13658
902.498	13533
902.617	13632
902.735	13700
902.854	13567
902.973	13476
903.091	13377
903.21	13240
903.328	13362
903.446	13297
903.565	13198
903.683	13198
903.801	13118
903.919	13156
904.038	13129
904.156	12977
904.274	13042
904.392	12863
904.51	12947
904.627	12935
904.745	13031
904.863	13019
904.981	12837
905.098	12681
905.216	12654
905.334	12696
905.451	12741
905.569	12646
905.686	12703
905.803	12688
905.921	12441
906.038	12551
906.155	12536
906.272	12391
906.389	12407
906.506	12300
906.623	12296
906.74	12296
906.857	12125
906.974	12114
907.091	12277
907.208	12365
907.324	12342
907.441	12190
907.557	11992
907.674	11969
907.79	11958
907.907	11965
908.023	12117
908.139	11977
908.256	11878
908.372	11984
908.488	11824
908.604	11771
908.72	11707
908.836	11695
908.952	11729
909.068	11733
909.184	11859
909.3	11752
909.415	11813
909.531	11680
909.647	11619
909.762	11490
909.878	11410
909.993	11554
910.108	11440
910.224	11463
910.339	11566
910.454	11452
910.57	11410
910.685	11284
910.8	11554
910.915	11520
911.03	11379
911.145	11220
911.259	11261
911.374	11212
911.489	11109
911.604	11060
911.718	10980
911.833	11010
911.947	10904
912.062	10820
912.176	11029
912.291	10984
912.405	10976
912.519	11258
912.633	11185
912.748	10991
912.862	10995
912.976	10805
913.09	10805
913.204	10755
913.318	10965
913.431	11056
913.545	10915
913.659	10908
913.772	10858
913.886	10812
914	10660
914.113	10782
914.226	10877
914.34	10725
914.453	10725
914.566	10744
914.68	10618
914.793	10668
914.906	10436
915.019	10394
915.132	10432
915.245	10516
915.358	10527
915.47	10500
915.583	10504
915.696	10542
915.809	10535
915.921	10615
916.034	10535
916.146	10398
916.259	10402
916.371	10508
916.483	10421
916.595	10394
916.708	10417
916.82	10382
916.932	10405
917.044	10443
917.156	10390
917.268	10276
917.38	10333
917.491	10234
917.603	10268
917.715	10341
917.826	10424
917.938	10238
918.049	10230
918.161	10310
918.272	10470
918.384	10447
918.495	10394
918.606	10207
918.717	10166
918.828	10192
918.939	10219
919.05	10120
919.161	10223
919.272	9949
919.383	10086
919.494	10306
919.604	10394
919.715	10303
919.826	10188
919.936	10196
920.047	10211
920.157	10242
920.267	10440
920.378	10253
920.488	10211
920.598	10375
920.708	10512
920.818	10424
920.928	10360
921.038	10508
921.148	10527
921.258	10261
921.368	10158
921.477	10074
921.587	10071
921.697	9964
921.806	9998
921.916	9941
922.025	9789
922.134	9755
922.244	9675
922.353	9774
922.462	9641
922.571	9625
922.68	9405
922.789	9488
922.898	9443
923.007	9435
923.116	9469
923.224	9534
923.333	9492
923.442	9359
923.55	9310
923.659	9355
923.767	9370
923.876	9329
923.984	9382
924.092	9256
924.201	9253
924.309	9291
924.417	9386
924.525	9279
924.633	9283
924.741	10211
924.849	9104
924.956	9310
925.064	9150
925.172	9036
925.279	9093
925.387	9127
925.494	9131
925.602	9268
925.709	9237
925.816	9085
925.924	9123
926.031	9180
926.138	9173
926.245	9192
926.352	9066
926.459	9226
926.566	9199
926.673	9066
926.779	9005
926.886	8944
926.993	8880
927.099	8872
927.206	8819
927.312	8788
927.419	8861
927.525	8925
927.631	8891
927.737	8773
927.843	8727
927.95	8610
928.056	8712
928.162	8750
928.267	8796
928.373	9420
928.479	8815
928.585	8587
928.69	8724
928.796	8781
928.901	8762
929.007	8457
929.112	8655
929.218	8697
929.323	8511
929.428	8594
929.533	8689
929.638	8473
929.743	8526
929.848	8552
929.953	8499
930.058	8393
930.163	8267
930.267	8305
930.372	8450
930.477	8355
930.581	8552
930.685	8454
930.79	8256
930.894	8294
930.998	8221
931.103	8362
931.207	8046
931.311	8054
931.415	7970
931.519	7894
931.623	7776
