Data from test_V78500241_949.txt Node
Date: Fri Mar 25 14:40:19 CST 2022
User: usil
Spectrometer: V785-0024
Trigger mode: 0
Integration Time (sec): 4.000000E-1
Scans to average: 1
Nonlinearity correction enabled: false
Boxcar width: 0
Storing dark spectrum: false
XAxis mode: Wavelengths
Number of Pixels in Spectrum: 1024
>>>>>Begin Spectral Data<<<<<
801.071	24304
801.214	24129
801.356	23859
801.499	23885
801.641	23684
801.783	23558
801.926	23638
802.068	23417
802.211	23452
802.353	23425
802.496	23121
802.638	23067
802.78	23151
802.923	23033
803.065	22805
803.208	22938
803.35	22961
803.492	22980
803.635	23128
803.777	22942
803.919	23147
804.061	23258
804.204	23037
804.346	22965
804.488	22862
804.63	22717
804.773	22904
804.915	22896
805.057	22987
805.199	22869
805.341	22991
805.483	23121
805.626	22965
805.768	22972
805.91	22930
806.052	22927
806.194	22881
806.336	23124
806.478	23018
806.62	23044
806.762	23155
806.904	23258
807.046	23596
807.188	23611
807.33	23497
807.472	23577
807.614	23733
807.756	23790
807.898	23748
808.04	23790
808.182	24148
808.324	24289
808.465	24757
808.607	25050
808.749	25575
808.891	25616
809.033	25742
809.174	25525
809.316	25187
809.458	24920
809.6	24513
809.741	24372
809.883	24129
810.025	24022
810.166	24003
810.308	23969
810.45	23817
810.591	23668
810.733	23497
810.875	23444
811.016	23330
811.158	23311
811.299	23318
811.441	23410
811.582	23273
811.724	23254
811.865	23121
812.007	23136
812.148	23170
812.29	23204
812.431	23452
812.573	23596
812.714	23581
812.855	23657
812.997	23901
813.138	23855
813.279	23832
813.421	23760
813.562	23649
813.703	23448
813.845	23185
813.986	23003
814.127	22873
814.268	22641
814.41	22782
814.551	22771
814.692	22736
814.833	22618
814.974	22592
815.115	22603
815.256	22497
815.397	22485
815.539	22523
815.68	22405
815.821	22352
815.962	22409
816.103	22371
816.244	22226
816.385	22147
816.526	22131
816.666	22055
816.807	21934
816.948	21907
817.089	21842
817.23	21903
817.371	21926
817.512	21709
817.653	21778
817.793	21732
817.934	21823
818.075	21808
818.216	21865
818.356	21789
818.497	21603
818.638	21458
818.778	21526
818.919	21549
819.06	21492
819.2	21663
819.341	21622
819.481	21644
819.622	21873
819.762	21934
819.903	21964
820.043	21934
820.184	21880
820.324	21671
820.465	21842
820.605	21808
820.746	21774
820.886	21534
821.026	21880
821.167	21709
821.307	21812
821.447	21644
821.588	21545
821.728	21466
821.868	21329
822.008	21089
822.149	21093
822.289	21089
822.429	20842
822.569	20845
822.709	20674
822.849	20640
822.99	20587
823.13	20606
823.27	20522
823.41	20518
823.55	20210
823.69	20442
823.83	20370
823.97	20187
824.11	20130
824.25	20126
824.389	20202
824.529	20225
824.669	20267
824.809	20305
824.949	20172
825.089	20351
825.228	20336
825.368	19997
825.508	20111
825.648	20020
825.787	20069
825.927	20035
826.067	19989
826.206	19898
826.346	20043
826.485	20012
826.625	19906
826.765	20062
826.904	19986
827.044	19723
827.183	19582
827.323	19651
827.462	19696
827.601	19700
827.741	19632
827.88	19544
828.02	19407
828.159	19635
828.298	19765
828.437	19689
828.577	19449
828.716	19719
828.855	19689
828.994	19301
829.134	19274
829.273	19403
829.412	19472
829.551	19381
829.69	19255
829.829	19346
829.968	19407
830.107	19502
830.246	19407
830.385	19236
830.524	19327
830.663	19190
830.802	19160
830.941	19050
831.08	18901
831.219	19004
831.357	18970
831.496	19129
831.635	18840
831.774	18852
831.913	18764
832.051	18684
832.19	18635
832.329	18715
832.467	18540
832.606	18639
832.744	18696
832.883	18642
833.022	18646
833.16	18582
833.299	18620
833.437	18669
833.576	18745
833.714	18772
833.852	18814
833.991	18722
834.129	18856
834.267	18806
834.406	18745
834.544	18768
834.682	18772
834.821	18764
834.959	18951
835.097	18760
835.235	18696
835.373	18700
835.511	18563
835.65	18661
835.788	18502
835.926	18471
836.064	18239
836.202	18426
836.34	18483
836.478	18494
836.615	18506
836.753	18547
836.891	18547
837.029	18506
837.167	18441
837.305	18350
837.443	18372
837.58	18311
837.718	18441
837.856	18323
837.993	18235
838.131	18395
838.269	18273
838.406	18254
838.544	18155
838.681	18038
838.819	17908
838.956	17824
839.094	17901
839.231	17920
839.369	18038
839.506	18201
839.643	18087
839.781	17836
839.918	17794
840.055	17790
840.193	17847
840.33	17760
840.467	17821
840.604	17946
840.742	18133
840.879	17657
841.016	17893
841.153	17775
841.29	17840
841.427	17745
841.564	17790
841.701	17813
841.838	17783
841.975	17570
842.112	17752
842.249	17551
842.385	17592
842.522	17722
842.659	17646
842.796	17539
842.933	17554
843.069	17520
843.206	17535
843.343	17630
843.479	17558
843.616	17554
843.752	17242
843.889	17337
844.025	17467
844.162	17337
844.298	17448
844.435	17478
844.571	17391
844.708	17539
844.844	17604
844.98	17592
845.117	17722
845.253	17623
845.389	17836
845.525	18167
845.661	18692
845.798	19076
845.934	19871
846.07	19932
846.206	19982
846.342	19552
846.478	18844
846.614	18003
846.75	17554
846.886	17296
847.022	17197
847.158	17060
847.294	17083
847.429	16972
847.565	16946
847.701	17162
847.837	16698
847.972	16580
848.108	16740
848.244	16771
848.379	16504
848.515	16531
848.65	16535
848.786	16428
848.921	16379
849.057	16603
849.192	16436
849.328	16447
849.463	16459
849.598	16485
849.734	16352
849.869	16310
850.004	16242
850.14	16295
850.275	16219
850.41	16139
850.545	16109
850.68	16181
850.815	16230
850.95	16097
851.085	16394
851.22	16284
851.355	16265
851.49	16105
851.625	16154
851.76	16162
851.895	16124
852.03	16188
852.165	16135
852.299	16219
852.434	16322
852.569	16329
852.703	16284
852.838	16310
852.973	16386
853.107	16428
853.242	16242
853.376	16139
853.511	15930
853.645	16040
853.78	16166
853.914	16067
854.048	16082
854.183	16090
854.317	16128
854.451	16253
854.585	16101
854.72	16082
854.854	16177
854.988	15991
855.122	16006
855.256	16006
855.39	16086
855.524	16192
855.658	15994
855.792	16177
855.926	16177
856.06	16192
856.194	16181
856.327	16173
856.461	15998
856.595	15991
856.729	15983
856.862	16173
856.996	16143
857.13	16021
857.263	16166
857.397	16291
857.53	16135
857.664	16150
857.797	16139
857.931	16135
858.064	16124
858.197	16265
858.331	16074
858.464	15968
858.597	15930
858.731	15918
858.864	16105
858.997	16044
859.13	16044
859.263	16059
859.396	16196
859.529	15998
859.662	16036
859.795	15979
859.928	16128
860.061	16341
860.194	16280
860.327	16147
860.46	16124
860.592	16230
860.725	16090
860.858	16257
860.99	16169
861.123	15979
861.256	16116
861.388	16093
861.521	16672
861.653	15895
861.786	15930
861.918	15975
862.05	15972
862.183	15975
862.315	16101
862.447	16025
862.58	16021
862.712	15713
862.844	15770
862.976	15865
863.108	15861
863.24	16242
863.372	15766
863.504	15857
863.636	15869
863.768	15819
863.9	15850
864.032	15751
864.164	15736
864.296	15804
864.428	15892
864.559	15873
864.691	15953
864.823	15797
864.954	15888
865.086	15831
865.217	15842
865.349	15610
865.48	15713
865.612	15755
865.743	15949
865.875	15823
866.006	15663
866.137	15804
866.269	15838
866.4	15690
866.531	15842
866.662	15648
866.793	15648
866.924	15629
867.055	15717
867.186	15785
867.317	15709
867.448	15690
867.579	15709
867.71	15591
867.841	15675
867.972	15759
868.103	15732
868.233	15770
868.364	15781
868.495	15743
868.625	15869
868.756	16032
868.886	15964
869.017	15888
869.147	16002
869.278	16055
869.408	16006
869.539	15934
869.669	16032
869.799	16021
869.929	16166
870.06	16029
870.19	16344
870.32	16242
870.45	16310
870.58	16344
870.71	16455
870.84	16565
870.97	16459
871.1	16402
871.23	16497
871.36	16607
871.489	16413
871.619	16500
871.749	16569
871.879	16577
872.008	16687
872.138	16577
872.267	16428
872.397	16478
872.526	16428
872.656	16386
872.785	16493
872.915	16653
873.044	16656
873.173	16569
873.303	16763
873.432	16622
873.561	16630
873.69	16656
873.819	16675
873.948	16694
874.077	16717
874.206	16558
874.335	16645
874.464	16782
874.593	16980
874.722	16824
874.851	17048
874.979	16938
875.108	17003
875.237	16904
875.365	16843
875.494	16957
875.623	17052
875.751	16972
875.88	16965
876.008	17041
876.136	17288
876.265	17490
876.393	17436
876.521	17414
876.65	17459
876.778	17486
876.906	17395
877.034	17288
877.162	17387
877.29	17406
877.418	17562
877.546	17410
877.674	17474
877.802	17463
877.93	17433
878.058	17482
878.185	17368
878.313	17573
878.441	17581
878.568	17459
878.696	17729
878.824	17771
878.951	17923
879.079	18144
879.206	18597
879.333	18578
879.461	18585
879.588	18783
879.715	18989
879.842	18909
879.97	18509
880.097	18152
880.224	17889
880.351	17783
880.478	17710
880.605	17611
880.732	17665
880.859	17771
880.986	17642
881.112	17596
881.239	17535
881.366	17474
881.493	17318
881.619	17162
881.746	17254
881.872	17212
881.999	17254
882.125	17151
882.252	17277
882.378	17212
882.505	17337
882.631	17166
882.757	17052
882.883	17033
883.01	17121
883.136	16927
883.262	16911
883.388	16820
883.514	17018
883.64	17136
883.766	17003
883.892	16911
884.018	16828
884.143	16927
884.269	17094
884.395	16725
884.52	16679
884.646	16725
884.772	16733
884.897	16580
885.023	16729
885.148	16881
885.274	16805
885.399	16854
885.524	16733
885.65	16782
885.775	16717
885.9	16607
886.025	16763
886.15	16702
886.275	16577
886.4	16421
886.525	16519
886.65	16558
886.775	16512
886.9	16584
887.025	16698
887.149	16580
887.274	16432
887.399	16398
887.523	16306
887.648	16291
887.773	16253
887.897	16413
888.021	16295
888.146	16257
888.27	16413
888.395	16386
888.519	16344
888.643	16242
888.767	16226
888.891	16215
889.015	16097
889.139	16143
889.263	16044
889.387	16154
889.511	16287
889.635	16268
889.759	16048
889.883	16063
890.006	16029
890.13	16188
890.254	16029
890.377	15983
890.501	15785
890.624	15892
890.748	15941
890.871	15759
890.995	15755
891.118	15717
891.241	15778
891.364	15656
891.488	15816
891.611	15694
891.734	15679
891.857	15850
891.98	15656
892.103	15766
892.226	15679
892.349	15732
892.471	15584
892.594	15698
892.717	15755
892.839	15576
892.962	15698
893.085	15705
893.207	15610
893.33	15504
893.452	15591
893.575	15720
893.697	15568
893.819	15808
893.941	15857
894.064	15663
894.186	15610
894.308	15671
894.43	15766
894.552	15930
894.674	15724
894.796	15652
894.918	15671
895.04	15629
895.161	15739
895.283	15736
895.405	15717
895.526	15709
895.648	15679
895.769	15835
895.891	15816
896.012	15915
896.134	15831
896.255	15812
896.376	15778
896.498	15766
896.619	15865
896.74	15686
896.861	15831
896.982	16055
897.103	16287
897.224	16029
897.345	15949
897.466	16078
897.587	16131
897.708	16185
897.828	16166
897.949	15987
898.07	15903
898.19	15926
898.311	16158
898.431	16017
898.552	16086
898.672	16112
898.792	16177
898.913	16029
899.033	15911
899.153	16010
899.273	15899
899.393	15854
899.513	15930
899.633	15979
899.753	15960
899.873	15972
899.993	15991
900.113	15816
900.232	15934
900.352	15907
900.472	15854
900.591	15751
900.711	15797
900.83	15739
900.95	15934
901.069	15884
901.189	15675
901.308	15557
901.427	15405
901.546	15485
901.665	15504
901.784	15408
901.904	15321
902.023	15279
902.141	15100
902.26	15043
902.379	14994
902.498	14994
902.617	14963
902.735	14982
902.854	14967
902.973	14899
903.091	14670
903.21	14724
903.328	14735
903.446	14629
903.565	14575
903.683	14533
903.801	14332
903.919	14434
904.038	14389
904.156	14362
904.274	14408
904.392	14210
904.51	14267
904.627	14278
904.745	14305
904.863	14317
904.981	14119
905.098	14046
905.216	13997
905.334	13944
905.451	13997
905.569	13917
905.686	13963
905.803	13879
905.921	13761
906.038	13837
906.155	13791
906.272	13605
906.389	13693
906.506	13613
906.623	13605
906.74	13597
906.857	13384
906.974	13434
907.091	13601
907.208	13556
907.324	13506
907.441	13373
907.557	13240
907.674	13289
907.79	13072
907.907	13164
908.023	13251
908.139	13168
908.256	13126
908.372	13110
908.488	13118
908.604	13004
908.72	12993
908.836	13000
908.952	12897
909.068	12958
909.184	13019
909.3	13000
909.415	13050
909.531	12977
909.647	12745
909.762	12734
909.878	12665
909.993	12738
910.108	12722
910.224	12658
910.339	12741
910.454	12631
910.57	12574
910.685	12467
910.8	12707
910.915	12700
911.03	12528
911.145	12342
911.259	12350
911.374	12315
911.489	12330
911.604	12285
911.718	12144
911.833	12076
911.947	12091
912.062	11908
912.176	12117
912.291	12106
912.405	12076
912.519	12292
912.633	12338
912.748	12194
912.862	12140
912.976	12022
913.09	11828
913.204	11927
913.318	11942
913.431	12038
913.545	12095
913.659	12068
913.772	12007
913.886	11889
914	11817
914.113	12007
914.226	11923
914.34	11859
914.453	11699
914.566	11950
914.68	11904
914.793	11817
914.906	11585
915.019	11520
915.132	11566
915.245	11627
915.358	11630
915.47	11615
915.583	11604
915.696	11699
915.809	11748
915.921	11726
916.034	11554
916.146	11474
916.259	11368
916.371	11611
916.483	11543
916.595	11497
916.708	11516
916.82	11486
916.932	11455
917.044	11448
917.156	11459
917.268	11345
917.38	11376
917.491	11296
917.603	11379
917.715	11360
917.826	11436
917.938	11402
918.049	11174
918.161	11326
918.272	11455
918.384	11543
918.495	11356
918.606	11143
918.717	11086
918.828	11174
918.939	11318
919.05	11075
919.161	11220
919.272	10938
919.383	11006
919.494	11151
919.604	11395
919.715	11197
919.826	11113
919.936	11155
920.047	11284
920.157	11143
920.267	11417
920.378	11208
920.488	11181
920.598	11425
920.708	11501
920.818	11471
920.928	11341
921.038	11474
921.148	11520
921.258	11296
921.368	11128
921.477	11083
921.587	11029
921.697	10854
921.806	10991
921.916	10919
922.025	10778
922.134	10748
922.244	10759
922.353	10733
922.462	10672
922.571	10565
922.68	10417
922.789	10344
922.898	10455
923.007	10379
923.116	10402
923.224	10386
923.333	10409
923.442	10303
923.55	10234
923.659	10322
923.767	10341
923.876	10196
923.984	10287
924.092	10223
924.201	10268
924.309	10314
924.417	10287
924.525	10185
924.633	10196
924.741	10889
924.849	10067
924.956	10223
925.064	10051
925.172	9953
925.279	10006
925.387	10059
925.494	10017
925.602	10124
925.709	10097
925.816	10040
925.924	10006
926.031	10048
926.138	10048
926.245	10071
926.352	9876
926.459	10101
926.566	10135
926.673	10002
926.779	9895
926.886	9911
926.993	9682
927.099	9740
927.206	9675
927.312	9584
927.419	9720
927.525	9717
927.631	9736
927.737	9584
927.843	9610
927.95	9481
928.056	9572
928.162	9572
928.267	9656
928.373	10048
928.479	9663
928.585	9519
928.69	9561
928.796	9614
928.901	9511
929.007	9378
929.112	9538
929.218	9454
929.323	9443
929.428	9416
929.533	9492
929.638	9279
929.743	9405
929.848	9370
929.953	9332
930.058	9283
930.163	9100
930.267	9176
930.372	9310
930.477	9146
930.581	9325
930.685	9222
930.79	9138
930.894	9062
930.998	9017
931.103	9161
931.207	8796
931.311	8807
931.415	8712
931.519	8473
931.623	8511
