Data from test_V78500241_2963.txt Node
Date: Fri Mar 25 14:54:20 CST 2022
User: usil
Spectrometer: V785-0024
Trigger mode: 0
Integration Time (sec): 4.000000E-1
Scans to average: 1
Nonlinearity correction enabled: false
Boxcar width: 0
Storing dark spectrum: false
XAxis mode: Wavelengths
Number of Pixels in Spectrum: 1024
>>>>>Begin Spectral Data<<<<<
801.071	22090
801.214	21968
801.356	21660
801.499	21816
801.641	21534
801.783	21564
801.926	21504
802.068	21230
802.211	21313
802.353	21268
802.496	21081
802.638	20986
802.78	20921
802.923	20811
803.065	20735
803.208	20796
803.35	20792
803.492	20796
803.635	21032
803.777	20872
803.919	20925
804.061	21157
804.204	20868
804.346	20693
804.488	20720
804.63	20781
804.773	20765
804.915	20777
805.057	20887
805.199	20636
805.341	20853
805.483	20853
805.626	20830
805.768	20659
805.91	20739
806.052	20617
806.194	20682
806.336	20834
806.478	20712
806.62	20670
806.762	20769
806.904	21009
807.046	21093
807.188	21039
807.33	21081
807.472	21165
807.614	21032
807.756	21100
807.898	20800
808.04	20769
808.182	20777
808.324	20857
808.465	20861
808.607	21055
808.749	21180
808.891	21146
809.033	21252
809.174	21154
809.316	21028
809.458	21104
809.6	21001
809.741	21203
809.883	21142
810.025	21401
810.166	21222
810.308	21146
810.45	21199
810.591	21116
810.733	21100
810.875	20925
811.016	20712
811.158	20777
811.299	20941
811.441	20986
811.582	20963
811.724	20861
811.865	20811
812.007	20960
812.148	20883
812.29	20902
812.431	21062
812.573	21173
812.714	21279
812.855	21355
812.997	21439
813.138	21591
813.279	21500
813.421	21420
813.562	21260
813.703	21127
813.845	20914
813.986	20785
814.127	20511
814.268	20476
814.41	20480
814.551	20450
814.692	20499
814.833	20328
814.974	20298
815.115	20499
815.256	20362
815.397	20275
815.539	20244
815.68	20130
815.821	20065
815.962	20233
816.103	20145
816.244	20027
816.385	19982
816.526	19871
816.666	19712
816.807	19578
816.948	19674
817.089	19689
817.23	19605
817.371	19521
817.512	19590
817.653	19533
817.793	19495
817.934	19597
818.075	19518
818.216	19590
818.356	19506
818.497	19312
818.638	19202
818.778	19236
818.919	19266
819.06	19247
819.2	19293
819.341	19422
819.481	19403
819.622	19506
819.762	19776
819.903	19632
820.043	19666
820.184	19506
820.324	19434
820.465	19632
820.605	19590
820.746	19441
820.886	19358
821.026	19521
821.167	19415
821.307	19476
821.447	19430
821.588	19244
821.728	19183
821.868	19129
822.008	18916
822.149	18916
822.289	18867
822.429	18635
822.569	18639
822.709	18639
822.849	18334
822.99	18490
823.13	18498
823.27	18365
823.41	18205
823.55	18186
823.69	18144
823.83	18155
823.97	18129
824.11	18057
824.25	17912
824.389	17996
824.529	17996
824.669	18022
824.809	18011
824.949	18030
825.089	18106
825.228	17942
825.368	17843
825.508	17794
825.648	17813
825.787	17832
825.927	17840
826.067	17691
826.206	17623
826.346	17851
826.485	17726
826.625	17672
826.765	17786
826.904	17817
827.044	17452
827.183	17558
827.323	17490
827.462	17524
827.601	17421
827.741	17372
827.88	17615
828.02	17440
828.159	17387
828.298	17501
828.437	17414
828.577	17349
828.716	17478
828.855	17398
828.994	17162
829.134	17109
829.273	17284
829.412	17132
829.551	17178
829.69	17128
829.829	17212
829.968	17326
830.107	17258
830.246	17174
830.385	17155
830.524	17132
830.663	16976
830.802	16946
830.941	16816
831.08	16767
831.219	16873
831.357	16904
831.496	17086
831.635	16771
831.774	16805
831.913	16626
832.051	16584
832.19	16626
832.329	16660
832.467	16493
832.606	16371
832.744	16451
832.883	16432
833.022	16413
833.16	16485
833.299	16561
833.437	16481
833.576	16592
833.714	16577
833.852	16584
833.991	16630
834.129	16569
834.267	16698
834.406	16466
834.544	16531
834.682	16607
834.821	16474
834.959	16679
835.097	16474
835.235	16687
835.373	16558
835.511	16447
835.65	16519
835.788	16413
835.926	16306
836.064	16215
836.202	16344
836.34	16512
836.478	16508
836.615	16394
836.753	16451
836.891	16538
837.029	16485
837.167	16398
837.305	16356
837.443	16318
837.58	16341
837.718	16329
837.856	16333
837.993	16207
838.131	16314
838.269	16177
838.406	16242
838.544	16215
838.681	15953
838.819	15934
838.956	15892
839.094	15865
839.231	15854
839.369	16082
839.506	16226
839.643	16124
839.781	15880
839.918	15770
840.055	15899
840.193	15873
840.33	15797
840.467	15960
840.604	15869
840.742	16105
840.879	15641
841.016	15781
841.153	15675
841.29	15979
841.427	15743
841.564	15778
841.701	15835
841.838	15827
841.975	15724
842.112	15739
842.249	15610
842.385	15690
842.522	15865
842.659	15713
842.796	15633
842.933	15595
843.069	15603
843.206	15618
843.343	15679
843.479	15625
843.616	15534
843.752	15420
843.889	15393
844.025	15576
844.162	15424
844.298	15485
844.435	15424
844.571	15363
844.708	15481
844.844	15580
844.98	15500
845.117	15443
845.253	15340
845.389	15264
845.525	15344
845.661	15218
845.798	15146
845.934	15275
846.07	15226
846.206	15226
846.342	15416
846.478	15157
846.614	15123
846.75	14880
846.886	14975
847.022	14986
847.158	15074
847.294	15081
847.429	15020
847.565	14948
847.701	15184
847.837	14739
847.972	14701
848.108	14823
848.244	14823
848.379	14655
848.515	14610
848.65	14560
848.786	14518
848.921	14556
849.057	14663
849.192	14663
849.328	14545
849.463	14613
849.598	14541
849.734	14434
849.869	14465
850.004	14282
850.14	14469
850.275	14457
850.41	14294
850.545	14301
850.68	14259
850.815	14404
850.95	14290
851.085	14499
851.22	14404
851.355	14309
851.49	14282
851.625	14313
851.76	14214
851.895	14252
852.03	14199
852.165	14301
852.299	14370
852.434	14446
852.569	14377
852.703	14465
852.838	14476
852.973	14473
853.107	14484
853.242	14313
853.376	14202
853.511	14088
853.645	14107
853.78	14305
853.914	14202
854.048	14149
854.183	14153
854.317	14221
854.451	14332
854.585	14278
854.72	14240
854.854	14309
854.988	14168
855.122	14214
855.256	14005
855.39	14142
855.524	14305
855.658	14282
855.792	14157
855.926	14282
856.06	14324
856.194	14339
856.327	14100
856.461	14206
856.595	14286
856.729	14130
856.862	14328
856.996	14214
857.13	14252
857.263	14229
857.397	14278
857.53	14168
857.664	14362
857.797	14286
857.931	14267
858.064	14259
858.197	14336
858.331	14248
858.464	14126
858.597	14153
858.731	14218
858.864	14206
858.997	14191
859.13	14248
859.263	14229
859.396	14271
859.529	14145
859.662	14149
859.795	14115
859.928	14240
860.061	14404
860.194	14317
860.327	14256
860.46	14202
860.592	14267
860.725	14301
860.858	14305
860.99	14172
861.123	14134
861.256	14103
861.388	14221
861.521	14861
861.653	14081
861.786	13955
861.918	14073
862.05	14256
862.183	14145
862.315	14202
862.447	14218
862.58	14225
862.712	13864
862.844	13986
862.976	14065
863.108	14008
863.24	14362
863.372	13967
863.504	13959
863.636	14001
863.768	14039
863.9	14073
864.032	13906
864.164	13963
864.296	14024
864.428	14005
864.559	14138
864.691	14115
864.823	14123
864.954	14005
865.086	14020
865.217	13974
865.349	13917
865.48	13993
865.612	13963
865.743	14115
865.875	14016
866.006	13906
866.137	14024
866.269	13959
866.4	13951
866.531	13921
866.662	13921
866.793	13974
866.924	13989
867.055	13982
867.186	13963
867.317	13997
867.448	13898
867.579	13947
867.71	13951
867.841	13871
867.972	13906
868.103	13913
868.233	13898
868.364	13928
868.495	14031
868.625	14176
868.756	14313
868.886	14199
869.017	14126
869.147	14332
869.278	14305
869.408	14240
869.539	14218
869.669	14252
869.799	14313
869.929	14336
870.06	14351
870.19	14560
870.32	14590
870.45	14503
870.58	14651
870.71	14720
870.84	14838
870.97	14602
871.1	14613
871.23	14811
871.36	14868
871.489	14754
871.619	14796
871.749	14693
871.879	14929
872.008	14994
872.138	14838
872.267	14815
872.397	14674
872.526	14686
872.656	14613
872.785	14556
872.915	14864
873.044	14902
873.173	14807
873.303	14956
873.432	14944
873.561	14921
873.69	14929
873.819	14857
873.948	14880
874.077	14861
874.206	14788
874.335	14864
874.464	14952
874.593	15093
874.722	15138
874.851	15135
874.979	15097
875.108	15135
875.237	15112
875.365	15157
875.494	15150
875.623	15268
875.751	15184
875.88	15195
876.008	15359
876.136	15325
876.265	15739
876.393	15739
876.521	15701
876.65	15789
876.778	15599
876.906	15564
877.034	15485
877.162	15561
877.29	15496
877.418	15652
877.546	15580
877.674	15652
877.802	15591
877.93	15633
878.058	15561
878.185	15485
878.313	15587
878.441	15610
878.568	15370
878.696	15561
878.824	15545
878.951	15682
879.079	15823
879.206	15876
879.333	15762
879.461	15633
879.588	15644
879.715	15838
879.842	15869
879.97	15679
880.097	15458
880.224	15336
880.351	15454
880.478	15469
880.605	15401
880.732	15443
880.859	15679
880.986	15458
881.112	15469
881.239	15389
881.366	15249
881.493	15142
881.619	15036
881.746	15127
881.872	15108
881.999	15066
882.125	15089
882.252	15138
882.378	15093
882.505	15279
882.631	15062
882.757	14891
882.883	14994
883.01	14918
883.136	14883
883.262	14750
883.388	14708
883.514	14990
883.64	15001
883.766	14861
883.892	14804
884.018	14746
884.143	14861
884.269	15013
884.395	14636
884.52	14541
884.646	14568
884.772	14579
884.897	14648
885.023	14613
885.148	14697
885.274	14727
885.399	14689
885.524	14648
885.65	14648
885.775	14724
885.9	14663
886.025	14724
886.15	14610
886.275	14537
886.4	14442
886.525	14686
886.65	14530
886.775	14541
886.9	14689
887.025	14872
887.149	14651
887.274	14385
887.399	14370
887.523	14457
887.648	14423
887.773	14438
887.897	14511
888.021	14530
888.146	14438
888.27	14621
888.395	14556
888.519	14564
888.643	14571
888.767	14594
888.891	14423
889.015	14313
889.139	14351
889.263	14317
889.387	14351
889.511	14552
889.635	14476
889.759	14275
889.883	14282
890.006	14320
890.13	14450
890.254	14218
890.377	14317
890.501	14092
890.624	14096
890.748	14119
890.871	14062
890.995	13993
891.118	13944
891.241	14039
891.364	14050
891.488	14107
891.611	14084
891.734	14039
891.857	14084
891.98	14008
892.103	14138
892.226	14111
892.349	13993
892.471	13818
892.594	13963
892.717	14016
892.839	14016
892.962	13963
893.085	14039
893.207	13986
893.33	13883
893.452	13974
893.575	14016
893.697	14050
893.819	14153
893.941	14256
894.064	14100
894.186	13986
894.308	13898
894.43	14134
894.552	14191
894.674	14183
894.796	14062
894.918	14073
895.04	14024
895.161	14161
895.283	14161
895.405	14084
895.526	14157
895.648	14195
895.769	14229
895.891	14237
896.012	14233
896.134	14123
896.255	14176
896.376	14103
896.498	14202
896.619	14259
896.74	14202
896.861	14195
896.982	14450
897.103	14629
897.224	14594
897.345	14419
897.466	14408
897.587	14461
897.708	14610
897.828	14640
897.949	14476
898.07	14396
898.19	14450
898.311	14575
898.431	14499
898.552	14571
898.672	14640
898.792	14648
898.913	14625
899.033	14423
899.153	14434
899.273	14339
899.393	14339
899.513	14469
899.633	14438
899.753	14381
899.873	14385
899.993	14469
900.113	14396
900.232	14431
900.352	14461
900.472	14301
900.591	14256
900.711	14343
900.83	14115
900.95	14381
901.069	14355
901.189	14225
901.308	14008
901.427	13940
901.546	13970
901.665	14001
901.784	13989
901.904	13894
902.023	13715
902.141	13632
902.26	13548
902.379	13643
902.498	13514
902.617	13521
902.735	13552
902.854	13540
902.973	13491
903.091	13285
903.21	13225
903.328	13255
903.446	13164
903.565	13145
903.683	13126
903.801	12935
903.919	13038
904.038	13080
904.156	13008
904.274	12993
904.392	12951
904.51	12901
904.627	12897
904.745	12856
904.863	12928
904.981	12734
905.098	12658
905.216	12646
905.334	12589
905.451	12551
905.569	12574
905.686	12650
905.803	12646
905.921	12437
906.038	12635
906.155	12414
906.272	12315
906.389	12372
906.506	12266
906.623	12159
906.74	12254
906.857	12068
906.974	12083
907.091	12254
907.208	12251
907.324	12247
907.441	12060
907.557	11927
907.674	11916
907.79	11973
907.907	11851
908.023	11901
908.139	11969
908.256	11859
908.372	11916
908.488	11855
908.604	11707
908.72	11756
908.836	11707
908.952	11665
909.068	11695
909.184	11733
909.3	11672
909.415	11752
909.531	11680
909.647	11512
909.762	11520
909.878	11467
909.993	11444
910.108	11433
910.224	11425
910.339	11471
910.454	11391
910.57	11273
910.685	11322
910.8	11543
910.915	11486
911.03	11349
911.145	11151
911.259	11159
911.374	11235
911.489	11140
911.604	11052
911.718	11006
911.833	11018
911.947	10786
912.062	10752
912.176	10847
912.291	10930
912.405	10965
912.519	11090
912.633	11140
912.748	11048
912.862	10938
912.976	10843
913.09	10710
913.204	10752
913.318	10869
913.431	10862
913.545	10869
913.659	10889
913.772	10755
913.886	10702
914	10645
914.113	10763
914.226	10763
914.34	10759
914.453	10641
914.566	10790
914.68	10618
914.793	10611
914.906	10451
915.019	10447
915.132	10379
915.245	10455
915.358	10443
915.47	10348
915.583	10504
915.696	10554
915.809	10569
915.921	10592
916.034	10436
916.146	10432
916.259	10352
916.371	10554
916.483	10500
916.595	10394
916.708	10459
916.82	10405
916.932	10333
917.044	10310
917.156	10371
917.268	10207
917.38	10234
917.491	10253
917.603	10257
917.715	10375
917.826	10352
917.938	10173
918.049	10150
918.161	10344
918.272	10386
918.384	10344
918.495	10318
918.606	10227
918.717	10128
918.828	10215
918.939	10158
919.05	10112
919.161	10192
919.272	9941
919.383	10002
919.494	10166
919.604	10379
919.715	10204
919.826	10059
919.936	10093
920.047	10276
920.157	10181
920.267	10382
920.378	10188
920.488	10135
920.598	10402
920.708	10500
920.818	10363
920.928	10386
921.038	10603
921.148	10497
921.258	10257
921.368	10071
921.477	10063
921.587	10032
921.697	9926
921.806	10044
921.916	9876
922.025	9762
922.134	9690
922.244	9641
922.353	9774
922.462	9629
922.571	9568
922.68	9435
922.789	9348
922.898	9500
923.007	9359
923.116	9504
923.224	9378
923.333	9370
923.442	9367
923.55	9348
923.659	9336
923.767	9382
923.876	9332
923.984	9359
924.092	9253
924.201	9401
924.309	9256
924.417	9264
924.525	9256
924.633	9268
924.741	10158
924.849	9058
924.956	9275
925.064	9013
925.172	9024
925.279	8998
925.387	9097
925.494	9070
925.602	9253
925.709	9157
925.816	9055
925.924	9070
926.031	9127
926.138	9108
926.245	9093
926.352	8990
926.459	9131
926.566	9188
926.673	9032
926.779	8971
926.886	8861
926.993	8781
927.099	8773
927.206	8746
927.312	8766
927.419	8845
927.525	8815
927.631	8868
927.737	8727
927.843	8663
927.95	8571
928.056	8693
928.162	8667
928.267	8800
928.373	9332
928.479	8819
928.585	8522
928.69	8678
928.796	8731
928.901	8526
929.007	8514
929.112	8552
929.218	8590
929.323	8571
929.428	8526
929.533	8625
929.638	8454
929.743	8530
929.848	8533
929.953	8488
930.058	8461
930.163	8214
930.267	8210
930.372	8355
930.477	8263
930.581	8461
930.685	8423
930.79	8218
930.894	8240
930.998	8233
931.103	8393
931.207	7963
931.311	8035
931.415	7906
931.519	7693
931.623	7700
