Data from test_V78500241_2417.txt Node
Date: Fri Mar 25 14:50:32 CST 2022
User: usil
Spectrometer: V785-0024
Trigger mode: 0
Integration Time (sec): 4.000000E-1
Scans to average: 1
Nonlinearity correction enabled: false
Boxcar width: 0
Storing dark spectrum: false
XAxis mode: Wavelengths
Number of Pixels in Spectrum: 1024
>>>>>Begin Spectral Data<<<<<
801.071	22120
801.214	21991
801.356	21800
801.499	21583
801.641	21523
801.783	21462
801.926	21622
802.068	21408
802.211	21405
802.353	21226
802.496	20941
802.638	20918
802.78	20918
802.923	20887
803.065	20842
803.208	20899
803.35	20891
803.492	20925
803.635	20956
803.777	20800
803.919	20910
804.061	21184
804.204	20708
804.346	20804
804.488	20674
804.63	20708
804.773	20659
804.915	20640
805.057	20826
805.199	20606
805.341	20853
805.483	20758
805.626	20765
805.768	20697
805.91	20632
806.052	20655
806.194	20560
806.336	20921
806.478	20724
806.62	20560
806.762	20750
806.904	20971
807.046	21112
807.188	21039
807.33	20956
807.472	20948
807.614	21005
807.756	20899
807.898	20800
808.04	20796
808.182	20830
808.324	20781
808.465	20815
808.607	21127
808.749	21131
808.891	21340
809.033	21214
809.174	21116
809.316	21028
809.458	21032
809.6	21017
809.741	21176
809.883	21055
810.025	21256
810.166	21214
810.308	21207
810.45	21214
810.591	21100
810.733	20990
810.875	20906
811.016	20716
811.158	20788
811.299	20849
811.441	20994
811.582	20990
811.724	20986
811.865	20918
812.007	20785
812.148	20792
812.29	20899
812.431	21081
812.573	21112
812.714	21367
812.855	21370
812.997	21355
813.138	21667
813.279	21511
813.421	21310
813.562	21279
813.703	21150
813.845	21123
813.986	20743
814.127	20492
814.268	20492
814.41	20476
814.551	20571
814.692	20362
814.833	20450
814.974	20290
815.115	20389
815.256	20309
815.397	20263
815.539	20271
815.68	20180
815.821	20202
815.962	20298
816.103	20103
816.244	20031
816.385	19947
816.526	19868
816.666	19788
816.807	19613
816.948	19613
817.089	19658
817.23	19632
817.371	19400
817.512	19575
817.653	19502
817.793	19472
817.934	19578
818.075	19582
818.216	19559
818.356	19563
818.497	19392
818.638	19388
818.778	19228
818.919	19152
819.06	19263
819.2	19289
819.341	19403
819.481	19540
819.622	19616
819.762	19723
819.903	19772
820.043	19586
820.184	19480
820.324	19491
820.465	19620
820.605	19445
820.746	19483
820.886	19373
821.026	19502
821.167	19552
821.307	19651
821.447	19327
821.588	19297
821.728	19202
821.868	19050
822.008	18932
822.149	19004
822.289	18913
822.429	18616
822.569	18623
822.709	18547
822.849	18426
822.99	18418
823.13	18342
823.27	18475
823.41	18247
823.55	18209
823.69	18281
823.83	18262
823.97	18163
824.11	17882
824.25	18011
824.389	17958
824.529	18167
824.669	17904
824.809	18140
824.949	18091
825.089	18174
825.228	18057
825.368	17874
825.508	17718
825.648	17870
825.787	17824
825.927	17878
826.067	17805
826.206	17756
826.346	17786
826.485	17821
826.625	17859
826.765	17923
826.904	17828
827.044	17592
827.183	17589
827.323	17459
827.462	17429
827.601	17551
827.741	17528
827.88	17433
828.02	17398
828.159	17303
828.298	17554
828.437	17520
828.577	17410
828.716	17646
828.855	17520
828.994	17383
829.134	17200
829.273	17376
829.412	17216
829.551	17174
829.69	17208
829.829	17235
829.968	17242
830.107	17311
830.246	17170
830.385	17166
830.524	17185
830.663	17113
830.802	16908
830.941	16881
831.08	16847
831.219	16873
831.357	16900
831.496	17147
831.635	16957
831.774	16740
831.913	16752
832.051	16626
832.19	16660
832.329	16637
832.467	16618
832.606	16516
832.744	16478
832.883	16478
833.022	16554
833.16	16542
833.299	16573
833.437	16653
833.576	16569
833.714	16561
833.852	16637
833.991	16580
834.129	16698
834.267	16672
834.406	16599
834.544	16702
834.682	16611
834.821	16535
834.959	16733
835.097	16535
835.235	16626
835.373	16615
835.511	16664
835.65	16573
835.788	16474
835.926	16344
836.064	16223
836.202	16287
836.34	16478
836.478	16577
836.615	16550
836.753	16523
836.891	16637
837.029	16546
837.167	16493
837.305	16379
837.443	16440
837.58	16341
837.718	16550
837.856	16306
837.993	16291
838.131	16352
838.269	16325
838.406	16348
838.544	16246
838.681	16078
838.819	16051
838.956	15854
839.094	15987
839.231	15994
839.369	16006
839.506	16265
839.643	16135
839.781	15911
839.918	15861
840.055	15888
840.193	15831
840.33	15922
840.467	15884
840.604	15941
840.742	16150
840.879	15751
841.016	15789
841.153	15759
841.29	15953
841.427	15972
841.564	15968
841.701	15835
841.838	15888
841.975	15915
842.112	15842
842.249	15812
842.385	15652
842.522	15850
842.659	15705
842.796	15629
842.933	15720
843.069	15663
843.206	15736
843.343	15842
843.479	15739
843.616	15736
843.752	15568
843.889	15466
844.025	15679
844.162	15458
844.298	15671
844.435	15591
844.571	15431
844.708	15496
844.844	15717
844.98	15686
845.117	15561
845.253	15431
845.389	15439
845.525	15450
845.661	15447
845.798	15298
845.934	15348
846.07	15203
846.206	15382
846.342	15351
846.478	15241
846.614	15142
846.75	15005
846.886	15001
847.022	15142
847.158	15081
847.294	15085
847.429	15104
847.565	15013
847.701	15344
847.837	14868
847.972	14682
848.108	14876
848.244	14819
848.379	14693
848.515	14667
848.65	14655
848.786	14617
848.921	14686
849.057	14651
849.192	14758
849.328	14674
849.463	14762
849.598	14655
849.734	14507
849.869	14511
850.004	14446
850.14	14488
850.275	14362
850.41	14389
850.545	14438
850.68	14336
850.815	14400
850.95	14358
851.085	14549
851.22	14507
851.355	14381
851.49	14355
851.625	14473
851.76	14370
851.895	14286
852.03	14252
852.165	14412
852.299	14438
852.434	14484
852.569	14442
852.703	14404
852.838	14461
852.973	14537
853.107	14594
853.242	14336
853.376	14313
853.511	14240
853.645	14172
853.78	14370
853.914	14313
854.048	14309
854.183	14271
854.317	14221
854.451	14431
854.585	14168
854.72	14229
854.854	14415
854.988	14221
855.122	14259
855.256	14168
855.39	14256
855.524	14332
855.658	14408
855.792	14317
855.926	14332
856.06	14355
856.194	14366
856.327	14320
856.461	14252
856.595	14240
856.729	14294
856.862	14389
856.996	14199
857.13	14374
857.263	14381
857.397	14313
857.53	14221
857.664	14332
857.797	14442
857.931	14396
858.064	14347
858.197	14476
858.331	14286
858.464	14248
858.597	14199
858.731	14149
858.864	14317
858.997	14206
859.13	14259
859.263	14214
859.396	14362
859.529	14233
859.662	14305
859.795	14233
859.928	14244
860.061	14442
860.194	14492
860.327	14347
860.46	14210
860.592	14294
860.725	14404
860.858	14336
860.99	14328
861.123	14195
861.256	14317
861.388	14301
861.521	14883
861.653	14180
861.786	14062
861.918	14103
862.05	14153
862.183	14320
862.315	14267
862.447	14328
862.58	14218
862.712	14092
862.844	14020
862.976	14111
863.108	14084
863.24	14358
863.372	14008
863.504	14054
863.636	13974
863.768	14134
863.9	14031
864.032	13944
864.164	14073
864.296	14088
864.428	14161
864.559	14130
864.691	14142
864.823	14206
864.954	14084
865.086	13974
865.217	14077
865.349	14092
865.48	14043
865.612	14103
865.743	14244
865.875	13982
866.006	13997
866.137	14050
866.269	14111
866.4	14084
866.531	14005
866.662	13890
866.793	13993
866.924	14001
867.055	13986
867.186	14119
867.317	14069
867.448	13879
867.579	14020
867.71	14043
867.841	14050
867.972	14012
868.103	13967
868.233	14012
868.364	14062
868.495	14130
868.625	14298
868.756	14442
868.886	14168
869.017	14233
869.147	14317
869.278	14415
869.408	14385
869.539	14237
869.669	14393
869.799	14351
869.929	14442
870.06	14469
870.19	14705
870.32	14549
870.45	14613
870.58	14697
870.71	14769
870.84	14743
870.97	14727
871.1	14697
871.23	14883
871.36	14941
871.489	14777
871.619	14746
871.749	14880
871.879	14887
872.008	15051
872.138	15047
872.267	14842
872.397	14735
872.526	14708
872.656	14735
872.785	14727
872.915	14872
873.044	15036
873.173	14845
873.303	15043
873.432	14960
873.561	14941
873.69	14975
873.819	14921
873.948	15077
874.077	14979
874.206	14914
874.335	15039
874.464	15127
874.593	15173
874.722	15237
874.851	15279
874.979	15302
875.108	15233
875.237	15135
875.365	15161
875.494	15249
875.623	15321
875.751	15192
875.88	15275
876.008	15325
876.136	15450
876.265	15690
876.393	15682
876.521	15751
876.65	15743
876.778	15675
876.906	15572
877.034	15625
877.162	15648
877.29	15595
877.418	15701
877.546	15633
877.674	15713
877.802	15614
877.93	15762
878.058	15614
878.185	15606
878.313	15648
878.441	15576
878.568	15530
878.696	15667
878.824	15709
878.951	15739
879.079	15770
879.206	15915
879.333	15842
879.461	15720
879.588	15846
879.715	15781
879.842	16036
879.97	15816
880.097	15557
880.224	15507
880.351	15473
880.478	15500
880.605	15534
880.732	15572
880.859	15778
880.986	15549
881.112	15530
881.239	15466
881.366	15275
881.493	15260
881.619	15142
881.746	15252
881.872	15203
881.999	15157
882.125	15138
882.252	15332
882.378	15226
882.505	15252
882.631	15108
882.757	14937
882.883	15100
883.01	15013
883.136	14967
883.262	14910
883.388	14781
883.514	15020
883.64	15066
883.766	14887
883.892	14823
884.018	14815
884.143	15020
884.269	14998
884.395	14861
884.52	14701
884.646	14674
884.772	14587
884.897	14610
885.023	14762
885.148	14731
885.274	14811
885.399	14769
885.524	14663
885.65	14659
885.775	14670
885.9	14632
886.025	14830
886.15	14773
886.275	14667
886.4	14644
886.525	14579
886.65	14568
886.775	14590
886.9	14834
887.025	14876
887.149	14731
887.274	14427
887.399	14495
887.523	14415
887.648	14438
887.773	14518
887.897	14571
888.021	14579
888.146	14492
888.27	14602
888.395	14686
888.519	14511
888.643	14556
888.767	14613
888.891	14484
889.015	14377
889.139	14571
889.263	14419
889.387	14396
889.511	14541
889.635	14526
889.759	14298
889.883	14358
890.006	14503
890.13	14533
890.254	14362
890.377	14374
890.501	14168
890.624	14183
890.748	14328
890.871	14214
890.995	14050
891.118	14043
891.241	14084
891.364	14069
891.488	14214
891.611	14077
891.734	14115
891.857	14187
891.98	14157
892.103	14172
892.226	14096
892.349	14103
892.471	13925
892.594	13997
892.717	14084
892.839	14039
892.962	14218
893.085	14115
893.207	14077
893.33	13860
893.452	14046
893.575	14058
893.697	14092
893.819	14286
893.941	14358
894.064	14256
894.186	14096
894.308	14138
894.43	14248
894.552	14362
894.674	14191
894.796	14069
894.918	14126
895.04	14157
895.161	14248
895.283	14153
895.405	14100
895.526	14233
895.648	14168
895.769	14164
895.891	14218
896.012	14366
896.134	14339
896.255	14240
896.376	14161
896.498	14252
896.619	14313
896.74	14252
896.861	14320
896.982	14579
897.103	14731
897.224	14579
897.345	14632
897.466	14511
897.587	14575
897.708	14655
897.828	14556
897.949	14571
898.07	14362
898.19	14503
898.311	14613
898.431	14526
898.552	14651
898.672	14693
898.792	14697
898.913	14663
899.033	14571
899.153	14454
899.273	14343
899.393	14370
899.513	14492
899.633	14419
899.753	14473
899.873	14473
899.993	14606
900.113	14511
900.232	14492
900.352	14419
900.472	14339
900.591	14248
900.711	14320
900.83	14313
900.95	14427
901.069	14499
901.189	14263
901.308	14069
901.427	13997
901.546	13970
901.665	14145
901.784	14005
901.904	13902
902.023	13856
902.141	13700
902.26	13597
902.379	13628
902.498	13514
902.617	13609
902.735	13578
902.854	13586
902.973	13540
903.091	13358
903.21	13320
903.328	13354
903.446	13285
903.565	13152
903.683	13202
903.801	13103
903.919	13156
904.038	13118
904.156	13027
904.274	13065
904.392	12985
904.51	12962
904.627	12989
904.745	12909
904.863	12939
904.981	12703
905.098	12684
905.216	12597
905.334	12764
905.451	12665
905.569	12654
905.686	12707
905.803	12642
905.921	12448
906.038	12566
906.155	12467
906.272	12391
906.389	12270
906.506	12224
906.623	12209
906.74	12285
906.857	12216
906.974	12155
907.091	12330
907.208	12388
907.324	12380
907.441	12220
907.557	12007
907.674	11961
907.79	11980
907.907	11961
908.023	11958
908.139	11973
908.256	11988
908.372	11999
908.488	11908
908.604	11874
908.72	11718
908.836	11802
908.952	11703
909.068	11752
909.184	11805
909.3	11741
909.415	11771
909.531	11688
909.647	11520
909.762	11497
909.878	11482
909.993	11509
910.108	11539
910.224	11474
910.339	11516
910.454	11440
910.57	11395
910.685	11269
910.8	11554
910.915	11543
911.03	11471
911.145	11254
911.259	11292
911.374	11254
911.489	11220
911.604	11067
911.718	10919
911.833	10942
911.947	10904
912.062	10801
912.176	10991
912.291	11060
912.405	10995
912.519	11178
912.633	11147
912.748	11048
912.862	10972
912.976	10911
913.09	10767
913.204	10793
913.318	10866
913.431	11003
913.545	10930
913.659	10972
913.772	10835
913.886	10733
914	10736
914.113	10862
914.226	10801
914.34	10774
914.453	10565
914.566	10839
914.68	10641
914.793	10672
914.906	10508
915.019	10443
915.132	10379
915.245	10481
915.358	10523
915.47	10519
915.583	10497
915.696	10554
915.809	10565
915.921	10698
916.034	10451
916.146	10405
916.259	10459
916.371	10535
916.483	10451
916.595	10341
916.708	10451
916.82	10390
916.932	10390
917.044	10398
917.156	10371
917.268	10261
917.38	10299
917.491	10295
917.603	10287
917.715	10367
917.826	10405
917.938	10291
918.049	10162
918.161	10314
918.272	10402
918.384	10504
918.495	10341
918.606	10272
918.717	10135
918.828	10177
918.939	10158
919.05	10135
919.161	10139
919.272	9960
919.383	10067
919.494	10284
919.604	10402
919.715	10257
919.826	10135
919.936	10147
920.047	10238
920.157	10242
920.267	10398
920.378	10185
920.488	10181
920.598	10379
920.708	10561
920.818	10390
920.928	10424
921.038	10569
921.148	10538
921.258	10261
921.368	10139
921.477	10082
921.587	10013
921.697	9937
921.806	10044
921.916	9991
922.025	9812
922.134	9736
922.244	9732
922.353	9774
922.462	9671
922.571	9595
922.68	9454
922.789	9481
922.898	9504
923.007	9462
923.116	9511
923.224	9447
923.333	9473
923.442	9386
923.55	9367
923.659	9313
923.767	9405
923.876	9302
923.984	9420
924.092	9218
924.201	9340
924.309	9325
924.417	9374
924.525	9332
924.633	9291
924.741	10044
924.849	9104
924.956	9237
925.064	9123
925.172	9047
925.279	9058
925.387	9203
925.494	9154
925.602	9226
925.709	9150
925.816	9001
925.924	9070
926.031	9237
926.138	9085
926.245	9142
926.352	9009
926.459	9127
926.566	9173
926.673	9097
926.779	9013
926.886	8948
926.993	8925
927.099	8826
927.206	8735
927.312	8811
927.419	8838
927.525	8804
927.631	8876
927.737	8724
927.843	8701
927.95	8625
928.056	8766
928.162	8697
928.267	8785
928.373	9351
928.479	8883
928.585	8587
928.69	8727
928.796	8693
928.901	8625
929.007	8533
929.112	8689
929.218	8636
929.323	8590
929.428	8495
929.533	8701
929.638	8446
929.743	8484
929.848	8625
929.953	8541
930.058	8511
930.163	8286
930.267	8282
930.372	8492
930.477	8332
930.581	8503
930.685	8412
930.79	8263
930.894	8282
930.998	8290
931.103	8442
931.207	8084
931.311	8001
931.415	7982
931.519	7666
931.623	7792
