Data from test_V78500241_2898.txt Node
Date: Fri Mar 25 14:53:53 CST 2022
User: usil
Spectrometer: V785-0024
Trigger mode: 0
Integration Time (sec): 4.000000E-1
Scans to average: 1
Nonlinearity correction enabled: false
Boxcar width: 0
Storing dark spectrum: false
XAxis mode: Wavelengths
Number of Pixels in Spectrum: 1024
>>>>>Begin Spectral Data<<<<<
801.071	22105
801.214	21838
801.356	21701
801.499	21542
801.641	21462
801.783	21401
801.926	21462
802.068	21218
802.211	21279
802.353	21260
802.496	20914
802.638	20883
802.78	20933
802.923	20815
803.065	20720
803.208	20632
803.35	20876
803.492	20887
803.635	20849
803.777	20708
803.919	20804
804.061	21138
804.204	20834
804.346	20720
804.488	20659
804.63	20731
804.773	20682
804.915	20777
805.057	20621
805.199	20609
805.341	20785
805.483	20670
805.626	20754
805.768	20514
805.91	20746
806.052	20777
806.194	20541
806.336	20807
806.478	20678
806.62	20659
806.762	20750
806.904	20883
807.046	20982
807.188	21070
807.33	20990
807.472	20937
807.614	20853
807.756	20963
807.898	20861
808.04	20804
808.182	20678
808.324	20743
808.465	20819
808.607	20982
808.749	20948
808.891	21294
809.033	21233
809.174	21096
809.316	20925
809.458	21024
809.6	20872
809.741	21169
809.883	21138
810.025	21123
810.166	21165
810.308	21188
810.45	21173
810.591	21070
810.733	20853
810.875	20788
811.016	20697
811.158	20712
811.299	20857
811.441	21085
811.582	20929
811.724	20834
811.865	20765
812.007	20785
812.148	20804
812.29	20838
812.431	21001
812.573	21241
812.714	21173
812.855	21321
812.997	21443
813.138	21469
813.279	21370
813.421	21291
813.562	21264
813.703	21138
813.845	20891
813.986	20670
814.127	20537
814.268	20431
814.41	20541
814.551	20362
814.692	20415
814.833	20290
814.974	20324
815.115	20499
815.256	20199
815.397	20313
815.539	20229
815.68	20111
815.821	20016
815.962	20153
816.103	20001
816.244	20020
816.385	19811
816.526	19803
816.666	19647
816.807	19457
816.948	19571
817.089	19586
817.23	19468
817.371	19491
817.512	19464
817.653	19419
817.793	19495
817.934	19468
818.075	19559
818.216	19487
818.356	19434
818.497	19289
818.638	19209
818.778	19190
818.919	19137
819.06	19168
819.2	19285
819.341	19293
819.481	19373
819.622	19590
819.762	19757
819.903	19575
820.043	19472
820.184	19396
820.324	19392
820.465	19537
820.605	19472
820.746	19422
820.886	19343
821.026	19457
821.167	19464
821.307	19491
821.447	19320
821.588	19327
821.728	19171
821.868	18913
822.008	18859
822.149	18753
822.289	18753
822.429	18555
822.569	18528
822.709	18532
822.849	18346
822.99	18350
823.13	18319
823.27	18338
823.41	18117
823.55	18144
823.69	18270
823.83	18125
823.97	18083
824.11	17954
824.25	17973
824.389	17980
824.529	18079
824.669	17912
824.809	18030
824.949	18007
825.089	17946
825.228	17935
825.368	17764
825.508	17718
825.648	17619
825.787	17695
825.927	17741
826.067	17649
826.206	17634
826.346	17760
826.485	17805
826.625	17737
826.765	17840
826.904	17836
827.044	17440
827.183	17353
827.323	17429
827.462	17463
827.601	17303
827.741	17395
827.88	17360
828.02	17258
828.159	17391
828.298	17471
828.437	17524
828.577	17326
828.716	17482
828.855	17398
828.994	17102
829.134	17143
829.273	17060
829.412	17075
829.551	17147
829.69	17124
829.829	17147
829.968	17204
830.107	17113
830.246	17151
830.385	17113
830.524	17052
830.663	16934
830.802	16873
830.941	16812
831.08	16630
831.219	16858
831.357	16702
831.496	16991
831.635	16706
831.774	16721
831.913	16717
832.051	16535
832.19	16645
832.329	16653
832.467	16516
832.606	16356
832.744	16512
832.883	16440
833.022	16363
833.16	16504
833.299	16386
833.437	16451
833.576	16512
833.714	16459
833.852	16451
833.991	16668
834.129	16542
834.267	16462
834.406	16538
834.544	16485
834.682	16485
834.821	16470
834.959	16691
835.097	16348
835.235	16588
835.373	16459
835.511	16531
835.65	16318
835.788	16443
835.926	16185
836.064	16166
836.202	16219
836.34	16405
836.478	16451
836.615	16443
836.753	16402
836.891	16443
837.029	16462
837.167	16344
837.305	16322
837.443	16272
837.58	16341
837.718	16341
837.856	16417
837.993	16215
838.131	16341
838.269	16124
838.406	16200
838.544	16078
838.681	15998
838.819	16025
838.956	15755
839.094	15819
839.231	15949
839.369	15953
839.506	16112
839.643	15972
839.781	15884
839.918	15819
840.055	15857
840.193	15774
840.33	15766
840.467	15888
840.604	15835
840.742	16059
840.879	15682
841.016	15774
841.153	15827
841.29	15918
841.427	15850
841.564	15823
841.701	15930
841.838	15755
841.975	15663
842.112	15724
842.249	15595
842.385	15553
842.522	15831
842.659	15728
842.796	15507
842.933	15603
843.069	15428
843.206	15637
843.343	15686
843.479	15545
843.616	15690
843.752	15393
843.889	15450
844.025	15530
844.162	15256
844.298	15515
844.435	15450
844.571	15393
844.708	15408
844.844	15538
844.98	15580
845.117	15469
845.253	15245
845.389	15325
845.525	15268
845.661	15226
845.798	15279
845.934	15222
846.07	15112
846.206	15218
846.342	15321
846.478	15279
846.614	15116
846.75	14842
846.886	14937
847.022	15112
847.158	15009
847.294	14948
847.429	15028
847.565	14906
847.701	15184
847.837	14670
847.972	14689
848.108	14845
848.244	14891
848.379	14640
848.515	14541
848.65	14484
848.786	14549
848.921	14511
849.057	14651
849.192	14583
849.328	14640
849.463	14560
849.598	14522
849.734	14564
849.869	14434
850.004	14290
850.14	14347
850.275	14389
850.41	14263
850.545	14267
850.68	14301
850.815	14366
850.95	14263
851.085	14484
851.22	14495
851.355	14332
851.49	14282
851.625	14309
851.76	14347
851.895	14237
852.03	14145
852.165	14214
852.299	14404
852.434	14374
852.569	14313
852.703	14450
852.838	14457
852.973	14518
853.107	14469
853.242	14336
853.376	14161
853.511	14130
853.645	14199
853.78	14343
853.914	14214
854.048	14077
854.183	14149
854.317	14206
854.451	14309
854.585	14164
854.72	14237
854.854	14298
854.988	14115
855.122	14149
855.256	14073
855.39	14081
855.524	14355
855.658	14240
855.792	14210
855.926	14183
856.06	14275
856.194	14377
856.327	14199
856.461	14298
856.595	14130
856.729	14096
856.862	14275
856.996	14214
857.13	14221
857.263	14320
857.397	14343
857.53	14252
857.664	14305
857.797	14218
857.931	14282
858.064	14183
858.197	14294
858.331	14195
858.464	14130
858.597	14016
858.731	14164
858.864	14176
858.997	14290
859.13	14256
859.263	14172
859.396	14282
859.529	14145
859.662	14195
859.795	14149
859.928	14282
860.061	14229
860.194	14355
860.327	14229
860.46	14138
860.592	14351
860.725	14259
860.858	14259
860.99	14206
861.123	14054
861.256	14172
861.388	14164
861.521	14800
861.653	14107
861.786	14035
861.918	14039
862.05	14142
862.183	14111
862.315	14221
862.447	14199
862.58	14145
862.712	13932
862.844	13947
862.976	13993
863.108	14043
863.24	14336
863.372	13925
863.504	14031
863.636	14046
863.768	14107
863.9	13928
864.032	13883
864.164	13890
864.296	14096
864.428	14092
864.559	14039
864.691	14016
864.823	14054
864.954	14039
865.086	14024
865.217	13951
865.349	13841
865.48	13906
865.612	13989
865.743	14115
865.875	13982
866.006	13947
866.137	13921
866.269	13955
866.4	13951
866.531	13883
866.662	13898
866.793	13986
866.924	13902
867.055	13879
867.186	14005
867.317	13921
867.448	13963
867.579	13845
867.71	14016
867.841	13951
867.972	13917
868.103	13875
868.233	13951
868.364	13955
868.495	14012
868.625	14157
868.756	14324
868.886	14088
869.017	14320
869.147	14290
869.278	14332
869.408	14218
869.539	14244
869.669	14320
869.799	14180
869.929	14244
870.06	14263
870.19	14533
870.32	14438
870.45	14583
870.58	14655
870.71	14769
870.84	14712
870.97	14579
871.1	14674
871.23	14765
871.36	14777
871.489	14670
871.619	14804
871.749	14845
871.879	14785
872.008	14902
872.138	14830
872.267	14834
872.397	14689
872.526	14598
872.656	14678
872.785	14686
872.915	14849
873.044	14960
873.173	14895
873.303	14796
873.432	14876
873.561	14990
873.69	14853
873.819	14800
873.948	14918
874.077	14845
874.206	14842
874.335	14937
874.464	14982
874.593	15142
874.722	15066
874.851	15119
874.979	15150
875.108	15222
875.237	15188
875.365	15112
875.494	15173
875.623	15279
875.751	15093
875.88	15203
876.008	15332
876.136	15393
876.265	15648
876.393	15789
876.521	15614
876.65	15717
876.778	15606
876.906	15526
877.034	15584
877.162	15633
877.29	15420
877.418	15637
877.546	15568
877.674	15580
877.802	15644
877.93	15549
878.058	15519
878.185	15488
878.313	15580
878.441	15648
878.568	15363
878.696	15363
878.824	15515
878.951	15660
879.079	15743
879.206	15793
879.333	15812
879.461	15564
879.588	15797
879.715	15751
879.842	15884
879.97	15641
880.097	15523
880.224	15435
880.351	15530
880.478	15386
880.605	15382
880.732	15412
880.859	15591
880.986	15435
881.112	15412
881.239	15340
881.366	15203
881.493	15188
881.619	15047
881.746	15043
881.872	15116
881.999	15062
882.125	15009
882.252	15119
882.378	15093
882.505	15199
882.631	15119
882.757	14872
882.883	14933
883.01	14933
883.136	14785
883.262	14765
883.388	14781
883.514	14891
883.64	14998
883.766	14830
883.892	14769
884.018	14746
884.143	14944
884.269	15001
884.395	14762
884.52	14552
884.646	14606
884.772	14564
884.897	14579
885.023	14640
885.148	14765
885.274	14796
885.399	14727
885.524	14655
885.65	14648
885.775	14602
885.9	14625
886.025	14750
886.15	14674
886.275	14522
886.4	14571
886.525	14697
886.65	14450
886.775	14499
886.9	14712
887.025	14819
887.149	14613
887.274	14511
887.399	14381
887.523	14412
887.648	14336
887.773	14393
887.897	14427
888.021	14526
888.146	14396
888.27	14594
888.395	14590
888.519	14484
888.643	14480
888.767	14545
888.891	14374
889.015	14267
889.139	14358
889.263	14320
889.387	14381
889.511	14511
889.635	14423
889.759	14301
889.883	14248
890.006	14218
890.13	14469
890.254	14176
890.377	14221
890.501	14081
890.624	14103
890.748	14210
890.871	14069
890.995	13978
891.118	13967
891.241	14027
891.364	13959
891.488	14168
891.611	14031
891.734	13898
891.857	14046
891.98	14001
892.103	14107
892.226	14149
892.349	14084
892.471	13879
892.594	13928
892.717	14065
892.839	13967
892.962	14043
893.085	14202
893.207	14027
893.33	13883
893.452	13890
893.575	14115
893.697	14111
893.819	14172
893.941	14164
894.064	14157
894.186	13982
894.308	13944
894.43	14096
894.552	14225
894.674	14172
894.796	14008
894.918	14145
895.04	14020
895.161	14130
895.283	14138
895.405	14062
895.526	14172
895.648	14062
895.769	14161
895.891	14221
896.012	14282
896.134	14161
896.255	14168
896.376	14149
896.498	14180
896.619	14214
896.74	14221
896.861	14168
896.982	14511
897.103	14617
897.224	14507
897.345	14381
897.466	14320
897.587	14396
897.708	14632
897.828	14533
897.949	14400
898.07	14324
898.19	14450
898.311	14636
898.431	14476
898.552	14549
898.672	14632
898.792	14610
898.913	14606
899.033	14492
899.153	14393
899.273	14339
899.393	14305
899.513	14389
899.633	14366
899.753	14396
899.873	14419
899.993	14507
900.113	14393
900.232	14377
900.352	14446
900.472	14320
900.591	14290
900.711	14275
900.83	14229
900.95	14393
901.069	14370
901.189	14221
901.308	14016
901.427	13898
901.546	13898
901.665	14050
901.784	14027
901.904	13909
902.023	13765
902.141	13559
902.26	13449
902.379	13647
902.498	13537
902.617	13422
902.735	13556
902.854	13476
902.973	13487
903.091	13160
903.21	13240
903.328	13232
903.446	13232
903.565	12989
903.683	13053
903.801	13012
903.919	12928
904.038	13076
904.156	12863
904.274	13000
904.392	12894
904.51	12848
904.627	12935
904.745	12894
904.863	13012
904.981	12658
905.098	12532
905.216	12620
905.334	12608
905.451	12703
905.569	12525
905.686	12646
905.803	12574
905.921	12361
906.038	12540
906.155	12437
906.272	12300
906.389	12433
906.506	12175
906.623	12194
906.74	12148
906.857	12007
906.974	12038
907.091	12266
907.208	12285
907.324	12258
907.441	12163
907.557	11969
907.674	11863
907.79	11893
907.907	11912
908.023	11992
908.139	11973
908.256	11824
908.372	11794
908.488	11866
908.604	11665
908.72	11688
908.836	11676
908.952	11676
909.068	11729
909.184	11707
909.3	11718
909.415	11745
909.531	11741
909.647	11482
909.762	11417
909.878	11471
909.993	11528
910.108	11376
910.224	11501
910.339	11505
910.454	11284
910.57	11337
910.685	11261
910.8	11592
910.915	11417
911.03	11326
911.145	11143
911.259	11189
911.374	11090
911.489	11162
911.604	11060
911.718	10927
911.833	10911
911.947	10885
912.062	10759
912.176	10854
912.291	10984
912.405	10900
912.519	11155
912.633	11105
912.748	10972
912.862	10885
912.976	10759
913.09	10660
913.204	10782
913.318	10816
913.431	10934
913.545	10869
913.659	10908
913.772	10755
913.886	10706
914	10637
914.113	10740
914.226	10755
914.34	10748
914.453	10523
914.566	10786
914.68	10607
914.793	10634
914.906	10428
915.019	10466
915.132	10322
915.245	10371
915.358	10360
915.47	10443
915.583	10398
915.696	10447
915.809	10519
915.921	10531
916.034	10318
916.146	10379
916.259	10344
916.371	10485
916.483	10405
916.595	10314
916.708	10405
916.82	10390
916.932	10363
917.044	10299
917.156	10261
917.268	10246
917.38	10306
917.491	10318
917.603	10295
917.715	10337
917.826	10344
917.938	10272
918.049	10105
918.161	10253
918.272	10352
918.384	10352
918.495	10299
918.606	10143
918.717	10048
918.828	10234
918.939	10238
919.05	10063
919.161	10128
919.272	10010
919.383	10002
919.494	10204
919.604	10455
919.715	10265
919.826	10112
919.936	10147
920.047	10314
920.157	10173
920.267	10447
920.378	10238
920.488	10147
920.598	10432
920.708	10523
920.818	10394
920.928	10329
921.038	10519
921.148	10474
921.258	10291
921.368	10139
921.477	9998
921.587	9994
921.697	10032
921.806	10109
921.916	9918
922.025	9800
922.134	9778
922.244	9660
922.353	9816
922.462	9709
922.571	9614
922.68	9507
922.789	9416
922.898	9538
923.007	9435
923.116	9549
923.224	9408
923.333	9450
923.442	9310
923.55	9325
923.659	9428
923.767	9466
923.876	9317
923.984	9393
924.092	9283
924.201	9313
924.309	9351
924.417	9313
924.525	9249
924.633	9386
924.741	10238
924.849	9112
924.956	9222
925.064	9108
925.172	9028
925.279	9085
925.387	9119
925.494	9070
925.602	9233
925.709	9195
925.816	9066
925.924	9112
926.031	9211
926.138	9104
926.245	9157
926.352	9020
926.459	9165
926.566	9233
926.673	9020
926.779	8971
926.886	8979
926.993	8834
927.099	8788
927.206	8758
927.312	8746
927.419	8876
927.525	8849
927.631	8876
927.737	8815
927.843	8746
927.95	8686
928.056	8708
928.162	8705
928.267	8701
928.373	9435
928.479	8838
928.585	8602
928.69	8720
928.796	8735
928.901	8629
929.007	8606
929.112	8670
929.218	8598
929.323	8571
929.428	8564
929.533	8708
929.638	8476
929.743	8526
929.848	8587
929.953	8522
930.058	8461
930.163	8290
930.267	8317
930.372	8522
930.477	8298
930.581	8568
930.685	8396
930.79	8240
930.894	8290
930.998	8233
931.103	8351
931.207	8077
931.311	8027
931.415	7947
931.519	7685
931.623	7803
