Data from test_V78500241_1116.txt Node
Date: Fri Mar 25 14:41:29 CST 2022
User: usil
Spectrometer: V785-0024
Trigger mode: 0
Integration Time (sec): 4.000000E-1
Scans to average: 1
Nonlinearity correction enabled: false
Boxcar width: 0
Storing dark spectrum: false
XAxis mode: Wavelengths
Number of Pixels in Spectrum: 1024
>>>>>Begin Spectral Data<<<<<
801.071	22687
801.214	22569
801.356	22428
801.499	22185
801.641	22055
801.783	21922
801.926	22253
802.068	21953
802.211	21846
802.353	21819
802.496	21652
802.638	21591
802.78	21477
802.923	21477
803.065	21329
803.208	21363
803.35	21344
803.492	21473
803.635	21488
803.777	21310
803.919	21557
804.061	21819
804.204	21408
804.346	21256
804.488	21116
804.63	21222
804.773	21241
804.915	21252
805.057	21359
805.199	21226
805.341	21416
805.483	21359
805.626	21325
805.768	21165
805.91	21306
806.052	21310
806.194	21370
806.336	21492
806.478	21321
806.62	21283
806.762	21447
806.904	21515
807.046	21717
807.188	21755
807.33	21587
807.472	21759
807.614	21557
807.756	21686
807.898	21618
808.04	21496
808.182	21466
808.324	21466
808.465	21625
808.607	21899
808.749	22070
808.891	22086
809.033	22158
809.174	21994
809.316	22051
809.458	21869
809.6	21785
809.741	22002
809.883	21892
810.025	21941
810.166	21949
810.308	21884
810.45	21926
810.591	21774
810.733	21610
810.875	21561
811.016	21431
811.158	21549
811.299	21530
811.441	21591
811.582	21583
811.724	21515
811.865	21405
812.007	21542
812.148	21587
812.29	21428
812.431	21736
812.573	21751
812.714	21991
812.855	22029
812.997	22109
813.138	22261
813.279	22074
813.421	22002
813.562	21816
813.703	21755
813.845	21690
813.986	21439
814.127	21336
814.268	21188
814.41	21047
814.551	21142
814.692	21123
814.833	20739
814.974	20963
815.115	20941
815.256	20773
815.397	20804
815.539	20937
815.68	20857
815.821	20678
815.962	20899
816.103	20861
816.244	20613
816.385	20461
816.526	20469
816.666	20393
816.807	20210
816.948	20305
817.089	20355
817.23	20153
817.371	20122
817.512	20153
817.653	20157
817.793	20218
817.934	20176
818.075	20172
818.216	20153
818.356	20031
818.497	19974
818.638	19875
818.778	19890
818.919	19826
819.06	19883
819.2	20016
819.341	20050
819.481	20005
819.622	20142
819.762	20499
819.903	20259
820.043	20290
820.184	20088
820.324	20157
820.465	20271
820.605	20161
820.746	20221
820.886	20054
821.026	20096
821.167	20073
821.307	20164
821.447	20168
821.588	19959
821.728	19890
821.868	19738
822.008	19601
822.149	19502
822.289	19609
822.429	19285
822.569	19263
822.709	19259
822.849	19088
822.99	19114
823.13	18977
823.27	18993
823.41	18882
823.55	18806
823.69	18935
823.83	18920
823.97	18745
824.11	18601
824.25	18612
824.389	18623
824.529	18654
824.669	18635
824.809	18760
824.949	18878
825.089	18719
825.228	18658
825.368	18445
825.508	18330
825.648	18521
825.787	18528
825.927	18555
826.067	18391
826.206	18475
826.346	18410
826.485	18384
826.625	18361
826.765	18486
826.904	18456
827.044	18174
827.183	18178
827.323	18057
827.462	18148
827.601	18057
827.741	18060
827.88	18125
828.02	17946
828.159	18045
828.298	18140
828.437	18232
828.577	18087
828.716	18224
828.855	18190
828.994	17901
829.134	17798
829.273	17923
829.412	17847
829.551	17859
829.69	17866
829.829	17961
829.968	17942
830.107	17977
830.246	17931
830.385	17752
830.524	17855
830.663	17710
830.802	17535
830.941	17406
831.08	17455
831.219	17535
831.357	17535
831.496	17661
831.635	17532
831.774	17360
831.913	17345
832.051	17231
832.19	17242
832.329	17379
832.467	17147
832.606	17178
832.744	17258
832.883	17258
833.022	17227
833.16	17113
833.299	17250
833.437	17227
833.576	17208
833.714	17143
833.852	17254
833.991	17368
834.129	17353
834.267	17269
834.406	17246
834.544	17239
834.682	17292
834.821	17277
834.959	17398
835.097	17143
835.235	17311
835.373	17261
835.511	17292
835.65	17227
835.788	17147
835.926	16972
836.064	16946
836.202	17010
836.34	17200
836.478	17242
836.615	17056
836.753	17204
836.891	17197
837.029	17239
837.167	17033
837.305	17029
837.443	16923
837.58	16961
837.718	17128
837.856	17018
837.993	17033
838.131	17033
838.269	16976
838.406	17056
838.544	16946
838.681	16736
838.819	16653
838.956	16611
839.094	16512
839.231	16645
839.369	16755
839.506	16835
839.643	16816
839.781	16611
839.918	16428
840.055	16630
840.193	16577
840.33	16474
840.467	16428
840.604	16447
840.742	16904
840.879	16440
841.016	16417
841.153	16481
841.29	16782
841.427	16573
841.564	16569
841.701	16596
841.838	16519
841.975	16436
842.112	16478
842.249	16447
842.385	16295
842.522	16535
842.659	16402
842.796	16284
842.933	16318
843.069	16314
843.206	16192
843.343	16348
843.479	16299
843.616	16398
843.752	16135
843.889	16048
844.025	16310
844.162	16188
844.298	16230
844.435	16150
844.571	16071
844.708	16192
844.844	16154
844.98	16246
845.117	16268
845.253	16166
845.389	16071
845.525	16169
845.661	16223
845.798	16207
845.934	16272
846.07	16249
846.206	16382
846.342	16310
846.478	16105
846.614	15873
846.75	15728
846.886	15679
847.022	15808
847.158	15774
847.294	15724
847.429	15663
847.565	15610
847.701	15869
847.837	15481
847.972	15348
848.108	15481
848.244	15435
848.379	15302
848.515	15199
848.65	15214
848.786	15256
848.921	15245
849.057	15241
849.192	15317
849.328	15351
849.463	15195
849.598	15279
849.734	15142
849.869	15127
850.004	15017
850.14	15169
850.275	15036
850.41	14887
850.545	14933
850.68	14979
850.815	15009
850.95	15024
851.085	15249
851.22	15039
851.355	15013
851.49	15017
851.625	14887
851.76	15058
851.895	14895
852.03	14868
852.165	14956
852.299	15104
852.434	15119
852.569	15100
852.703	15066
852.838	15138
852.973	15154
853.107	15222
853.242	15017
853.376	14933
853.511	14769
853.645	14849
853.78	14998
853.914	14982
854.048	14887
854.183	14849
854.317	14986
854.451	15077
854.585	14899
854.72	14853
854.854	14895
854.988	14834
855.122	14861
855.256	14693
855.39	14811
855.524	14948
855.658	14933
855.792	14979
855.926	14952
856.06	14994
856.194	15017
856.327	14815
856.461	14792
856.595	14921
856.729	14857
856.862	14914
856.996	14906
857.13	14982
857.263	14937
857.397	14963
857.53	14891
857.664	15001
857.797	14910
857.931	15043
858.064	14990
858.197	14982
858.331	14937
858.464	14845
858.597	14750
858.731	14769
858.864	14891
858.997	14864
859.13	14956
859.263	14998
859.396	14925
859.529	14853
859.662	14864
859.795	14902
859.928	14861
860.061	14982
860.194	15039
860.327	14929
860.46	14918
860.592	14956
860.725	15032
860.858	14967
860.99	14880
861.123	14838
861.256	14868
861.388	14872
861.521	15507
861.653	14701
861.786	14697
861.918	14735
862.05	14727
862.183	14956
862.315	14834
862.447	14853
862.58	14838
862.712	14845
862.844	14560
862.976	14686
863.108	14781
863.24	15131
863.372	14625
863.504	14621
863.636	14575
863.768	14735
863.9	14587
864.032	14617
864.164	14625
864.296	14667
864.428	14762
864.559	14701
864.691	14773
864.823	14746
864.954	14697
865.086	14689
865.217	14602
865.349	14522
865.48	14545
865.612	14697
865.743	14815
865.875	14682
866.006	14606
866.137	14621
866.269	14674
866.4	14655
866.531	14629
866.662	14495
866.793	14625
866.924	14632
867.055	14686
867.186	14644
867.317	14575
867.448	14541
867.579	14560
867.71	14476
867.841	14575
867.972	14670
868.103	14602
868.233	14648
868.364	14644
868.495	14800
868.625	14796
868.756	14887
868.886	14781
869.017	14857
869.147	14918
869.278	14868
869.408	14956
869.539	14872
869.669	14918
869.799	14872
869.929	14994
870.06	14910
870.19	15188
870.32	15150
870.45	15233
870.58	15283
870.71	15389
870.84	15287
870.97	15264
871.1	15211
871.23	15469
871.36	15386
871.489	15355
871.619	15351
871.749	15382
871.879	15504
872.008	15580
872.138	15443
872.267	15374
872.397	15374
872.526	15393
872.656	15211
872.785	15313
872.915	15443
873.044	15587
873.173	15466
873.303	15507
873.432	15481
873.561	15553
873.69	15572
873.819	15564
873.948	15641
874.077	15519
874.206	15439
874.335	15515
874.464	15614
874.593	15766
874.722	15728
874.851	15797
874.979	15835
875.108	15884
875.237	15732
875.365	15682
875.494	15747
875.623	15895
875.751	15789
875.88	15865
876.008	15915
876.136	16013
876.265	16284
876.393	16424
876.521	16318
876.65	16424
876.778	16268
876.906	16200
877.034	16204
877.162	16158
877.29	16185
877.418	16382
877.546	16185
877.674	16181
877.802	16181
877.93	16215
878.058	16246
878.185	16101
878.313	16344
878.441	16291
878.568	16162
878.696	16268
878.824	16390
878.951	16470
879.079	16580
879.206	16668
879.333	16596
879.461	16474
879.588	16550
879.715	16550
879.842	16641
879.97	16413
880.097	16230
880.224	16074
880.351	16150
880.478	16158
880.605	16109
880.732	16147
880.859	16303
880.986	16071
881.112	16169
881.239	16048
881.366	16002
881.493	15816
881.619	15865
881.746	15819
881.872	15895
881.999	15778
882.125	15861
882.252	15884
882.378	15793
882.505	16048
882.631	15736
882.757	15538
882.883	15660
883.01	15603
883.136	15496
883.262	15424
883.388	15435
883.514	15629
883.64	15534
883.766	15469
883.892	15389
884.018	15447
884.143	15542
884.269	15675
884.395	15443
884.52	15241
884.646	15226
884.772	15207
884.897	15157
885.023	15306
885.148	15306
885.274	15435
885.399	15386
885.524	15325
885.65	15233
885.775	15336
885.9	15313
886.025	15435
886.15	15313
886.275	15207
886.4	15169
886.525	15325
886.65	15184
886.775	15203
886.9	15344
887.025	15492
887.149	15291
887.274	15138
887.399	15062
887.523	15070
887.648	15039
887.773	14986
887.897	15184
888.021	15176
888.146	15104
888.27	15100
888.395	15188
888.519	15180
888.643	15165
888.767	15131
888.891	14944
889.015	14933
889.139	14975
889.263	14960
889.387	15089
889.511	15074
889.635	15020
889.759	14853
889.883	15039
890.006	14979
890.13	15013
890.254	14765
890.377	14845
890.501	14629
890.624	14648
890.748	14773
890.871	14667
890.995	14575
891.118	14518
891.241	14598
891.364	14598
891.488	14731
891.611	14568
891.734	14602
891.857	14727
891.98	14686
892.103	14743
892.226	14655
892.349	14610
892.471	14408
892.594	14579
892.717	14667
892.839	14632
892.962	14602
893.085	14659
893.207	14621
893.33	14442
893.452	14549
893.575	14629
893.697	14560
893.819	14819
893.941	14830
894.064	14724
894.186	14530
894.308	14552
894.43	14686
894.552	14857
894.674	14701
894.796	14571
894.918	14629
895.04	14636
895.161	14769
895.283	14769
895.405	14678
895.526	14617
895.648	14682
895.769	14739
895.891	14785
896.012	14807
896.134	14819
896.255	14724
896.376	14746
896.498	14777
896.619	14834
896.74	14716
896.861	14979
896.982	15074
897.103	15233
897.224	15146
897.345	14902
897.466	14906
897.587	15032
897.708	15138
897.828	15097
897.949	14906
898.07	14849
898.19	14941
898.311	15218
898.431	14990
898.552	15150
898.672	15097
898.792	15165
898.913	15173
899.033	15032
899.153	14994
899.273	14849
899.393	14979
899.513	14990
899.633	14902
899.753	14952
899.873	14910
899.993	15009
900.113	14944
900.232	15013
900.352	14952
900.472	14838
900.591	14842
900.711	14792
900.83	14785
900.95	14868
901.069	14990
901.189	14655
901.308	14587
901.427	14355
901.546	14511
901.665	14495
901.784	14427
901.904	14362
902.023	14244
902.141	14107
902.26	14096
902.379	14195
902.498	14065
902.617	14119
902.735	14016
902.854	14062
902.973	13917
903.091	13837
903.21	13750
903.328	13746
903.446	13639
903.565	13533
903.683	13537
903.801	13525
903.919	13499
904.038	13472
904.156	13384
904.274	13460
904.392	13362
904.51	13453
904.627	13430
904.745	13449
904.863	13460
904.981	13194
905.098	13152
905.216	13149
905.334	13198
905.451	13099
905.569	13080
905.686	13118
905.803	13023
905.921	12882
906.038	13019
906.155	12951
906.272	12814
906.389	12760
906.506	12795
906.623	12734
906.74	12631
906.857	12639
906.974	12551
907.091	12715
907.208	12821
907.324	12719
907.441	12620
907.557	12486
907.674	12437
907.79	12372
907.907	12407
908.023	12380
908.139	12448
908.256	12342
908.372	12281
908.488	12311
908.604	12239
908.72	12129
908.836	12163
908.952	12133
909.068	12228
909.184	12209
909.3	12213
909.415	12205
909.531	12106
909.647	11885
909.762	11958
909.878	11927
909.993	12045
910.108	11942
910.224	11878
910.339	11942
910.454	11840
910.57	11760
910.685	11771
910.8	11931
910.915	11973
911.03	11809
911.145	11642
911.259	11638
911.374	11615
911.489	11562
911.604	11429
911.718	11311
911.833	11440
911.947	11326
912.062	11231
912.176	11356
912.291	11391
912.405	11296
912.519	11581
912.633	11646
912.748	11421
912.862	11311
912.976	11277
913.09	11159
913.204	11193
913.318	11265
913.431	11349
913.545	11326
913.659	11322
913.772	11231
913.886	11162
914	11174
914.113	11143
914.226	11288
914.34	11201
914.453	11037
914.566	11204
914.68	11018
914.793	11045
914.906	10942
915.019	10843
915.132	10763
915.245	10831
915.358	10771
915.47	10946
915.583	10885
915.696	10923
915.809	10999
915.921	10915
916.034	10752
916.146	10805
916.259	10831
916.371	10877
916.483	10915
916.595	10748
916.708	10771
916.82	10748
916.932	10714
917.044	10774
917.156	10744
917.268	10668
917.38	10672
917.491	10736
917.603	10721
917.715	10778
917.826	10721
917.938	10626
918.049	10596
918.161	10664
918.272	10847
918.384	10740
918.495	10698
918.606	10588
918.717	10500
918.828	10599
918.939	10580
919.05	10535
919.161	10599
919.272	10306
919.383	10386
919.494	10626
919.604	10710
919.715	10653
919.826	10554
919.936	10565
920.047	10675
920.157	10565
920.267	10782
920.378	10599
920.488	10550
920.598	10702
920.708	10892
920.818	10683
920.928	10744
921.038	10938
921.148	10797
921.258	10641
921.368	10440
921.477	10413
921.587	10356
921.697	10242
921.806	10352
921.916	10299
922.025	10109
922.134	10166
922.244	10002
922.353	10078
922.462	10010
922.571	9869
922.68	9804
922.789	9770
922.898	9854
923.007	9770
923.116	9743
923.224	9724
923.333	9705
923.442	9740
923.55	9648
923.659	9667
923.767	9713
923.876	9618
923.984	9679
924.092	9606
924.201	9587
924.309	9679
924.417	9561
924.525	9500
924.633	9656
924.741	10299
924.849	9397
924.956	9572
925.064	9492
925.172	9386
925.279	9382
925.387	9401
925.494	9420
925.602	9679
925.709	9473
925.816	9336
925.924	9428
926.031	9477
926.138	9424
926.245	9523
926.352	9351
926.459	9515
926.566	9511
926.673	9386
926.779	9283
926.886	9268
926.993	9161
927.099	9142
927.206	9081
927.312	9112
927.419	9169
927.525	9089
927.631	9150
927.737	9108
927.843	9036
927.95	8921
928.056	8986
928.162	9081
928.267	8998
928.373	9641
928.479	9074
928.585	8872
928.69	9028
928.796	9039
928.901	8914
929.007	8815
929.112	8910
929.218	8887
929.323	8834
929.428	8785
929.533	8990
929.638	8750
929.743	8785
929.848	8792
929.953	8811
930.058	8682
930.163	8568
930.267	8560
930.372	8697
930.477	8579
930.581	8773
930.685	8659
930.79	8488
930.894	8594
930.998	8469
931.103	8674
931.207	8328
931.311	8313
931.415	8225
931.519	8039
931.623	8024
