Data from test_V78500241_1205.txt Node
Date: Fri Mar 25 14:42:06 CST 2022
User: usil
Spectrometer: V785-0024
Trigger mode: 0
Integration Time (sec): 4.000000E-1
Scans to average: 1
Nonlinearity correction enabled: false
Boxcar width: 0
Storing dark spectrum: false
XAxis mode: Wavelengths
Number of Pixels in Spectrum: 1024
>>>>>Begin Spectral Data<<<<<
801.071	22459
801.214	22150
801.356	22044
801.499	21987
801.641	21857
801.783	21850
801.926	21759
802.068	21819
802.211	21713
802.353	21682
802.496	21336
802.638	21386
802.78	21317
802.923	21203
803.065	20994
803.208	21142
803.35	21218
803.492	21272
803.635	21291
803.777	21165
803.919	21302
804.061	21622
804.204	21325
804.346	21108
804.488	21017
804.63	21127
804.773	21001
804.915	21138
805.057	21176
805.199	21131
805.341	21218
805.483	21165
805.626	21135
805.768	21013
805.91	21020
806.052	21116
806.194	20963
806.336	21146
806.478	21066
806.62	20982
806.762	21195
806.904	21252
807.046	21408
807.188	21416
807.33	21363
807.472	21496
807.614	21355
807.756	21405
807.898	21344
808.04	21207
808.182	21214
808.324	21275
808.465	21291
808.607	21386
808.749	21572
808.891	21629
809.033	21641
809.174	21595
809.316	21439
809.458	21523
809.6	21435
809.741	21507
809.883	21466
810.025	21713
810.166	21679
810.308	21736
810.45	21591
810.591	21496
810.733	21469
810.875	21359
811.016	21104
811.158	21142
811.299	21473
811.441	21405
811.582	21317
811.724	21226
811.865	21298
812.007	21363
812.148	21233
812.29	21367
812.431	21279
812.573	21572
812.714	21599
812.855	21850
812.997	21797
813.138	22021
813.279	21857
813.421	21652
813.562	21690
813.703	21599
813.845	21481
813.986	21108
814.127	21032
814.268	20830
814.41	20861
814.551	20906
814.692	20887
814.833	20735
814.974	20823
815.115	20769
815.256	20636
815.397	20579
815.539	20678
815.68	20423
815.821	20530
815.962	20556
816.103	20507
816.244	20442
816.385	20282
816.526	20286
816.666	20058
816.807	19906
816.948	20027
817.089	20027
817.23	19997
817.371	19997
817.512	20065
817.653	19883
817.793	19932
817.934	20001
818.075	20008
818.216	19955
818.356	19913
818.497	19803
818.638	19681
818.778	19514
818.919	19647
819.06	19624
819.2	19715
819.341	19936
819.481	19791
819.622	19913
819.762	20164
819.903	20016
820.043	19955
820.184	19997
820.324	19936
820.465	20054
820.605	19955
820.746	19909
820.886	19765
821.026	19940
821.167	19936
821.307	19970
821.447	19883
821.588	19742
821.728	19685
821.868	19487
822.008	19339
822.149	19293
822.289	19312
822.429	19080
822.569	19156
822.709	19019
822.849	18993
822.99	18863
823.13	18764
823.27	18810
823.41	18661
823.55	18532
823.69	18741
823.83	18631
823.97	18494
824.11	18456
824.25	18384
824.389	18437
824.529	18517
824.669	18414
824.809	18574
824.949	18601
825.089	18475
825.228	18422
825.368	18289
825.508	18270
825.648	18205
825.787	18228
825.927	18251
826.067	18133
826.206	18197
826.346	18167
826.485	18190
826.625	18174
826.765	18308
826.904	18136
827.044	18079
827.183	17901
827.323	17908
827.462	18041
827.601	17916
827.741	17821
827.88	17935
828.02	17821
828.159	17882
828.298	17927
828.437	17912
828.577	17882
828.716	18049
828.855	17870
828.994	17668
829.134	17783
829.273	17714
829.412	17615
829.551	17638
829.69	17573
829.829	17703
829.968	17805
830.107	17737
830.246	17668
830.385	17699
830.524	17611
830.663	17471
830.802	17448
830.941	17280
831.08	17315
831.219	17261
831.357	17383
831.496	17577
831.635	17467
831.774	17170
831.913	17185
832.051	17052
832.19	17094
832.329	17090
832.467	17018
832.606	16946
832.744	17025
832.883	17022
833.022	16946
833.16	16976
833.299	17010
833.437	17029
833.576	16976
833.714	17185
833.852	17090
833.991	17075
834.129	17010
834.267	17189
834.406	17006
834.544	16991
834.682	17098
834.821	17010
834.959	17170
835.097	17041
835.235	17155
835.373	17086
835.511	17045
835.65	16923
835.788	16942
835.926	16862
836.064	16748
836.202	16725
836.34	17010
836.478	16991
836.615	16915
836.753	17006
836.891	16915
837.029	16968
837.167	16866
837.305	16873
837.443	16831
837.58	16843
837.718	16881
837.856	16767
837.993	16596
838.131	16839
838.269	16782
838.406	16793
838.544	16691
838.681	16645
838.819	16462
838.956	16382
839.094	16424
839.231	16325
839.369	16561
839.506	16797
839.643	16592
839.781	16409
839.918	16379
840.055	16428
840.193	16382
840.33	16390
840.467	16375
840.604	16402
840.742	16573
840.879	16185
841.016	16265
841.153	16314
841.29	16573
841.427	16371
841.564	16314
841.701	16398
841.838	16344
841.975	16284
842.112	16367
842.249	16131
842.385	16078
842.522	16299
842.659	16101
842.796	16226
842.933	16211
843.069	16109
843.206	16158
843.343	16234
843.479	16124
843.616	16116
843.752	15998
843.889	15964
844.025	16063
844.162	15857
844.298	16101
844.435	15865
844.571	15854
844.708	16067
844.844	16101
844.98	16093
845.117	16112
845.253	15915
845.389	15907
845.525	15846
845.661	15918
845.798	15797
845.934	15808
846.07	15857
846.206	15915
846.342	15975
846.478	15739
846.614	15644
846.75	15526
846.886	15515
847.022	15648
847.158	15523
847.294	15538
847.429	15549
847.565	15500
847.701	15644
847.837	15135
847.972	15097
848.108	15325
848.244	15321
848.379	15184
848.515	15005
848.65	15039
848.786	15039
848.921	15131
849.057	15245
849.192	15150
849.328	15233
849.463	15131
849.598	15001
849.734	15039
849.869	14941
850.004	14933
850.14	14861
850.275	14853
850.41	14785
850.545	14830
850.68	14762
850.815	14788
850.95	14849
851.085	14956
851.22	14887
851.355	14994
851.49	14834
851.625	14765
851.76	14800
851.895	14731
852.03	14735
852.165	14910
852.299	14914
852.434	14887
852.569	14975
852.703	14880
852.838	14937
852.973	15017
853.107	14998
853.242	14785
853.376	14701
853.511	14640
853.645	14670
853.78	14750
853.914	14739
854.048	14731
854.183	14739
854.317	14670
854.451	14857
854.585	14663
854.72	14648
854.854	14823
854.988	14686
855.122	14739
855.256	14651
855.39	14674
855.524	14769
855.658	14804
855.792	14648
855.926	14807
856.06	14769
856.194	14781
856.327	14773
856.461	14659
856.595	14667
856.729	14777
856.862	14796
856.996	14838
857.13	14746
857.263	14895
857.397	14842
857.53	14765
857.664	14758
857.797	14807
857.931	14921
858.064	14727
858.197	14826
858.331	14712
858.464	14800
858.597	14617
858.731	14689
858.864	14689
858.997	14594
859.13	14777
859.263	14743
859.396	14845
859.529	14720
859.662	14644
859.795	14674
859.928	14823
860.061	15009
860.194	14914
860.327	14739
860.46	14750
860.592	14853
860.725	14807
860.858	14857
860.99	14701
861.123	14659
861.256	14674
861.388	14743
861.521	15424
861.653	14621
861.786	14537
861.918	14587
862.05	14579
862.183	14621
862.315	14693
862.447	14815
862.58	14651
862.712	14427
862.844	14408
862.976	14541
863.108	14461
863.24	14925
863.372	14473
863.504	14518
863.636	14495
863.768	14484
863.9	14533
864.032	14446
864.164	14457
864.296	14499
864.428	14594
864.559	14564
864.691	14469
864.823	14514
864.954	14461
865.086	14514
865.217	14518
865.349	14351
865.48	14450
865.612	14492
865.743	14571
865.875	14446
866.006	14511
866.137	14438
866.269	14396
866.4	14465
866.531	14396
866.662	14385
866.793	14484
866.924	14442
867.055	14457
867.186	14400
867.317	14385
867.448	14374
867.579	14404
867.71	14320
867.841	14389
867.972	14431
868.103	14503
868.233	14442
868.364	14526
868.495	14522
868.625	14701
868.756	14800
868.886	14632
869.017	14689
869.147	14838
869.278	14788
869.408	14743
869.539	14743
869.669	14788
869.799	14754
869.929	14788
870.06	14754
870.19	15085
870.32	14929
870.45	15066
870.58	15123
870.71	15268
870.84	15325
870.97	15070
871.1	15017
871.23	15252
871.36	15336
871.489	15218
871.619	15397
871.749	15306
871.879	15408
872.008	15340
872.138	15367
872.267	15268
872.397	15199
872.526	15112
872.656	15176
872.785	15173
872.915	15306
873.044	15355
873.173	15401
873.303	15401
873.432	15466
873.561	15389
873.69	15367
873.819	15408
873.948	15462
874.077	15393
874.206	15374
874.335	15454
874.464	15496
874.593	15667
874.722	15656
874.851	15747
874.979	15751
875.108	15789
875.237	15690
875.365	15545
875.494	15625
875.623	15694
875.751	15633
875.88	15781
876.008	15907
876.136	15888
876.265	16078
876.393	16265
876.521	16166
876.65	16086
876.778	16135
876.906	15972
877.034	16013
877.162	16215
877.29	16055
877.418	16055
877.546	16143
877.674	16082
877.802	16101
877.93	16116
878.058	16112
878.185	15953
878.313	16067
878.441	16010
878.568	15857
878.696	16078
878.824	16158
878.951	16265
879.079	16310
879.206	16352
879.333	16310
879.461	16059
879.588	16265
879.715	16394
879.842	16474
879.97	16188
880.097	16017
880.224	15812
880.351	16044
880.478	15953
880.605	15934
880.732	15835
880.859	16192
880.986	16055
881.112	15846
881.239	15857
881.366	15747
881.493	15610
881.619	15538
881.746	15648
881.872	15606
881.999	15519
882.125	15519
882.252	15660
882.378	15625
882.505	15705
882.631	15584
882.757	15374
882.883	15443
883.01	15424
883.136	15359
883.262	15329
883.388	15294
883.514	15549
883.64	15443
883.766	15363
883.892	15260
884.018	15317
884.143	15313
884.269	15481
884.395	15180
884.52	15066
884.646	15150
884.772	14910
884.897	15135
885.023	15127
885.148	15195
885.274	15313
885.399	15203
885.524	15009
885.65	15169
885.775	15093
885.9	15055
886.025	15169
886.15	15169
886.275	14986
886.4	14994
886.525	15036
886.65	15058
886.775	15058
886.9	15237
887.025	15325
887.149	15085
887.274	14933
887.399	14899
887.523	14895
887.648	14914
887.773	14800
887.897	15058
888.021	15055
888.146	14876
888.27	14998
888.395	15032
888.519	14902
888.643	14963
888.767	14967
888.891	14823
889.015	14743
889.139	14834
889.263	14823
889.387	14686
889.511	14971
889.635	14826
889.759	14724
889.883	14765
890.006	14872
890.13	14845
890.254	14731
890.377	14705
890.501	14629
890.624	14598
890.748	14503
890.871	14518
890.995	14358
891.118	14305
891.241	14549
891.364	14469
891.488	14613
891.611	14533
891.734	14400
891.857	14526
891.98	14488
892.103	14575
892.226	14366
892.349	14484
892.471	14309
892.594	14434
892.717	14446
892.839	14427
892.962	14362
893.085	14564
893.207	14431
893.33	14374
893.452	14339
893.575	14568
893.697	14476
893.819	14648
893.941	14724
894.064	14674
894.186	14564
894.308	14427
894.43	14541
894.552	14667
894.674	14636
894.796	14450
894.918	14511
895.04	14549
895.161	14670
895.283	14537
895.405	14530
895.526	14533
895.648	14545
895.769	14488
895.891	14727
896.012	14678
896.134	14625
896.255	14629
896.376	14708
896.498	14625
896.619	14754
896.74	14541
896.861	14804
896.982	14998
897.103	15043
897.224	14960
897.345	14887
897.466	14811
897.587	14902
897.708	15085
897.828	14944
897.949	14853
898.07	14762
898.19	14899
898.311	15116
898.431	14830
898.552	14876
898.672	15024
898.792	15089
898.913	15009
899.033	14876
899.153	14842
899.273	14667
899.393	14777
899.513	14845
899.633	14758
899.753	14883
899.873	14781
899.993	14826
900.113	14796
900.232	14925
900.352	14739
900.472	14735
900.591	14606
900.711	14636
900.83	14750
900.95	14788
901.069	14842
901.189	14533
901.308	14385
901.427	14305
901.546	14240
901.665	14412
901.784	14351
901.904	14202
902.023	14157
902.141	13974
902.26	13940
902.379	13986
902.498	13894
902.617	13902
902.735	13928
902.854	13925
902.973	13830
903.091	13575
903.21	13548
903.328	13594
903.446	13567
903.565	13441
903.683	13491
903.801	13438
903.919	13449
904.038	13457
904.156	13278
904.274	13289
904.392	13259
904.51	13244
904.627	13187
904.745	13259
904.863	13339
904.981	13069
905.098	12916
905.216	12985
905.334	12973
905.451	12932
905.569	12928
905.686	12935
905.803	12981
905.921	12703
906.038	12890
906.155	12749
906.272	12684
906.389	12776
906.506	12551
906.623	12536
906.74	12551
906.857	12433
906.974	12448
907.091	12662
907.208	12722
907.324	12559
907.441	12422
907.557	12361
907.674	12342
907.79	12232
907.907	12311
908.023	12353
908.139	12346
908.256	12247
908.372	12197
908.488	12140
908.604	12057
908.72	12053
908.836	12076
908.952	12068
909.068	12129
909.184	12125
909.3	11961
909.415	12083
909.531	12091
909.647	11878
909.762	11843
909.878	11733
909.993	11794
910.108	11874
910.224	11859
910.339	11794
910.454	11752
910.57	11638
910.685	11634
910.8	11855
910.915	11866
911.03	11745
911.145	11524
911.259	11497
911.374	11543
911.489	11414
911.604	11383
911.718	11235
911.833	11284
911.947	11204
912.062	11117
912.176	11227
912.291	11280
912.405	11261
912.519	11440
912.633	11459
912.748	11353
912.862	11322
912.976	11174
913.09	10965
913.204	11052
913.318	11204
913.431	11124
913.545	11246
913.659	11220
913.772	11098
913.886	11014
914	11029
914.113	11086
914.226	11181
914.34	11006
914.453	10911
914.566	11143
914.68	10972
914.793	10892
914.906	10786
915.019	10771
915.132	10706
915.245	10763
915.358	10748
915.47	10793
915.583	10809
915.696	10862
915.809	10961
915.921	10934
916.034	10774
916.146	10668
916.259	10630
916.371	10763
916.483	10744
916.595	10736
916.708	10660
916.82	10706
916.932	10668
917.044	10573
917.156	10626
917.268	10523
917.38	10596
917.491	10519
917.603	10630
917.715	10637
917.826	10733
917.938	10538
918.049	10481
918.161	10596
918.272	10675
918.384	10748
918.495	10599
918.606	10447
918.717	10375
918.828	10424
918.939	10424
919.05	10424
919.161	10455
919.272	10223
919.383	10333
919.494	10531
919.604	10653
919.715	10455
919.826	10405
919.936	10417
920.047	10516
920.157	10440
920.267	10744
920.378	10428
920.488	10489
920.598	10596
920.708	10881
920.818	10588
920.928	10641
921.038	10828
921.148	10820
921.258	10519
921.368	10428
921.477	10348
921.587	10306
921.697	10200
921.806	10333
921.916	10227
922.025	10143
922.134	9945
922.244	9994
922.353	10017
922.462	9899
922.571	9774
922.68	9701
922.789	9625
922.898	9755
923.007	9682
923.116	9751
923.224	9698
923.333	9698
923.442	9660
923.55	9443
923.659	9675
923.767	9633
923.876	9610
923.984	9648
924.092	9428
924.201	9561
924.309	9545
924.417	9561
924.525	9561
924.633	9500
924.741	10261
924.849	9359
924.956	9504
925.064	9332
925.172	9306
925.279	9279
925.387	9370
925.494	9359
925.602	9496
925.709	9488
925.816	9287
925.924	9340
926.031	9443
926.138	9351
926.245	9363
926.352	9287
926.459	9321
926.566	9416
926.673	9256
926.779	9218
926.886	9176
926.993	9074
927.099	9024
927.206	9047
927.312	8990
927.419	9089
927.525	9017
927.631	9085
927.737	8986
927.843	8899
927.95	8777
928.056	8887
928.162	8982
928.267	8986
928.373	9610
928.479	9039
928.585	8792
928.69	8914
928.796	8956
928.901	8853
929.007	8739
929.112	8845
929.218	8823
929.323	8693
929.428	8758
929.533	8853
929.638	8606
929.743	8758
929.848	8727
929.953	8792
930.058	8640
930.163	8488
930.267	8571
930.372	8651
930.477	8431
930.581	8720
930.685	8606
930.79	8526
930.894	8503
930.998	8499
931.103	8648
931.207	8309
931.311	8168
931.415	8142
931.519	8024
931.623	7932
