Data from test_V78500241_1226.txt Node
Date: Fri Mar 25 14:42:15 CST 2022
User: usil
Spectrometer: V785-0024
Trigger mode: 0
Integration Time (sec): 4.000000E-1
Scans to average: 1
Nonlinearity correction enabled: false
Boxcar width: 0
Storing dark spectrum: false
XAxis mode: Wavelengths
Number of Pixels in Spectrum: 1024
>>>>>Begin Spectral Data<<<<<
801.071	22394
801.214	22337
801.356	22025
801.499	21960
801.641	21762
801.783	21816
801.926	21895
802.068	21717
802.211	21705
802.353	21530
802.496	21363
802.638	21226
802.78	21382
802.923	21199
803.065	21085
803.208	21081
803.35	21070
803.492	21157
803.635	21192
803.777	21188
803.919	21169
804.061	21401
804.204	21245
804.346	21119
804.488	20918
804.63	21074
804.773	20868
804.915	21157
805.057	21192
805.199	21020
805.341	21199
805.483	21195
805.626	21096
805.768	20979
805.91	21028
806.052	21005
806.194	21013
806.336	21321
806.478	21009
806.62	21017
806.762	21116
806.904	21291
807.046	21488
807.188	21317
807.33	21431
807.472	21450
807.614	21477
807.756	21291
807.898	21279
808.04	21070
808.182	21218
808.324	21222
808.465	21237
808.607	21332
808.749	21530
808.891	21553
809.033	21720
809.174	21511
809.316	21492
809.458	21458
809.6	21538
809.741	21439
809.883	21477
810.025	21686
810.166	21580
810.308	21614
810.45	21462
810.591	21606
810.733	21431
810.875	21233
811.016	21138
811.158	21207
811.299	21336
811.441	21233
811.582	21359
811.724	21180
811.865	21157
812.007	21157
812.148	21138
812.29	21264
812.431	21405
812.573	21603
812.714	21644
812.855	21675
812.997	21739
813.138	21861
813.279	21713
813.421	21812
813.562	21614
813.703	21561
813.845	21283
813.986	21150
814.127	20819
814.268	20823
814.41	20777
814.551	20807
814.692	20849
814.833	20724
814.974	20712
815.115	20590
815.256	20579
815.397	20587
815.539	20636
815.68	20473
815.821	20358
815.962	20556
816.103	20594
816.244	20294
816.385	20229
816.526	20229
816.666	20103
816.807	19974
816.948	20092
817.089	20005
817.23	19982
817.371	19970
817.512	19871
817.653	20084
817.793	19944
817.934	19997
818.075	19871
818.216	19925
818.356	19871
818.497	19685
818.638	19544
818.778	19597
818.919	19518
819.06	19772
819.2	19807
819.341	19689
819.481	19712
819.622	19993
819.762	19989
819.903	20130
820.043	20050
820.184	19913
820.324	19837
820.465	19898
820.605	19959
820.746	19913
820.886	19696
821.026	20012
821.167	19925
821.307	19997
821.447	19788
821.588	19685
821.728	19559
821.868	19476
822.008	19327
822.149	19369
822.289	19278
822.429	19129
822.569	19061
822.709	19004
822.849	18840
822.99	18878
823.13	18734
823.27	18726
823.41	18696
823.55	18681
823.69	18627
823.83	18650
823.97	18692
824.11	18456
824.25	18327
824.389	18372
824.529	18467
824.669	18422
824.809	18551
824.949	18475
825.089	18418
825.228	18448
825.368	18205
825.508	18114
825.648	18197
825.787	18285
825.927	18323
826.067	18159
826.206	18030
826.346	18167
826.485	18186
826.625	18095
826.765	18277
826.904	18205
827.044	17931
827.183	17946
827.323	17805
827.462	17901
827.601	17874
827.741	17813
827.88	17904
828.02	17794
828.159	17931
828.298	17733
828.437	17958
828.577	17760
828.716	17931
828.855	17935
828.994	17615
829.134	17592
829.273	17611
829.412	17589
829.551	17551
829.69	17634
829.829	17661
829.968	17695
830.107	17676
830.246	17558
830.385	17532
830.524	17505
830.663	17444
830.802	17444
830.941	17162
831.08	17185
831.219	17227
831.357	17383
831.496	17497
831.635	17231
831.774	17185
831.913	17261
832.051	16984
832.19	17045
832.329	17140
832.467	16930
832.606	16942
832.744	16927
832.883	16904
833.022	16911
833.16	16881
833.299	17022
833.437	16995
833.576	16972
833.714	16987
833.852	17022
833.991	16972
834.129	17060
834.267	16976
834.406	17067
834.544	17075
834.682	17029
834.821	17033
834.959	17261
835.097	16930
835.235	17124
835.373	17090
835.511	17071
835.65	16843
835.788	16938
835.926	16767
836.064	16778
836.202	16862
836.34	16908
836.478	16919
836.615	16881
836.753	16934
836.891	17033
837.029	16972
837.167	16976
837.305	16820
837.443	16843
837.58	16656
837.718	16812
837.856	16790
837.993	16702
838.131	16843
838.269	16729
838.406	16759
838.544	16668
838.681	16493
838.819	16371
838.956	16287
839.094	16318
839.231	16375
839.369	16478
839.506	16790
839.643	16493
839.781	16367
839.918	16310
840.055	16348
840.193	16280
840.33	16257
840.467	16268
840.604	16440
840.742	16500
840.879	16196
841.016	16211
841.153	16196
841.29	16466
841.427	16295
841.564	16405
841.701	16379
841.838	16284
841.975	16192
842.112	16188
842.249	16196
842.385	16090
842.522	16314
842.659	16074
842.796	16036
842.933	16101
843.069	16055
843.206	16109
843.343	16071
843.479	16200
843.616	16162
843.752	15953
843.889	15934
844.025	15964
844.162	15865
844.298	15895
844.435	15937
844.571	15930
844.708	15831
844.844	16010
844.98	15983
845.117	15960
845.253	15854
845.389	15876
845.525	15937
845.661	15778
845.798	15709
845.934	15861
846.07	15682
846.206	15781
846.342	15964
846.478	15701
846.614	15542
846.75	15462
846.886	15450
847.022	15443
847.158	15523
847.294	15443
847.429	15481
847.565	15447
847.701	15591
847.837	15165
847.972	15066
848.108	15313
848.244	15340
848.379	15112
848.515	15154
848.65	14990
848.786	15039
848.921	14979
849.057	15093
849.192	15211
849.328	15070
849.463	15161
849.598	15001
849.734	14956
849.869	14986
850.004	14785
850.14	14849
850.275	14834
850.41	14781
850.545	14826
850.68	14785
850.815	14830
850.95	14826
851.085	15028
851.22	14891
851.355	14819
851.49	14819
851.625	14727
851.76	14758
851.895	14667
852.03	14792
852.165	14758
852.299	14823
852.434	14804
852.569	14883
852.703	14834
852.838	14906
852.973	14933
853.107	14944
853.242	14811
853.376	14765
853.511	14579
853.645	14701
853.78	14785
853.914	14712
854.048	14678
854.183	14651
854.317	14724
854.451	14853
854.585	14708
854.72	14667
854.854	14731
854.988	14617
855.122	14625
855.256	14480
855.39	14629
855.524	14689
855.658	14705
855.792	14705
855.926	14682
856.06	14746
856.194	14724
856.327	14758
856.461	14507
856.595	14568
856.729	14667
856.862	14834
856.996	14659
857.13	14716
857.263	14746
857.397	14754
857.53	14701
857.664	14701
857.797	14792
857.931	14857
858.064	14735
858.197	14849
858.331	14640
858.464	14640
858.597	14594
858.731	14659
858.864	14682
858.997	14636
859.13	14731
859.263	14720
859.396	14815
859.529	14621
859.662	14625
859.795	14629
859.928	14765
860.061	14883
860.194	14902
860.327	14765
860.46	14598
860.592	14834
860.725	14834
860.858	14826
860.99	14720
861.123	14667
861.256	14667
861.388	14746
861.521	15378
861.653	14549
861.786	14488
861.918	14575
862.05	14537
862.183	14648
862.315	14632
862.447	14739
862.58	14640
862.712	14530
862.844	14404
862.976	14533
863.108	14556
863.24	14948
863.372	14366
863.504	14370
863.636	14499
863.768	14457
863.9	14488
864.032	14446
864.164	14381
864.296	14518
864.428	14617
864.559	14530
864.691	14522
864.823	14351
864.954	14545
865.086	14564
865.217	14480
865.349	14408
865.48	14461
865.612	14351
865.743	14575
865.875	14438
866.006	14434
866.137	14400
866.269	14492
866.4	14404
866.531	14442
866.662	14366
866.793	14343
866.924	14503
867.055	14549
867.186	14442
867.317	14454
867.448	14423
867.579	14461
867.71	14282
867.841	14362
867.972	14347
868.103	14423
868.233	14343
868.364	14499
868.495	14526
868.625	14682
868.756	14861
868.886	14712
869.017	14644
869.147	14724
869.278	14845
869.408	14682
869.539	14617
869.669	14697
869.799	14724
869.929	14804
870.06	14811
870.19	15055
870.32	14944
870.45	15043
870.58	14998
870.71	15138
870.84	15184
870.97	15112
871.1	15017
871.23	15249
871.36	15252
871.489	15176
871.619	15291
871.749	15306
871.879	15340
872.008	15351
872.138	15302
872.267	15256
872.397	15077
872.526	14967
872.656	15047
872.785	15074
872.915	15294
873.044	15302
873.173	15275
873.303	15355
873.432	15359
873.561	15443
873.69	15325
873.819	15348
873.948	15416
874.077	15340
874.206	15313
874.335	15298
874.464	15447
874.593	15705
874.722	15580
874.851	15739
874.979	15523
875.108	15720
875.237	15641
875.365	15542
875.494	15553
875.623	15743
875.751	15698
875.88	15648
876.008	15865
876.136	15823
876.265	16082
876.393	16048
876.521	16029
876.65	16169
876.778	16154
876.906	16051
877.034	16002
877.162	16090
877.29	15964
877.418	16109
877.546	16086
877.674	16010
877.802	16082
877.93	15964
878.058	15918
878.185	16036
878.313	16086
878.441	16051
878.568	15861
878.696	15987
878.824	16048
878.951	16101
879.079	16234
879.206	16238
879.333	16238
879.461	16158
879.588	16291
879.715	16226
879.842	16424
879.97	16150
880.097	15884
880.224	15945
880.351	15994
880.478	15930
880.605	15998
880.732	15846
880.859	16071
880.986	15823
881.112	15983
881.239	15720
881.366	15656
881.493	15637
881.619	15557
881.746	15576
881.872	15606
881.999	15549
882.125	15447
882.252	15591
882.378	15603
882.505	15656
882.631	15500
882.757	15416
882.883	15466
883.01	15313
883.136	15325
883.262	15169
883.388	15222
883.514	15428
883.64	15431
883.766	15306
883.892	15146
884.018	15264
884.143	15287
884.269	15321
884.395	15077
884.52	14960
884.646	15058
884.772	14952
884.897	15013
885.023	15116
885.148	15173
885.274	15218
885.399	15218
885.524	15001
885.65	15089
885.775	15104
885.9	15005
886.025	15199
886.15	15039
886.275	15032
886.4	15001
886.525	14967
886.65	14880
886.775	14986
886.9	15214
887.025	15245
887.149	15116
887.274	14994
887.399	14887
887.523	14857
887.648	14811
887.773	14819
887.897	14979
888.021	14960
888.146	14857
888.27	14895
888.395	14990
888.519	14944
888.643	14899
888.767	14948
888.891	14724
889.015	14785
889.139	14743
889.263	14648
889.387	14914
889.511	14914
889.635	14823
889.759	14701
889.883	14670
890.006	14807
890.13	14826
890.254	14651
890.377	14731
890.501	14556
890.624	14442
890.748	14689
890.871	14492
890.995	14431
891.118	14347
891.241	14396
891.364	14423
891.488	14522
891.611	14469
891.734	14339
891.857	14438
891.98	14450
892.103	14499
892.226	14473
892.349	14560
892.471	14275
892.594	14434
892.717	14530
892.839	14431
892.962	14389
893.085	14495
893.207	14400
893.33	14328
893.452	14294
893.575	14522
893.697	14339
893.819	14629
893.941	14594
894.064	14571
894.186	14454
894.308	14385
894.43	14488
894.552	14708
894.674	14526
894.796	14476
894.918	14530
895.04	14606
895.161	14610
895.283	14625
895.405	14423
895.526	14396
895.648	14488
895.769	14625
895.891	14522
896.012	14644
896.134	14648
896.255	14613
896.376	14602
896.498	14480
896.619	14617
896.74	14587
896.861	14648
896.982	14781
897.103	15047
897.224	14864
897.345	14845
897.466	14743
897.587	14868
897.708	14986
897.828	14963
897.949	14845
898.07	14788
898.19	14838
898.311	14967
898.431	14792
898.552	14948
898.672	14971
898.792	14986
898.913	15001
899.033	14956
899.153	14796
899.273	14686
899.393	14807
899.513	14823
899.633	14750
899.753	14765
899.873	14705
899.993	14781
900.113	14750
900.232	14792
900.352	14796
900.472	14667
900.591	14705
900.711	14648
900.83	14629
900.95	14746
901.069	14735
901.189	14602
901.308	14431
901.427	14294
901.546	14275
901.665	14381
901.784	14225
901.904	14180
902.023	14077
902.141	13963
902.26	13818
902.379	14031
902.498	13902
902.617	13826
902.735	13982
902.854	13841
902.973	13818
903.091	13575
903.21	13544
903.328	13563
903.446	13525
903.565	13521
903.683	13514
903.801	13415
903.919	13419
904.038	13483
904.156	13304
904.274	13221
904.392	13179
904.51	13194
904.627	13270
904.745	13324
904.863	13285
904.981	13080
905.098	12920
905.216	12920
905.334	12996
905.451	12954
905.569	12954
905.686	12909
905.803	12920
905.921	12844
906.038	12913
906.155	12688
906.272	12738
906.389	12681
906.506	12502
906.623	12517
906.74	12506
906.857	12479
906.974	12429
907.091	12623
907.208	12646
907.324	12528
907.441	12460
907.557	12243
907.674	12228
907.79	12220
907.907	12235
908.023	12388
908.139	12289
908.256	12167
908.372	12308
908.488	12190
908.604	12110
908.72	11961
908.836	12110
908.952	11999
909.068	12053
909.184	12133
909.3	12034
909.415	12087
909.531	12079
909.647	11802
909.762	11752
909.878	11817
909.993	11855
910.108	11748
910.224	11771
910.339	11821
910.454	11722
910.57	11642
910.685	11608
910.8	11859
910.915	11718
911.03	11573
911.145	11566
911.259	11452
911.374	11493
911.489	11417
911.604	11376
911.718	11235
911.833	11299
911.947	11060
912.062	11067
912.176	11299
912.291	11170
912.405	11189
912.519	11440
912.633	11406
912.748	11330
912.862	11235
912.976	11132
913.09	10995
913.204	11124
913.318	11143
913.431	11193
913.545	11204
913.659	11273
913.772	11041
913.886	10930
914	11010
914.113	11037
914.226	11025
914.34	11067
914.453	10896
914.566	11121
914.68	10911
914.793	10900
914.906	10839
915.019	10725
915.132	10679
915.245	10721
915.358	10721
915.47	10759
915.583	10778
915.696	10786
915.809	10896
915.921	10881
916.034	10725
916.146	10717
916.259	10622
916.371	10782
916.483	10672
916.595	10641
916.708	10717
916.82	10634
916.932	10660
917.044	10607
917.156	10603
917.268	10500
917.38	10546
917.491	10584
917.603	10516
917.715	10637
917.826	10744
917.938	10508
918.049	10451
918.161	10497
918.272	10691
918.384	10675
918.495	10596
918.606	10447
918.717	10402
918.828	10459
918.939	10436
919.05	10280
919.161	10379
919.272	10299
919.383	10333
919.494	10592
919.604	10592
919.715	10405
919.826	10436
919.936	10394
920.047	10535
920.157	10474
920.267	10630
920.378	10535
920.488	10424
920.598	10694
920.708	10759
920.818	10694
920.928	10603
921.038	10831
921.148	10660
921.258	10485
921.368	10382
921.477	10303
921.587	10246
921.697	10154
921.806	10299
921.916	10230
922.025	10067
922.134	10002
922.244	9960
922.353	9994
922.462	9926
922.571	9823
922.68	9694
922.789	9663
922.898	9743
923.007	9690
923.116	9709
923.224	9656
923.333	9644
923.442	9606
923.55	9507
923.659	9690
923.767	9587
923.876	9591
923.984	9625
924.092	9447
924.201	9534
924.309	9519
924.417	9538
924.525	9469
924.633	9431
924.741	10295
924.849	9355
924.956	9412
925.064	9393
925.172	9245
925.279	9302
925.387	9325
925.494	9291
925.602	9496
925.709	9405
925.816	9180
925.924	9382
926.031	9412
926.138	9275
926.245	9405
926.352	9218
926.459	9363
926.566	9450
926.673	9306
926.779	9157
926.886	9180
926.993	8982
927.099	8975
927.206	8979
927.312	8975
927.419	9077
927.525	9020
927.631	9066
927.737	8986
927.843	8914
927.95	8781
928.056	8941
928.162	8986
928.267	8956
928.373	9553
928.479	8986
928.585	8807
928.69	8868
928.796	8979
928.901	8838
929.007	8670
929.112	8838
929.218	8830
929.323	8689
929.428	8785
929.533	8819
929.638	8651
929.743	8769
929.848	8788
929.953	8689
930.058	8579
930.163	8473
930.267	8495
930.372	8606
930.477	8457
930.581	8697
930.685	8552
930.79	8438
930.894	8526
930.998	8469
931.103	8552
931.207	8275
931.311	8210
931.415	8153
931.519	7921
931.623	7959
