Data from test_V78500241_1083.txt Node
Date: Fri Mar 25 14:41:15 CST 2022
User: usil
Spectrometer: V785-0024
Trigger mode: 0
Integration Time (sec): 4.000000E-1
Scans to average: 1
Nonlinearity correction enabled: false
Boxcar width: 0
Storing dark spectrum: false
XAxis mode: Wavelengths
Number of Pixels in Spectrum: 1024
>>>>>Begin Spectral Data<<<<<
801.071	22713
801.214	22664
801.356	22375
801.499	22318
801.641	22128
801.783	22055
801.926	22101
802.068	21987
802.211	21857
802.353	21842
802.496	21743
802.638	21583
802.78	21633
802.923	21557
803.065	21435
803.208	21443
803.35	21370
803.492	21519
803.635	21644
803.777	21310
803.919	21553
804.061	21743
804.204	21507
804.346	21367
804.488	21310
804.63	21424
804.773	21252
804.915	21382
805.057	21519
805.199	21233
805.341	21439
805.483	21447
805.626	21351
805.768	21321
805.91	21374
806.052	21344
806.194	21340
806.336	21523
806.478	21443
806.62	21378
806.762	21481
806.904	21614
807.046	21869
807.188	21800
807.33	21759
807.472	21835
807.614	21663
807.756	21762
807.898	21701
808.04	21622
808.182	21671
808.324	21694
808.465	21800
808.607	22006
808.749	22223
808.891	22192
809.033	22390
809.174	22257
809.316	22097
809.458	21998
809.6	21945
809.741	21994
809.883	21922
810.025	21926
810.166	22025
810.308	21968
810.45	21918
810.591	21911
810.733	21797
810.875	21633
811.016	21576
811.158	21515
811.299	21728
811.441	21755
811.582	21709
811.724	21583
811.865	21583
812.007	21553
812.148	21660
812.29	21625
812.431	21789
812.573	21934
812.714	21941
812.855	22124
812.997	22204
813.138	22242
813.279	22166
813.421	22086
813.562	22082
813.703	21926
813.845	21842
813.986	21397
814.127	21283
814.268	21176
814.41	21116
814.551	21077
814.692	21188
814.833	21013
814.974	20880
815.115	21028
815.256	20826
815.397	21066
815.539	20960
815.68	20701
815.821	20804
815.962	20769
816.103	20819
816.244	20739
816.385	20682
816.526	20571
816.666	20507
816.807	20332
816.948	20305
817.089	20476
817.23	20370
817.371	20218
817.512	20286
817.653	20294
817.793	20240
817.934	20305
818.075	20233
818.216	20282
818.356	20195
818.497	20081
818.638	19970
818.778	19932
818.919	19982
819.06	19986
819.2	20153
819.341	20100
819.481	20134
819.622	20324
819.762	20514
819.903	20290
820.043	20339
820.184	20229
820.324	20267
820.465	20324
820.605	20214
820.746	20180
820.886	20107
821.026	20282
821.167	20275
821.307	20294
821.447	20138
821.588	20039
821.728	19925
821.868	19830
822.008	19753
822.149	19666
822.289	19700
822.429	19384
822.569	19331
822.709	19396
822.849	19160
822.99	19148
823.13	19194
823.27	19187
823.41	18947
823.55	18859
823.69	19080
823.83	18916
823.97	18924
824.11	18772
824.25	18772
824.389	18738
824.529	18760
824.669	18665
824.809	18901
824.949	18810
825.089	18791
825.228	18745
825.368	18441
825.508	18506
825.648	18521
825.787	18589
825.927	18631
826.067	18544
826.206	18555
826.346	18570
826.485	18551
826.625	18555
826.765	18608
826.904	18578
827.044	18232
827.183	18178
827.323	18159
827.462	18216
827.601	18209
827.741	18159
827.88	18247
828.02	18030
828.159	18258
828.298	18277
828.437	18300
828.577	18117
828.716	18376
828.855	18125
828.994	17996
829.134	17935
829.273	17996
829.412	17923
829.551	17950
829.69	17977
829.829	17984
829.968	18152
830.107	18095
830.246	17950
830.385	17931
830.524	17855
830.663	17855
830.802	17802
830.941	17592
831.08	17573
831.219	17767
831.357	17539
831.496	17923
831.635	17661
831.774	17474
831.913	17573
832.051	17398
832.19	17440
832.329	17398
832.467	17356
832.606	17364
832.744	17220
832.883	17387
833.022	17334
833.16	17254
833.299	17322
833.437	17448
833.576	17387
833.714	17421
833.852	17417
833.991	17395
834.129	17554
834.267	17448
834.406	17318
834.544	17433
834.682	17425
834.821	17478
834.959	17497
835.097	17299
835.235	17311
835.373	17368
835.511	17379
835.65	17345
835.788	17181
835.926	17155
836.064	17048
836.202	17067
836.34	17345
836.478	17280
836.615	17299
836.753	17155
836.891	17288
837.029	17406
837.167	17216
837.305	17166
837.443	17113
837.58	17086
837.718	17075
837.856	17083
837.993	17102
838.131	17208
838.269	17056
838.406	17067
838.544	16991
838.681	16965
838.819	16778
838.956	16740
839.094	16660
839.231	16694
839.369	16713
839.506	17025
839.643	16938
839.781	16672
839.918	16637
840.055	16691
840.193	16706
840.33	16596
840.467	16577
840.604	16736
840.742	16835
840.879	16637
841.016	16558
841.153	16504
841.29	16805
841.427	16675
841.564	16607
841.701	16634
841.838	16493
841.975	16546
842.112	16596
842.249	16508
842.385	16481
842.522	16634
842.659	16402
842.796	16443
842.933	16459
843.069	16402
843.206	16310
843.343	16512
843.479	16451
843.616	16523
843.752	16246
843.889	16200
844.025	16322
844.162	16207
844.298	16272
844.435	16173
844.571	16055
844.708	16257
844.844	16432
844.98	16363
845.117	16424
845.253	16314
845.389	16177
845.525	16310
845.661	16379
845.798	16409
845.934	16675
846.07	16500
846.206	16599
846.342	16558
846.478	16268
846.614	15941
846.75	15854
846.886	15857
847.022	15930
847.158	15778
847.294	15781
847.429	15751
847.565	15778
847.701	16006
847.837	15435
847.972	15587
848.108	15709
848.244	15542
848.379	15325
848.515	15405
848.65	15389
848.786	15374
848.921	15370
849.057	15545
849.192	15496
849.328	15424
849.463	15393
849.598	15272
849.734	15264
849.869	15207
850.004	15260
850.14	15199
850.275	15135
850.41	14986
850.545	15077
850.68	15074
850.815	15203
850.95	15165
851.085	15260
851.22	15260
851.355	15176
851.49	15032
851.625	15058
851.76	15097
851.895	15005
852.03	14994
852.165	15055
852.299	15097
852.434	15176
852.569	15180
852.703	15112
852.838	15207
852.973	15272
853.107	15264
853.242	15081
853.376	14963
853.511	14864
853.645	15028
853.78	15184
853.914	15005
854.048	14902
854.183	15028
854.317	14929
854.451	15135
854.585	15028
854.72	14902
854.854	15043
854.988	14823
855.122	14899
855.256	14804
855.39	14998
855.524	15051
855.658	15062
855.792	14914
855.926	15081
856.06	15001
856.194	15085
856.327	15017
856.461	14952
856.595	14899
856.729	15104
856.862	15081
856.996	14979
857.13	15138
857.263	15112
857.397	15081
857.53	14982
857.664	15074
857.797	15051
857.931	15142
858.064	14960
858.197	15135
858.331	15001
858.464	14914
858.597	14941
858.731	14982
858.864	14982
858.997	14982
859.13	15108
859.263	15036
859.396	15017
859.529	14971
859.662	14902
859.795	14921
859.928	15100
860.061	15138
860.194	15161
860.327	14975
860.46	14994
860.592	15108
860.725	15066
860.858	15051
860.99	15062
861.123	14937
861.256	15039
861.388	15017
861.521	15625
861.653	14887
861.786	14868
861.918	14876
862.05	14876
862.183	14929
862.315	14929
862.447	14929
862.58	14861
862.712	14731
862.844	14754
862.976	14807
863.108	14823
863.24	15180
863.372	14598
863.504	14804
863.636	14758
863.768	14838
863.9	14830
864.032	14708
864.164	14754
864.296	14819
864.428	14891
864.559	14834
864.691	14773
864.823	14788
864.954	14781
865.086	14667
865.217	14792
865.349	14579
865.48	14716
865.612	14834
865.743	14941
865.875	14781
866.006	14724
866.137	14731
866.269	14720
866.4	14640
866.531	14716
866.662	14693
866.793	14659
866.924	14727
867.055	14731
867.186	14708
867.317	14648
867.448	14613
867.579	14625
867.71	14670
867.841	14625
867.972	14693
868.103	14644
868.233	14708
868.364	14815
868.495	14712
868.625	14933
868.756	15051
868.886	14807
869.017	14864
869.147	15104
869.278	15081
869.408	15055
869.539	15051
869.669	14986
869.799	14960
869.929	15119
870.06	15077
870.19	15348
870.32	15336
870.45	15351
870.58	15397
870.71	15454
870.84	15458
870.97	15363
871.1	15431
871.23	15599
871.36	15496
871.489	15477
871.619	15576
871.749	15568
871.879	15485
872.008	15701
872.138	15641
872.267	15511
872.397	15428
872.526	15450
872.656	15340
872.785	15447
872.915	15599
873.044	15606
873.173	15610
873.303	15603
873.432	15694
873.561	15690
873.69	15633
873.819	15553
873.948	15724
874.077	15728
874.206	15526
874.335	15629
874.464	15705
874.593	15926
874.722	15941
874.851	15949
874.979	16010
875.108	15831
875.237	15956
875.365	15770
875.494	15884
875.623	15918
875.751	15918
875.88	15915
876.008	16040
876.136	16086
876.265	16375
876.393	16421
876.521	16329
876.65	16440
876.778	16390
876.906	16253
877.034	16329
877.162	16329
877.29	16272
877.418	16333
877.546	16314
877.674	16379
877.802	16375
877.93	16337
878.058	16291
878.185	16280
878.313	16440
878.441	16390
878.568	16238
878.696	16424
878.824	16500
878.951	16462
879.079	16752
879.206	16713
879.333	16660
879.461	16577
879.588	16698
879.715	16729
879.842	16843
879.97	16622
880.097	16314
880.224	16242
880.351	16341
880.478	16276
880.605	16306
880.732	16173
880.859	16504
880.986	16204
881.112	16185
881.239	16207
881.366	15983
881.493	15888
881.619	15994
881.746	15823
881.872	15968
881.999	15743
882.125	15846
882.252	15884
882.378	15873
882.505	16074
882.631	15876
882.757	15717
882.883	15785
883.01	15766
883.136	15667
883.262	15477
883.388	15450
883.514	15800
883.64	15800
883.766	15629
883.892	15519
884.018	15530
884.143	15690
884.269	15759
884.395	15435
884.52	15428
884.646	15450
884.772	15241
884.897	15287
885.023	15386
885.148	15485
885.274	15682
885.399	15553
885.524	15386
885.65	15454
885.775	15408
885.9	15363
886.025	15542
886.15	15492
886.275	15389
886.4	15306
886.525	15439
886.65	15355
886.775	15306
886.9	15481
887.025	15496
887.149	15435
887.274	15207
887.399	15222
887.523	15123
887.648	15108
887.773	15028
887.897	15264
888.021	15313
888.146	15180
888.27	15310
888.395	15291
888.519	15329
888.643	15176
888.767	15272
888.891	15104
889.015	15100
889.139	15058
889.263	14979
889.387	15184
889.511	15237
889.635	15097
889.759	14994
889.883	15089
890.006	15089
890.13	15051
890.254	14906
890.377	15017
890.501	14857
890.624	14746
890.748	14921
890.871	14815
890.995	14682
891.118	14552
891.241	14746
891.364	14868
891.488	14857
891.611	14674
891.734	14712
891.857	14731
891.98	14762
892.103	14842
892.226	14849
892.349	14621
892.471	14602
892.594	14625
892.717	14686
892.839	14499
892.962	14625
893.085	14849
893.207	14754
893.33	14648
893.452	14579
893.575	14769
893.697	14667
893.819	14918
893.941	14979
894.064	14872
894.186	14659
894.308	14648
894.43	14697
894.552	14853
894.674	14861
894.796	14610
894.918	14743
895.04	14720
895.161	14910
895.283	14815
895.405	14701
895.526	14815
895.648	14746
895.769	14857
895.891	14842
896.012	14853
896.134	14857
896.255	14849
896.376	14773
896.498	14853
896.619	14845
896.74	14830
896.861	14925
896.982	15161
897.103	15184
897.224	15245
897.345	15176
897.466	15074
897.587	15116
897.708	15237
897.828	15127
897.949	15028
898.07	14994
898.19	15058
898.311	15275
898.431	15085
898.552	15165
898.672	15245
898.792	15230
898.913	15112
899.033	15043
899.153	15104
899.273	14918
899.393	15017
899.513	15062
899.633	15043
899.753	15032
899.873	14960
899.993	15123
900.113	15051
900.232	15020
900.352	15028
900.472	14876
900.591	14979
900.711	14857
900.83	14834
900.95	15017
901.069	14899
901.189	14796
901.308	14678
901.427	14457
901.546	14651
901.665	14613
901.784	14552
901.904	14533
902.023	14366
902.141	14164
902.26	14149
902.379	14229
902.498	14195
902.617	14069
902.735	14183
902.854	14119
902.973	14039
903.091	13791
903.21	13818
903.328	13830
903.446	13757
903.565	13731
903.683	13734
903.801	13567
903.919	13674
904.038	13712
904.156	13552
904.274	13499
904.392	13434
904.51	13438
904.627	13495
904.745	13499
904.863	13518
904.981	13339
905.098	13225
905.216	13107
905.334	13187
905.451	13164
905.569	13179
905.686	13255
905.803	13198
905.921	12981
906.038	13057
906.155	12973
906.272	12859
906.389	12844
906.506	12715
906.623	12700
906.74	12745
906.857	12574
906.974	12669
907.091	12772
907.208	12768
907.324	12844
907.441	12563
907.557	12513
907.674	12555
907.79	12338
907.907	12540
908.023	12445
908.139	12486
908.256	12441
908.372	12372
908.488	12471
908.604	12224
908.72	12186
908.836	12262
908.952	12315
909.068	12273
909.184	12281
909.3	12201
909.415	12270
909.531	12175
909.647	12038
909.762	12019
909.878	11961
909.993	12030
910.108	11996
910.224	11942
910.339	12038
910.454	11882
910.57	11866
910.685	11798
910.8	12087
910.915	12030
911.03	11851
911.145	11714
911.259	11684
911.374	11764
911.489	11653
911.604	11547
911.718	11524
911.833	11425
911.947	11383
912.062	11250
912.176	11433
912.291	11433
912.405	11417
912.519	11672
912.633	11596
912.748	11455
912.862	11433
912.976	11322
913.09	11197
913.204	11269
913.318	11337
913.431	11387
913.545	11376
913.659	11376
913.772	11296
913.886	11220
914	11193
914.113	11261
914.226	11307
914.34	11265
914.453	11094
914.566	11330
914.68	11067
914.793	11109
914.906	11018
915.019	10892
915.132	10866
915.245	10927
915.358	10904
915.47	10987
915.583	10862
915.696	10987
915.809	11086
915.921	11094
916.034	10900
916.146	10972
916.259	10790
916.371	10908
916.483	10904
916.595	10790
916.708	10862
916.82	10778
916.932	10862
917.044	10790
917.156	10759
917.268	10645
917.38	10755
917.491	10729
917.603	10733
917.715	10816
917.826	10790
917.938	10698
918.049	10618
918.161	10698
918.272	10892
918.384	10934
918.495	10706
918.606	10542
918.717	10596
918.828	10649
918.939	10691
919.05	10615
919.161	10596
919.272	10512
919.383	10455
919.494	10569
919.604	10839
919.715	10660
919.826	10580
919.936	10611
920.047	10603
920.157	10592
920.267	10820
920.378	10721
920.488	10592
920.598	10733
920.708	10892
920.818	10824
920.928	10839
921.038	11060
921.148	10923
921.258	10687
921.368	10519
921.477	10497
921.587	10466
921.697	10329
921.806	10405
921.916	10390
922.025	10169
922.134	10200
922.244	10105
922.353	10238
922.462	10074
922.571	10002
922.68	9835
922.789	9793
922.898	9812
923.007	9812
923.116	9865
923.224	9827
923.333	9846
923.442	9751
923.55	9625
923.659	9698
923.767	9846
923.876	9717
923.984	9797
924.092	9595
924.201	9705
924.309	9682
924.417	9641
924.525	9614
924.633	9686
924.741	10569
924.849	9431
924.956	9625
925.064	9481
925.172	9428
925.279	9416
925.387	9431
925.494	9545
925.602	9561
925.709	9595
925.816	9469
925.924	9511
926.031	9580
926.138	9515
926.245	9614
926.352	9359
926.459	9549
926.566	9542
926.673	9363
926.779	9302
926.886	9317
926.993	9169
927.099	9207
927.206	9070
927.312	9112
927.419	9173
927.525	9188
927.631	9188
927.737	9085
927.843	9074
927.95	8952
928.056	9051
928.162	9036
928.267	9097
928.373	9724
928.479	9123
928.585	8960
928.69	9066
928.796	9131
928.901	8986
929.007	8830
929.112	9024
929.218	8929
929.323	8906
929.428	8834
929.533	9013
929.638	8864
929.743	8876
929.848	8887
929.953	8823
930.058	8762
930.163	8632
930.267	8670
930.372	8743
930.477	8598
930.581	8823
930.685	8689
930.79	8568
930.894	8583
930.998	8556
931.103	8712
931.207	8385
931.311	8275
931.415	8275
931.519	8039
931.623	8092
