Data from test_V78500241_2585.txt Node
Date: Fri Mar 25 14:51:42 CST 2022
User: usil
Spectrometer: V785-0024
Trigger mode: 0
Integration Time (sec): 4.000000E-1
Scans to average: 1
Nonlinearity correction enabled: false
Boxcar width: 0
Storing dark spectrum: false
XAxis mode: Wavelengths
Number of Pixels in Spectrum: 1024
>>>>>Begin Spectral Data<<<<<
801.071	21949
801.214	21846
801.356	21701
801.499	21595
801.641	21469
801.783	21332
801.926	21473
802.068	21325
802.211	21207
802.353	21100
802.496	20944
802.638	20788
802.78	20929
802.923	20773
803.065	20697
803.208	20735
803.35	20716
803.492	20857
803.635	20845
803.777	20785
803.919	20834
804.061	21070
804.204	20800
804.346	20678
804.488	20571
804.63	20682
804.773	20568
804.915	20606
805.057	20819
805.199	20598
805.341	20651
805.483	20750
805.626	20712
805.768	20629
805.91	20689
806.052	20655
806.194	20644
806.336	20697
806.478	20621
806.62	20533
806.762	20697
806.904	20754
807.046	21070
807.188	20830
807.33	20967
807.472	21047
807.614	20982
807.756	20857
807.898	20754
808.04	20697
808.182	20670
808.324	20659
808.465	20674
808.607	20823
808.749	20979
808.891	21142
809.033	21165
809.174	20891
809.316	20952
809.458	20941
809.6	20963
809.741	20952
809.883	21032
810.025	21245
810.166	21058
810.308	21047
810.45	20967
810.591	20891
810.733	20910
810.875	20781
811.016	20743
811.158	20682
811.299	20754
811.441	20857
811.582	20819
811.724	20731
811.865	20743
812.007	20701
812.148	20743
812.29	20804
812.431	20887
812.573	21096
812.714	21081
812.855	21233
812.997	21439
813.138	21412
813.279	21428
813.421	21150
813.562	21230
813.703	20967
813.845	20891
813.986	20590
814.127	20393
814.268	20400
814.41	20374
814.551	20362
814.692	20301
814.833	20168
814.974	20195
815.115	20149
815.256	20244
815.397	20134
815.539	20054
815.68	20172
815.821	19883
815.962	20065
816.103	20016
816.244	19841
816.385	19635
816.526	19674
816.666	19586
816.807	19464
816.948	19487
817.089	19495
817.23	19502
817.371	19403
817.512	19419
817.653	19335
817.793	19358
817.934	19441
818.075	19468
818.216	19350
818.356	19365
818.497	19183
818.638	19103
818.778	19160
818.919	19088
819.06	19171
819.2	19297
819.341	19346
819.481	19324
819.622	19468
819.762	19544
819.903	19556
820.043	19491
820.184	19392
820.324	19369
820.465	19476
820.605	19411
820.746	19472
820.886	19339
821.026	19392
821.167	19377
821.307	19521
821.447	19373
821.588	19259
821.728	19255
821.868	18939
822.008	18867
822.149	18875
822.289	18821
822.429	18627
822.569	18494
822.709	18528
822.849	18369
822.99	18323
823.13	18380
823.27	18315
823.41	18167
823.55	18095
823.69	18186
823.83	18129
823.97	18125
824.11	17882
824.25	17878
824.389	17901
824.529	18117
824.669	17923
824.809	18034
824.949	17999
825.089	17980
825.228	17863
825.368	17646
825.508	17718
825.648	17745
825.787	17870
825.927	17756
826.067	17722
826.206	17767
826.346	17695
826.485	17638
826.625	17649
826.765	17855
826.904	17745
827.044	17433
827.183	17528
827.323	17364
827.462	17471
827.601	17512
827.741	17387
827.88	17391
828.02	17273
828.159	17398
828.298	17436
828.437	17493
828.577	17322
828.716	17474
828.855	17288
828.994	17258
829.134	17128
829.273	17181
829.412	17064
829.551	17128
829.69	17143
829.829	17246
829.968	17258
830.107	17178
830.246	17197
830.385	17079
830.524	17117
830.663	17064
830.802	16892
830.941	16786
831.08	16778
831.219	16885
831.357	16877
831.496	16980
831.635	16706
831.774	16752
831.913	16778
832.051	16577
832.19	16489
832.329	16634
832.467	16485
832.606	16417
832.744	16390
832.883	16440
833.022	16443
833.16	16493
833.299	16588
833.437	16447
833.576	16440
833.714	16558
833.852	16542
833.991	16603
834.129	16565
834.267	16558
834.406	16607
834.544	16588
834.682	16588
834.821	16447
834.959	16698
835.097	16421
835.235	16691
835.373	16493
835.511	16577
835.65	16386
835.788	16508
835.926	16322
836.064	16272
836.202	16211
836.34	16550
836.478	16542
836.615	16428
836.753	16474
836.891	16535
837.029	16542
837.167	16512
837.305	16310
837.443	16398
837.58	16226
837.718	16337
837.856	16333
837.993	16234
838.131	16306
838.269	16116
838.406	16268
838.544	16249
838.681	16013
838.819	15979
838.956	15861
839.094	15911
839.231	15899
839.369	16010
839.506	16261
839.643	16090
839.781	15930
839.918	15831
840.055	15975
840.193	15812
840.33	15831
840.467	15884
840.604	15911
840.742	16029
840.879	15648
841.016	15701
841.153	15804
841.29	15987
841.427	15854
841.564	15968
841.701	15876
841.838	15816
841.975	15812
842.112	15743
842.249	15644
842.385	15466
842.522	15812
842.659	15644
842.796	15663
842.933	15641
843.069	15542
843.206	15625
843.343	15644
843.479	15705
843.616	15709
843.752	15408
843.889	15435
844.025	15648
844.162	15481
844.298	15584
844.435	15439
844.571	15370
844.708	15416
844.844	15599
844.98	15500
845.117	15576
845.253	15374
845.389	15230
845.525	15370
845.661	15310
845.798	15150
845.934	15252
846.07	15138
846.206	15207
846.342	15256
846.478	15192
846.614	15066
846.75	15043
846.886	15013
847.022	15043
847.158	15074
847.294	15104
847.429	15009
847.565	14963
847.701	15188
847.837	14811
847.972	14735
848.108	14788
848.244	14937
848.379	14724
848.515	14583
848.65	14507
848.786	14594
848.921	14678
849.057	14705
849.192	14765
849.328	14724
849.463	14621
849.598	14568
849.734	14514
849.869	14469
850.004	14431
850.14	14320
850.275	14408
850.41	14313
850.545	14389
850.68	14366
850.815	14377
850.95	14298
851.085	14549
851.22	14499
851.355	14404
851.49	14301
851.625	14442
851.76	14343
851.895	14275
852.03	14290
852.165	14309
852.299	14366
852.434	14499
852.569	14533
852.703	14434
852.838	14454
852.973	14514
853.107	14526
853.242	14419
853.376	14332
853.511	14172
853.645	14313
853.78	14309
853.914	14191
854.048	14248
854.183	14218
854.317	14195
854.451	14446
854.585	14317
854.72	14202
854.854	14362
854.988	14138
855.122	14328
855.256	14115
855.39	14191
855.524	14362
855.658	14263
855.792	14240
855.926	14229
856.06	14290
856.194	14313
856.327	14206
856.461	14240
856.595	14225
856.729	14233
856.862	14256
856.996	14305
857.13	14358
857.263	14298
857.397	14400
857.53	14199
857.664	14313
857.797	14358
857.931	14377
858.064	14259
858.197	14301
858.331	14267
858.464	14271
858.597	14240
858.731	14199
858.864	14221
858.997	14161
859.13	14343
859.263	14210
859.396	14259
859.529	14233
859.662	14301
859.795	14199
859.928	14199
860.061	14431
860.194	14450
860.327	14187
860.46	14275
860.592	14381
860.725	14438
860.858	14385
860.99	14202
861.123	14256
861.256	14214
861.388	14206
861.521	14819
861.653	14111
861.786	14008
861.918	14050
862.05	14046
862.183	14119
862.315	14244
862.447	14298
862.58	14210
862.712	14130
862.844	14046
862.976	14107
863.108	14134
863.24	14518
863.372	13993
863.504	13993
863.636	14005
863.768	14107
863.9	14088
864.032	13993
864.164	14008
864.296	14005
864.428	14134
864.559	14180
864.691	14126
864.823	13982
864.954	14058
865.086	14043
865.217	14027
865.349	14054
865.48	14050
865.612	14046
865.743	14138
865.875	13993
866.006	14005
866.137	14012
866.269	13959
866.4	13932
866.531	14031
866.662	13974
866.793	13925
866.924	14069
867.055	13997
867.186	13921
867.317	13925
867.448	13898
867.579	13951
867.71	13925
867.841	13841
867.972	14035
868.103	14001
868.233	14069
868.364	14073
868.495	14096
868.625	14240
868.756	14244
868.886	14069
869.017	14237
869.147	14347
869.278	14434
869.408	14256
869.539	14290
869.669	14355
869.799	14309
869.929	14358
870.06	14385
870.19	14560
870.32	14522
870.45	14598
870.58	14659
870.71	14792
870.84	14701
870.97	14712
871.1	14621
871.23	14834
871.36	14902
871.489	14762
871.619	14811
871.749	14785
871.879	14845
872.008	14975
872.138	14895
872.267	14792
872.397	14697
872.526	14678
872.656	14746
872.785	14727
872.915	14937
873.044	14982
873.173	14918
873.303	14899
873.432	15001
873.561	14998
873.69	14861
873.819	14845
873.948	14933
874.077	14994
874.206	14948
874.335	14906
874.464	15009
874.593	15138
874.722	15195
874.851	15268
874.979	15233
875.108	15294
875.237	15233
875.365	15184
875.494	15192
875.623	15237
875.751	15138
875.88	15389
876.008	15325
876.136	15443
876.265	15739
876.393	15766
876.521	15720
876.65	15637
876.778	15629
876.906	15580
877.034	15614
877.162	15701
877.29	15580
877.418	15755
877.546	15736
877.674	15690
877.802	15682
877.93	15591
878.058	15629
878.185	15568
878.313	15591
878.441	15736
878.568	15500
878.696	15545
878.824	15667
878.951	15713
879.079	15766
879.206	15907
879.333	15770
879.461	15705
879.588	15701
879.715	15774
879.842	15918
879.97	15743
880.097	15466
880.224	15492
880.351	15504
880.478	15473
880.605	15439
880.732	15382
880.859	15633
880.986	15511
881.112	15526
881.239	15405
881.366	15298
881.493	15214
881.619	15032
881.746	15218
881.872	15093
881.999	15085
882.125	15112
882.252	15188
882.378	15085
882.505	15260
882.631	15165
882.757	14944
882.883	14918
883.01	14982
883.136	14902
883.262	14819
883.388	14769
883.514	15039
883.64	15001
883.766	14910
883.892	14682
884.018	14804
884.143	14937
884.269	15085
884.395	14697
884.52	14708
884.646	14667
884.772	14575
884.897	14484
885.023	14773
885.148	14845
885.274	14861
885.399	14716
885.524	14670
885.65	14689
885.775	14716
885.9	14682
886.025	14849
886.15	14739
886.275	14621
886.4	14503
886.525	14621
886.65	14590
886.775	14621
886.9	14758
887.025	14960
887.149	14663
887.274	14545
887.399	14362
887.523	14370
887.648	14355
887.773	14446
887.897	14579
888.021	14552
888.146	14541
888.27	14663
888.395	14617
888.519	14526
888.643	14594
888.767	14560
888.891	14385
889.015	14396
889.139	14370
889.263	14298
889.387	14412
889.511	14545
889.635	14488
889.759	14298
889.883	14351
890.006	14358
890.13	14400
890.254	14278
890.377	14301
890.501	14130
890.624	14153
890.748	14233
890.871	14157
890.995	14046
891.118	13906
891.241	14153
891.364	14145
891.488	14164
891.611	14058
891.734	14092
891.857	14096
891.98	14084
892.103	14176
892.226	14126
892.349	13993
892.471	13875
892.594	14043
892.717	14050
892.839	13986
892.962	14096
893.085	14172
893.207	13883
893.33	13913
893.452	14016
893.575	14046
893.697	14092
893.819	14183
893.941	14355
894.064	14278
894.186	14054
894.308	14081
894.43	14305
894.552	14332
894.674	14214
894.796	14046
894.918	14145
895.04	14088
895.161	14168
895.283	14206
895.405	14176
895.526	14081
895.648	14153
895.769	14142
895.891	14168
896.012	14271
896.134	14240
896.255	14259
896.376	14176
896.498	14183
896.619	14282
896.74	14248
896.861	14313
896.982	14629
897.103	14659
897.224	14526
897.345	14446
897.466	14427
897.587	14446
897.708	14583
897.828	14587
897.949	14530
898.07	14427
898.19	14541
898.311	14651
898.431	14530
898.552	14495
898.672	14632
898.792	14708
898.913	14708
899.033	14526
899.153	14423
899.273	14339
899.393	14408
899.513	14457
899.633	14434
899.753	14442
899.873	14362
899.993	14484
900.113	14438
900.232	14434
900.352	14358
900.472	14298
900.591	14214
900.711	14275
900.83	14263
900.95	14355
901.069	14469
901.189	14324
901.308	13986
901.427	13978
901.546	14020
901.665	13963
901.784	13993
901.904	13864
902.023	13731
902.141	13552
902.26	13495
902.379	13655
902.498	13601
902.617	13468
902.735	13616
902.854	13563
902.973	13491
903.091	13301
903.21	13327
903.328	13285
903.446	13171
903.565	13038
903.683	13160
903.801	13031
903.919	13031
904.038	13031
904.156	12905
904.274	12958
904.392	12920
904.51	12981
904.627	12852
904.745	13027
904.863	12993
904.981	12681
905.098	12650
905.216	12631
905.334	12665
905.451	12692
905.569	12627
905.686	12608
905.803	12601
905.921	12407
906.038	12589
906.155	12426
906.272	12441
906.389	12426
906.506	12163
906.623	12224
906.74	12182
906.857	12175
906.974	12053
907.091	12262
907.208	12369
907.324	12186
907.441	12064
907.557	11935
907.674	11942
907.79	11851
907.907	11885
908.023	12011
908.139	11935
908.256	11904
908.372	11901
908.488	11813
908.604	11745
908.72	11661
908.836	11764
908.952	11710
909.068	11737
909.184	11878
909.3	11703
909.415	11783
909.531	11741
909.647	11516
909.762	11452
909.878	11448
909.993	11509
910.108	11501
910.224	11505
910.339	11448
910.454	11452
910.57	11349
910.685	11254
910.8	11623
910.915	11539
911.03	11326
911.145	11250
911.259	11258
911.374	11223
911.489	11159
911.604	11094
911.718	10980
911.833	10953
911.947	10774
912.062	10801
912.176	10957
912.291	10991
912.405	11014
912.519	11121
912.633	11109
912.748	11067
912.862	11052
912.976	10862
913.09	10691
913.204	10748
913.318	10759
913.431	10976
913.545	10911
913.659	10972
913.772	10873
913.886	10786
914	10634
914.113	10816
914.226	10892
914.34	10748
914.453	10679
914.566	10729
914.68	10618
914.793	10653
914.906	10512
915.019	10375
915.132	10390
915.245	10428
915.358	10523
915.47	10428
915.583	10371
915.696	10573
915.809	10569
915.921	10656
916.034	10352
916.146	10322
916.259	10413
916.371	10455
916.483	10535
916.595	10329
916.708	10402
916.82	10352
916.932	10344
917.044	10459
917.156	10348
917.268	10230
917.38	10291
917.491	10257
917.603	10280
917.715	10367
917.826	10398
917.938	10314
918.049	10143
918.161	10310
918.272	10390
918.384	10417
918.495	10341
918.606	10154
918.717	10051
918.828	10166
918.939	10227
919.05	10116
919.161	10185
919.272	10036
919.383	10032
919.494	10181
919.604	10443
919.715	10158
919.826	10120
919.936	10158
920.047	10287
920.157	10219
920.267	10443
920.378	10257
920.488	10196
920.598	10394
920.708	10516
920.818	10405
920.928	10382
921.038	10519
921.148	10466
921.258	10169
921.368	10162
921.477	10128
921.587	10048
921.697	9945
921.806	10093
921.916	9960
922.025	9747
922.134	9774
922.244	9698
922.353	9785
922.462	9606
922.571	9625
922.68	9454
922.789	9393
922.898	9462
923.007	9374
923.116	9450
923.224	9496
923.333	9416
923.442	9340
923.55	9268
923.659	9313
923.767	9485
923.876	9253
923.984	9359
924.092	9272
924.201	9264
924.309	9275
924.417	9306
924.525	9260
924.633	9313
924.741	10101
924.849	9104
924.956	9253
925.064	9066
925.172	9062
925.279	9028
925.387	9097
925.494	9093
925.602	9203
925.709	9180
925.816	9062
925.924	9074
926.031	9226
926.138	9112
926.245	9165
926.352	9062
926.459	9131
926.566	9154
926.673	9100
926.779	9009
926.886	8979
926.993	8857
927.099	8826
927.206	8766
927.312	8796
927.419	8845
927.525	8804
927.631	8887
927.737	8712
927.843	8655
927.95	8667
928.056	8625
928.162	8758
928.267	8773
928.373	9344
928.479	8804
928.585	8568
928.69	8708
928.796	8758
928.901	8670
929.007	8488
929.112	8663
929.218	8678
929.323	8629
929.428	8571
929.533	8655
929.638	8423
929.743	8484
929.848	8610
929.953	8495
930.058	8431
930.163	8286
930.267	8301
930.372	8427
930.477	8290
930.581	8507
930.685	8400
930.79	8202
930.894	8320
930.998	8229
931.103	8374
931.207	8005
931.311	7928
931.415	7868
931.519	7746
931.623	7727
