Data from test_V78500241_1040.txt Node
Date: Fri Mar 25 14:40:57 CST 2022
User: usil
Spectrometer: V785-0024
Trigger mode: 0
Integration Time (sec): 4.000000E-1
Scans to average: 1
Nonlinearity correction enabled: false
Boxcar width: 0
Storing dark spectrum: false
XAxis mode: Wavelengths
Number of Pixels in Spectrum: 1024
>>>>>Begin Spectral Data<<<<<
801.071	22790
801.214	22793
801.356	22542
801.499	22322
801.641	22215
801.783	22120
801.926	22329
802.068	22013
802.211	22063
802.353	21987
802.496	21770
802.638	21797
802.78	21633
802.923	21690
803.065	21564
803.208	21641
803.35	21580
803.492	21629
803.635	21599
803.777	21523
803.919	21587
804.061	21991
804.204	21648
804.346	21526
804.488	21469
804.63	21496
804.773	21462
804.915	21458
805.057	21686
805.199	21519
805.341	21587
805.483	21698
805.626	21625
805.768	21405
805.91	21606
806.052	21488
806.194	21561
806.336	21682
806.478	21549
806.62	21583
806.762	21587
806.904	21774
807.046	21930
807.188	22036
807.33	22029
807.472	21934
807.614	21835
807.756	21991
807.898	22010
808.04	21835
808.182	21975
808.324	22044
808.465	22082
808.607	22371
808.749	22641
808.891	22706
809.033	22820
809.174	22630
809.316	22481
809.458	22409
809.6	22261
809.741	22371
809.883	22086
810.025	22360
810.166	22329
810.308	22177
810.45	22238
810.591	21968
810.733	22010
810.875	21778
811.016	21751
811.158	21785
811.299	21762
811.441	22010
811.582	21838
811.724	21682
811.865	21667
812.007	21854
812.148	21804
812.29	21857
812.431	21800
812.573	22086
812.714	22082
812.855	22310
812.997	22329
813.138	22405
813.279	22268
813.421	22192
813.562	22230
813.703	22090
813.845	21850
813.986	21660
814.127	21401
814.268	21359
814.41	21287
814.551	21283
814.692	21408
814.833	21317
814.974	21233
815.115	21230
815.256	21119
815.397	21104
815.539	21077
815.68	21024
815.821	20895
815.962	21013
816.103	20956
816.244	20838
816.385	20815
816.526	20746
816.666	20522
816.807	20438
816.948	20530
817.089	20579
817.23	20419
817.371	20450
817.512	20484
817.653	20469
817.793	20423
817.934	20579
818.075	20507
818.216	20457
818.356	20244
818.497	20187
818.638	20077
818.778	20035
818.919	20054
819.06	20062
819.2	20233
819.341	20229
819.481	20275
819.622	20431
819.762	20785
819.903	20648
820.043	20377
820.184	20412
820.324	20434
820.465	20473
820.605	20419
820.746	20446
820.886	20206
821.026	20400
821.167	20370
821.307	20400
821.447	20412
821.588	20221
821.728	20092
821.868	19925
822.008	19940
822.149	19795
822.289	19803
822.429	19510
822.569	19537
822.709	19487
822.849	19384
822.99	19228
823.13	19289
823.27	19179
823.41	19095
823.55	18894
823.69	19023
823.83	19168
823.97	19190
824.11	18928
824.25	18692
824.389	18901
824.529	18837
824.669	18840
824.809	19065
824.949	19023
825.089	18833
825.228	18962
825.368	18719
825.508	18627
825.648	18612
825.787	18623
825.927	18608
826.067	18502
826.206	18642
826.346	18707
826.485	18703
826.625	18566
826.765	18669
826.904	18734
827.044	18308
827.183	18369
827.323	18365
827.462	18342
827.601	18171
827.741	18334
827.88	18315
828.02	18239
828.159	18228
828.298	18350
828.437	18426
828.577	18361
828.716	18460
828.855	18323
828.994	18041
829.134	18053
829.273	18022
829.412	17954
829.551	18007
829.69	18095
829.829	18182
829.968	18258
830.107	18106
830.246	18083
830.385	18049
830.524	18007
830.663	17840
830.802	17794
830.941	17802
831.08	17665
831.219	17786
831.357	17855
831.496	17885
831.635	17665
831.774	17596
831.913	17554
832.051	17452
832.19	17452
832.329	17547
832.467	17440
832.606	17376
832.744	17356
832.883	17406
833.022	17486
833.16	17600
833.299	17383
833.437	17471
833.576	17444
833.714	17478
833.852	17570
833.991	17615
834.129	17577
834.267	17619
834.406	17402
834.544	17581
834.682	17547
834.821	17376
834.959	17558
835.097	17444
835.235	17543
835.373	17417
835.511	17459
835.65	17406
835.788	17261
835.926	17223
836.064	17261
836.202	17212
836.34	17349
836.478	17433
836.615	17318
836.753	17383
836.891	17349
837.029	17372
837.167	17334
837.305	17197
837.443	17296
837.58	17212
837.718	17360
837.856	17239
837.993	17075
838.131	17254
838.269	17212
838.406	17105
838.544	17113
838.681	16866
838.819	16847
838.956	16782
839.094	16767
839.231	16733
839.369	16961
839.506	17140
839.643	16984
839.781	16721
839.918	16759
840.055	16771
840.193	16767
840.33	16778
840.467	16740
840.604	16828
840.742	16942
840.879	16702
841.016	16611
841.153	16683
841.29	16896
841.427	16717
841.564	16702
841.701	16668
841.838	16675
841.975	16698
842.112	16653
842.249	16478
842.385	16474
842.522	16713
842.659	16538
842.796	16512
842.933	16436
843.069	16413
843.206	16440
843.343	16538
843.479	16462
843.616	16504
843.752	16318
843.889	16348
844.025	16466
844.162	16390
844.298	16428
844.435	16356
844.571	16402
844.708	16371
844.844	16504
844.98	16466
845.117	16432
845.253	16413
845.389	16367
845.525	16596
845.661	16542
845.798	16729
845.934	16930
846.07	16949
846.206	16927
846.342	17022
846.478	16577
846.614	16249
846.75	16048
846.886	16021
847.022	15964
847.158	15922
847.294	15831
847.429	15915
847.565	15766
847.701	16059
847.837	15599
847.972	15595
848.108	15656
848.244	15542
848.379	15542
848.515	15469
848.65	15500
848.786	15424
848.921	15408
849.057	15542
849.192	15526
849.328	15519
849.463	15450
849.598	15439
849.734	15287
849.869	15249
850.004	15275
850.14	15268
850.275	15279
850.41	15062
850.545	15157
850.68	15230
850.815	15165
850.95	15214
851.085	15405
851.22	15264
851.355	15135
851.49	15104
851.625	15184
851.76	15192
851.895	15093
852.03	15085
852.165	15195
852.299	15211
852.434	15298
852.569	15306
852.703	15188
852.838	15298
852.973	15397
853.107	15344
853.242	15306
853.376	15089
853.511	14864
853.645	15005
853.78	15302
853.914	15039
854.048	15207
854.183	15074
854.317	15154
854.451	15268
854.585	14998
854.72	15036
854.854	15116
854.988	15043
855.122	14971
855.256	14944
855.39	15001
855.524	15157
855.658	15085
855.792	15062
855.926	15089
856.06	15127
856.194	15119
856.327	15104
856.461	14967
856.595	15051
856.729	15039
856.862	15142
856.996	15093
857.13	15180
857.263	15252
857.397	15161
857.53	15055
857.664	15119
857.797	15127
857.931	15123
858.064	15150
858.197	15024
858.331	15043
858.464	15005
858.597	14986
858.731	14975
858.864	15070
858.997	14948
859.13	15070
859.263	15157
859.396	15089
859.529	15017
859.662	14960
859.795	15055
859.928	15070
860.061	15252
860.194	15256
860.327	15127
860.46	15024
860.592	15245
860.725	15211
860.858	15146
860.99	15013
861.123	15017
861.256	14982
861.388	15013
861.521	15671
861.653	14960
861.786	14887
861.918	14982
862.05	14975
862.183	14990
862.315	14994
862.447	15119
862.58	14986
862.712	14872
862.844	14906
862.976	14906
863.108	14937
863.24	15230
863.372	14826
863.504	14785
863.636	14815
863.768	14883
863.9	14861
864.032	14693
864.164	14777
864.296	14906
864.428	14960
864.559	14906
864.691	14872
864.823	14842
864.954	14834
865.086	14864
865.217	14834
865.349	14781
865.48	14842
865.612	14838
865.743	14941
865.875	14800
866.006	14800
866.137	14777
866.269	14807
866.4	14895
866.531	14762
866.662	14765
866.793	14693
866.924	14712
867.055	14758
867.186	14773
867.317	14762
867.448	14697
867.579	14724
867.71	14663
867.841	14659
867.972	14819
868.103	14815
868.233	14868
868.364	14785
868.495	14781
868.625	15017
868.756	15157
868.886	14952
869.017	15039
869.147	15119
869.278	15131
869.408	14994
869.539	15039
869.669	15112
869.799	15146
869.929	15154
870.06	15157
870.19	15336
870.32	15416
870.45	15294
870.58	15344
870.71	15542
870.84	15519
870.97	15405
871.1	15389
871.23	15660
871.36	15610
871.489	15542
871.619	15614
871.749	15580
871.879	15641
872.008	15724
872.138	15713
872.267	15591
872.397	15504
872.526	15500
872.656	15561
872.785	15515
872.915	15591
873.044	15717
873.173	15675
873.303	15690
873.432	15739
873.561	15846
873.69	15781
873.819	15652
873.948	15762
874.077	15816
874.206	15633
874.335	15709
874.464	15823
874.593	15907
874.722	15899
874.851	15968
874.979	16040
875.108	16063
875.237	15968
875.365	15968
875.494	16021
875.623	16029
875.751	15972
875.88	15994
876.008	16154
876.136	16215
876.265	16424
876.393	16592
876.521	16516
876.65	16497
876.778	16489
876.906	16455
877.034	16405
877.162	16413
877.29	16310
877.418	16432
877.546	16417
877.674	16535
877.802	16500
877.93	16417
878.058	16443
878.185	16481
878.313	16432
878.441	16497
878.568	16390
878.696	16413
878.824	16481
878.951	16683
879.079	16831
879.206	17045
879.333	16927
879.461	16854
879.588	16908
879.715	17045
879.842	17166
879.97	16847
880.097	16523
880.224	16497
880.351	16443
880.478	16542
880.605	16394
880.732	16322
880.859	16561
880.986	16409
881.112	16360
881.239	16306
881.366	16211
881.493	16029
881.619	16051
881.746	16025
881.872	16051
881.999	15949
882.125	15987
882.252	16116
882.378	16078
882.505	16116
882.631	15899
882.757	15880
882.883	15850
883.01	15819
883.136	15850
883.262	15736
883.388	15751
883.514	15854
883.64	15975
883.766	15705
883.892	15580
884.018	15705
884.143	15888
884.269	15831
884.395	15644
884.52	15530
884.646	15511
884.772	15485
884.897	15424
885.023	15488
885.148	15667
885.274	15766
885.399	15660
885.524	15507
885.65	15564
885.775	15564
885.9	15382
886.025	15690
886.15	15595
886.275	15389
886.4	15401
886.525	15500
886.65	15515
886.775	15367
886.9	15629
887.025	15724
887.149	15492
887.274	15252
887.399	15272
887.523	15279
887.648	15317
887.773	15169
887.897	15428
888.021	15355
888.146	15256
888.27	15412
888.395	15397
888.519	15245
888.643	15351
888.767	15374
888.891	15161
889.015	15097
889.139	15260
889.263	15154
889.387	15222
889.511	15298
889.635	15203
889.759	15104
889.883	15097
890.006	15058
890.13	15256
890.254	15020
890.377	15108
890.501	14990
890.624	14887
890.748	14990
890.871	14845
890.995	14777
891.118	14735
891.241	14853
891.364	14769
891.488	14921
891.611	14807
891.734	14937
891.857	14899
891.98	14868
892.103	14982
892.226	14864
892.349	14800
892.471	14682
892.594	14613
892.717	14826
892.839	14762
892.962	14857
893.085	14864
893.207	14785
893.33	14743
893.452	14689
893.575	14811
893.697	14826
893.819	14925
893.941	15074
894.064	14933
894.186	14667
894.308	14716
894.43	14864
894.552	14933
894.674	14937
894.796	14746
894.918	14796
895.04	14773
895.161	14861
895.283	14788
895.405	14762
895.526	14906
895.648	14830
895.769	14868
895.891	14906
896.012	14960
896.134	14906
896.255	14941
896.376	14906
896.498	14918
896.619	14967
896.74	14952
896.861	15047
896.982	15279
897.103	15443
897.224	15173
897.345	15180
897.466	15123
897.587	15135
897.708	15340
897.828	15233
897.949	15195
898.07	15032
898.19	15195
898.311	15298
898.431	15218
898.552	15313
898.672	15393
898.792	15332
898.913	15317
899.033	15260
899.153	15119
899.273	15074
899.393	15085
899.513	15180
899.633	15146
899.753	15119
899.873	15097
899.993	15188
900.113	15077
900.232	15020
900.352	15150
900.472	15005
900.591	14899
900.711	15020
900.83	14971
900.95	15043
901.069	15043
901.189	14864
901.308	14746
901.427	14552
901.546	14526
901.665	14670
901.784	14697
901.904	14476
902.023	14503
902.141	14320
902.26	14271
902.379	14301
902.498	14225
902.617	14172
902.735	14229
902.854	14130
902.973	14130
903.091	13879
903.21	13906
903.328	13811
903.446	13822
903.565	13769
903.683	13738
903.801	13620
903.919	13837
904.038	13620
904.156	13674
904.274	13594
904.392	13552
904.51	13495
904.627	13506
904.745	13563
904.863	13575
904.981	13316
905.098	13266
905.216	13202
905.334	13289
905.451	13301
905.569	13232
905.686	13301
905.803	13255
905.921	13046
906.038	13156
906.155	13088
906.272	13088
906.389	12993
906.506	12821
906.623	12852
906.74	12772
906.857	12715
906.974	12703
907.091	12897
907.208	12928
907.324	12886
907.441	12734
907.557	12597
907.674	12551
907.79	12464
907.907	12471
908.023	12597
908.139	12448
908.256	12555
908.372	12471
908.488	12433
908.604	12330
908.72	12300
908.836	12281
908.952	12353
909.068	12296
909.184	12441
909.3	12346
909.415	12338
909.531	12243
909.647	12125
909.762	12114
909.878	12068
909.993	12057
910.108	12072
910.224	11946
910.339	12106
910.454	11969
910.57	11931
910.685	11931
910.8	12083
910.915	12129
911.03	11901
911.145	11821
911.259	11783
911.374	11741
911.489	11718
911.604	11646
911.718	11474
911.833	11501
911.947	11425
912.062	11299
912.176	11509
912.291	11528
912.405	11512
912.519	11691
912.633	11703
912.748	11615
912.862	11573
912.976	11436
913.09	11341
913.204	11364
913.318	11501
913.431	11535
913.545	11452
913.659	11459
913.772	11341
913.886	11193
914	11254
914.113	11410
914.226	11364
914.34	11292
914.453	11128
914.566	11326
914.68	11223
914.793	11121
914.906	11014
915.019	10904
915.132	10934
915.245	10908
915.358	10991
915.47	10984
915.583	10923
915.696	11052
915.809	11064
915.921	11094
916.034	10968
916.146	10923
916.259	10949
916.371	11083
916.483	10934
916.595	10812
916.708	10873
916.82	10953
916.932	10824
917.044	10911
917.156	10869
917.268	10744
917.38	10752
917.491	10771
917.603	10740
917.715	10953
917.826	10812
917.938	10744
918.049	10679
918.161	10725
918.272	10968
918.384	10934
918.495	10820
918.606	10717
918.717	10626
918.828	10649
918.939	10691
919.05	10675
919.161	10672
919.272	10470
919.383	10523
919.494	10729
919.604	10911
919.715	10683
919.826	10538
919.936	10626
920.047	10679
920.157	10679
920.267	10831
920.378	10744
920.488	10634
920.598	10942
920.708	10934
920.818	10908
920.928	10869
921.038	11075
921.148	10976
921.258	10649
921.368	10641
921.477	10527
921.587	10504
921.697	10386
921.806	10550
921.916	10405
922.025	10253
922.134	10196
922.244	10120
922.353	10204
922.462	10078
922.571	10067
922.68	9949
922.789	9930
922.898	9892
923.007	9895
923.116	9930
923.224	9869
923.333	9903
923.442	9743
923.55	9819
923.659	9876
923.767	9854
923.876	9698
923.984	9785
924.092	9705
924.201	9762
924.309	9747
924.417	9785
924.525	9728
924.633	9633
924.741	10577
924.849	9603
924.956	9705
925.064	9526
925.172	9412
925.279	9428
925.387	9530
925.494	9530
925.602	9686
925.709	9599
925.816	9420
925.924	9523
926.031	9629
926.138	9519
926.245	9606
926.352	9450
926.459	9526
926.566	9534
926.673	9454
926.779	9382
926.886	9298
926.993	9207
927.099	9161
927.206	9237
927.312	9131
927.419	9283
927.525	9211
927.631	9325
927.737	9138
927.843	9169
927.95	8975
928.056	9131
928.162	9161
928.267	9199
928.373	9808
928.479	9260
928.585	8937
928.69	9138
928.796	9100
928.901	9062
929.007	8975
929.112	9066
929.218	9005
929.323	8956
929.428	8891
929.533	8982
929.638	8857
929.743	8918
929.848	8967
929.953	8944
930.058	8853
930.163	8655
930.267	8689
930.372	8804
930.477	8712
930.581	8830
930.685	8769
930.79	8579
930.894	8697
930.998	8659
931.103	8731
931.207	8427
931.311	8339
931.415	8305
931.519	8153
931.623	8157
