Data from test_V78500241_1877.txt Node
Date: Fri Mar 25 14:46:46 CST 2022
User: usil
Spectrometer: V785-0024
Trigger mode: 0
Integration Time (sec): 4.000000E-1
Scans to average: 1
Nonlinearity correction enabled: false
Boxcar width: 0
Storing dark spectrum: false
XAxis mode: Wavelengths
Number of Pixels in Spectrum: 1024
>>>>>Begin Spectral Data<<<<<
801.071	22139
801.214	21953
801.356	21797
801.499	21694
801.641	21561
801.783	21583
801.926	21469
802.068	21435
802.211	21469
802.353	21298
802.496	21119
802.638	21051
802.78	21062
802.923	20876
803.065	20826
803.208	20743
803.35	20724
803.492	20998
803.635	20906
803.777	20910
803.919	20918
804.061	21275
804.204	20899
804.346	20765
804.488	20720
804.63	20834
804.773	20621
804.915	20758
805.057	20823
805.199	20697
805.341	20777
805.483	20933
805.626	20937
805.768	20686
805.91	20792
806.052	20785
806.194	20727
806.336	20842
806.478	20724
806.62	20655
806.762	20857
806.904	20994
807.046	21104
807.188	21195
807.33	21074
807.472	21074
807.614	20887
807.756	21047
807.898	20815
808.04	20880
808.182	20667
808.324	20807
808.465	20887
808.607	21066
808.749	21154
808.891	21233
809.033	21268
809.174	21150
809.316	21180
809.458	21058
809.6	21028
809.741	21176
809.883	21218
810.025	21408
810.166	21397
810.308	21329
810.45	21252
810.591	21043
810.733	20979
810.875	21001
811.016	20842
811.158	20849
811.299	20967
811.441	21058
811.582	20986
811.724	20891
811.865	20735
812.007	20887
812.148	20887
812.29	20952
812.431	21100
812.573	21287
812.714	21184
812.855	21401
812.997	21454
813.138	21599
813.279	21458
813.421	21363
813.562	21287
813.703	21310
813.845	21207
813.986	20708
814.127	20667
814.268	20537
814.41	20476
814.551	20530
814.692	20480
814.833	20351
814.974	20492
815.115	20434
815.256	20374
815.397	20393
815.539	20362
815.68	20210
815.821	20138
815.962	20248
816.103	20111
816.244	20001
816.385	19974
816.526	19890
816.666	19833
816.807	19655
816.948	19575
817.089	19693
817.23	19681
817.371	19529
817.512	19635
817.653	19670
817.793	19548
817.934	19620
818.075	19597
818.216	19559
818.356	19495
818.497	19339
818.638	19263
818.778	19301
818.919	19255
819.06	19293
819.2	19350
819.341	19434
819.481	19472
819.622	19605
819.762	19791
819.903	19616
820.043	19643
820.184	19537
820.324	19601
820.465	19715
820.605	19689
820.746	19567
820.886	19400
821.026	19510
821.167	19487
821.307	19601
821.447	19506
821.588	19460
821.728	19274
821.868	19133
822.008	19004
822.149	18996
822.289	19012
822.429	18673
822.569	18616
822.709	18757
822.849	18460
822.99	18445
823.13	18433
823.27	18414
823.41	18315
823.55	18277
823.69	18319
823.83	18323
823.97	18232
824.11	18098
824.25	18003
824.389	18178
824.529	18148
824.669	18091
824.809	18133
824.949	18110
825.089	18182
825.228	18038
825.368	17817
825.508	17855
825.648	17908
825.787	17802
825.927	17931
826.067	17779
826.206	17802
826.346	17836
826.485	17726
826.625	17737
826.765	18007
826.904	17935
827.044	17657
827.183	17630
827.323	17486
827.462	17459
827.601	17493
827.741	17467
827.88	17509
828.02	17433
828.159	17376
828.298	17490
828.437	17528
828.577	17505
828.716	17608
828.855	17486
828.994	17345
829.134	17322
829.273	17269
829.412	17235
829.551	17250
829.69	17193
829.829	17273
829.968	17398
830.107	17337
830.246	17322
830.385	17246
830.524	17143
830.663	17060
830.802	16976
830.941	16824
831.08	16858
831.219	16911
831.357	17071
831.496	17029
831.635	16892
831.774	16854
831.913	16774
832.051	16615
832.19	16706
832.329	16713
832.467	16618
832.606	16519
832.744	16504
832.883	16596
833.022	16440
833.16	16649
833.299	16634
833.437	16569
833.576	16679
833.714	16596
833.852	16702
833.991	16759
834.129	16694
834.267	16733
834.406	16668
834.544	16656
834.682	16771
834.821	16626
834.959	16824
835.097	16664
835.235	16763
835.373	16675
835.511	16675
835.65	16542
835.788	16554
835.926	16394
836.064	16443
836.202	16318
836.34	16626
836.478	16687
836.615	16542
836.753	16603
836.891	16755
837.029	16641
837.167	16569
837.305	16531
837.443	16436
837.58	16363
837.718	16443
837.856	16390
837.993	16421
838.131	16459
838.269	16322
838.406	16310
838.544	16303
838.681	16207
838.819	16265
838.956	15911
839.094	16029
839.231	15987
839.369	16048
839.506	16424
839.643	16238
839.781	16074
839.918	15941
840.055	16021
840.193	16090
840.33	15861
840.467	16006
840.604	15956
840.742	16265
840.879	15903
841.016	15926
841.153	15857
841.29	16116
841.427	16017
841.564	16021
841.701	15983
841.838	16002
841.975	15869
842.112	15972
842.249	15751
842.385	15778
842.522	15960
842.659	15865
842.796	15717
842.933	15705
843.069	15743
843.206	15701
843.343	15816
843.479	15778
843.616	15831
843.752	15557
843.889	15553
844.025	15705
844.162	15523
844.298	15663
844.435	15500
844.571	15488
844.708	15526
844.844	15778
844.98	15701
845.117	15656
845.253	15515
845.389	15321
845.525	15431
845.661	15466
845.798	15256
845.934	15405
846.07	15351
846.206	15336
846.342	15485
846.478	15249
846.614	15313
846.75	15173
846.886	15165
847.022	15108
847.158	15089
847.294	15154
847.429	15252
847.565	15119
847.701	15344
847.837	14792
847.972	14727
848.108	14944
848.244	14887
848.379	14785
848.515	14800
848.65	14754
848.786	14705
848.921	14849
849.057	14724
849.192	14807
849.328	14804
849.463	14727
849.598	14644
849.734	14613
849.869	14651
850.004	14499
850.14	14568
850.275	14492
850.41	14415
850.545	14381
850.68	14514
850.815	14419
850.95	14438
851.085	14636
851.22	14568
851.355	14499
851.49	14442
851.625	14514
851.76	14499
851.895	14522
852.03	14301
852.165	14511
852.299	14427
852.434	14442
852.569	14530
852.703	14503
852.838	14629
852.973	14648
853.107	14674
853.242	14412
853.376	14347
853.511	14225
853.645	14389
853.78	14442
853.914	14271
854.048	14320
854.183	14355
854.317	14355
854.451	14575
854.585	14298
854.72	14256
854.854	14484
854.988	14320
855.122	14385
855.256	14218
855.39	14278
855.524	14431
855.658	14450
855.792	14381
855.926	14412
856.06	14355
856.194	14507
856.327	14358
856.461	14362
856.595	14176
856.729	14362
856.862	14454
856.996	14473
857.13	14415
857.263	14393
857.397	14454
857.53	14389
857.664	14298
857.797	14438
857.931	14454
858.064	14381
858.197	14427
858.331	14381
858.464	14362
858.597	14221
858.731	14282
858.864	14347
858.997	14347
859.13	14412
859.263	14374
859.396	14419
859.529	14339
859.662	14290
859.795	14381
859.928	14393
860.061	14560
860.194	14499
860.327	14400
860.46	14423
860.592	14450
860.725	14389
860.858	14518
860.99	14377
861.123	14305
861.256	14431
861.388	14438
861.521	14956
861.653	14301
861.786	14256
861.918	14202
862.05	14187
862.183	14366
862.315	14358
862.447	14317
862.58	14267
862.712	14210
862.844	14123
862.976	14225
863.108	14119
863.24	14507
863.372	14039
863.504	14123
863.636	14027
863.768	14210
863.9	14176
864.032	14012
864.164	14096
864.296	14161
864.428	14347
864.559	14199
864.691	14191
864.823	14168
864.954	14282
865.086	14259
865.217	14145
865.349	14062
865.48	14111
865.612	14138
865.743	14298
865.875	14206
866.006	14191
866.137	14088
866.269	14149
866.4	14130
866.531	14100
866.662	14050
866.793	14142
866.924	14031
867.055	14107
867.186	14039
867.317	14039
867.448	14020
867.579	14024
867.71	14115
867.841	14043
867.972	14153
868.103	14164
868.233	14081
868.364	14103
868.495	14183
868.625	14320
868.756	14511
868.886	14229
869.017	14393
869.147	14598
869.278	14533
869.408	14404
869.539	14362
869.669	14446
869.799	14404
869.929	14492
870.06	14488
870.19	14651
870.32	14674
870.45	14686
870.58	14731
870.71	14826
870.84	14960
870.97	14834
871.1	14807
871.23	15032
871.36	14891
871.489	14891
871.619	14937
871.749	14963
871.879	14963
872.008	15020
872.138	14918
872.267	14979
872.397	14773
872.526	14811
872.656	14796
872.785	14727
872.915	14982
873.044	15112
873.173	15058
873.303	14990
873.432	15058
873.561	15123
873.69	15055
873.819	15001
873.948	15135
874.077	15024
874.206	14979
874.335	14944
874.464	15173
874.593	15256
874.722	15302
874.851	15359
874.979	15393
875.108	15291
875.237	15260
875.365	15127
875.494	15332
875.623	15435
875.751	15218
875.88	15336
876.008	15507
876.136	15580
876.265	15854
876.393	15899
876.521	15781
876.65	15770
876.778	15709
876.906	15766
877.034	15709
877.162	15770
877.29	15671
877.418	15800
877.546	15751
877.674	15751
877.802	15778
877.93	15838
878.058	15660
878.185	15587
878.313	15732
878.441	15755
878.568	15614
878.696	15690
878.824	15709
878.951	15892
879.079	15861
879.206	15960
879.333	15819
879.461	15778
879.588	15876
879.715	15945
879.842	16051
879.97	15873
880.097	15584
880.224	15564
880.351	15572
880.478	15599
880.605	15587
880.732	15587
880.859	15854
880.986	15713
881.112	15622
881.239	15629
881.366	15393
881.493	15256
881.619	15180
881.746	15279
881.872	15252
881.999	15173
882.125	15192
882.252	15264
882.378	15275
882.505	15435
882.631	15043
882.757	15036
882.883	15093
883.01	15157
883.136	15013
883.262	14952
883.388	14838
883.514	15146
883.64	15112
883.766	14906
883.892	14910
884.018	14921
884.143	15028
884.269	15074
884.395	14845
884.52	14625
884.646	14811
884.772	14743
884.897	14598
885.023	14796
885.148	14845
885.274	14941
885.399	14872
885.524	14754
885.65	14773
885.775	14701
885.9	14842
886.025	14876
886.15	14853
886.275	14788
886.4	14644
886.525	14769
886.65	14750
886.775	14659
886.9	14876
887.025	14982
887.149	14842
887.274	14594
887.399	14476
887.523	14598
887.648	14511
887.773	14495
887.897	14746
888.021	14632
888.146	14552
888.27	14792
888.395	14800
888.519	14678
888.643	14693
888.767	14686
888.891	14518
889.015	14469
889.139	14606
889.263	14434
889.387	14598
889.511	14705
889.635	14663
889.759	14446
889.883	14488
890.006	14469
890.13	14530
890.254	14465
890.377	14499
890.501	14252
890.624	14244
890.748	14366
890.871	14164
890.995	14244
891.118	14100
891.241	14172
891.364	14084
891.488	14233
891.611	14134
891.734	14202
891.857	14199
891.98	14191
892.103	14225
892.226	14153
892.349	14058
892.471	14039
892.594	14142
892.717	14103
892.839	14096
892.962	14176
893.085	14244
893.207	14199
893.33	13986
893.452	14077
893.575	14282
893.697	14050
893.819	14328
893.941	14351
894.064	14313
894.186	14126
894.308	14119
894.43	14278
894.552	14320
894.674	14320
894.796	14077
894.918	14183
895.04	14130
895.161	14271
895.283	14256
895.405	14157
895.526	14248
895.648	14343
895.769	14332
895.891	14309
896.012	14427
896.134	14305
896.255	14355
896.376	14286
896.498	14385
896.619	14396
896.74	14324
896.861	14415
896.982	14731
897.103	14785
897.224	14621
897.345	14518
897.466	14602
897.587	14693
897.708	14705
897.828	14651
897.949	14610
898.07	14446
898.19	14511
898.311	14804
898.431	14571
898.552	14598
898.672	14777
898.792	14792
898.913	14731
899.033	14625
899.153	14560
899.273	14484
899.393	14446
899.513	14625
899.633	14560
899.753	14606
899.873	14480
899.993	14644
900.113	14423
900.232	14670
900.352	14469
900.472	14503
900.591	14339
900.711	14404
900.83	14343
900.95	14473
901.069	14583
901.189	14362
901.308	14084
901.427	13989
901.546	14107
901.665	14081
901.784	14005
901.904	13909
902.023	13845
902.141	13685
902.26	13628
902.379	13738
902.498	13689
902.617	13620
902.735	13605
902.854	13677
902.973	13624
903.091	13419
903.21	13354
903.328	13419
903.446	13350
903.565	13206
903.683	13228
903.801	13129
903.919	13122
904.038	13213
904.156	13031
904.274	13042
904.392	12951
904.51	13019
904.627	12985
904.745	13065
904.863	13069
904.981	12882
905.098	12707
905.216	12620
905.334	12787
905.451	12684
905.569	12684
905.686	12745
905.803	12791
905.921	12536
906.038	12715
906.155	12521
906.272	12441
906.389	12483
906.506	12376
906.623	12346
906.74	12262
906.857	12228
906.974	12205
907.091	12319
907.208	12426
907.324	12357
907.441	12190
907.557	12019
907.674	12030
907.79	12026
907.907	12045
908.023	12095
908.139	11999
908.256	11977
908.372	12011
908.488	11992
908.604	11824
908.72	11779
908.836	11870
908.952	11783
909.068	11817
909.184	11973
909.3	11859
909.415	11836
909.531	11843
909.647	11627
909.762	11554
909.878	11543
909.993	11562
910.108	11585
910.224	11516
910.339	11592
910.454	11562
910.57	11490
910.685	11353
910.8	11642
910.915	11615
911.03	11406
911.145	11254
911.259	11326
911.374	11273
911.489	11189
911.604	11159
911.718	11090
911.833	11071
911.947	10934
912.062	10824
912.176	10984
912.291	11041
912.405	11010
912.519	11155
912.633	11288
912.748	11071
912.862	11128
912.976	10915
913.09	10797
913.204	10877
913.318	10930
913.431	11014
913.545	10949
913.659	11010
913.772	10908
913.886	10816
914	10812
914.113	10896
914.226	10965
914.34	10839
914.453	10691
914.566	10881
914.68	10752
914.793	10721
914.906	10569
915.019	10489
915.132	10478
915.245	10573
915.358	10588
915.47	10584
915.583	10580
915.696	10618
915.809	10588
915.921	10714
916.034	10558
916.146	10451
916.259	10356
916.371	10607
916.483	10500
916.595	10432
916.708	10451
916.82	10485
916.932	10371
917.044	10413
917.156	10459
917.268	10322
917.38	10322
917.491	10322
917.603	10333
917.715	10451
917.826	10436
917.938	10394
918.049	10215
918.161	10352
918.272	10474
918.384	10527
918.495	10382
918.606	10227
918.717	10173
918.828	10261
918.939	10169
919.05	10169
919.161	10204
919.272	10040
919.383	10162
919.494	10318
919.604	10432
919.715	10322
919.826	10207
919.936	10204
920.047	10352
920.157	10261
920.267	10440
920.378	10230
920.488	10185
920.598	10497
920.708	10691
920.818	10546
920.928	10417
921.038	10694
921.148	10565
921.258	10375
921.368	10166
921.477	10139
921.587	10067
921.697	10048
921.806	10078
921.916	9987
922.025	9884
922.134	9827
922.244	9743
922.353	9876
922.462	9747
922.571	9644
922.68	9477
922.789	9549
922.898	9580
923.007	9469
923.116	9545
923.224	9568
923.333	9488
923.442	9378
923.55	9401
923.659	9370
923.767	9496
923.876	9374
923.984	9447
924.092	9329
924.201	9401
924.309	9351
924.417	9416
924.525	9325
924.633	9325
924.741	10219
924.849	9081
924.956	9283
925.064	9207
925.172	9123
925.279	9093
925.387	9173
925.494	9173
925.602	9268
925.709	9268
925.816	9036
925.924	9184
926.031	9325
926.138	9146
926.245	9157
926.352	9077
926.459	9241
926.566	9268
926.673	9173
926.779	9028
926.886	8990
926.993	8895
927.099	8887
927.206	8849
927.312	8804
927.419	8941
927.525	8899
927.631	8967
927.737	8891
927.843	8769
927.95	8632
928.056	8735
928.162	8796
928.267	8834
928.373	9367
928.479	8834
928.585	8625
928.69	8750
928.796	8807
928.901	8667
929.007	8571
929.112	8720
929.218	8606
929.323	8621
929.428	8594
929.533	8743
929.638	8469
929.743	8583
929.848	8571
929.953	8568
930.058	8511
930.163	8385
930.267	8320
930.372	8454
930.477	8374
930.581	8514
930.685	8480
930.79	8252
930.894	8347
930.998	8240
931.103	8408
931.207	8123
931.311	8027
931.415	7955
931.519	7799
931.623	7868
