Data from test_V78500241_273.txt Node
Date: Fri Mar 25 14:35:37 CST 2022
User: usil
Spectrometer: V785-0024
Trigger mode: 0
Integration Time (sec): 4.000000E-1
Scans to average: 1
Nonlinearity correction enabled: false
Boxcar width: 0
Storing dark spectrum: false
XAxis mode: Wavelengths
Number of Pixels in Spectrum: 1024
>>>>>Begin Spectral Data<<<<<
801.071	27283
801.214	27283
801.356	27055
801.499	27001
801.641	26754
801.783	26735
801.926	26819
802.068	26739
802.211	26834
802.353	26499
802.496	26351
802.638	26518
802.78	26400
802.923	26317
803.065	26168
803.208	26126
803.35	26309
803.492	26419
803.635	26366
803.777	26343
803.919	26423
804.061	26564
804.204	26457
804.346	26400
804.488	26244
804.63	26278
804.773	26259
804.915	26412
805.057	26324
805.199	26263
805.341	26400
805.483	26404
805.626	26343
805.768	26176
805.91	26495
806.052	26240
806.194	26366
806.336	26602
806.478	26408
806.62	26305
806.762	26324
806.904	26480
807.046	26762
807.188	26712
807.33	26735
807.472	26785
807.614	26670
807.756	26701
807.898	26530
808.04	26606
808.182	26682
808.324	26594
808.465	26583
808.607	26864
808.749	26967
808.891	26979
809.033	27245
809.174	27028
809.316	27085
809.458	26891
809.6	26796
809.741	26933
809.883	26940
810.025	27123
810.166	27146
810.308	26975
810.45	27051
810.591	27005
810.733	26861
810.875	26724
811.016	26644
811.158	26587
811.299	26769
811.441	26826
811.582	26670
811.724	26571
811.865	26514
812.007	26712
812.148	26598
812.29	26720
812.431	26857
812.573	26979
812.714	27077
812.855	27131
812.997	27203
813.138	27401
813.279	27313
813.421	27222
813.562	27100
813.703	26952
813.845	26960
813.986	26423
814.127	26362
814.268	26294
814.41	26305
814.551	26126
814.692	26374
814.833	26252
814.974	26191
815.115	26248
815.256	25970
815.397	26183
815.539	25982
815.68	26050
815.821	25864
815.962	26020
816.103	26008
816.244	25826
816.385	25658
816.526	25632
816.666	25594
816.807	25426
816.948	25358
817.089	25540
817.23	25403
817.371	25244
817.512	25403
817.653	25365
817.793	25343
817.934	25202
818.075	25464
818.216	25422
818.356	25206
818.497	25225
818.638	25114
818.778	24924
818.919	25042
819.06	25080
819.2	25202
819.341	25320
819.481	25247
819.622	25430
819.762	25613
819.903	25582
820.043	25400
820.184	25365
820.324	25381
820.465	25400
820.605	25411
820.746	25369
820.886	25278
821.026	25293
821.167	25396
821.307	25293
821.447	25171
821.588	25187
821.728	24928
821.868	24859
822.008	24700
822.149	24601
822.289	24593
822.429	24441
822.569	24277
822.709	24380
822.849	24144
822.99	24205
823.13	24007
823.27	24018
823.41	23916
823.55	23942
823.69	23923
823.83	23965
823.97	23802
824.11	23745
824.25	23752
824.389	23752
824.529	23794
824.669	23695
824.809	23824
824.949	23752
825.089	23729
825.228	23668
825.368	23524
825.508	23592
825.648	23600
825.787	23524
825.927	23634
826.067	23429
826.206	23482
826.346	23512
826.485	23547
826.625	23535
826.765	23551
826.904	23684
827.044	23250
827.183	23330
827.323	23185
827.462	23322
827.601	23140
827.741	23140
827.88	23220
828.02	23178
828.159	23048
828.298	23246
828.437	23231
828.577	23041
828.716	23307
828.855	23060
828.994	22953
829.134	22889
829.273	22896
829.412	22755
829.551	22847
829.69	22831
829.829	22995
829.968	22995
830.107	22953
830.246	22892
830.385	22733
830.524	22752
830.663	22687
830.802	22535
830.941	22538
831.08	22440
831.219	22531
831.357	22363
831.496	22546
831.635	22428
831.774	22295
831.913	22280
832.051	22105
832.19	22226
832.329	22188
832.467	22139
832.606	22112
832.744	22055
832.883	22067
833.022	21960
833.16	22070
833.299	22219
833.437	22109
833.576	22090
833.714	22109
833.852	22128
833.991	22112
834.129	22226
834.267	22150
834.406	22040
834.544	22128
834.682	22139
834.821	22124
834.959	22329
835.097	22021
835.235	22078
835.373	21953
835.511	22025
835.65	22010
835.788	21941
835.926	21846
836.064	21648
836.202	21739
836.34	21987
836.478	21972
836.615	21854
836.753	21922
836.891	21918
837.029	21812
837.167	21854
837.305	21876
837.443	21705
837.58	21785
837.718	21873
837.856	21770
837.993	21743
838.131	21652
838.269	21504
838.406	21675
838.544	21583
838.681	21302
838.819	21401
838.956	21241
839.094	21093
839.231	21279
839.369	21363
839.506	21538
839.643	21466
839.781	21188
839.918	21222
840.055	21176
840.193	21192
840.33	21066
840.467	21119
840.604	21043
840.742	21317
840.879	21032
841.016	21074
841.153	21096
841.29	21142
841.427	21081
841.564	21085
841.701	21108
841.838	20998
841.975	20838
842.112	20891
842.249	20944
842.385	20724
842.522	21032
842.659	20845
842.796	20712
842.933	20788
843.069	20792
843.206	20781
843.343	20952
843.479	20838
843.616	20686
843.752	20678
843.889	20518
844.025	20765
844.162	20651
844.298	20701
844.435	20549
844.571	20560
844.708	20587
844.844	20693
844.98	20746
845.117	20659
845.253	20415
845.389	20549
845.525	20541
845.661	20602
845.798	20358
845.934	20518
846.07	20522
846.206	20480
846.342	20590
846.478	20351
846.614	20324
846.75	19917
846.886	20062
847.022	20122
847.158	20012
847.294	20035
847.429	20043
847.565	20084
847.701	20206
847.837	19776
847.972	19685
848.108	19803
848.244	19814
848.379	19639
848.515	19639
848.65	19548
848.786	19590
848.921	19575
849.057	19624
849.192	19677
849.328	19571
849.463	19483
849.598	19495
849.734	19445
849.869	19422
850.004	19384
850.14	19301
850.275	19339
850.41	19152
850.545	19316
850.68	19255
850.815	19289
850.95	19324
851.085	19422
851.22	19339
851.355	19403
851.49	19282
851.625	19358
851.76	19396
851.895	19209
852.03	19175
852.165	19247
852.299	19175
852.434	19274
852.569	19362
852.703	19255
852.838	19316
852.973	19384
853.107	19392
853.242	19335
853.376	19152
853.511	19057
853.645	19080
853.78	19278
853.914	19152
854.048	19061
854.183	19004
854.317	19019
854.451	19331
854.585	19080
854.72	19072
854.854	19202
854.988	18882
855.122	19072
855.256	18909
855.39	19099
855.524	19206
855.658	19194
855.792	19076
855.926	19137
856.06	19202
856.194	19133
856.327	19129
856.461	19027
856.595	19031
856.729	19057
856.862	19190
856.996	19152
857.13	19004
857.263	19198
857.397	19160
857.53	18958
857.664	19076
857.797	19160
857.931	19217
858.064	19114
858.197	19171
858.331	19107
858.464	18871
858.597	18882
858.731	19107
858.864	19076
858.997	19008
859.13	18962
859.263	19110
859.396	19080
859.529	19004
859.662	18947
859.795	18962
859.928	19148
860.061	19221
860.194	19206
860.327	19065
860.46	19065
860.592	19164
860.725	19194
860.858	19179
860.99	19072
861.123	18935
861.256	19019
861.388	19046
861.521	19662
861.653	18837
861.786	18844
861.918	18958
862.05	18909
862.183	19107
862.315	19168
862.447	19084
862.58	18973
862.712	18825
862.844	18772
862.976	18787
863.108	18859
863.24	19255
863.372	18597
863.504	18684
863.636	18711
863.768	18722
863.9	18715
864.032	18642
864.164	18821
864.296	18871
864.428	18829
864.559	18844
864.691	18814
864.823	18768
864.954	18726
865.086	18840
865.217	18525
865.349	18582
865.48	18639
865.612	18601
865.743	18905
865.875	18840
866.006	18734
866.137	18707
866.269	18654
866.4	18650
866.531	18547
866.662	18574
866.793	18669
866.924	18585
867.055	18601
867.186	18673
867.317	18669
867.448	18559
867.579	18623
867.71	18521
867.841	18620
867.972	18658
868.103	18589
868.233	18620
868.364	18597
868.495	18601
868.625	18783
868.756	18844
868.886	18669
869.017	18875
869.147	18829
869.278	19004
869.408	18897
869.539	18795
869.669	18935
869.799	18791
869.929	18947
870.06	18962
870.19	19145
870.32	19057
870.45	19259
870.58	19289
870.71	19422
870.84	19198
870.97	19274
871.1	19236
871.23	19362
871.36	19350
871.489	19320
871.619	19350
871.749	19407
871.879	19411
872.008	19571
872.138	19415
872.267	19483
872.397	19297
872.526	19316
872.656	19187
872.785	19213
872.915	19388
873.044	19540
873.173	19411
873.303	19582
873.432	19548
873.561	19594
873.69	19400
873.819	19559
873.948	19605
874.077	19438
874.206	19388
874.335	19506
874.464	19502
874.593	19662
874.722	19704
874.851	19700
874.979	19674
875.108	19753
875.237	19594
875.365	19704
875.494	19769
875.623	19864
875.751	19605
875.88	19791
876.008	19845
876.136	19871
876.265	20221
876.393	20301
876.521	20103
876.65	20176
876.778	20107
876.906	19913
877.034	20050
877.162	20195
877.29	19963
877.418	20043
877.546	20096
877.674	20180
877.802	20016
877.93	20020
878.058	20077
878.185	19940
878.313	20153
878.441	20088
878.568	19917
878.696	20164
878.824	20138
878.951	20202
879.079	20351
879.206	20404
879.333	20313
879.461	20218
879.588	20271
879.715	20450
879.842	20511
879.97	20332
880.097	19947
880.224	19963
880.351	19986
880.478	20050
880.605	19921
880.732	19951
880.859	20237
880.986	20008
881.112	20081
881.239	19849
881.366	19677
881.493	19605
881.619	19480
881.746	19533
881.872	19559
881.999	19620
882.125	19388
882.252	19616
882.378	19712
882.505	19769
882.631	19552
882.757	19335
882.883	19358
883.01	19407
883.136	19221
883.262	19190
883.388	19266
883.514	19369
883.64	19457
883.766	19304
883.892	19206
884.018	19110
884.143	19282
884.269	19354
884.395	19031
884.52	18932
884.646	19053
884.772	18939
884.897	18993
885.023	19114
885.148	19232
885.274	19160
885.399	19088
885.524	19061
885.65	19046
885.775	18981
885.9	18947
886.025	19145
886.15	19027
886.275	18840
886.4	18840
886.525	19019
886.65	18890
886.775	18909
886.9	19065
887.025	19198
887.149	19027
887.274	18859
887.399	18692
887.523	18688
887.648	18738
887.773	18707
887.897	18897
888.021	18719
888.146	18665
888.27	18798
888.395	18802
888.519	18825
888.643	18894
888.767	18673
888.891	18585
889.015	18525
889.139	18623
889.263	18498
889.387	18627
889.511	18734
889.635	18646
889.759	18433
889.883	18384
890.006	18498
890.13	18654
890.254	18403
890.377	18551
890.501	18292
890.624	18163
890.748	18342
890.871	18148
890.995	18182
891.118	18091
891.241	18060
891.364	18197
891.488	18209
891.611	18117
891.734	18216
891.857	18311
891.98	18148
892.103	18273
892.226	18083
892.349	18125
892.471	17863
892.594	18041
892.717	18114
892.839	18098
892.962	18041
893.085	18144
893.207	18057
893.33	17988
893.452	18015
893.575	18167
893.697	18003
893.819	18235
893.941	18209
894.064	18258
894.186	18049
894.308	17992
894.43	18136
894.552	18197
894.674	18194
894.796	18015
894.918	17912
895.04	18026
895.161	18178
895.283	18072
895.405	17999
895.526	18003
895.648	18178
895.769	18102
895.891	18114
896.012	18194
896.134	18087
896.255	18152
896.376	18076
896.498	18121
896.619	18148
896.74	18182
896.861	18266
896.982	18433
897.103	18650
897.224	18464
897.345	18418
897.466	18361
897.587	18441
897.708	18471
897.828	18452
897.949	18418
898.07	18361
898.19	18395
898.311	18395
898.431	18357
898.552	18403
898.672	18464
898.792	18559
898.913	18289
899.033	18163
899.153	18201
899.273	18098
899.393	18174
899.513	18136
899.633	18224
899.753	17999
899.873	18152
899.993	18178
900.113	18121
900.232	18144
900.352	18159
900.472	18087
900.591	17847
900.711	17950
900.83	17923
900.95	18155
901.069	18091
901.189	17859
901.308	17752
901.427	17642
901.546	17619
901.665	17646
901.784	17589
901.904	17497
902.023	17326
902.141	17235
902.26	17174
902.379	17220
902.498	17227
902.617	17022
902.735	17162
902.854	17018
902.973	17041
903.091	16786
903.21	16786
903.328	16752
903.446	16736
903.565	16584
903.683	16596
903.801	16523
903.919	16596
904.038	16474
904.156	16459
904.274	16527
904.392	16390
904.51	16348
904.627	16451
904.745	16428
904.863	16375
904.981	16139
905.098	15975
905.216	16063
905.334	16063
905.451	16063
905.569	16040
905.686	16116
905.803	16071
905.921	15816
906.038	15975
906.155	15743
906.272	15743
906.389	15686
906.506	15614
906.623	15618
906.74	15538
906.857	15408
906.974	15504
907.091	15580
907.208	15717
907.324	15606
907.441	15507
907.557	15291
907.674	15351
907.79	15287
907.907	15279
908.023	15264
908.139	15321
908.256	15237
908.372	15176
908.488	15199
908.604	14960
908.72	14910
908.836	14910
908.952	14910
909.068	14944
909.184	15055
909.3	14975
909.415	14998
909.531	14925
909.647	14705
909.762	14720
909.878	14587
909.993	14777
910.108	14701
910.224	14625
910.339	14678
910.454	14568
910.57	14545
910.685	14389
910.8	14758
910.915	14545
911.03	14530
911.145	14320
911.259	14381
911.374	14328
911.489	14263
911.604	14168
911.718	14126
911.833	14012
911.947	13894
912.062	13871
912.176	13989
912.291	13974
912.405	14031
912.519	14233
912.633	14225
912.748	14145
912.862	14039
912.976	13925
913.09	13788
913.204	13849
913.318	13921
913.431	13955
913.545	13917
913.659	13868
913.772	13879
913.886	13788
914	13700
914.113	13841
914.226	13902
914.34	13795
914.453	13571
914.566	13776
914.68	13540
914.793	13559
914.906	13449
915.019	13362
915.132	13274
915.245	13362
915.358	13419
915.47	13422
915.583	13320
915.696	13316
915.809	13438
915.921	13533
916.034	13369
916.146	13263
916.259	13225
916.371	13335
916.483	13457
916.595	13202
916.708	13206
916.82	13266
916.932	13183
917.044	13168
917.156	13126
917.268	13053
917.38	13118
917.491	12951
917.603	13061
917.715	13301
917.826	13137
917.938	13015
918.049	13012
918.161	13000
918.272	13236
918.384	13156
918.495	13053
918.606	12840
918.717	12779
918.828	12890
918.939	12943
919.05	12741
919.161	12825
919.272	12730
919.383	12684
919.494	12886
919.604	13080
919.715	12821
919.826	12825
919.936	12878
920.047	12859
920.157	12856
920.267	13023
920.378	12867
920.488	12905
920.598	12901
920.708	13240
920.818	12909
920.928	13027
921.038	13118
921.148	13046
921.258	12757
921.368	12612
921.477	12593
921.587	12616
921.697	12410
921.806	12608
921.916	12414
922.025	12346
922.134	12281
922.244	12239
922.353	12182
922.462	12175
922.571	12140
922.68	11988
922.789	11916
922.898	11954
923.007	11813
923.116	12007
923.224	11927
923.333	11893
923.442	11752
923.55	11748
923.659	11847
923.767	11866
923.876	11760
923.984	11752
924.092	11642
924.201	11668
924.309	11733
924.417	11691
924.525	11623
924.633	11676
924.741	12627
924.849	11524
924.956	11623
925.064	11425
925.172	11353
925.279	11410
925.387	11535
925.494	11406
925.602	11532
925.709	11482
925.816	11398
925.924	11360
926.031	11554
926.138	11402
926.245	11505
926.352	11353
926.459	11417
926.566	11459
926.673	11307
926.779	11201
926.886	11265
926.993	11155
927.099	10980
927.206	11022
927.312	10961
927.419	11041
927.525	11037
927.631	11048
927.737	10961
927.843	10889
927.95	10755
928.056	10892
928.162	10938
928.267	10889
928.373	11444
928.479	10972
928.585	10733
928.69	10885
928.796	10927
928.901	10752
929.007	10694
929.112	10759
929.218	10786
929.323	10653
929.428	10603
929.533	10790
929.638	10637
929.743	10626
929.848	10740
929.953	10565
930.058	10538
930.163	10356
930.267	10459
930.372	10531
930.477	10371
930.581	10523
930.685	10356
930.79	10249
930.894	10291
930.998	10173
931.103	10371
931.207	9991
931.311	9956
931.415	9903
931.519	9606
931.623	9610
