Data from test_V78500241_2430.txt Node
Date: Fri Mar 25 14:50:38 CST 2022
User: usil
Spectrometer: V785-0024
Trigger mode: 0
Integration Time (sec): 4.000000E-1
Scans to average: 1
Nonlinearity correction enabled: false
Boxcar width: 0
Storing dark spectrum: false
XAxis mode: Wavelengths
Number of Pixels in Spectrum: 1024
>>>>>Begin Spectral Data<<<<<
801.071	22185
801.214	22010
801.356	21709
801.499	21709
801.641	21599
801.783	21557
801.926	21481
802.068	21553
802.211	21351
802.353	21264
802.496	20994
802.638	20956
802.78	20914
802.923	20815
803.065	20708
803.208	20727
803.35	20781
803.492	20906
803.635	20944
803.777	20864
803.919	20937
804.061	21017
804.204	20868
804.346	20743
804.488	20724
804.63	20849
804.773	20583
804.915	20682
805.057	20743
805.199	20678
805.341	20750
805.483	20842
805.626	20845
805.768	20674
805.91	20613
806.052	20731
806.194	20708
806.336	20819
806.478	20689
806.62	20693
806.762	20746
806.904	20902
807.046	21081
807.188	20937
807.33	20944
807.472	21085
807.614	20998
807.756	21070
807.898	20830
808.04	20857
808.182	20754
808.324	20868
808.465	20914
808.607	21062
808.749	21028
808.891	21226
809.033	21329
809.174	21214
809.316	20994
809.458	21123
809.6	21013
809.741	21169
809.883	21116
810.025	21241
810.166	21237
810.308	21199
810.45	21241
810.591	21173
810.733	20914
810.875	20853
811.016	20838
811.158	20705
811.299	20963
811.441	20963
811.582	21039
811.724	20895
811.865	20811
812.007	20849
812.148	20861
812.29	20849
812.431	20948
812.573	21188
812.714	21310
812.855	21382
812.997	21538
813.138	21530
813.279	21511
813.421	21374
813.562	21161
813.703	21085
813.845	20971
813.986	20804
814.127	20727
814.268	20473
814.41	20518
814.551	20469
814.692	20522
814.833	20461
814.974	20282
815.115	20320
815.256	20298
815.397	20286
815.539	20317
815.68	20134
815.821	20153
815.962	20126
816.103	20119
816.244	19997
816.385	19944
816.526	19746
816.666	19715
816.807	19620
816.948	19597
817.089	19605
817.23	19696
817.371	19449
817.512	19480
817.653	19521
817.793	19529
817.934	19544
818.075	19616
818.216	19594
818.356	19491
818.497	19434
818.638	19225
818.778	19156
818.919	19187
819.06	19198
819.2	19308
819.341	19419
819.481	19430
819.622	19480
819.762	19723
819.903	19700
820.043	19537
820.184	19601
820.324	19563
820.465	19624
820.605	19472
820.746	19377
820.886	19464
821.026	19506
821.167	19510
821.307	19510
821.447	19441
821.588	19468
821.728	19251
821.868	19023
822.008	18844
822.149	18958
822.289	18977
822.429	18730
822.569	18700
822.709	18616
822.849	18407
822.99	18418
823.13	18479
823.27	18277
823.41	18315
823.55	18266
823.69	18224
823.83	18258
823.97	18266
824.11	17969
824.25	18057
824.389	18034
824.529	18106
824.669	18087
824.809	18194
824.949	18129
825.089	18026
825.228	17893
825.368	17737
825.508	17741
825.648	17798
825.787	17786
825.927	17809
826.067	17665
826.206	17661
826.346	17764
826.485	17775
826.625	17661
826.765	17794
826.904	17889
827.044	17493
827.183	17585
827.323	17433
827.462	17528
827.601	17471
827.741	17467
827.88	17448
828.02	17322
828.159	17356
828.298	17433
828.437	17547
828.577	17315
828.716	17516
828.855	17410
828.994	17261
829.134	17376
829.273	17197
829.412	17220
829.551	17193
829.69	17098
829.829	17197
829.968	17235
830.107	17193
830.246	17311
830.385	17124
830.524	17022
830.663	17155
830.802	16995
830.941	16911
831.08	16759
831.219	16984
831.357	16839
831.496	17056
831.635	16816
831.774	16752
831.913	16752
832.051	16615
832.19	16630
832.329	16573
832.467	16417
832.606	16531
832.744	16409
832.883	16478
833.022	16417
833.16	16474
833.299	16580
833.437	16577
833.576	16554
833.714	16516
833.852	16535
833.991	16584
834.129	16603
834.267	16527
834.406	16565
834.544	16523
834.682	16550
834.821	16565
834.959	16706
835.097	16546
835.235	16615
835.373	16588
835.511	16565
835.65	16599
835.788	16447
835.926	16421
836.064	16272
836.202	16223
836.34	16558
836.478	16535
836.615	16405
836.753	16493
836.891	16489
837.029	16519
837.167	16489
837.305	16341
837.443	16466
837.58	16291
837.718	16474
837.856	16318
837.993	16314
838.131	16287
838.269	16337
838.406	16287
838.544	16181
838.681	15960
838.819	15991
838.956	15827
839.094	15918
839.231	15941
839.369	16067
839.506	16188
839.643	16131
839.781	15907
839.918	15869
840.055	15907
840.193	15838
840.33	15831
840.467	15835
840.604	15865
840.742	16067
840.879	15728
841.016	15751
841.153	15865
841.29	16036
841.427	15854
841.564	15884
841.701	15918
841.838	15850
841.975	15804
842.112	15755
842.249	15633
842.385	15633
842.522	15850
842.659	15587
842.796	15591
842.933	15652
843.069	15545
843.206	15603
843.343	15637
843.479	15739
843.616	15625
843.752	15572
843.889	15500
844.025	15629
844.162	15439
844.298	15485
844.435	15405
844.571	15363
844.708	15450
844.844	15587
844.98	15580
845.117	15481
845.253	15450
845.389	15272
845.525	15428
845.661	15218
845.798	15233
845.934	15241
846.07	15226
846.206	15298
846.342	15317
846.478	15138
846.614	15070
846.75	14918
846.886	14994
847.022	15070
847.158	14979
847.294	14944
847.429	15020
847.565	14921
847.701	15294
847.837	14796
847.972	14758
848.108	14834
848.244	14857
848.379	14560
848.515	14613
848.65	14469
848.786	14579
848.921	14590
849.057	14731
849.192	14754
849.328	14674
849.463	14682
849.598	14583
849.734	14568
849.869	14511
850.004	14374
850.14	14442
850.275	14404
850.41	14282
850.545	14366
850.68	14396
850.815	14469
850.95	14275
851.085	14587
851.22	14530
851.355	14404
851.49	14393
851.625	14305
851.76	14332
851.895	14351
852.03	14237
852.165	14393
852.299	14423
852.434	14476
852.569	14442
852.703	14495
852.838	14465
852.973	14526
853.107	14583
853.242	14309
853.376	14259
853.511	14180
853.645	14210
853.78	14366
853.914	14252
854.048	14225
854.183	14214
854.317	14233
854.451	14450
854.585	14317
854.72	14237
854.854	14389
854.988	14206
855.122	14294
855.256	14225
855.39	14233
855.524	14358
855.658	14400
855.792	14301
855.926	14351
856.06	14366
856.194	14385
856.327	14252
856.461	14187
856.595	14180
856.729	14237
856.862	14366
856.996	14339
857.13	14404
857.263	14419
857.397	14457
857.53	14336
857.664	14389
857.797	14343
857.931	14457
858.064	14339
858.197	14374
858.331	14282
858.464	14233
858.597	14214
858.731	14317
858.864	14347
858.997	14298
859.13	14343
859.263	14298
859.396	14298
859.529	14336
859.662	14298
859.795	14187
859.928	14225
860.061	14396
860.194	14419
860.327	14320
860.46	14366
860.592	14404
860.725	14495
860.858	14518
860.99	14290
861.123	14252
861.256	14218
861.388	14317
861.521	15020
861.653	14134
861.786	14096
861.918	14202
862.05	14164
862.183	14187
862.315	14267
862.447	14328
862.58	14176
862.712	13978
862.844	13993
862.976	14157
863.108	14161
863.24	14355
863.372	14027
863.504	14046
863.636	13944
863.768	14065
863.9	14096
864.032	13955
864.164	13978
864.296	14058
864.428	14214
864.559	14298
864.691	14088
864.823	14172
864.954	14153
865.086	14062
865.217	14031
865.349	13940
865.48	14005
865.612	14069
865.743	14130
865.875	13993
866.006	14039
866.137	13959
866.269	14035
866.4	13986
866.531	13993
866.662	14077
866.793	14077
866.924	13944
867.055	14024
867.186	14050
867.317	13997
867.448	13959
867.579	14020
867.71	13947
867.841	13947
867.972	14100
868.103	14005
868.233	14035
868.364	14130
868.495	14092
868.625	14286
868.756	14450
868.886	14218
869.017	14256
869.147	14412
869.278	14339
869.408	14320
869.539	14385
869.669	14473
869.799	14237
869.929	14427
870.06	14400
870.19	14621
870.32	14629
870.45	14735
870.58	14743
870.71	14739
870.84	14823
870.97	14693
871.1	14674
871.23	14769
871.36	14838
871.489	14823
871.619	14963
871.749	14804
871.879	14967
872.008	15009
872.138	14902
872.267	14823
872.397	14686
872.526	14724
872.656	14712
872.785	14765
872.915	14914
873.044	14929
873.173	14952
873.303	15047
873.432	15058
873.561	15047
873.69	14986
873.819	15005
873.948	15077
874.077	15013
874.206	14975
874.335	14914
874.464	15131
874.593	15310
874.722	15108
874.851	15256
874.979	15233
875.108	15397
875.237	15123
875.365	15127
875.494	15230
875.623	15389
875.751	15180
875.88	15287
876.008	15428
876.136	15431
876.265	15690
876.393	15869
876.521	15838
876.65	15671
876.778	15743
876.906	15690
877.034	15538
877.162	15690
877.29	15656
877.418	15713
877.546	15580
877.674	15641
877.802	15633
877.93	15641
878.058	15545
878.185	15553
878.313	15743
878.441	15614
878.568	15511
878.696	15599
878.824	15599
878.951	15762
879.079	15793
879.206	16055
879.333	15835
879.461	15778
879.588	15846
879.715	15857
879.842	15983
879.97	15667
880.097	15538
880.224	15454
880.351	15553
880.478	15477
880.605	15458
880.732	15462
880.859	15838
880.986	15549
881.112	15534
881.239	15534
881.366	15355
881.493	15237
881.619	15192
881.746	15260
881.872	15116
881.999	15135
882.125	15062
882.252	15173
882.378	15203
882.505	15397
882.631	15218
882.757	14925
882.883	15036
883.01	15051
883.136	15013
883.262	14830
883.388	14838
883.514	14994
883.64	15066
883.766	14914
883.892	14815
884.018	14815
884.143	14876
884.269	15017
884.395	14811
884.52	14644
884.646	14788
884.772	14598
884.897	14583
885.023	14754
885.148	14788
885.274	14883
885.399	14857
885.524	14610
885.65	14697
885.775	14750
885.9	14701
886.025	14792
886.15	14777
886.275	14621
886.4	14564
886.525	14674
886.65	14545
886.775	14530
886.9	14777
887.025	14986
887.149	14697
887.274	14541
887.399	14503
887.523	14579
887.648	14408
887.773	14427
887.897	14590
888.021	14492
888.146	14442
888.27	14602
888.395	14632
888.519	14606
888.643	14598
888.767	14610
888.891	14469
889.015	14415
889.139	14480
889.263	14374
889.387	14503
889.511	14583
889.635	14541
889.759	14358
889.883	14446
890.006	14332
890.13	14518
890.254	14355
890.377	14370
890.501	14244
890.624	14210
890.748	14305
890.871	14157
890.995	14031
891.118	13947
891.241	14077
891.364	14031
891.488	14237
891.611	14164
891.734	14142
891.857	14142
891.98	14111
892.103	14252
892.226	14153
892.349	14035
892.471	13940
892.594	14054
892.717	14084
892.839	14050
892.962	14077
893.085	14218
893.207	14119
893.33	13932
893.452	13982
893.575	14176
893.697	13963
893.819	14301
893.941	14214
894.064	14301
894.186	14103
894.308	14031
894.43	14145
894.552	14298
894.674	14100
894.796	14065
894.918	14145
895.04	14100
895.161	14366
895.283	14218
895.405	14157
895.526	14157
895.648	14240
895.769	14221
895.891	14305
896.012	14252
896.134	14317
896.255	14313
896.376	14225
896.498	14290
896.619	14393
896.74	14252
896.861	14374
896.982	14682
897.103	14773
897.224	14632
897.345	14522
897.466	14480
897.587	14499
897.708	14610
897.828	14640
897.949	14465
898.07	14431
898.19	14522
898.311	14670
898.431	14537
898.552	14560
898.672	14651
898.792	14674
898.913	14640
899.033	14568
899.153	14499
899.273	14286
899.393	14473
899.513	14450
899.633	14465
899.753	14518
899.873	14446
899.993	14549
900.113	14454
900.232	14522
900.352	14461
900.472	14427
900.591	14393
900.711	14347
900.83	14294
900.95	14457
901.069	14385
901.189	14294
901.308	14065
901.427	13970
901.546	14046
901.665	14111
901.784	14088
901.904	13898
902.023	13841
902.141	13613
902.26	13651
902.379	13689
902.498	13578
902.617	13590
902.735	13567
902.854	13609
902.973	13529
903.091	13244
903.21	13274
903.328	13285
903.446	13304
903.565	13240
903.683	13247
903.801	13061
903.919	13126
904.038	13091
904.156	12996
904.274	13080
904.392	12985
904.51	12928
904.627	12977
904.745	12966
904.863	13023
904.981	12715
905.098	12696
905.216	12627
905.334	12604
905.451	12669
905.569	12726
905.686	12711
905.803	12658
905.921	12490
906.038	12616
906.155	12517
906.272	12315
906.389	12391
906.506	12209
906.623	12285
906.74	12182
906.857	12216
906.974	12159
907.091	12311
907.208	12399
907.324	12304
907.441	12186
907.557	12076
907.674	12026
907.79	11923
907.907	11958
908.023	12034
908.139	11980
908.256	11980
908.372	11901
908.488	11942
908.604	11855
908.72	11733
908.836	11809
908.952	11714
909.068	11741
909.184	11794
909.3	11745
909.415	11851
909.531	11748
909.647	11573
909.762	11570
909.878	11528
909.993	11577
910.108	11395
910.224	11448
910.339	11558
910.454	11425
910.57	11406
910.685	11296
910.8	11691
910.915	11535
911.03	11417
911.145	11216
911.259	11220
911.374	11212
911.489	11105
911.604	11094
911.718	11025
911.833	11010
911.947	10862
912.062	10736
912.176	11029
912.291	10949
912.405	10934
912.519	11178
912.633	11071
912.748	10957
912.862	11022
912.976	10889
913.09	10698
913.204	10733
913.318	10877
913.431	11014
913.545	10881
913.659	10968
913.772	10873
913.886	10660
914	10649
914.113	10831
914.226	10934
914.34	10835
914.453	10637
914.566	10801
914.68	10691
914.793	10729
914.906	10428
915.019	10478
915.132	10386
915.245	10428
915.358	10474
915.47	10436
915.583	10421
915.696	10516
915.809	10653
915.921	10603
916.034	10455
916.146	10478
916.259	10443
916.371	10531
916.483	10489
916.595	10447
916.708	10493
916.82	10390
916.932	10371
917.044	10413
917.156	10352
917.268	10287
917.38	10280
917.491	10249
917.603	10303
917.715	10386
917.826	10462
917.938	10310
918.049	10185
918.161	10310
918.272	10402
918.384	10394
918.495	10299
918.606	10154
918.717	10166
918.828	10310
918.939	10181
919.05	10135
919.161	10215
919.272	10044
919.383	10097
919.494	10329
919.604	10398
919.715	10246
919.826	10181
919.936	10154
920.047	10238
920.157	10227
920.267	10497
920.378	10219
920.488	10219
920.598	10508
920.708	10603
920.818	10398
920.928	10447
921.038	10611
921.148	10523
921.258	10348
921.368	10207
921.477	10143
921.587	10040
921.697	10006
921.806	10074
921.916	9994
922.025	9873
922.134	9850
922.244	9747
922.353	9884
922.462	9679
922.571	9633
922.68	9511
922.789	9473
922.898	9542
923.007	9382
923.116	9599
923.224	9458
923.333	9428
923.442	9393
923.55	9367
923.659	9382
923.767	9447
923.876	9359
923.984	9439
924.092	9340
924.201	9374
924.309	9382
924.417	9367
924.525	9317
924.633	9363
924.741	10105
924.849	9123
924.956	9351
925.064	9085
925.172	9039
925.279	9066
925.387	9245
925.494	9214
925.602	9306
925.709	9211
925.816	9058
925.924	9165
926.031	9195
926.138	9135
926.245	9180
926.352	9085
926.459	9268
926.566	9268
926.673	9100
926.779	9036
926.886	9013
926.993	8861
927.099	8823
927.206	8769
927.312	8857
927.419	8902
927.525	8804
927.631	8891
927.737	8811
927.843	8769
927.95	8625
928.056	8712
928.162	8746
928.267	8807
928.373	9473
928.479	8861
928.585	8617
928.69	8727
928.796	8823
928.901	8640
929.007	8651
929.112	8659
929.218	8686
929.323	8621
929.428	8552
929.533	8766
929.638	8533
929.743	8484
929.848	8587
929.953	8598
930.058	8499
930.163	8328
930.267	8396
930.372	8480
930.477	8324
930.581	8564
930.685	8473
930.79	8320
930.894	8324
930.998	8279
931.103	8423
931.207	8035
931.311	7940
931.415	8008
931.519	7738
931.623	7803
