Data from test_V78500241_1884.txt Node
Date: Fri Mar 25 14:46:49 CST 2022
User: usil
Spectrometer: V785-0024
Trigger mode: 0
Integration Time (sec): 4.000000E-1
Scans to average: 1
Nonlinearity correction enabled: false
Boxcar width: 0
Storing dark spectrum: false
XAxis mode: Wavelengths
Number of Pixels in Spectrum: 1024
>>>>>Begin Spectral Data<<<<<
801.071	22101
801.214	21979
801.356	21717
801.499	21652
801.641	21420
801.783	21462
801.926	21496
802.068	21405
802.211	21279
802.353	21237
802.496	21020
802.638	21009
802.78	20857
802.923	20929
803.065	20838
803.208	20807
803.35	20777
803.492	20845
803.635	20891
803.777	20819
803.919	20838
804.061	21131
804.204	20876
804.346	20697
804.488	20754
804.63	20727
804.773	20777
804.915	20640
805.057	21024
805.199	20663
805.341	20773
805.483	20868
805.626	20937
805.768	20674
805.91	20785
806.052	20800
806.194	20678
806.336	20891
806.478	20625
806.62	20708
806.762	20815
806.904	20914
807.046	21138
807.188	21024
807.33	20994
807.472	21074
807.614	20956
807.756	20994
807.898	20842
808.04	20697
808.182	20727
808.324	20925
808.465	20895
808.607	20952
808.749	21108
808.891	21157
809.033	21344
809.174	21112
809.316	21100
809.458	21062
809.6	21157
809.741	21165
809.883	21081
810.025	21321
810.166	21306
810.308	21218
810.45	21351
810.591	21157
810.733	21032
810.875	20906
811.016	20758
811.158	20857
811.299	20925
811.441	21032
811.582	20876
811.724	20929
811.865	20899
812.007	20815
812.148	20853
812.29	20815
812.431	21017
812.573	21192
812.714	21203
812.855	21336
812.997	21488
813.138	21530
813.279	21466
813.421	21393
813.562	21325
813.703	21256
813.845	20994
813.986	20640
814.127	20655
814.268	20431
814.41	20575
814.551	20351
814.692	20476
814.833	20404
814.974	20446
815.115	20404
815.256	20256
815.397	20256
815.539	20263
815.68	20286
815.821	20069
815.962	20195
816.103	20035
816.244	19940
816.385	19818
816.526	19875
816.666	19696
816.807	19502
816.948	19670
817.089	19814
817.23	19628
817.371	19575
817.512	19658
817.653	19499
817.793	19578
817.934	19552
818.075	19510
818.216	19529
818.356	19388
818.497	19343
818.638	19278
818.778	19236
818.919	19194
819.06	19187
819.2	19422
819.341	19400
819.481	19358
819.622	19529
819.762	19689
819.903	19666
820.043	19594
820.184	19548
820.324	19559
820.465	19597
820.605	19556
820.746	19552
820.886	19438
821.026	19441
821.167	19544
821.307	19514
821.447	19514
821.588	19350
821.728	19240
821.868	19187
822.008	18928
822.149	18928
822.289	18996
822.429	18700
822.569	18585
822.709	18669
822.849	18513
822.99	18483
823.13	18319
823.27	18433
823.41	18258
823.55	18174
823.69	18270
823.83	18342
823.97	18159
824.11	17931
824.25	18011
824.389	18015
824.529	18064
824.669	17988
824.809	18007
824.949	18091
825.089	18106
825.228	18079
825.368	17824
825.508	17870
825.648	17878
825.787	17775
825.927	17824
826.067	17748
826.206	17604
826.346	17946
826.485	17756
826.625	17687
826.765	17855
826.904	17832
827.044	17535
827.183	17497
827.323	17459
827.462	17562
827.601	17478
827.741	17478
827.88	17509
828.02	17376
828.159	17585
828.298	17516
828.437	17668
828.577	17509
828.716	17608
828.855	17509
828.994	17250
829.134	17227
829.273	17398
829.412	17204
829.551	17128
829.69	17124
829.829	17246
829.968	17376
830.107	17227
830.246	17258
830.385	17227
830.524	17143
830.663	17098
830.802	16980
830.941	16885
831.08	16889
831.219	16934
831.357	16892
831.496	17083
831.635	16828
831.774	16816
831.913	16801
832.051	16691
832.19	16683
832.329	16596
832.467	16683
832.606	16561
832.744	16554
832.883	16615
833.022	16497
833.16	16596
833.299	16653
833.437	16497
833.576	16599
833.714	16626
833.852	16702
833.991	16599
834.129	16679
834.267	16713
834.406	16565
834.544	16797
834.682	16679
834.821	16599
834.959	16767
835.097	16668
835.235	16717
835.373	16626
835.511	16679
835.65	16596
835.788	16550
835.926	16424
836.064	16344
836.202	16409
836.34	16550
836.478	16706
836.615	16599
836.753	16474
836.891	16516
837.029	16550
837.167	16478
837.305	16356
837.443	16459
837.58	16402
837.718	16478
837.856	16504
837.993	16375
838.131	16398
838.269	16394
838.406	16386
838.544	16299
838.681	16150
838.819	16097
838.956	15903
839.094	15937
839.231	15979
839.369	16086
839.506	16284
839.643	16215
839.781	15968
839.918	15975
840.055	16029
840.193	16067
840.33	15895
840.467	15953
840.604	15983
840.742	16230
840.879	15846
841.016	15888
841.153	15842
841.29	16036
841.427	16017
841.564	16040
841.701	16021
841.838	15960
841.975	15918
842.112	15812
842.249	15850
842.385	15739
842.522	15918
842.659	15679
842.796	15667
842.933	15732
843.069	15720
843.206	15610
843.343	15869
843.479	15743
843.616	15690
843.752	15610
843.889	15614
844.025	15675
844.162	15424
844.298	15595
844.435	15561
844.571	15393
844.708	15641
844.844	15698
844.98	15652
845.117	15618
845.253	15439
845.389	15412
845.525	15530
845.661	15332
845.798	15268
845.934	15325
846.07	15329
846.206	15412
846.342	15454
846.478	15287
846.614	15203
846.75	15032
846.886	15020
847.022	15203
847.158	15138
847.294	15009
847.429	15161
847.565	15089
847.701	15291
847.837	14876
847.972	14708
848.108	14960
848.244	14864
848.379	14842
848.515	14667
848.65	14648
848.786	14686
848.921	14777
849.057	14792
849.192	14811
849.328	14823
849.463	14678
849.598	14636
849.734	14648
849.869	14636
850.004	14454
850.14	14492
850.275	14552
850.41	14377
850.545	14400
850.68	14442
850.815	14492
850.95	14374
851.085	14587
851.22	14533
851.355	14507
851.49	14427
851.625	14476
851.76	14492
851.895	14385
852.03	14408
852.165	14480
852.299	14499
852.434	14610
852.569	14545
852.703	14476
852.838	14583
852.973	14629
853.107	14610
853.242	14461
853.376	14347
853.511	14313
853.645	14366
853.78	14556
853.914	14290
854.048	14275
854.183	14362
854.317	14320
854.451	14511
854.585	14324
854.72	14271
854.854	14355
854.988	14206
855.122	14336
855.256	14225
855.39	14377
855.524	14396
855.658	14347
855.792	14332
855.926	14343
856.06	14465
856.194	14355
856.327	14362
856.461	14294
856.595	14240
856.729	14396
856.862	14427
856.996	14332
857.13	14484
857.263	14351
857.397	14461
857.53	14252
857.664	14469
857.797	14511
857.931	14450
858.064	14503
858.197	14385
858.331	14336
858.464	14324
858.597	14275
858.731	14244
858.864	14328
858.997	14278
859.13	14298
859.263	14282
859.396	14438
859.529	14358
859.662	14240
859.795	14263
859.928	14351
860.061	14438
860.194	14625
860.327	14294
860.46	14309
860.592	14465
860.725	14518
860.858	14393
860.99	14286
861.123	14244
861.256	14248
861.388	14305
861.521	14804
861.653	14183
861.786	14225
861.918	14161
862.05	14214
862.183	14347
862.315	14248
862.447	14374
862.58	14240
862.712	14195
862.844	14069
862.976	14157
863.108	14153
863.24	14507
863.372	14062
863.504	14054
863.636	14134
863.768	14187
863.9	14123
864.032	14145
864.164	14054
864.296	14206
864.428	14180
864.559	14183
864.691	14256
864.823	14176
864.954	14191
865.086	14195
865.217	14062
865.349	14092
865.48	14065
865.612	14176
865.743	14240
865.875	13997
866.006	14054
866.137	14187
866.269	14115
866.4	14096
866.531	14046
866.662	13959
866.793	14077
866.924	14240
867.055	14142
867.186	13974
867.317	14123
867.448	13982
867.579	14031
867.71	13974
867.841	14084
867.972	14119
868.103	14031
868.233	14130
868.364	14088
868.495	14252
868.625	14256
868.756	14381
868.886	14244
869.017	14294
869.147	14389
869.278	14450
869.408	14385
869.539	14320
869.669	14370
869.799	14465
869.929	14556
870.06	14476
870.19	14648
870.32	14667
870.45	14727
870.58	14724
870.71	14834
870.84	14811
870.97	14705
871.1	14670
871.23	14906
871.36	14963
871.489	14956
871.619	14891
871.749	14925
871.879	15024
872.008	15001
872.138	15001
872.267	14906
872.397	14746
872.526	14762
872.656	14788
872.785	14842
872.915	14918
873.044	15176
873.173	14941
873.303	14963
873.432	14994
873.561	14887
873.69	15024
873.819	14929
873.948	15085
874.077	15089
874.206	14994
874.335	15013
874.464	15085
874.593	15336
874.722	15283
874.851	15294
874.979	15279
875.108	15317
875.237	15237
875.365	15226
875.494	15298
875.623	15439
875.751	15283
875.88	15420
876.008	15386
876.136	15534
876.265	15724
876.393	15850
876.521	15854
876.65	15861
876.778	15720
876.906	15736
877.034	15618
877.162	15698
877.29	15625
877.418	15701
877.546	15751
877.674	15728
877.802	15762
877.93	15728
878.058	15705
878.185	15595
878.313	15698
878.441	15751
878.568	15542
878.696	15591
878.824	15770
878.951	15793
879.079	15926
879.206	15987
879.333	15926
879.461	15732
879.588	15762
879.715	15827
879.842	16006
879.97	15713
880.097	15599
880.224	15656
880.351	15595
880.478	15572
880.605	15553
880.732	15469
880.859	15698
880.986	15682
881.112	15492
881.239	15507
881.366	15336
881.493	15279
881.619	15211
881.746	15199
881.872	15146
881.999	15192
882.125	15203
882.252	15256
882.378	15180
882.505	15374
882.631	15237
882.757	15028
882.883	15028
883.01	15116
883.136	15039
883.262	14941
883.388	14838
883.514	15062
883.64	15176
883.766	15024
883.892	14834
884.018	14849
884.143	15013
884.269	15093
884.395	14735
884.52	14746
884.646	14731
884.772	14686
884.897	14575
885.023	14724
885.148	14785
885.274	14925
885.399	14891
885.524	14823
885.65	14697
885.775	14807
885.9	14765
886.025	14872
886.15	14883
886.275	14697
886.4	14659
886.525	14640
886.65	14606
886.775	14689
886.9	14963
887.025	14998
887.149	14727
887.274	14537
887.399	14568
887.523	14575
887.648	14564
887.773	14469
887.897	14632
888.021	14716
888.146	14560
888.27	14682
888.395	14689
888.519	14674
888.643	14598
888.767	14648
888.891	14564
889.015	14499
889.139	14461
889.263	14389
889.387	14621
889.511	14712
889.635	14587
889.759	14412
889.883	14415
890.006	14347
890.13	14648
890.254	14294
890.377	14343
890.501	14381
890.624	14240
890.748	14400
890.871	14233
890.995	14145
891.118	14092
891.241	14221
891.364	14199
891.488	14271
891.611	14252
891.734	14107
891.857	14267
891.98	14176
892.103	14286
892.226	14130
892.349	14130
892.471	13928
892.594	14157
892.717	14161
892.839	14195
892.962	14172
893.085	14183
893.207	14103
893.33	14088
893.452	14046
893.575	14126
893.697	14183
893.819	14324
893.941	14320
894.064	14225
894.186	14153
894.308	14062
894.43	14301
894.552	14267
894.674	14210
894.796	14088
894.918	14164
895.04	14142
895.161	14286
895.283	14221
895.405	14119
895.526	14271
895.648	14240
895.769	14244
895.891	14324
896.012	14339
896.134	14393
896.255	14229
896.376	14317
896.498	14301
896.619	14286
896.74	14358
896.861	14336
896.982	14708
897.103	14804
897.224	14708
897.345	14495
897.466	14431
897.587	14674
897.708	14678
897.828	14545
897.949	14541
898.07	14564
898.19	14564
898.311	14769
898.431	14636
898.552	14648
898.672	14724
898.792	14792
898.913	14735
899.033	14552
899.153	14427
899.273	14419
899.393	14473
899.513	14552
899.633	14552
899.753	14549
899.873	14415
899.993	14610
900.113	14503
900.232	14545
900.352	14575
900.472	14393
900.591	14294
900.711	14374
900.83	14366
900.95	14537
901.069	14457
901.189	14271
901.308	14142
901.427	14069
901.546	14096
901.665	14016
901.784	14134
901.904	13932
902.023	13837
902.141	13746
902.26	13734
902.379	13601
902.498	13666
902.617	13499
902.735	13616
902.854	13578
902.973	13575
903.091	13354
903.21	13373
903.328	13335
903.446	13297
903.565	13118
903.683	13266
903.801	13072
903.919	13141
904.038	13076
904.156	12970
904.274	13069
904.392	12905
904.51	13015
904.627	13012
904.745	13042
904.863	13008
904.981	12867
905.098	12677
905.216	12669
905.334	12760
905.451	12745
905.569	12688
905.686	12764
905.803	12719
905.921	12547
906.038	12593
906.155	12547
906.272	12361
906.389	12426
906.506	12270
906.623	12319
906.74	12292
906.857	12175
906.974	12277
907.091	12448
907.208	12464
907.324	12395
907.441	12163
907.557	12060
907.674	12072
907.79	11984
907.907	12049
908.023	12068
908.139	11980
908.256	12030
908.372	11969
908.488	11969
908.604	11805
908.72	11714
908.836	11771
908.952	11794
909.068	11783
909.184	11961
909.3	11764
909.415	11874
909.531	11840
909.647	11577
909.762	11619
909.878	11471
909.993	11596
910.108	11570
910.224	11634
910.339	11535
910.454	11455
910.57	11421
910.685	11368
910.8	11623
910.915	11630
911.03	11452
911.145	11315
911.259	11299
911.374	11349
911.489	11242
911.604	11185
911.718	11174
911.833	10968
911.947	10904
912.062	10923
912.176	10984
912.291	10949
912.405	11086
912.519	11204
912.633	11208
912.748	11075
912.862	10961
912.976	10900
913.09	10767
913.204	10828
913.318	10881
913.431	11045
913.545	10957
913.659	11060
913.772	10885
913.886	10809
914	10740
914.113	10858
914.226	10919
914.34	10839
914.453	10645
914.566	10782
914.68	10771
914.793	10672
914.906	10607
915.019	10459
915.132	10432
915.245	10516
915.358	10470
915.47	10497
915.583	10626
915.696	10523
915.809	10611
915.921	10641
916.034	10504
916.146	10519
916.259	10478
916.371	10588
916.483	10485
916.595	10432
916.708	10500
916.82	10394
916.932	10478
917.044	10481
917.156	10352
917.268	10276
917.38	10421
917.491	10303
917.603	10337
917.715	10432
917.826	10478
917.938	10375
918.049	10238
918.161	10246
918.272	10470
918.384	10493
918.495	10398
918.606	10234
918.717	10143
918.828	10318
918.939	10261
919.05	10135
919.161	10242
919.272	10048
919.383	10093
919.494	10284
919.604	10390
919.715	10261
919.826	10139
919.936	10211
920.047	10348
920.157	10207
920.267	10470
920.378	10238
920.488	10276
920.598	10466
920.708	10630
920.818	10443
920.928	10455
921.038	10565
921.148	10538
921.258	10417
921.368	10204
921.477	10143
921.587	10044
921.697	9979
921.806	10093
921.916	9983
922.025	9831
922.134	9766
922.244	9812
922.353	9926
922.462	9774
922.571	9694
922.68	9523
922.789	9492
922.898	9557
923.007	9439
923.116	9469
923.224	9538
923.333	9458
923.442	9393
923.55	9389
923.659	9378
923.767	9504
923.876	9370
923.984	9431
924.092	9363
924.201	9336
924.309	9378
924.417	9355
924.525	9313
924.633	9355
924.741	10287
924.849	9161
924.956	9317
925.064	9188
925.172	9112
925.279	9062
925.387	9199
925.494	9058
925.602	9211
925.709	9253
925.816	9146
925.924	9154
926.031	9249
926.138	9146
926.245	9146
926.352	9108
926.459	9169
926.566	9264
926.673	9142
926.779	8994
926.886	8960
926.993	8887
927.099	8982
927.206	8861
927.312	8777
927.419	8895
927.525	8925
927.631	8914
927.737	8800
927.843	8689
927.95	8682
928.056	8716
928.162	8777
928.267	8834
928.373	9283
928.479	8849
928.585	8674
928.69	8769
928.796	8849
928.901	8632
929.007	8526
929.112	8773
929.218	8667
929.323	8594
929.428	8564
929.533	8758
929.638	8545
929.743	8545
929.848	8598
929.953	8602
930.058	8560
930.163	8286
930.267	8309
930.372	8526
930.477	8252
930.581	8594
930.685	8480
930.79	8313
930.894	8370
930.998	8309
931.103	8431
931.207	8027
931.311	8016
931.415	7944
931.519	7856
931.623	7837
