Data from test_V78500241_2120.txt Node
Date: Fri Mar 25 14:48:28 CST 2022
User: usil
Spectrometer: V785-0024
Trigger mode: 0
Integration Time (sec): 4.000000E-1
Scans to average: 1
Nonlinearity correction enabled: false
Boxcar width: 0
Storing dark spectrum: false
XAxis mode: Wavelengths
Number of Pixels in Spectrum: 1024
>>>>>Begin Spectral Data<<<<<
801.071	22078
801.214	21960
801.356	21781
801.499	21591
801.641	21473
801.783	21412
801.926	21507
802.068	21428
802.211	21298
802.353	21275
802.496	21218
802.638	21062
802.78	20979
802.923	20937
803.065	20868
803.208	20754
803.35	20792
803.492	20933
803.635	20986
803.777	20868
803.919	20910
804.061	21226
804.204	20941
804.346	20830
804.488	20727
804.63	20727
804.773	20727
804.915	20785
805.057	20769
805.199	20659
805.341	20731
805.483	20788
805.626	20887
805.768	20667
805.91	20746
806.052	20727
806.194	20697
806.336	20830
806.478	20682
806.62	20644
806.762	20921
806.904	20876
807.046	21195
807.188	21055
807.33	21081
807.472	21032
807.614	20971
807.756	20906
807.898	20830
808.04	20823
808.182	20842
808.324	20754
808.465	20731
808.607	20944
808.749	21192
808.891	21199
809.033	21298
809.174	21169
809.316	21032
809.458	21093
809.6	21131
809.741	21154
809.883	21233
810.025	21367
810.166	21245
810.308	21195
810.45	21279
810.591	21157
810.733	20902
810.875	21032
811.016	20777
811.158	20735
811.299	20933
811.441	21039
811.582	21032
811.724	20849
811.865	20880
812.007	20906
812.148	20857
812.29	20956
812.431	20967
812.573	21203
812.714	21173
812.855	21340
812.997	21431
813.138	21549
813.279	21538
813.421	21378
813.562	21317
813.703	21192
813.845	21100
813.986	20731
814.127	20590
814.268	20511
814.41	20495
814.551	20461
814.692	20511
814.833	20252
814.974	20393
815.115	20301
815.256	20233
815.397	20336
815.539	20286
815.68	20168
815.821	20115
815.962	20195
816.103	20172
816.244	19963
816.385	19883
816.526	19811
816.666	19628
816.807	19616
816.948	19632
817.089	19632
817.23	19696
817.371	19525
817.512	19559
817.653	19521
817.793	19525
817.934	19563
818.075	19540
818.216	19567
818.356	19487
818.497	19362
818.638	19168
818.778	19183
818.919	19285
819.06	19377
819.2	19308
819.341	19403
819.481	19441
819.622	19529
819.762	19731
819.903	19689
820.043	19613
820.184	19666
820.324	19506
820.465	19670
820.605	19685
820.746	19506
820.886	19403
821.026	19491
821.167	19643
821.307	19506
821.447	19438
821.588	19293
821.728	19156
821.868	19015
822.008	19008
822.149	18924
822.289	18958
822.429	18650
822.569	18623
822.709	18639
822.849	18490
822.99	18532
823.13	18388
823.27	18361
823.41	18350
823.55	18232
823.69	18365
823.83	18228
823.97	18102
824.11	17988
824.25	18003
824.389	18045
824.529	18053
824.669	18102
824.809	18117
824.949	18148
825.089	18022
825.228	18022
825.368	17897
825.508	17859
825.648	17882
825.787	17805
825.927	17863
826.067	17676
826.206	17748
826.346	17741
826.485	17798
826.625	17878
826.765	17866
826.904	17836
827.044	17611
827.183	17547
827.323	17482
827.462	17543
827.601	17524
827.741	17467
827.88	17493
828.02	17417
828.159	17528
828.298	17474
828.437	17471
828.577	17512
828.716	17562
828.855	17429
828.994	17223
829.134	17178
829.273	17372
829.412	17102
829.551	17193
829.69	17204
829.829	17250
829.968	17353
830.107	17280
830.246	17235
830.385	17235
830.524	17132
830.663	17113
830.802	16942
830.941	16839
831.08	16782
831.219	16915
831.357	16858
831.496	17048
831.635	16812
831.774	16809
831.913	16824
832.051	16702
832.19	16588
832.329	16691
832.467	16550
832.606	16538
832.744	16535
832.883	16542
833.022	16558
833.16	16470
833.299	16531
833.437	16531
833.576	16592
833.714	16615
833.852	16626
833.991	16596
834.129	16687
834.267	16664
834.406	16637
834.544	16618
834.682	16565
834.821	16596
834.959	16687
835.097	16554
835.235	16683
835.373	16611
835.511	16664
835.65	16512
835.788	16459
835.926	16390
836.064	16375
836.202	16310
836.34	16497
836.478	16596
836.615	16500
836.753	16523
836.891	16645
837.029	16523
837.167	16504
837.305	16455
837.443	16363
837.58	16436
837.718	16417
837.856	16356
837.993	16360
838.131	16379
838.269	16322
838.406	16325
838.544	16249
838.681	16074
838.819	16021
838.956	15899
839.094	15922
839.231	16010
839.369	16143
839.506	16287
839.643	16295
839.781	15922
839.918	15816
840.055	15888
840.193	15892
840.33	15930
840.467	15991
840.604	16002
840.742	16055
840.879	15934
841.016	15892
841.153	15895
841.29	16071
841.427	15983
841.564	15983
841.701	15987
841.838	15903
841.975	15842
842.112	15865
842.249	15797
842.385	15682
842.522	15884
842.659	15751
842.796	15682
842.933	15709
843.069	15686
843.206	15652
843.343	15789
843.479	15682
843.616	15743
843.752	15568
843.889	15481
844.025	15629
844.162	15477
844.298	15637
844.435	15515
844.571	15454
844.708	15530
844.844	15587
844.98	15667
845.117	15549
845.253	15496
845.389	15477
845.525	15378
845.661	15458
845.798	15283
845.934	15473
846.07	15355
846.206	15237
846.342	15450
846.478	15260
846.614	15325
846.75	14944
846.886	15009
847.022	15169
847.158	15009
847.294	15028
847.429	15047
847.565	15074
847.701	15283
847.837	14796
847.972	14868
848.108	14902
848.244	14857
848.379	14701
848.515	14644
848.65	14644
848.786	14613
848.921	14670
849.057	14739
849.192	14724
849.328	14663
849.463	14708
849.598	14667
849.734	14507
849.869	14511
850.004	14389
850.14	14450
850.275	14400
850.41	14408
850.545	14339
850.68	14355
850.815	14290
850.95	14423
851.085	14678
851.22	14499
851.355	14442
851.49	14374
851.625	14385
851.76	14347
851.895	14393
852.03	14317
852.165	14389
852.299	14427
852.434	14526
852.569	14408
852.703	14374
852.838	14526
852.973	14606
853.107	14564
853.242	14450
853.376	14309
853.511	14168
853.645	14290
853.78	14476
853.914	14282
854.048	14237
854.183	14275
854.317	14320
854.451	14419
854.585	14244
854.72	14355
854.854	14473
854.988	14233
855.122	14233
855.256	14199
855.39	14317
855.524	14309
855.658	14355
855.792	14313
855.926	14278
856.06	14374
856.194	14415
856.327	14347
856.461	14180
856.595	14256
856.729	14275
856.862	14454
856.996	14358
857.13	14377
857.263	14412
857.397	14389
857.53	14347
857.664	14362
857.797	14469
857.931	14427
858.064	14267
858.197	14412
858.331	14275
858.464	14290
858.597	14225
858.731	14320
858.864	14320
858.997	14278
859.13	14294
859.263	14313
859.396	14320
859.529	14278
859.662	14263
859.795	14320
859.928	14381
860.061	14419
860.194	14514
860.327	14305
860.46	14259
860.592	14332
860.725	14415
860.858	14377
860.99	14252
861.123	14202
861.256	14233
861.388	14233
861.521	14883
861.653	14180
861.786	14111
861.918	14107
862.05	14187
862.183	14187
862.315	14294
862.447	14218
862.58	14191
862.712	14062
862.844	13928
862.976	14081
863.108	14183
863.24	14374
863.372	13974
863.504	14103
863.636	13982
863.768	14202
863.9	14043
864.032	13989
864.164	13928
864.296	14172
864.428	14161
864.559	14157
864.691	14218
864.823	14191
864.954	14138
865.086	14161
865.217	13993
865.349	13974
865.48	14092
865.612	13982
865.743	14138
865.875	14092
866.006	14024
866.137	14092
866.269	14008
866.4	13963
866.531	13997
866.662	13997
866.793	14069
866.924	14054
867.055	14153
867.186	14062
867.317	14046
867.448	13940
867.579	14043
867.71	13993
867.841	14012
867.972	14031
868.103	14005
868.233	13970
868.364	14126
868.495	14195
868.625	14153
868.756	14427
868.886	14168
869.017	14347
869.147	14419
869.278	14484
869.408	14396
869.539	14214
869.669	14332
869.799	14256
869.929	14442
870.06	14408
870.19	14583
870.32	14514
870.45	14689
870.58	14648
870.71	14857
870.84	14834
870.97	14689
871.1	14754
871.23	14929
871.36	14941
871.489	14838
871.619	14842
871.749	14899
871.879	14853
872.008	14952
872.138	14891
872.267	14891
872.397	14769
872.526	14674
872.656	14629
872.785	14743
872.915	14948
873.044	15081
873.173	15009
873.303	15062
873.432	15024
873.561	14971
873.69	14933
873.819	14948
873.948	14990
874.077	15081
874.206	14895
874.335	15047
874.464	15028
874.593	15176
874.722	15222
874.851	15302
874.979	15336
875.108	15348
875.237	15195
875.365	15157
875.494	15154
875.623	15363
875.751	15306
875.88	15317
876.008	15477
876.136	15496
876.265	15606
876.393	15797
876.521	15774
876.65	15679
876.778	15701
876.906	15724
877.034	15568
877.162	15690
877.29	15599
877.418	15656
877.546	15698
877.674	15747
877.802	15656
877.93	15755
878.058	15644
878.185	15568
878.313	15686
878.441	15599
878.568	15584
878.696	15591
878.824	15751
878.951	15789
879.079	15804
879.206	16025
879.333	15846
879.461	15892
879.588	15781
879.715	15895
879.842	15968
879.97	15770
880.097	15485
880.224	15507
880.351	15523
880.478	15561
880.605	15515
880.732	15523
880.859	15873
880.986	15603
881.112	15591
881.239	15378
881.366	15310
881.493	15233
881.619	15135
881.746	15313
881.872	15146
881.999	15123
882.125	15135
882.252	15199
882.378	15344
882.505	15306
882.631	15116
882.757	14986
882.883	15036
883.01	15036
883.136	14971
883.262	14914
883.388	14785
883.514	15104
883.64	15062
883.766	14902
883.892	14804
884.018	14849
884.143	14994
884.269	15089
884.395	14842
884.52	14754
884.646	14678
884.772	14648
884.897	14602
885.023	14823
885.148	14815
885.274	14849
885.399	14826
885.524	14838
885.65	14678
885.775	14644
885.9	14712
886.025	14887
886.15	14804
886.275	14590
886.4	14594
886.525	14663
886.65	14587
886.775	14651
886.9	14735
887.025	14960
887.149	14785
887.274	14522
887.399	14571
887.523	14499
887.648	14438
887.773	14404
887.897	14583
888.021	14564
888.146	14556
888.27	14716
888.395	14727
888.519	14610
888.643	14659
888.767	14606
888.891	14545
889.015	14431
889.139	14415
889.263	14343
889.387	14465
889.511	14583
889.635	14503
889.759	14454
889.883	14381
890.006	14374
890.13	14530
890.254	14237
890.377	14362
890.501	14240
890.624	14153
890.748	14256
890.871	14149
890.995	14119
891.118	14065
891.241	14107
891.364	14199
891.488	14290
891.611	14153
891.734	14119
891.857	14286
891.98	14164
892.103	14252
892.226	14164
892.349	14111
892.471	14001
892.594	14065
892.717	14168
892.839	14103
892.962	14100
893.085	14168
893.207	14092
893.33	13955
893.452	14134
893.575	14267
893.697	14073
893.819	14271
893.941	14347
894.064	14206
894.186	14084
894.308	14161
894.43	14221
894.552	14309
894.674	14218
894.796	14035
894.918	14111
895.04	14149
895.161	14157
895.283	14206
895.405	14111
895.526	14183
895.648	14210
895.769	14206
895.891	14263
896.012	14313
896.134	14389
896.255	14377
896.376	14233
896.498	14259
896.619	14278
896.74	14370
896.861	14385
896.982	14644
897.103	14796
897.224	14621
897.345	14469
897.466	14374
897.587	14552
897.708	14651
897.828	14629
897.949	14461
898.07	14404
898.19	14473
898.311	14701
898.431	14530
898.552	14587
898.672	14610
898.792	14659
898.913	14632
899.033	14507
899.153	14560
899.273	14393
899.393	14442
899.513	14511
899.633	14473
899.753	14560
899.873	14442
899.993	14545
900.113	14457
900.232	14473
900.352	14545
900.472	14438
900.591	14218
900.711	14396
900.83	14305
900.95	14507
901.069	14358
901.189	14309
901.308	14058
901.427	14001
901.546	14039
901.665	14092
901.784	13963
901.904	13959
902.023	13864
902.141	13636
902.26	13662
902.379	13677
902.498	13552
902.617	13586
902.735	13689
902.854	13540
902.973	13575
903.091	13320
903.21	13320
903.328	13278
903.446	13183
903.565	13171
903.683	13149
903.801	13084
903.919	13179
904.038	13137
904.156	12962
904.274	13110
904.392	12996
904.51	12920
904.627	12924
904.745	12993
904.863	13084
904.981	12798
905.098	12722
905.216	12700
905.334	12696
905.451	12726
905.569	12650
905.686	12681
905.803	12669
905.921	12479
906.038	12547
906.155	12441
906.272	12422
906.389	12460
906.506	12376
906.623	12224
906.74	12224
906.857	12148
906.974	12148
907.091	12220
907.208	12464
907.324	12270
907.441	12228
907.557	12019
907.674	12015
907.79	11916
907.907	11950
908.023	12049
908.139	11958
908.256	11939
908.372	11980
908.488	11908
908.604	11805
908.72	11733
908.836	11756
908.952	11756
909.068	11752
909.184	11912
909.3	11722
909.415	11828
909.531	11688
909.647	11581
909.762	11501
909.878	11562
909.993	11581
910.108	11543
910.224	11551
910.339	11535
910.454	11376
910.57	11429
910.685	11303
910.8	11611
910.915	11646
911.03	11395
911.145	11318
911.259	11242
911.374	11288
911.489	11181
911.604	11071
911.718	10968
911.833	11033
911.947	10847
912.062	10873
912.176	10957
912.291	11010
912.405	11079
912.519	11140
912.633	11197
912.748	11098
912.862	10961
912.976	10824
913.09	10778
913.204	10847
913.318	10900
913.431	10957
913.545	10896
913.659	11003
913.772	10854
913.886	10752
914	10782
914.113	10873
914.226	10850
914.34	10828
914.453	10611
914.566	10858
914.68	10729
914.793	10698
914.906	10523
915.019	10489
915.132	10462
915.245	10455
915.358	10512
915.47	10523
915.583	10485
915.696	10603
915.809	10641
915.921	10634
916.034	10481
916.146	10386
916.259	10424
916.371	10565
916.483	10531
916.595	10367
916.708	10504
916.82	10478
916.932	10508
917.044	10462
917.156	10405
917.268	10295
917.38	10367
917.491	10379
917.603	10390
917.715	10432
917.826	10451
917.938	10356
918.049	10265
918.161	10284
918.272	10523
918.384	10580
918.495	10394
918.606	10249
918.717	10188
918.828	10234
918.939	10314
919.05	10169
919.161	10215
919.272	10021
919.383	10120
919.494	10242
919.604	10455
919.715	10234
919.826	10227
919.936	10249
920.047	10371
920.157	10261
920.267	10417
920.378	10291
920.488	10268
920.598	10451
920.708	10592
920.818	10535
920.928	10470
921.038	10584
921.148	10550
921.258	10363
921.368	10249
921.477	10135
921.587	10101
921.697	10010
921.806	10207
921.916	10010
922.025	9884
922.134	9842
922.244	9717
922.353	9873
922.462	9682
922.571	9660
922.68	9530
922.789	9519
922.898	9466
923.007	9488
923.116	9587
923.224	9500
923.333	9507
923.442	9389
923.55	9374
923.659	9439
923.767	9454
923.876	9363
923.984	9431
924.092	9317
924.201	9370
924.309	9359
924.417	9462
924.525	9317
924.633	9329
924.741	10272
924.849	9146
924.956	9287
925.064	9188
925.172	9047
925.279	9093
925.387	9230
925.494	9245
925.602	9336
925.709	9313
925.816	9108
925.924	9154
926.031	9283
926.138	9207
926.245	9192
926.352	9119
926.459	9279
926.566	9291
926.673	9138
926.779	9085
926.886	9066
926.993	8948
927.099	8830
927.206	8891
927.312	8849
927.419	8929
927.525	8876
927.631	8967
927.737	8758
927.843	8800
927.95	8629
928.056	8689
928.162	8739
928.267	8838
928.373	9344
928.479	8826
928.585	8659
928.69	8712
928.796	8826
928.901	8705
929.007	8602
929.112	8731
929.218	8663
929.323	8613
929.428	8579
929.533	8724
929.638	8560
929.743	8625
929.848	8598
929.953	8598
930.058	8476
930.163	8366
930.267	8374
930.372	8518
930.477	8332
930.581	8552
930.685	8446
930.79	8267
930.894	8343
930.998	8339
931.103	8404
931.207	8176
931.311	8062
931.415	7993
931.519	7818
931.623	7849
