Data from test_V78500241_3155.txt Node
Date: Fri Mar 25 14:55:41 CST 2022
User: usil
Spectrometer: V785-0024
Trigger mode: 0
Integration Time (sec): 4.000000E-1
Scans to average: 1
Nonlinearity correction enabled: false
Boxcar width: 0
Storing dark spectrum: false
XAxis mode: Wavelengths
Number of Pixels in Spectrum: 1024
>>>>>Begin Spectral Data<<<<<
801.071	21941
801.214	21888
801.356	21648
801.499	21610
801.641	21374
801.783	21408
801.926	21511
802.068	21408
802.211	21275
802.353	21370
802.496	21009
802.638	20880
802.78	20853
802.923	20830
803.065	20587
803.208	20644
803.35	20648
803.492	20849
803.635	20933
803.777	20769
803.919	20868
804.061	21119
804.204	20845
804.346	20686
804.488	20697
804.63	20712
804.773	20560
804.915	20693
805.057	20781
805.199	20670
805.341	20701
805.483	20762
805.626	20746
805.768	20621
805.91	20708
806.052	20659
806.194	20663
806.336	20800
806.478	20503
806.62	20552
806.762	20716
806.904	20773
807.046	21127
807.188	21047
807.33	20864
807.472	21093
807.614	20910
807.756	20899
807.898	20743
808.04	20606
808.182	20686
808.324	20758
808.465	20842
808.607	20845
808.749	20960
808.891	21165
809.033	21123
809.174	21009
809.316	20986
809.458	21039
809.6	20990
809.741	21058
809.883	21096
810.025	21119
810.166	21165
810.308	21119
810.45	21085
810.591	20998
810.733	20902
810.875	20727
811.016	20701
811.158	20701
811.299	20804
811.441	20921
811.582	20849
811.724	20834
811.865	20750
812.007	20868
812.148	20670
812.29	20773
812.431	21024
812.573	21207
812.714	21161
812.855	21389
812.997	21310
813.138	21625
813.279	21496
813.421	21306
813.562	21119
813.703	21096
813.845	20952
813.986	20629
814.127	20396
814.268	20465
814.41	20415
814.551	20320
814.692	20473
814.833	20244
814.974	20317
815.115	20191
815.256	20187
815.397	20187
815.539	20206
815.68	20069
815.821	19925
815.962	20069
816.103	19982
816.244	19902
816.385	19830
816.526	19833
816.666	19590
816.807	19571
816.948	19582
817.089	19567
817.23	19563
817.371	19529
817.512	19388
817.653	19480
817.793	19556
817.934	19464
818.075	19544
818.216	19350
818.356	19430
818.497	19308
818.638	19050
818.778	19099
818.919	19103
819.06	19175
819.2	19278
819.341	19327
819.481	19365
819.622	19422
819.762	19731
819.903	19575
820.043	19460
820.184	19464
820.324	19350
820.465	19415
820.605	19377
820.746	19491
820.886	19259
821.026	19316
821.167	19430
821.307	19449
821.447	19369
821.588	19255
821.728	19088
821.868	19031
822.008	18886
822.149	18890
822.289	18848
822.429	18547
822.569	18566
822.709	18555
822.849	18247
822.99	18330
823.13	18296
823.27	18281
823.41	18133
823.55	18041
823.69	18209
823.83	18117
823.97	18102
824.11	17863
824.25	17927
824.389	17817
824.529	17988
824.669	17878
824.809	17912
824.949	17931
825.089	17965
825.228	17904
825.368	17786
825.508	17729
825.648	17687
825.787	17737
825.927	17623
826.067	17665
826.206	17562
826.346	17802
826.485	17699
826.625	17672
826.765	17741
826.904	17764
827.044	17528
827.183	17467
827.323	17337
827.462	17330
827.601	17383
827.741	17444
827.88	17349
828.02	17303
828.159	17315
828.298	17398
828.437	17490
828.577	17227
828.716	17497
828.855	17299
828.994	17136
829.134	17204
829.273	17170
829.412	16942
829.551	17052
829.69	17086
829.829	17090
829.968	17277
830.107	17162
830.246	17181
830.385	17083
830.524	17052
830.663	16980
830.802	16786
830.941	16771
831.08	16683
831.219	16713
831.357	16896
831.496	16965
831.635	16691
831.774	16672
831.913	16516
832.051	16577
832.19	16584
832.329	16561
832.467	16455
832.606	16379
832.744	16333
832.883	16379
833.022	16421
833.16	16455
833.299	16558
833.437	16516
833.576	16474
833.714	16386
833.852	16470
833.991	16527
834.129	16546
834.267	16656
834.406	16500
834.544	16588
834.682	16500
834.821	16474
834.959	16599
835.097	16344
835.235	16611
835.373	16550
835.511	16474
835.65	16402
835.788	16428
835.926	16265
836.064	16101
836.202	16169
836.34	16413
836.478	16481
836.615	16337
836.753	16371
836.891	16489
837.029	16508
837.167	16284
837.305	16242
837.443	16291
837.58	16234
837.718	16333
837.856	16291
837.993	16234
838.131	16219
838.269	16090
838.406	16173
838.544	16067
838.681	16051
838.819	15831
838.956	15850
839.094	15698
839.231	15865
839.369	15994
839.506	16268
839.643	15994
839.781	15899
839.918	15705
840.055	15808
840.193	15800
840.33	15781
840.467	15736
840.604	15876
840.742	16025
840.879	15648
841.016	15759
841.153	15766
841.29	15831
841.427	15797
841.564	15774
841.701	15804
841.838	15816
841.975	15641
842.112	15648
842.249	15663
842.385	15599
842.522	15793
842.659	15515
842.796	15523
842.933	15572
843.069	15576
843.206	15454
843.343	15736
843.479	15564
843.616	15614
843.752	15279
843.889	15412
844.025	15416
844.162	15389
844.298	15492
844.435	15416
844.571	15275
844.708	15386
844.844	15576
844.98	15492
845.117	15545
845.253	15294
845.389	15203
845.525	15310
845.661	15298
845.798	15093
845.934	15207
846.07	15214
846.206	15207
846.342	15287
846.478	15123
846.614	15001
846.75	14918
846.886	14868
847.022	14986
847.158	14971
847.294	14876
847.429	14982
847.565	14861
847.701	15184
847.837	14705
847.972	14655
848.108	14754
848.244	14716
848.379	14621
848.515	14503
848.65	14522
848.786	14457
848.921	14518
849.057	14686
849.192	14598
849.328	14610
849.463	14648
849.598	14434
849.734	14469
849.869	14389
850.004	14347
850.14	14320
850.275	14221
850.41	14164
850.545	14233
850.68	14286
850.815	14256
850.95	14317
851.085	14415
851.22	14377
851.355	14324
851.49	14248
851.625	14240
851.76	14218
851.895	14267
852.03	14202
852.165	14301
852.299	14343
852.434	14328
852.569	14328
852.703	14389
852.838	14355
852.973	14358
853.107	14499
853.242	14237
853.376	14252
853.511	14065
853.645	14088
853.78	14389
853.914	14164
854.048	14183
854.183	14065
854.317	14214
854.451	14522
854.585	14149
854.72	14065
854.854	14259
854.988	14191
855.122	14187
855.256	14043
855.39	14145
855.524	14244
855.658	14161
855.792	14123
855.926	14298
856.06	14149
856.194	14298
856.327	14218
856.461	14168
856.595	14145
856.729	14043
856.862	14286
856.996	14183
857.13	14240
857.263	14294
857.397	14282
857.53	14282
857.664	14199
857.797	14176
857.931	14290
858.064	14271
858.197	14229
858.331	14153
858.464	14081
858.597	14012
858.731	14240
858.864	14183
858.997	14161
859.13	14237
859.263	14199
859.396	14275
859.529	14096
859.662	14153
859.795	14123
859.928	14221
860.061	14343
860.194	14358
860.327	14130
860.46	14134
860.592	14187
860.725	14278
860.858	14271
860.99	14138
861.123	14134
861.256	14100
861.388	14221
861.521	14845
861.653	13970
861.786	14012
861.918	14088
862.05	14126
862.183	14191
862.315	14062
862.447	14191
862.58	14229
862.712	13986
862.844	13841
862.976	14027
863.108	14069
863.24	14263
863.372	13963
863.504	13959
863.636	13909
863.768	13959
863.9	13974
864.032	13955
864.164	13940
864.296	14001
864.428	14073
864.559	14130
864.691	14145
864.823	14031
864.954	14046
865.086	13993
865.217	13921
865.349	13887
865.48	13997
865.612	13986
865.743	14039
865.875	14024
866.006	13932
866.137	13963
866.269	13921
866.4	13925
866.531	13928
866.662	13906
866.793	13849
866.924	13883
867.055	14005
867.186	13917
867.317	13837
867.448	13837
867.579	13875
867.71	13856
867.841	13940
867.972	13913
868.103	13917
868.233	13913
868.364	13925
868.495	13993
868.625	14149
868.756	14237
868.886	14084
869.017	14161
869.147	14278
869.278	14336
869.408	14286
869.539	14237
869.669	14278
869.799	14237
869.929	14244
870.06	14351
870.19	14396
870.32	14457
870.45	14522
870.58	14560
870.71	14716
870.84	14568
870.97	14621
871.1	14484
871.23	14792
871.36	14754
871.489	14617
871.619	14792
871.749	14758
871.879	14823
872.008	14902
872.138	14800
872.267	14785
872.397	14549
872.526	14594
872.656	14621
872.785	14640
872.915	14853
873.044	14895
873.173	14902
873.303	14857
873.432	14899
873.561	14899
873.69	14872
873.819	14777
873.948	14830
874.077	14815
874.206	14826
874.335	14823
874.464	15013
874.593	15165
874.722	14941
874.851	15256
874.979	15161
875.108	15154
875.237	15108
875.365	15066
875.494	15146
875.623	15195
875.751	15256
875.88	15195
876.008	15249
876.136	15355
876.265	15614
876.393	15705
876.521	15686
876.65	15671
876.778	15545
876.906	15424
877.034	15496
877.162	15561
877.29	15603
877.418	15561
877.546	15591
877.674	15595
877.802	15584
877.93	15545
878.058	15622
878.185	15447
878.313	15469
878.441	15584
878.568	15447
878.696	15534
878.824	15629
878.951	15542
879.079	15709
879.206	15922
879.333	15816
879.461	15572
879.588	15701
879.715	15903
879.842	15854
879.97	15644
880.097	15359
880.224	15321
880.351	15447
880.478	15473
880.605	15332
880.732	15450
880.859	15739
880.986	15473
881.112	15443
881.239	15332
881.366	15245
881.493	15256
881.619	15119
881.746	15043
881.872	15047
881.999	15116
882.125	14971
882.252	15195
882.378	15100
882.505	15256
882.631	14990
882.757	14956
882.883	14872
883.01	15005
883.136	14880
883.262	14819
883.388	14720
883.514	15043
883.64	14990
883.766	14785
883.892	14727
884.018	14811
884.143	14815
884.269	14948
884.395	14705
884.52	14610
884.646	14636
884.772	14545
884.897	14526
885.023	14492
885.148	14632
885.274	14743
885.399	14781
885.524	14533
885.65	14602
885.775	14503
885.9	14590
886.025	14758
886.15	14617
886.275	14568
886.4	14446
886.525	14545
886.65	14495
886.775	14503
886.9	14708
887.025	14834
887.149	14682
887.274	14469
887.399	14366
887.523	14442
887.648	14393
887.773	14259
887.897	14484
888.021	14537
888.146	14396
888.27	14617
888.395	14556
888.519	14457
888.643	14518
888.767	14499
888.891	14412
889.015	14164
889.139	14206
889.263	14229
889.387	14336
889.511	14507
889.635	14522
889.759	14263
889.883	14237
890.006	14313
890.13	14358
890.254	14225
890.377	14267
890.501	14149
890.624	14016
890.748	14126
890.871	14054
890.995	13894
891.118	13951
891.241	14005
891.364	14031
891.488	14134
891.611	13921
891.734	14126
891.857	14058
891.98	13963
892.103	14069
892.226	14016
892.349	13974
892.471	13894
892.594	13936
892.717	14096
892.839	14100
892.962	13947
893.085	14065
893.207	14031
893.33	13906
893.452	13970
893.575	14012
893.697	13959
893.819	14202
893.941	14225
894.064	14096
894.186	14024
894.308	13902
894.43	14123
894.552	14233
894.674	14157
894.796	14024
894.918	14103
895.04	13974
895.161	14134
895.283	14126
895.405	14043
895.526	14119
895.648	14077
895.769	14176
895.891	14259
896.012	14210
896.134	14214
896.255	14278
896.376	14123
896.498	14126
896.619	14271
896.74	14221
896.861	14233
896.982	14514
897.103	14640
897.224	14461
897.345	14495
897.466	14309
897.587	14404
897.708	14530
897.828	14537
897.949	14473
898.07	14332
898.19	14412
898.311	14579
898.431	14461
898.552	14533
898.672	14556
898.792	14613
898.913	14579
899.033	14549
899.153	14514
899.273	14339
899.393	14476
899.513	14408
899.633	14396
899.753	14450
899.873	14298
899.993	14476
900.113	14305
900.232	14476
900.352	14381
900.472	14286
900.591	14267
900.711	14252
900.83	14271
900.95	14389
901.069	14339
901.189	14202
901.308	14043
901.427	13974
901.546	13913
901.665	13955
901.784	14005
901.904	13791
902.023	13715
902.141	13510
902.26	13464
902.379	13575
902.498	13495
902.617	13422
902.735	13544
902.854	13487
902.973	13472
903.091	13240
903.21	13149
903.328	13225
903.446	13152
903.565	13080
903.683	13110
903.801	12932
903.919	13053
904.038	13076
904.156	12943
904.274	12977
904.392	12886
904.51	12871
904.627	12878
904.745	12913
904.863	12947
904.981	12703
905.098	12456
905.216	12620
905.334	12604
905.451	12517
905.569	12574
905.686	12563
905.803	12623
905.921	12365
906.038	12467
906.155	12399
906.272	12315
906.389	12380
906.506	12152
906.623	12178
906.74	12163
906.857	12026
906.974	12079
907.091	12190
907.208	12315
907.324	12194
907.441	12102
907.557	11901
907.674	11882
907.79	11809
907.907	11893
908.023	11912
908.139	11863
908.256	11805
908.372	11870
908.488	11836
908.604	11752
908.72	11703
908.836	11642
908.952	11665
909.068	11668
909.184	11748
909.3	11741
909.415	11714
909.531	11672
909.647	11486
909.762	11467
909.878	11433
909.993	11398
910.108	11391
910.224	11364
910.339	11486
910.454	11322
910.57	11334
910.685	11174
910.8	11524
910.915	11547
911.03	11292
911.145	11189
911.259	11090
911.374	11143
911.489	11025
911.604	11025
911.718	10923
911.833	10877
911.947	10790
912.062	10801
912.176	10828
912.291	10816
912.405	10889
912.519	11140
912.633	11159
912.748	10957
912.862	10915
912.976	10771
913.09	10656
913.204	10679
913.318	10748
913.431	10881
913.545	10877
913.659	10835
913.772	10763
913.886	10691
914	10744
914.113	10744
914.226	10809
914.34	10694
914.453	10550
914.566	10729
914.68	10656
914.793	10599
914.906	10474
915.019	10329
915.132	10306
915.245	10428
915.358	10379
915.47	10462
915.583	10436
915.696	10462
915.809	10546
915.921	10577
916.034	10352
916.146	10360
916.259	10344
916.371	10421
916.483	10371
916.595	10314
916.708	10371
916.82	10402
916.932	10322
917.044	10348
917.156	10325
917.268	10238
917.38	10227
917.491	10295
917.603	10272
917.715	10382
917.826	10428
917.938	10333
918.049	10135
918.161	10249
918.272	10451
918.384	10322
918.495	10261
918.606	10116
918.717	10029
918.828	10128
918.939	10188
919.05	10010
919.161	10078
919.272	9949
919.383	10021
919.494	10249
919.604	10367
919.715	10169
919.826	10090
919.936	10112
920.047	10253
920.157	10158
920.267	10314
920.378	10211
920.488	10044
920.598	10375
920.708	10443
920.818	10363
920.928	10337
921.038	10443
921.148	10478
921.258	10223
921.368	10082
921.477	10021
921.587	9975
921.697	9911
921.806	10006
921.916	9994
922.025	9736
922.134	9625
922.244	9747
922.353	9766
922.462	9637
922.571	9576
922.68	9481
922.789	9408
922.898	9420
923.007	9378
923.116	9393
923.224	9428
923.333	9378
923.442	9310
923.55	9306
923.659	9253
923.767	9397
923.876	9313
923.984	9348
924.092	9207
924.201	9367
924.309	9230
924.417	9256
924.525	9249
924.633	9199
924.741	10188
924.849	9062
924.956	9211
925.064	8990
925.172	9005
925.279	9005
925.387	9150
925.494	9009
925.602	9264
925.709	9108
925.816	9032
925.924	9097
926.031	9157
926.138	9085
926.245	9142
926.352	9043
926.459	9093
926.566	9188
926.673	9032
926.779	8902
926.886	9009
926.993	8842
927.099	8720
927.206	8777
927.312	8781
927.419	8811
927.525	8727
927.631	8731
927.737	8708
927.843	8720
927.95	8594
928.056	8705
928.162	8796
928.267	8712
928.373	9260
928.479	8743
928.585	8545
928.69	8651
928.796	8705
928.901	8590
929.007	8492
929.112	8571
929.218	8590
929.323	8541
929.428	8476
929.533	8621
929.638	8454
929.743	8454
929.848	8587
929.953	8488
930.058	8396
930.163	8199
930.267	8225
930.372	8469
930.477	8221
930.581	8473
930.685	8336
930.79	8187
930.894	8282
930.998	8221
931.103	8294
931.207	7967
931.311	7989
931.415	7871
931.519	7731
931.623	7731
