Data from test_V78500241_3597.txt Node
Date: Fri Mar 25 14:58:45 CST 2022
User: usil
Spectrometer: V785-0024
Trigger mode: 0
Integration Time (sec): 4.000000E-1
Scans to average: 1
Nonlinearity correction enabled: false
Boxcar width: 0
Storing dark spectrum: false
XAxis mode: Wavelengths
Number of Pixels in Spectrum: 1024
>>>>>Begin Spectral Data<<<<<
801.071	21911
801.214	21781
801.356	21500
801.499	21389
801.641	21291
801.783	21412
801.926	21412
802.068	21241
802.211	21112
802.353	21051
802.496	20777
802.638	20807
802.78	20800
802.923	20625
803.065	20530
803.208	20511
803.35	20533
803.492	20613
803.635	20823
803.777	20537
803.919	20556
804.061	20823
804.204	20644
804.346	20564
804.488	20393
804.63	20518
804.773	20533
804.915	20495
805.057	20549
805.199	20355
805.341	20541
805.483	20640
805.626	20590
805.768	20396
805.91	20366
806.052	20526
806.194	20366
806.336	20651
806.478	20385
806.62	20419
806.762	20533
806.904	20530
807.046	20887
807.188	20758
807.33	20781
807.472	20804
807.614	20606
807.756	20617
807.898	20613
808.04	20522
808.182	20480
808.324	20560
808.465	20636
808.607	20796
808.749	20830
808.891	20967
809.033	20994
809.174	20781
809.316	20830
809.458	20872
809.6	20807
809.741	20880
809.883	20807
810.025	20944
810.166	21047
810.308	20979
810.45	20891
810.591	20796
810.733	20804
810.875	20564
811.016	20575
811.158	20518
811.299	20644
811.441	20655
811.582	20686
811.724	20693
811.865	20587
812.007	20564
812.148	20636
812.29	20609
812.431	20838
812.573	20918
812.714	20994
812.855	21184
812.997	21146
813.138	21287
813.279	21161
813.421	21077
813.562	21085
813.703	20902
813.845	20777
813.986	20351
814.127	20343
814.268	20145
814.41	20244
814.551	20069
814.692	20180
814.833	20119
814.974	20092
815.115	20187
815.256	19940
815.397	20008
815.539	19864
815.68	19951
815.821	19913
815.962	19833
816.103	19814
816.244	19674
816.385	19567
816.526	19483
816.666	19343
816.807	19221
816.948	19343
817.089	19331
817.23	19392
817.371	19304
817.512	19225
817.653	19236
817.793	19251
817.934	19209
818.075	19190
818.216	19247
818.356	19171
818.497	19072
818.638	18966
818.778	18928
818.919	18920
819.06	19042
819.2	19027
819.341	19187
819.481	19080
819.622	19194
819.762	19476
819.903	19339
820.043	19251
820.184	19202
820.324	19228
820.465	19312
820.605	19183
820.746	19289
820.886	19084
821.026	19198
821.167	19122
821.307	19228
821.447	19331
821.588	19046
821.728	18935
821.868	18787
822.008	18612
822.149	18612
822.289	18578
822.429	18380
822.569	18327
822.709	18429
822.849	18296
822.99	18182
823.13	18114
823.27	18095
823.41	17893
823.55	17916
823.69	17992
823.83	17863
823.97	17927
824.11	17802
824.25	17779
824.389	17783
824.529	17847
824.669	17611
824.809	17771
824.949	17805
825.089	17722
825.228	17684
825.368	17615
825.508	17539
825.648	17615
825.787	17589
825.927	17577
826.067	17406
826.206	17429
826.346	17528
826.485	17516
826.625	17463
826.765	17619
826.904	17440
827.044	17337
827.183	17273
827.323	17204
827.462	17296
827.601	17155
827.741	17258
827.88	17204
828.02	17056
828.159	17117
828.298	17269
828.437	17227
828.577	17121
828.716	17364
828.855	17204
828.994	16995
829.134	16961
829.273	16991
829.412	16972
829.551	16885
829.69	16930
829.829	16995
829.968	17045
830.107	16961
830.246	17025
830.385	16873
830.524	16919
830.663	16824
830.802	16675
830.941	16672
831.08	16649
831.219	16672
831.357	16645
831.496	16786
831.635	16535
831.774	16512
831.913	16481
832.051	16459
832.19	16413
832.329	16455
832.467	16303
832.606	16303
832.744	16223
832.883	16291
833.022	16348
833.16	16325
833.299	16272
833.437	16318
833.576	16314
833.714	16344
833.852	16371
833.991	16356
834.129	16432
834.267	16432
834.406	16306
834.544	16341
834.682	16261
834.821	16356
834.959	16596
835.097	16318
835.235	16417
835.373	16405
835.511	16318
835.65	16219
835.788	16211
835.926	16090
836.064	16109
836.202	16124
836.34	16344
836.478	16329
836.615	16257
836.753	16280
836.891	16405
837.029	16341
837.167	16226
837.305	16284
837.443	16105
837.58	16181
837.718	16196
837.856	16071
837.993	16139
838.131	16188
838.269	16120
838.406	16105
838.544	15998
838.681	15759
838.819	15945
838.956	15778
839.094	15671
839.231	15774
839.369	15759
839.506	16044
839.643	15937
839.781	15736
839.918	15641
840.055	15732
840.193	15701
840.33	15633
840.467	15785
840.604	15797
840.742	15979
840.879	15591
841.016	15591
841.153	15637
841.29	15800
841.427	15717
841.564	15785
841.701	15667
841.838	15698
841.975	15629
842.112	15622
842.249	15580
842.385	15511
842.522	15709
842.659	15553
842.796	15466
842.933	15469
843.069	15382
843.206	15412
843.343	15485
843.479	15492
843.616	15477
843.752	15348
843.889	15321
844.025	15473
844.162	15260
844.298	15294
844.435	15192
844.571	15233
844.708	15230
844.844	15351
844.98	15302
845.117	15306
845.253	15256
845.389	15135
845.525	15203
845.661	15161
845.798	15066
845.934	15195
846.07	14998
846.206	15024
846.342	15249
846.478	15066
846.614	14861
846.75	14826
846.886	14788
847.022	14861
847.158	14811
847.294	14815
847.429	14925
847.565	14895
847.701	15116
847.837	14606
847.972	14568
848.108	14629
848.244	14625
848.379	14537
848.515	14480
848.65	14492
848.786	14423
848.921	14434
849.057	14514
849.192	14518
849.328	14480
849.463	14465
849.598	14347
849.734	14374
849.869	14328
850.004	14187
850.14	14351
850.275	14199
850.41	14157
850.545	14138
850.68	14157
850.815	14290
850.95	14259
851.085	14408
851.22	14259
851.355	14218
851.49	14126
851.625	14183
851.76	14183
851.895	14157
852.03	14054
852.165	14126
852.299	14191
852.434	14355
852.569	14229
852.703	14286
852.838	14343
852.973	14415
853.107	14389
853.242	14195
853.376	14100
853.511	13974
853.645	14058
853.78	14256
853.914	14134
854.048	14103
854.183	14046
854.317	14035
854.451	14317
854.585	14180
854.72	14050
854.854	14225
854.988	14081
855.122	14206
855.256	13959
855.39	14084
855.524	14115
855.658	14221
855.792	14103
855.926	14149
856.06	14195
856.194	14218
856.327	14164
856.461	14168
856.595	14081
856.729	14111
856.862	14298
856.996	14195
857.13	14096
857.263	14309
857.397	14256
857.53	14161
857.664	14176
857.797	14172
857.931	14252
858.064	14183
858.197	14206
858.331	14153
858.464	14062
858.597	14024
858.731	14153
858.864	14081
858.997	14130
859.13	14145
859.263	14206
859.396	14202
859.529	14103
859.662	14161
859.795	14058
859.928	14138
860.061	14358
860.194	14282
860.327	14164
860.46	14126
860.592	14259
860.725	14301
860.858	14313
860.99	14119
861.123	14119
861.256	14084
861.388	14202
861.521	14982
861.653	13989
861.786	13921
861.918	13970
862.05	13967
862.183	14115
862.315	14100
862.447	14092
862.58	14050
862.712	13845
862.844	13894
862.976	13986
863.108	13906
863.24	14214
863.372	13887
863.504	13830
863.636	13909
863.768	13989
863.9	13879
864.032	13841
864.164	13894
864.296	13875
864.428	14096
864.559	14077
864.691	14008
864.823	14111
864.954	13993
865.086	13932
865.217	13898
865.349	13738
865.48	13928
865.612	13909
865.743	14058
865.875	13906
866.006	13906
866.137	13909
866.269	13917
866.4	13875
866.531	13822
866.662	13818
866.793	13947
866.924	13913
867.055	13879
867.186	13898
867.317	13837
867.448	13871
867.579	13803
867.71	13833
867.841	13795
867.972	13947
868.103	13879
868.233	13909
868.364	13947
868.495	13932
868.625	14020
868.756	14282
868.886	14065
869.017	14123
869.147	14187
869.278	14214
869.408	14187
869.539	14195
869.669	14210
869.799	14153
869.929	14271
870.06	14180
870.19	14511
870.32	14480
870.45	14480
870.58	14503
870.71	14602
870.84	14571
870.97	14610
871.1	14571
871.23	14781
871.36	14727
871.489	14655
871.619	14712
871.749	14731
871.879	14712
872.008	14864
872.138	14906
872.267	14731
872.397	14629
872.526	14530
872.656	14632
872.785	14617
872.915	14720
873.044	14838
873.173	14826
873.303	14743
873.432	14754
873.561	14960
873.69	14849
873.819	14727
873.948	14811
874.077	14769
874.206	14693
874.335	14830
874.464	14914
874.593	15055
874.722	15028
874.851	15100
874.979	15154
875.108	15085
875.237	15032
875.365	14941
875.494	15104
875.623	15176
875.751	15058
875.88	15188
876.008	15268
876.136	15302
876.265	15500
876.393	15724
876.521	15595
876.65	15648
876.778	15473
876.906	15553
877.034	15519
877.162	15488
877.29	15462
877.418	15534
877.546	15530
877.674	15561
877.802	15458
877.93	15504
878.058	15568
878.185	15485
878.313	15519
878.441	15534
878.568	15336
878.696	15393
878.824	15549
878.951	15591
879.079	15603
879.206	15895
879.333	15671
879.461	15641
879.588	15614
879.715	15724
879.842	15880
879.97	15637
880.097	15329
880.224	15351
880.351	15545
880.478	15401
880.605	15294
880.732	15466
880.859	15553
880.986	15466
881.112	15443
881.239	15279
881.366	15237
881.493	15116
881.619	14975
881.746	15135
881.872	14956
881.999	15051
882.125	14963
882.252	15036
882.378	15062
882.505	15169
882.631	14952
882.757	14929
882.883	14891
883.01	14914
883.136	14750
883.262	14792
883.388	14651
883.514	14906
883.64	14952
883.766	14887
883.892	14625
884.018	14765
884.143	14868
884.269	15009
884.395	14693
884.52	14518
884.646	14537
884.772	14533
884.897	14366
885.023	14598
885.148	14667
885.274	14743
885.399	14640
885.524	14629
885.65	14549
885.775	14598
885.9	14556
886.025	14705
886.15	14674
886.275	14514
886.4	14545
886.525	14530
886.65	14461
886.775	14495
886.9	14674
887.025	14819
887.149	14625
887.274	14446
887.399	14351
887.523	14412
887.648	14267
887.773	14374
887.897	14438
888.021	14450
888.146	14370
888.27	14408
888.395	14476
888.519	14355
888.643	14408
888.767	14473
888.891	14351
889.015	14218
889.139	14256
889.263	14355
889.387	14385
889.511	14484
889.635	14393
889.759	14267
889.883	14305
890.006	14324
890.13	14286
890.254	14214
890.377	14252
890.501	14005
890.624	14046
890.748	14138
890.871	14107
890.995	13978
891.118	13898
891.241	13997
891.364	13989
891.488	14073
891.611	13967
891.734	13986
891.857	14119
891.98	13963
892.103	13978
892.226	14024
892.349	13967
892.471	13830
892.594	14016
892.717	14054
892.839	13974
892.962	13944
893.085	14062
893.207	13993
893.33	13776
893.452	13906
893.575	14012
893.697	13963
893.819	14081
893.941	14199
894.064	14134
894.186	14016
894.308	13849
894.43	14107
894.552	14214
894.674	14050
894.796	13997
894.918	14062
895.04	14001
895.161	14092
895.283	14145
895.405	14054
895.526	14084
895.648	14027
895.769	14172
895.891	14103
896.012	14199
896.134	14214
896.255	14103
896.376	14130
896.498	14153
896.619	14180
896.74	14142
896.861	14214
896.982	14495
897.103	14682
897.224	14419
897.345	14328
897.466	14278
897.587	14328
897.708	14530
897.828	14423
897.949	14457
898.07	14256
898.19	14396
898.311	14560
898.431	14324
898.552	14488
898.672	14587
898.792	14526
898.913	14571
899.033	14339
899.153	14370
899.273	14267
899.393	14347
899.513	14454
899.633	14339
899.753	14400
899.873	14320
899.993	14358
900.113	14343
900.232	14355
900.352	14317
900.472	14126
900.591	14096
900.711	14286
900.83	14142
900.95	14248
901.069	14298
901.189	14065
901.308	13940
901.427	13864
901.546	13871
901.665	13875
901.784	13902
901.904	13791
902.023	13696
902.141	13616
902.26	13381
902.379	13537
902.498	13521
902.617	13381
902.735	13506
902.854	13487
902.973	13384
903.091	13145
903.21	13194
903.328	13145
903.446	13107
903.565	13038
903.683	13149
903.801	12886
903.919	12989
904.038	13015
904.156	12867
904.274	12981
904.392	12837
904.51	12863
904.627	12856
904.745	12844
904.863	12947
904.981	12703
905.098	12540
905.216	12536
905.334	12582
905.451	12559
905.569	12471
905.686	12517
905.803	12597
905.921	12327
906.038	12456
906.155	12319
906.272	12247
906.389	12281
906.506	12114
906.623	12296
906.74	12076
906.857	12034
906.974	11965
907.091	12182
907.208	12308
907.324	12171
907.441	11965
907.557	11920
907.674	11912
907.79	11710
907.907	11783
908.023	11942
908.139	11954
908.256	11794
908.372	11798
908.488	11802
908.604	11699
908.72	11577
908.836	11619
908.952	11623
909.068	11665
909.184	11756
909.3	11589
909.415	11832
909.531	11608
909.647	11490
909.762	11455
909.878	11410
909.993	11501
910.108	11368
910.224	11414
910.339	11444
910.454	11353
910.57	11288
910.685	11227
910.8	11516
910.915	11436
911.03	11326
911.145	11079
911.259	11143
911.374	11162
911.489	11006
911.604	11060
911.718	10831
911.833	10797
911.947	10721
912.062	10725
912.176	10839
912.291	10862
912.405	10908
912.519	10991
912.633	11083
912.748	11014
912.862	10965
912.976	10759
913.09	10535
913.204	10645
913.318	10782
913.431	10854
913.545	10866
913.659	10908
913.772	10752
913.886	10675
914	10592
914.113	10683
914.226	10721
914.34	10687
914.453	10493
914.566	10660
914.68	10653
914.793	10512
914.906	10440
915.019	10341
915.132	10314
915.245	10386
915.358	10462
915.47	10402
915.583	10417
915.696	10436
915.809	10535
915.921	10500
916.034	10432
916.146	10314
916.259	10291
916.371	10462
916.483	10394
916.595	10253
916.708	10382
916.82	10318
916.932	10242
917.044	10276
917.156	10276
917.268	10162
917.38	10150
917.491	10265
917.603	10238
917.715	10356
917.826	10215
917.938	10238
918.049	10143
918.161	10265
918.272	10409
918.384	10360
918.495	10227
918.606	10051
918.717	9994
918.828	10150
918.939	10173
919.05	10017
919.161	10093
919.272	9888
919.383	9953
919.494	10223
919.604	10291
919.715	10204
919.826	10067
919.936	10086
920.047	10200
920.157	10097
920.267	10341
920.378	10131
920.488	10109
920.598	10386
920.708	10489
920.818	10299
920.928	10386
921.038	10432
921.148	10459
921.258	10215
921.368	10097
921.477	10036
921.587	9998
921.697	9854
921.806	9998
921.916	9941
922.025	9770
922.134	9720
922.244	9637
922.353	9713
922.462	9629
922.571	9622
922.68	9424
922.789	9420
922.898	9405
923.007	9370
923.116	9450
923.224	9439
923.333	9393
923.442	9291
923.55	9336
923.659	9344
923.767	9344
923.876	9272
923.984	9325
924.092	9226
924.201	9363
924.309	9283
924.417	9256
924.525	9233
924.633	9226
924.741	10055
924.849	9032
924.956	9222
925.064	9032
925.172	8963
925.279	9062
925.387	9089
925.494	9017
925.602	9222
925.709	9100
925.816	9005
925.924	9077
926.031	9123
926.138	9116
926.245	9119
926.352	8948
926.459	9150
926.566	9097
926.673	9104
926.779	8910
926.886	8887
926.993	8777
927.099	8785
927.206	8773
927.312	8720
927.419	8823
927.525	8788
927.631	8819
927.737	8716
927.843	8629
927.95	8632
928.056	8678
928.162	8712
928.267	8731
928.373	9294
928.479	8785
928.585	8560
928.69	8701
928.796	8659
928.901	8541
929.007	8484
929.112	8621
929.218	8636
929.323	8533
929.428	8511
929.533	8636
929.638	8457
929.743	8503
929.848	8552
929.953	8514
930.058	8332
930.163	8214
930.267	8252
930.372	8446
930.477	8313
930.581	8446
930.685	8385
930.79	8130
930.894	8210
930.998	8263
931.103	8351
931.207	7947
931.311	7928
931.415	7932
931.519	7742
931.623	7734
