Data from test_V78500241_1099.txt Node
Date: Fri Mar 25 14:41:22 CST 2022
User: usil
Spectrometer: V785-0024
Trigger mode: 0
Integration Time (sec): 4.000000E-1
Scans to average: 1
Nonlinearity correction enabled: false
Boxcar width: 0
Storing dark spectrum: false
XAxis mode: Wavelengths
Number of Pixels in Spectrum: 1024
>>>>>Begin Spectral Data<<<<<
801.071	22637
801.214	22497
801.356	22440
801.499	22257
801.641	22059
801.783	21934
801.926	22013
802.068	21907
802.211	21937
802.353	21770
802.496	21450
802.638	21595
802.78	21526
802.923	21477
803.065	21317
803.208	21374
803.35	21378
803.492	21458
803.635	21534
803.777	21386
803.919	21458
804.061	21724
804.204	21538
804.346	21249
804.488	21256
804.63	21313
804.773	21272
804.915	21241
805.057	21428
805.199	21317
805.341	21214
805.483	21405
805.626	21386
805.768	21245
805.91	21241
806.052	21351
806.194	21176
806.336	21526
806.478	21279
806.62	21157
806.762	21428
806.904	21542
807.046	21781
807.188	21755
807.33	21698
807.472	21637
807.614	21595
807.756	21724
807.898	21622
808.04	21526
808.182	21553
808.324	21637
808.465	21671
808.607	21922
808.749	22093
808.891	22169
809.033	22295
809.174	22147
809.316	21945
809.458	22013
809.6	21892
809.741	21903
809.883	21960
810.025	22036
810.166	21953
810.308	21960
810.45	21888
810.591	21857
810.733	21652
810.875	21614
811.016	21492
811.158	21439
811.299	21488
811.441	21587
811.582	21732
811.724	21416
811.865	21488
812.007	21583
812.148	21424
812.29	21450
812.431	21671
812.573	21869
812.714	21804
812.855	21972
812.997	22051
813.138	22200
813.279	22131
813.421	22120
813.562	21770
813.703	21816
813.845	21618
813.986	21397
814.127	21135
814.268	21062
814.41	21074
814.551	20960
814.692	21173
814.833	20948
814.974	20994
815.115	21001
815.256	20933
815.397	20842
815.539	20967
815.68	20861
815.821	20773
815.962	20883
816.103	20758
816.244	20503
816.385	20423
816.526	20617
816.666	20286
816.807	20172
816.948	20275
817.089	20396
817.23	20286
817.371	20081
817.512	20210
817.653	20259
817.793	20271
817.934	20248
818.075	20111
818.216	20039
818.356	20172
818.497	19986
818.638	19845
818.778	19750
818.919	19807
819.06	19963
819.2	20058
819.341	19944
819.481	20058
819.622	20202
819.762	20408
819.903	20427
820.043	20221
820.184	20271
820.324	20199
820.465	20252
820.605	20168
820.746	20073
820.886	20092
821.026	20206
821.167	20157
821.307	20157
821.447	19989
821.588	20073
821.728	19944
821.868	19624
822.008	19632
822.149	19514
822.289	19548
822.429	19304
822.569	19213
822.709	19324
822.849	19027
822.99	19034
823.13	18966
823.27	18958
823.41	19027
823.55	18787
823.69	18871
823.83	18829
823.97	18867
824.11	18681
824.25	18631
824.389	18646
824.529	18722
824.669	18696
824.809	18863
824.949	18711
825.089	18753
825.228	18684
825.368	18464
825.508	18471
825.648	18517
825.787	18570
825.927	18441
826.067	18498
826.206	18483
826.346	18467
826.485	18467
826.625	18479
826.765	18486
826.904	18517
827.044	18186
827.183	18197
827.323	18194
827.462	18232
827.601	18079
827.741	17996
827.88	18190
828.02	17908
828.159	18167
828.298	18152
828.437	18159
828.577	18174
828.716	18277
828.855	18087
828.994	17927
829.134	17904
829.273	17885
829.412	17828
829.551	17912
829.69	17840
829.829	17901
829.968	17863
830.107	17908
830.246	17961
830.385	17710
830.524	17771
830.663	17665
830.802	17611
830.941	17444
831.08	17528
831.219	17566
831.357	17436
831.496	17619
831.635	17524
831.774	17379
831.913	17372
832.051	17265
832.19	17246
832.329	17410
832.467	17296
832.606	17029
832.744	17090
832.883	17189
833.022	17128
833.16	17162
833.299	17189
833.437	17258
833.576	17136
833.714	17235
833.852	17292
833.991	17303
834.129	17330
834.267	17356
834.406	17273
834.544	17288
834.682	17360
834.821	17265
834.959	17474
835.097	17159
835.235	17368
835.373	17265
835.511	17239
835.65	17250
835.788	17143
835.926	16991
836.064	16904
836.202	16991
836.34	17094
836.478	17220
836.615	17041
836.753	17033
836.891	17299
837.029	17162
837.167	17155
837.305	17056
837.443	16991
837.58	17003
837.718	17113
837.856	17029
837.993	16892
838.131	17109
838.269	16942
838.406	16915
838.544	16896
838.681	16660
838.819	16649
838.956	16432
839.094	16455
839.231	16519
839.369	16755
839.506	16980
839.643	16755
839.781	16478
839.918	16497
840.055	16561
840.193	16542
840.33	16519
840.467	16535
840.604	16478
840.742	16831
840.879	16432
841.016	16261
841.153	16371
841.29	16702
841.427	16584
841.564	16531
841.701	16577
841.838	16504
841.975	16428
842.112	16447
842.249	16352
842.385	16223
842.522	16413
842.659	16367
842.796	16280
842.933	16303
843.069	16299
843.206	16257
843.343	16470
843.479	16344
843.616	16352
843.752	16135
843.889	16169
844.025	16200
844.162	16143
844.298	16265
844.435	16219
844.571	16090
844.708	16150
844.844	16291
844.98	16291
845.117	16246
845.253	16169
845.389	16120
845.525	16242
845.661	16257
845.798	16242
845.934	16421
846.07	16352
846.206	16428
846.342	16360
846.478	16230
846.614	15907
846.75	15755
846.886	15774
847.022	15705
847.158	15812
847.294	15724
847.429	15812
847.565	15606
847.701	15972
847.837	15439
847.972	15363
848.108	15443
848.244	15481
848.379	15321
848.515	15329
848.65	15245
848.786	15340
848.921	15336
849.057	15302
849.192	15382
849.328	15249
849.463	15241
849.598	15214
849.734	15150
849.869	15157
850.004	14967
850.14	15055
850.275	15077
850.41	15089
850.545	14925
850.68	15055
850.815	15020
850.95	14960
851.085	15127
851.22	15161
851.355	15085
851.49	15024
851.625	14982
851.76	15017
851.895	14842
852.03	14838
852.165	15009
852.299	15085
852.434	15131
852.569	15039
852.703	15017
852.838	15066
852.973	15173
853.107	15142
853.242	15001
853.376	14925
853.511	14701
853.645	14895
853.78	15062
853.914	14921
854.048	14876
854.183	14800
854.317	14990
854.451	15036
854.585	14861
854.72	14743
854.854	15058
854.988	14788
855.122	14887
855.256	14800
855.39	14811
855.524	14929
855.658	14952
855.792	14921
855.926	14929
856.06	14941
856.194	15001
856.327	14819
856.461	14838
856.595	14902
856.729	14876
856.862	14998
856.996	14960
857.13	15032
857.263	15047
857.397	15005
857.53	14887
857.664	14887
857.797	14952
857.931	15077
858.064	14849
858.197	15058
858.331	14960
858.464	14910
858.597	14762
858.731	14914
858.864	14811
858.997	14861
859.13	14899
859.263	14933
859.396	14960
859.529	14769
859.662	14788
859.795	14765
859.928	14960
860.061	15108
860.194	15097
860.327	15055
860.46	14952
860.592	15093
860.725	14979
860.858	14941
860.99	14895
861.123	14785
861.256	14830
861.388	14876
861.521	15652
861.653	14785
861.786	14659
861.918	14819
862.05	14819
862.183	14902
862.315	14861
862.447	14986
862.58	14906
862.712	14731
862.844	14579
862.976	14727
863.108	14617
863.24	15150
863.372	14541
863.504	14583
863.636	14632
863.768	14712
863.9	14712
864.032	14507
864.164	14598
864.296	14632
864.428	14693
864.559	14712
864.691	14708
864.823	14689
864.954	14708
865.086	14720
865.217	14739
865.349	14625
865.48	14545
865.612	14621
865.743	14804
865.875	14670
866.006	14621
866.137	14632
866.269	14686
866.4	14514
866.531	14575
866.662	14560
866.793	14533
866.924	14621
867.055	14613
867.186	14613
867.317	14511
867.448	14629
867.579	14442
867.71	14598
867.841	14602
867.972	14648
868.103	14613
868.233	14670
868.364	14670
868.495	14689
868.625	14746
868.756	14967
868.886	14792
869.017	14842
869.147	15013
869.278	15024
869.408	14914
869.539	14887
869.669	14948
869.799	14849
869.929	15005
870.06	15009
870.19	15169
870.32	15135
870.45	15249
870.58	15264
870.71	15576
870.84	15355
870.97	15226
871.1	15268
871.23	15435
871.36	15568
871.489	15367
871.619	15405
871.749	15530
871.879	15519
872.008	15553
872.138	15496
872.267	15401
872.397	15332
872.526	15397
872.656	15291
872.785	15313
872.915	15431
873.044	15587
873.173	15454
873.303	15519
873.432	15542
873.561	15679
873.69	15633
873.819	15576
873.948	15724
874.077	15545
874.206	15553
874.335	15496
874.464	15644
874.593	15736
874.722	15717
874.851	15930
874.979	15880
875.108	15930
875.237	15808
875.365	15812
875.494	15823
875.623	15949
875.751	15819
875.88	15895
876.008	15979
876.136	16051
876.265	16196
876.393	16405
876.521	16173
876.65	16295
876.778	16325
876.906	16291
877.034	16116
877.162	16150
877.29	16238
877.418	16143
877.546	16215
877.674	16219
877.802	16306
877.93	16284
878.058	16329
878.185	16135
878.313	16242
878.441	16253
878.568	16166
878.696	16238
878.824	16379
878.951	16413
879.079	16527
879.206	16797
879.333	16584
879.461	16493
879.588	16603
879.715	16645
879.842	16759
879.97	16561
880.097	16242
880.224	16215
880.351	16192
880.478	16188
880.605	16196
880.732	16135
880.859	16352
880.986	16143
881.112	16097
881.239	16093
881.366	15911
881.493	15835
881.619	15854
881.746	15876
881.872	15789
881.999	15720
882.125	15720
882.252	15778
882.378	15732
882.505	15930
882.631	15751
882.757	15694
882.883	15743
883.01	15557
883.136	15515
883.262	15542
883.388	15458
883.514	15713
883.64	15644
883.766	15542
883.892	15431
884.018	15564
884.143	15507
884.269	15720
884.395	15359
884.52	15344
884.646	15325
884.772	15237
884.897	15230
885.023	15321
885.148	15382
885.274	15469
885.399	15435
885.524	15268
885.65	15329
885.775	15294
885.9	15348
886.025	15477
886.15	15401
886.275	15233
886.4	15241
886.525	15203
886.65	15127
886.775	15214
886.9	15428
887.025	15496
887.149	15310
887.274	15100
887.399	15173
887.523	15036
887.648	15104
887.773	14967
887.897	15214
888.021	15169
888.146	15077
888.27	15245
888.395	15264
888.519	15150
888.643	15211
888.767	15260
888.891	15116
889.015	14952
889.139	14986
889.263	14994
889.387	15024
889.511	15116
889.635	15085
889.759	14960
889.883	14902
890.006	15005
890.13	15039
890.254	14948
890.377	14918
890.501	14796
890.624	14762
890.748	14636
890.871	14689
890.995	14610
891.118	14541
891.241	14598
891.364	14674
891.488	14796
891.611	14659
891.734	14659
891.857	14640
891.98	14613
892.103	14773
892.226	14693
892.349	14636
892.471	14556
892.594	14598
892.717	14686
892.839	14640
892.962	14651
893.085	14632
893.207	14606
893.33	14454
893.452	14514
893.575	14712
893.697	14686
893.819	14834
893.941	14853
894.064	14720
894.186	14583
894.308	14575
894.43	14800
894.552	14788
894.674	14765
894.796	14610
894.918	14667
895.04	14564
895.161	14765
895.283	14655
895.405	14613
895.526	14781
895.648	14708
895.769	14758
895.891	14754
896.012	14853
896.134	14815
896.255	14735
896.376	14750
896.498	14788
896.619	14758
896.74	14815
896.861	14937
896.982	15070
897.103	15230
897.224	14937
897.345	15055
897.466	14929
897.587	15047
897.708	15180
897.828	15039
897.949	15074
898.07	14929
898.19	14960
898.311	15127
898.431	15104
898.552	15070
898.672	15131
898.792	15245
898.913	15074
899.033	15028
899.153	15028
899.273	14868
899.393	14853
899.513	14967
899.633	14925
899.753	14975
899.873	14853
899.993	15047
900.113	15013
900.232	14918
900.352	14925
900.472	14910
900.591	14807
900.711	14811
900.83	14663
900.95	14956
901.069	14960
901.189	14735
901.308	14514
901.427	14476
901.546	14636
901.665	14560
901.784	14454
901.904	14313
902.023	14275
902.141	14153
902.26	14001
902.379	14157
902.498	14046
902.617	14035
902.735	14069
902.854	14016
902.973	14084
903.091	13803
903.21	13784
903.328	13738
903.446	13636
903.565	13651
903.683	13632
903.801	13521
903.919	13666
904.038	13586
904.156	13419
904.274	13499
904.392	13441
904.51	13441
904.627	13460
904.745	13590
904.863	13518
904.981	13289
905.098	13171
905.216	13103
905.334	13179
905.451	13175
905.569	13107
905.686	13156
905.803	13107
905.921	12943
906.038	13103
906.155	12977
906.272	12833
906.389	12894
906.506	12734
906.623	12798
906.74	12753
906.857	12582
906.974	12635
907.091	12798
907.208	12856
907.324	12757
907.441	12563
907.557	12494
907.674	12509
907.79	12372
907.907	12414
908.023	12437
908.139	12502
908.256	12528
908.372	12399
908.488	12403
908.604	12300
908.72	12197
908.836	12194
908.952	12148
909.068	12232
909.184	12292
909.3	12254
909.415	12346
909.531	12235
909.647	11973
909.762	11992
909.878	11954
909.993	12041
910.108	11950
910.224	11954
910.339	12011
910.454	11859
910.57	11866
910.685	11824
910.8	12152
910.915	12022
911.03	11859
911.145	11703
911.259	11672
911.374	11688
911.489	11611
911.604	11642
911.718	11402
911.833	11429
911.947	11452
912.062	11216
912.176	11455
912.291	11425
912.405	11478
912.519	11611
912.633	11615
912.748	11520
912.862	11387
912.976	11303
913.09	11113
913.204	11296
913.318	11258
913.431	11391
913.545	11395
913.659	11448
913.772	11261
913.886	11239
914	11212
914.113	11269
914.226	11337
914.34	11296
914.453	11105
914.566	11223
914.68	11162
914.793	11052
914.906	10938
915.019	10923
915.132	10809
915.245	10889
915.358	10877
915.47	10900
915.583	10961
915.696	10896
915.809	11067
915.921	11041
916.034	10923
916.146	10843
916.259	10820
916.371	10991
916.483	10961
916.595	10790
916.708	10774
916.82	10850
916.932	10839
917.044	10828
917.156	10877
917.268	10672
917.38	10740
917.491	10691
917.603	10778
917.715	10869
917.826	10763
917.938	10641
918.049	10607
918.161	10767
918.272	10801
918.384	10908
918.495	10740
918.606	10500
918.717	10474
918.828	10599
918.939	10618
919.05	10497
919.161	10535
919.272	10348
919.383	10474
919.494	10645
919.604	10793
919.715	10637
919.826	10436
919.936	10577
920.047	10683
920.157	10618
920.267	10767
920.378	10672
920.488	10603
920.598	10809
920.708	10965
920.818	10828
920.928	10774
921.038	10968
921.148	10953
921.258	10710
921.368	10493
921.477	10413
921.587	10474
921.697	10367
921.806	10398
921.916	10333
922.025	10177
922.134	10143
922.244	10173
922.353	10173
922.462	10116
922.571	9998
922.68	9907
922.789	9823
922.898	9842
923.007	9797
923.116	9850
923.224	9816
923.333	9846
923.442	9736
923.55	9740
923.659	9698
923.767	9831
923.876	9614
923.984	9732
924.092	9682
924.201	9720
924.309	9713
924.417	9713
924.525	9618
924.633	9641
924.741	10535
924.849	9530
924.956	9576
925.064	9408
925.172	9351
925.279	9389
925.387	9477
925.494	9454
925.602	9675
925.709	9538
925.816	9397
925.924	9523
926.031	9576
926.138	9393
926.245	9606
926.352	9420
926.459	9473
926.566	9542
926.673	9370
926.779	9370
926.886	9386
926.993	9097
927.099	9218
927.206	9184
927.312	9104
927.419	9279
927.525	9195
927.631	9207
927.737	9116
927.843	9036
927.95	8914
928.056	9032
928.162	9066
928.267	9116
928.373	9736
928.479	9176
928.585	8941
928.69	9005
928.796	9093
928.901	9005
929.007	8857
929.112	8982
929.218	8933
929.323	8895
929.428	8925
929.533	9013
929.638	8823
929.743	8861
929.848	8963
929.953	8933
930.058	8796
930.163	8667
930.267	8625
930.372	8739
930.477	8651
930.581	8834
930.685	8689
930.79	8564
930.894	8587
930.998	8594
931.103	8758
931.207	8419
931.311	8309
931.415	8324
931.519	8092
931.623	8111
