Data from test_V78500241_3231.txt Node
Date: Fri Mar 25 14:56:12 CST 2022
User: usil
Spectrometer: V785-0024
Trigger mode: 0
Integration Time (sec): 4.000000E-1
Scans to average: 1
Nonlinearity correction enabled: false
Boxcar width: 0
Storing dark spectrum: false
XAxis mode: Wavelengths
Number of Pixels in Spectrum: 1024
>>>>>Begin Spectral Data<<<<<
801.071	21949
801.214	21895
801.356	21614
801.499	21591
801.641	21279
801.783	21283
801.926	21332
802.068	21374
802.211	21302
802.353	21077
802.496	20982
802.638	20849
802.78	20762
802.923	20762
803.065	20674
803.208	20590
803.35	20678
803.492	20914
803.635	20758
803.777	20765
803.919	20708
804.061	20956
804.204	20667
804.346	20617
804.488	20621
804.63	20602
804.773	20507
804.915	20678
805.057	20769
805.199	20667
805.341	20568
805.483	20743
805.626	20724
805.768	20465
805.91	20541
806.052	20617
806.194	20328
806.336	20712
806.478	20526
806.62	20503
806.762	20735
806.904	20857
807.046	20971
807.188	20956
807.33	20880
807.472	21036
807.614	20887
807.756	20944
807.898	20746
808.04	20587
808.182	20613
808.324	20629
808.465	20727
808.607	20819
808.749	21096
808.891	20960
809.033	21066
809.174	21001
809.316	20842
809.458	21028
809.6	20883
809.741	21055
809.883	21020
810.025	21169
810.166	21138
810.308	21100
810.45	21081
810.591	20990
810.733	20834
810.875	20689
811.016	20708
811.158	20518
811.299	20686
811.441	20826
811.582	20800
811.724	20701
811.865	20579
812.007	20659
812.148	20716
812.29	20819
812.431	20849
812.573	21047
812.714	21043
812.855	21218
812.997	21386
813.138	21435
813.279	21291
813.421	21096
813.562	21100
813.703	20933
813.845	20853
813.986	20560
814.127	20457
814.268	20286
814.41	20400
814.551	20221
814.692	20374
814.833	20183
814.974	20206
815.115	20206
815.256	20058
815.397	20142
815.539	20069
815.68	19955
815.821	19978
815.962	20005
816.103	19925
816.244	19822
816.385	19708
816.526	19803
816.666	19571
816.807	19373
816.948	19506
817.089	19525
817.23	19388
817.371	19426
817.512	19373
817.653	19464
817.793	19297
817.934	19438
818.075	19354
818.216	19396
818.356	19392
818.497	19114
818.638	19076
818.778	19053
818.919	19015
819.06	19050
819.2	19247
819.341	19263
819.481	19308
819.622	19441
819.762	19540
819.903	19510
820.043	19537
820.184	19358
820.324	19297
820.465	19422
820.605	19308
820.746	19312
820.886	19129
821.026	19285
821.167	19297
821.307	19365
821.447	19316
821.588	19171
821.728	19099
821.868	18863
822.008	18810
822.149	18661
822.289	18684
822.429	18566
822.569	18502
822.709	18551
822.849	18410
822.99	18239
823.13	18152
823.27	18197
823.41	18053
823.55	18087
823.69	18007
823.83	18087
823.97	18083
824.11	17847
824.25	17786
824.389	17809
824.529	17859
824.669	17920
824.809	17965
824.949	17935
825.089	17920
825.228	17923
825.368	17649
825.508	17684
825.648	17608
825.787	17608
825.927	17714
826.067	17577
826.206	17486
826.346	17592
826.485	17630
826.625	17573
826.765	17737
826.904	17585
827.044	17398
827.183	17311
827.323	17284
827.462	17330
827.601	17242
827.741	17273
827.88	17429
828.02	17212
828.159	17239
828.298	17288
828.437	17376
828.577	17265
828.716	17463
828.855	17311
828.994	17128
829.134	17075
829.273	17067
829.412	16972
829.551	16908
829.69	17010
829.829	17113
829.968	17121
830.107	17105
830.246	17147
830.385	16995
830.524	16949
830.663	16877
830.802	16850
830.941	16778
831.08	16679
831.219	16812
831.357	16664
831.496	16892
831.635	16771
831.774	16596
831.913	16546
832.051	16481
832.19	16519
832.329	16489
832.467	16375
832.606	16394
832.744	16379
832.883	16276
833.022	16337
833.16	16341
833.299	16367
833.437	16451
833.576	16390
833.714	16500
833.852	16470
833.991	16447
834.129	16588
834.267	16535
834.406	16440
834.544	16565
834.682	16428
834.821	16318
834.959	16637
835.097	16356
835.235	16455
835.373	16413
835.511	16398
835.65	16299
835.788	16329
835.926	16143
836.064	16143
836.202	16284
836.34	16280
836.478	16421
836.615	16394
836.753	16306
836.891	16398
837.029	16379
837.167	16341
837.305	16344
837.443	16177
837.58	16230
837.718	16337
837.856	16192
837.993	16200
838.131	16200
838.269	16234
838.406	16116
838.544	16120
838.681	15911
838.819	15850
838.956	15766
839.094	15705
839.231	15789
839.369	15918
839.506	16135
839.643	16006
839.781	15698
839.918	15804
840.055	15808
840.193	15789
840.33	15705
840.467	15755
840.604	15831
840.742	16067
840.879	15686
841.016	15682
841.153	15663
841.29	15884
841.427	15793
841.564	15827
841.701	15835
841.838	15724
841.975	15603
842.112	15633
842.249	15679
842.385	15545
842.522	15743
842.659	15584
842.796	15572
842.933	15595
843.069	15405
843.206	15553
843.343	15599
843.479	15637
843.616	15492
843.752	15283
843.889	15401
844.025	15545
844.162	15367
844.298	15450
844.435	15313
844.571	15355
844.708	15401
844.844	15420
844.98	15477
845.117	15450
845.253	15214
845.389	15207
845.525	15317
845.661	15188
845.798	15104
845.934	15203
846.07	15066
846.206	15131
846.342	15287
846.478	15131
846.614	14982
846.75	14929
846.886	14842
847.022	15074
847.158	15009
847.294	14982
847.429	14857
847.565	14910
847.701	15173
847.837	14686
847.972	14629
848.108	14746
848.244	14682
848.379	14560
848.515	14476
848.65	14442
848.786	14450
848.921	14564
849.057	14655
849.192	14545
849.328	14522
849.463	14514
849.598	14465
849.734	14393
849.869	14434
850.004	14358
850.14	14374
850.275	14233
850.41	14218
850.545	14199
850.68	14244
850.815	14294
850.95	14381
851.085	14446
851.22	14434
851.355	14332
851.49	14218
851.625	14206
851.76	14229
851.895	14172
852.03	14187
852.165	14248
852.299	14332
852.434	14473
852.569	14263
852.703	14336
852.838	14275
852.973	14431
853.107	14366
853.242	14282
853.376	14183
853.511	14031
853.645	14195
853.78	14347
853.914	14077
854.048	14077
854.183	14130
854.317	14145
854.451	14358
854.585	14107
854.72	14096
854.854	14199
854.988	14020
855.122	14195
855.256	14043
855.39	14138
855.524	14187
855.658	14111
855.792	14191
855.926	14377
856.06	14218
856.194	14237
856.327	14191
856.461	14084
856.595	14016
856.729	14119
856.862	14298
856.996	14252
857.13	14202
857.263	14256
857.397	14248
857.53	14069
857.664	14218
857.797	14195
857.931	14355
858.064	14202
858.197	14248
858.331	14130
858.464	14024
858.597	13989
858.731	14142
858.864	14195
858.997	14043
859.13	14164
859.263	14214
859.396	14252
859.529	14092
859.662	14134
859.795	14145
859.928	14161
860.061	14252
860.194	14267
860.327	14210
860.46	14199
860.592	14313
860.725	14271
860.858	14267
860.99	14134
861.123	14065
861.256	14130
861.388	14168
861.521	14925
861.653	14043
861.786	13963
861.918	14050
862.05	14115
862.183	14046
862.315	14180
862.447	14168
862.58	14088
862.712	13898
862.844	13868
862.976	14020
863.108	14016
863.24	14393
863.372	13902
863.504	13860
863.636	13963
863.768	14065
863.9	13967
864.032	13841
864.164	13887
864.296	13951
864.428	14035
864.559	14050
864.691	14024
864.823	14012
864.954	13936
865.086	13887
865.217	14008
865.349	13833
865.48	13894
865.612	13955
865.743	14024
865.875	13967
866.006	13906
866.137	13951
866.269	13932
866.4	13925
866.531	13818
866.662	13868
866.793	13864
866.924	13982
867.055	13902
867.186	13944
867.317	13879
867.448	13871
867.579	13883
867.71	13811
867.841	13856
867.972	13902
868.103	13875
868.233	13967
868.364	13978
868.495	14027
868.625	14161
868.756	14305
868.886	14073
869.017	14172
869.147	14320
869.278	14221
869.408	14210
869.539	14130
869.669	14286
869.799	14096
869.929	14351
870.06	14290
870.19	14499
870.32	14408
870.45	14564
870.58	14583
870.71	14674
870.84	14587
870.97	14450
871.1	14632
871.23	14705
871.36	14785
871.489	14670
871.619	14716
871.749	14758
871.879	14811
872.008	14880
872.138	14769
872.267	14743
872.397	14648
872.526	14617
872.656	14625
872.785	14602
872.915	14731
873.044	14864
873.173	14861
873.303	14800
873.432	14800
873.561	14941
873.69	14811
873.819	14906
873.948	14956
874.077	14887
874.206	14880
874.335	14895
874.464	15066
874.593	15157
874.722	15017
874.851	15119
874.979	15184
875.108	15169
875.237	15058
875.365	15001
875.494	15062
875.623	15203
875.751	15093
875.88	15249
876.008	15260
876.136	15294
876.265	15637
876.393	15660
876.521	15641
876.65	15637
876.778	15564
876.906	15526
877.034	15576
877.162	15618
877.29	15553
877.418	15500
877.546	15568
877.674	15568
877.802	15606
877.93	15572
878.058	15496
878.185	15401
878.313	15595
878.441	15542
878.568	15447
878.696	15515
878.824	15553
878.951	15652
879.079	15743
879.206	15869
879.333	15663
879.461	15644
879.588	15694
879.715	15770
879.842	15804
879.97	15625
880.097	15431
880.224	15397
880.351	15488
880.478	15370
880.605	15374
880.732	15492
880.859	15679
880.986	15359
881.112	15538
881.239	15256
881.366	15138
881.493	15142
881.619	15066
881.746	15081
881.872	15017
881.999	15043
882.125	15112
882.252	15154
882.378	15123
882.505	15142
882.631	15032
882.757	14906
882.883	15005
883.01	14857
883.136	14788
883.262	14701
883.388	14792
883.514	14876
883.64	14876
883.766	14785
883.892	14712
884.018	14807
884.143	14838
884.269	14979
884.395	14632
884.52	14552
884.646	14571
884.772	14556
884.897	14583
885.023	14655
885.148	14697
885.274	14773
885.399	14693
885.524	14556
885.65	14590
885.775	14560
885.9	14640
886.025	14659
886.15	14739
886.275	14480
886.4	14415
886.525	14514
886.65	14503
886.775	14514
886.9	14670
887.025	14819
887.149	14625
887.274	14503
887.399	14476
887.523	14374
887.648	14282
887.773	14328
887.897	14404
888.021	14450
888.146	14358
888.27	14518
888.395	14533
888.519	14381
888.643	14461
888.767	14537
888.891	14347
889.015	14320
889.139	14374
889.263	14263
889.387	14313
889.511	14415
889.635	14278
889.759	14191
889.883	14286
890.006	14355
890.13	14385
890.254	14229
890.377	14237
890.501	14176
890.624	14149
890.748	14172
890.871	14058
890.995	13849
891.118	13967
891.241	14016
891.364	13944
891.488	14054
891.611	13989
891.734	13947
891.857	14035
891.98	14050
892.103	14005
892.226	14024
892.349	13970
892.471	13898
892.594	13970
892.717	14027
892.839	14027
892.962	14039
893.085	14107
893.207	14115
893.33	13860
893.452	13989
893.575	14050
893.697	13902
893.819	14103
893.941	14218
894.064	14176
894.186	13936
894.308	13921
894.43	14115
894.552	14180
894.674	14123
894.796	14046
894.918	14020
895.04	13967
895.161	14069
895.283	14088
895.405	14054
895.526	14084
895.648	14069
895.769	14073
895.891	14187
896.012	14218
896.134	14191
896.255	14176
896.376	14039
896.498	14221
896.619	14229
896.74	14134
896.861	14176
896.982	14533
897.103	14648
897.224	14442
897.345	14358
897.466	14290
897.587	14457
897.708	14579
897.828	14415
897.949	14423
898.07	14305
898.19	14442
898.311	14511
898.431	14442
898.552	14522
898.672	14587
898.792	14560
898.913	14568
899.033	14457
899.153	14366
899.273	14404
899.393	14370
899.513	14328
899.633	14351
899.753	14404
899.873	14370
899.993	14438
900.113	14370
900.232	14484
900.352	14324
900.472	14263
900.591	14183
900.711	14263
900.83	14244
900.95	14298
901.069	14336
901.189	14164
901.308	14001
901.427	13868
901.546	13864
901.665	13837
901.784	13871
901.904	13917
902.023	13658
902.141	13537
902.26	13529
902.379	13510
902.498	13472
902.617	13487
902.735	13506
902.854	13514
902.973	13369
903.091	13263
903.21	13266
903.328	13259
903.446	13168
903.565	13012
903.683	13190
903.801	12993
903.919	13076
904.038	12989
904.156	12924
904.274	12970
904.392	12852
904.51	12863
904.627	12905
904.745	13019
904.863	12905
904.981	12749
905.098	12635
905.216	12631
905.334	12650
905.451	12589
905.569	12593
905.686	12658
905.803	12715
905.921	12422
906.038	12517
906.155	12388
906.272	12429
906.389	12388
906.506	12228
906.623	12243
906.74	12186
906.857	12019
906.974	12205
907.091	12273
907.208	12327
907.324	12243
907.441	12155
907.557	12049
907.674	11977
907.79	11935
907.907	11897
908.023	12079
908.139	11863
908.256	11969
908.372	11798
908.488	11901
908.604	11737
908.72	11665
908.836	11748
908.952	11688
909.068	11703
909.184	11821
909.3	11726
909.415	11688
909.531	11649
909.647	11539
909.762	11410
909.878	11368
909.993	11512
910.108	11478
910.224	11471
910.339	11478
910.454	11429
910.57	11406
910.685	11265
910.8	11566
910.915	11516
911.03	11433
911.145	11162
911.259	11136
911.374	11212
911.489	11159
911.604	11109
911.718	10904
911.833	10999
911.947	10881
912.062	10820
912.176	11006
912.291	10942
912.405	10976
912.519	11067
912.633	11159
912.748	11006
912.862	10942
912.976	10824
913.09	10755
913.204	10702
913.318	10797
913.431	10923
913.545	10889
913.659	10957
913.772	10877
913.886	10637
914	10755
914.113	10805
914.226	10862
914.34	10771
914.453	10626
914.566	10748
914.68	10660
914.793	10561
914.906	10474
915.019	10440
915.132	10386
915.245	10382
915.358	10421
915.47	10474
915.583	10367
915.696	10478
915.809	10596
915.921	10588
916.034	10413
916.146	10390
916.259	10386
916.371	10584
916.483	10436
916.595	10295
916.708	10348
916.82	10382
916.932	10299
917.044	10348
917.156	10329
917.268	10280
917.38	10390
917.491	10211
917.603	10265
917.715	10291
917.826	10398
917.938	10246
918.049	10177
918.161	10295
918.272	10405
918.384	10390
918.495	10265
918.606	10223
918.717	10044
918.828	10139
918.939	10169
919.05	10059
919.161	10207
919.272	9998
919.383	9994
919.494	10261
919.604	10379
919.715	10162
919.826	10086
919.936	10158
920.047	10219
920.157	10162
920.267	10348
920.378	10207
920.488	10207
920.598	10348
920.708	10531
920.818	10390
920.928	10413
921.038	10596
921.148	10436
921.258	10188
921.368	10120
921.477	10048
921.587	10032
921.697	9918
921.806	10025
921.916	9983
922.025	9762
922.134	9766
922.244	9671
922.353	9736
922.462	9603
922.571	9584
922.68	9462
922.789	9355
922.898	9416
923.007	9431
923.116	9454
923.224	9431
923.333	9424
923.442	9321
923.55	9195
923.659	9378
923.767	9378
923.876	9325
923.984	9412
924.092	9169
924.201	9264
924.309	9367
924.417	9374
924.525	9249
924.633	9382
924.741	10234
924.849	9062
924.956	9226
925.064	9123
925.172	9036
925.279	9013
925.387	9108
925.494	9119
925.602	9222
925.709	9169
925.816	8967
925.924	9070
926.031	9176
926.138	9074
926.245	9146
926.352	9005
926.459	9104
926.566	9138
926.673	9138
926.779	8982
926.886	8960
926.993	8834
927.099	8823
927.206	8826
927.312	8792
927.419	8880
927.525	8819
927.631	8887
927.737	8750
927.843	8682
927.95	8587
928.056	8640
928.162	8697
928.267	8800
928.373	9260
928.479	8830
928.585	8617
928.69	8712
928.796	8678
928.901	8629
929.007	8507
929.112	8617
929.218	8568
929.323	8621
929.428	8541
929.533	8674
929.638	8495
929.743	8549
929.848	8571
929.953	8545
930.058	8412
930.163	8275
930.267	8282
930.372	8393
930.477	8317
930.581	8492
930.685	8362
930.79	8210
930.894	8301
930.998	8142
931.103	8290
931.207	8081
931.311	8043
931.415	7913
931.519	7712
931.623	7772
