Data from test_V78500241_3300.txt Node
Date: Fri Mar 25 14:56:41 CST 2022
User: usil
Spectrometer: V785-0024
Trigger mode: 0
Integration Time (sec): 4.000000E-1
Scans to average: 1
Nonlinearity correction enabled: false
Boxcar width: 0
Storing dark spectrum: false
XAxis mode: Wavelengths
Number of Pixels in Spectrum: 1024
>>>>>Begin Spectral Data<<<<<
801.071	21926
801.214	21846
801.356	21523
801.499	21473
801.641	21298
801.783	21378
801.926	21408
802.068	21283
802.211	21245
802.353	21127
802.496	20925
802.638	20788
802.78	20777
802.923	20705
803.065	20571
803.208	20689
803.35	20842
803.492	20781
803.635	20823
803.777	20518
803.919	20640
804.061	21077
804.204	20815
804.346	20636
804.488	20541
804.63	20686
804.773	20522
804.915	20602
805.057	20686
805.199	20648
805.341	20739
805.483	20735
805.626	20621
805.768	20667
805.91	20526
806.052	20663
806.194	20396
806.336	20705
806.478	20583
806.62	20522
806.762	20609
806.904	20674
807.046	21055
807.188	20861
807.33	20887
807.472	20986
807.614	20785
807.756	20845
807.898	20587
808.04	20613
808.182	20556
808.324	20678
808.465	20724
808.607	20792
808.749	21013
808.891	21047
809.033	21051
809.174	20937
809.316	20952
809.458	20868
809.6	20746
809.741	21039
809.883	20979
810.025	21138
810.166	21112
810.308	21017
810.45	21062
810.591	20956
810.733	20815
810.875	20754
811.016	20606
811.158	20609
811.299	20735
811.441	20785
811.582	20815
811.724	20644
811.865	20716
812.007	20606
812.148	20693
812.29	20663
812.431	20990
812.573	21017
812.714	21184
812.855	21127
812.997	21283
813.138	21428
813.279	21340
813.421	21066
813.562	21089
813.703	20982
813.845	20845
813.986	20606
814.127	20434
814.268	20233
814.41	20267
814.551	20275
814.692	20286
814.833	20301
814.974	20259
815.115	20343
815.256	20157
815.397	20065
815.539	20122
815.68	19993
815.821	19830
815.962	20012
816.103	19826
816.244	19799
816.385	19647
816.526	19734
816.666	19415
816.807	19320
816.948	19480
817.089	19502
817.23	19327
817.371	19285
817.512	19381
817.653	19270
817.793	19350
817.934	19297
818.075	19373
818.216	19476
818.356	19293
818.497	19156
818.638	19019
818.778	19129
818.919	18954
819.06	19065
819.2	19099
819.341	19209
819.481	19308
819.622	19426
819.762	19590
819.903	19696
820.043	19373
820.184	19320
820.324	19350
820.465	19400
820.605	19460
820.746	19335
820.886	19339
821.026	19304
821.167	19255
821.307	19365
821.447	19476
821.588	19088
821.728	19065
821.868	18947
822.008	18707
822.149	18730
822.289	18711
822.429	18456
822.569	18509
822.709	18410
822.849	18167
822.99	18167
823.13	18194
823.27	18190
823.41	18072
823.55	18026
823.69	18140
823.83	18003
823.97	17935
824.11	17931
824.25	17653
824.389	17859
824.529	17912
824.669	17840
824.809	17874
824.949	17912
825.089	17935
825.228	17859
825.368	17703
825.508	17657
825.648	17638
825.787	17611
825.927	17611
826.067	17512
826.206	17501
826.346	17680
826.485	17596
826.625	17497
826.765	17764
826.904	17661
827.044	17341
827.183	17326
827.323	17258
827.462	17231
827.601	17318
827.741	17360
827.88	17242
828.02	17216
828.159	17223
828.298	17250
828.437	17292
828.577	17284
828.716	17482
828.855	17246
828.994	16972
829.134	17090
829.273	16965
829.412	17060
829.551	17033
829.69	16984
829.829	17109
829.968	17079
830.107	17102
830.246	17075
830.385	17006
830.524	16942
830.663	16889
830.802	16839
830.941	16660
831.08	16656
831.219	16683
831.357	16782
831.496	16862
831.635	16675
831.774	16561
831.913	16679
832.051	16440
832.19	16421
832.329	16436
832.467	16390
832.606	16413
832.744	16348
832.883	16310
833.022	16405
833.16	16402
833.299	16413
833.437	16436
833.576	16470
833.714	16379
833.852	16409
833.991	16398
834.129	16516
834.267	16398
834.406	16424
834.544	16478
834.682	16436
834.821	16455
834.959	16611
835.097	16512
835.235	16516
835.373	16466
835.511	16455
835.65	16409
835.788	16280
835.926	16219
836.064	16120
836.202	16139
836.34	16428
836.478	16447
836.615	16405
836.753	16375
836.891	16379
837.029	16341
837.167	16295
837.305	16246
837.443	16272
837.58	16143
837.718	16280
837.856	16135
837.993	16192
838.131	16097
838.269	16131
838.406	16143
838.544	16143
838.681	15899
838.819	15854
838.956	15789
839.094	15785
839.231	15781
839.369	15983
839.506	16192
839.643	16013
839.781	15846
839.918	15762
840.055	15766
840.193	15682
840.33	15736
840.467	15854
840.604	15812
840.742	15987
840.879	15656
841.016	15717
841.153	15584
841.29	15835
841.427	15888
841.564	15759
841.701	15880
841.838	15800
841.975	15595
842.112	15816
842.249	15526
842.385	15523
842.522	15755
842.659	15595
842.796	15564
842.933	15603
843.069	15561
843.206	15481
843.343	15663
843.479	15595
843.616	15545
843.752	15325
843.889	15226
844.025	15416
844.162	15279
844.298	15454
844.435	15264
844.571	15294
844.708	15370
844.844	15591
844.98	15416
845.117	15374
845.253	15355
845.389	15192
845.525	15321
845.661	15279
845.798	15192
845.934	15245
846.07	15055
846.206	15161
846.342	15332
846.478	15119
846.614	14986
846.75	14918
846.886	15001
847.022	14982
847.158	15009
847.294	14899
847.429	14971
847.565	14899
847.701	15230
847.837	14625
847.972	14670
848.108	14720
848.244	14670
848.379	14408
848.515	14571
848.65	14541
848.786	14484
848.921	14442
849.057	14632
849.192	14606
849.328	14507
849.463	14522
849.598	14454
849.734	14385
849.869	14290
850.004	14305
850.14	14282
850.275	14206
850.41	14107
850.545	14199
850.68	14259
850.815	14199
850.95	14221
851.085	14412
851.22	14457
851.355	14286
851.49	14183
851.625	14244
851.76	14221
851.895	14123
852.03	14126
852.165	14233
852.299	14374
852.434	14393
852.569	14366
852.703	14305
852.838	14370
852.973	14473
853.107	14400
853.242	14320
853.376	14126
853.511	14062
853.645	13955
853.78	14248
853.914	14058
854.048	14012
854.183	14164
854.317	14214
854.451	14393
854.585	14183
854.72	14153
854.854	14240
854.988	14058
855.122	14077
855.256	14065
855.39	14058
855.524	14210
855.658	14214
855.792	14233
855.926	14145
856.06	14320
856.194	14237
856.327	14176
856.461	14008
856.595	14164
856.729	14024
856.862	14275
856.996	14123
857.13	14214
857.263	14218
857.397	14229
857.53	14126
857.664	14248
857.797	14248
857.931	14317
858.064	14202
858.197	14305
858.331	14187
858.464	14142
858.597	14065
858.731	14145
858.864	14130
858.997	14180
859.13	14259
859.263	14199
859.396	14237
859.529	14183
859.662	14126
859.795	14077
859.928	14191
860.061	14313
860.194	14320
860.327	14176
860.46	14130
860.592	14187
860.725	14324
860.858	14221
860.99	14187
861.123	14050
861.256	14081
861.388	14046
861.521	14956
861.653	14111
861.786	13970
861.918	14031
862.05	14069
862.183	14142
862.315	14191
862.447	14145
862.58	14077
862.712	13894
862.844	13845
862.976	13993
863.108	13978
863.24	14259
863.372	13887
863.504	13978
863.636	13921
863.768	13947
863.9	13932
864.032	13841
864.164	13887
864.296	14024
864.428	14103
864.559	14111
864.691	14058
864.823	13917
864.954	13959
865.086	14016
865.217	13894
865.349	13807
865.48	13951
865.612	13925
865.743	13974
865.875	13936
866.006	13845
866.137	13852
866.269	13921
866.4	13913
866.531	13845
866.662	13841
866.793	13887
866.924	13932
867.055	13883
867.186	13868
867.317	13864
867.448	13845
867.579	13879
867.71	13868
867.841	13822
867.972	13967
868.103	13852
868.233	14058
868.364	14065
868.495	13921
868.625	14180
868.756	14332
868.886	14084
869.017	14157
869.147	14336
869.278	14294
869.408	14206
869.539	14221
869.669	14252
869.799	14240
869.929	14313
870.06	14244
870.19	14511
870.32	14457
870.45	14507
870.58	14530
870.71	14594
870.84	14579
870.97	14590
871.1	14492
871.23	14796
871.36	14758
871.489	14712
871.619	14754
871.749	14750
871.879	14739
872.008	14902
872.138	14785
872.267	14697
872.397	14579
872.526	14674
872.656	14587
872.785	14686
872.915	14746
873.044	14910
873.173	14883
873.303	14872
873.432	14902
873.561	14857
873.69	14819
873.819	14804
873.948	14891
874.077	14697
874.206	14777
874.335	14845
874.464	14883
874.593	15051
874.722	14975
874.851	15108
874.979	15180
875.108	15173
875.237	15173
875.365	15062
875.494	15154
875.623	15214
875.751	15028
875.88	15298
876.008	15374
876.136	15393
876.265	15458
876.393	15713
876.521	15561
876.65	15595
876.778	15618
876.906	15584
877.034	15553
877.162	15420
877.29	15447
877.418	15625
877.546	15625
877.674	15469
877.802	15584
877.93	15545
878.058	15466
878.185	15401
878.313	15504
878.441	15564
878.568	15382
878.696	15435
878.824	15534
878.951	15679
879.079	15698
879.206	15869
879.333	15682
879.461	15606
879.588	15747
879.715	15698
879.842	15781
879.97	15736
880.097	15329
880.224	15393
880.351	15378
880.478	15397
880.605	15336
880.732	15443
880.859	15599
880.986	15408
881.112	15477
881.239	15283
881.366	15214
881.493	15165
881.619	15032
881.746	15005
881.872	15066
881.999	15032
882.125	15104
882.252	14967
882.378	15058
882.505	15207
882.631	14979
882.757	14823
882.883	14902
883.01	14914
883.136	14838
883.262	14796
883.388	14712
883.514	14872
883.64	14868
883.766	14724
883.892	14697
884.018	14720
884.143	14906
884.269	14861
884.395	14644
884.52	14602
884.646	14514
884.772	14526
884.897	14450
885.023	14590
885.148	14693
885.274	14708
885.399	14678
885.524	14598
885.65	14602
885.775	14674
885.9	14537
886.025	14693
886.15	14613
886.275	14564
886.4	14533
886.525	14526
886.65	14454
886.775	14571
886.9	14754
887.025	14842
887.149	14518
887.274	14415
887.399	14442
887.523	14355
887.648	14332
887.773	14332
887.897	14590
888.021	14434
888.146	14415
888.27	14450
888.395	14526
888.519	14492
888.643	14415
888.767	14495
888.891	14389
889.015	14210
889.139	14332
889.263	14259
889.387	14412
889.511	14533
889.635	14423
889.759	14233
889.883	14294
890.006	14282
890.13	14393
890.254	14130
890.377	14214
890.501	14103
890.624	14058
890.748	14123
890.871	14138
890.995	13887
891.118	13947
891.241	13963
891.364	13925
891.488	14130
891.611	14069
891.734	13970
891.857	14126
891.98	14005
892.103	14008
892.226	13986
892.349	13928
892.471	13864
892.594	13894
892.717	14016
892.839	13894
892.962	13986
893.085	13970
893.207	13955
893.33	13864
893.452	13982
893.575	14027
893.697	13970
893.819	14172
893.941	14214
894.064	14168
894.186	14001
894.308	14020
894.43	14123
894.552	14161
894.674	14153
894.796	14012
894.918	14084
895.04	14008
895.161	14149
895.283	14153
895.405	14081
895.526	14103
895.648	14020
895.769	14161
895.891	14180
896.012	14191
896.134	14168
896.255	14111
896.376	14123
896.498	14202
896.619	14138
896.74	14187
896.861	14275
896.982	14522
897.103	14655
897.224	14434
897.345	14389
897.466	14267
897.587	14461
897.708	14541
897.828	14438
897.949	14389
898.07	14309
898.19	14404
898.311	14598
898.431	14488
898.552	14518
898.672	14522
898.792	14583
898.913	14545
899.033	14362
899.153	14324
899.273	14244
899.393	14278
899.513	14362
899.633	14381
899.753	14454
899.873	14328
899.993	14499
900.113	14347
900.232	14434
900.352	14259
900.472	14298
900.591	14107
900.711	14282
900.83	14149
900.95	14317
901.069	14309
901.189	14218
901.308	13925
901.427	13841
901.546	13932
901.665	13890
901.784	13807
901.904	13860
902.023	13769
902.141	13590
902.26	13518
902.379	13548
902.498	13441
902.617	13400
902.735	13518
902.854	13514
902.973	13464
903.091	13236
903.21	13122
903.328	13263
903.446	12996
903.565	13065
903.683	13065
903.801	12989
903.919	13023
904.038	12977
904.156	12905
904.274	12996
904.392	12863
904.51	12791
904.627	12844
904.745	12993
904.863	12882
904.981	12688
905.098	12528
905.216	12559
905.334	12639
905.451	12616
905.569	12502
905.686	12528
905.803	12525
905.921	12334
906.038	12502
906.155	12410
906.272	12391
906.389	12251
906.506	12197
906.623	12144
906.74	12178
906.857	12030
906.974	12057
907.091	12216
907.208	12277
907.324	12163
907.441	12034
907.557	11988
907.674	11859
907.79	11802
907.907	11870
908.023	11961
908.139	11878
908.256	11874
908.372	11832
908.488	11882
908.604	11748
908.72	11668
908.836	11657
908.952	11630
909.068	11627
909.184	11748
909.3	11619
909.415	11741
909.531	11653
909.647	11490
909.762	11429
909.878	11440
909.993	11463
910.108	11490
910.224	11387
910.339	11372
910.454	11349
910.57	11235
910.685	11201
910.8	11596
910.915	11436
911.03	11387
911.145	11231
911.259	11075
911.374	11124
911.489	11025
911.604	11071
911.718	10873
911.833	10949
911.947	10763
912.062	10759
912.176	10839
912.291	10831
912.405	10881
912.519	11113
912.633	11143
912.748	10961
912.862	10911
912.976	10778
913.09	10649
913.204	10717
913.318	10774
913.431	10919
913.545	10801
913.659	10896
913.772	10763
913.886	10634
914	10660
914.113	10664
914.226	10797
914.34	10736
914.453	10554
914.566	10793
914.68	10611
914.793	10584
914.906	10428
915.019	10356
915.132	10363
915.245	10356
915.358	10325
915.47	10409
915.583	10417
915.696	10462
915.809	10550
915.921	10527
916.034	10402
916.146	10440
916.259	10314
916.371	10428
916.483	10360
916.595	10348
916.708	10280
916.82	10322
916.932	10379
917.044	10329
917.156	10204
917.268	10230
917.38	10280
917.491	10204
917.603	10249
917.715	10295
917.826	10337
917.938	10287
918.049	10135
918.161	10188
918.272	10398
918.384	10428
918.495	10284
918.606	10093
918.717	10078
918.828	10147
918.939	10188
919.05	10074
919.161	10185
919.272	9926
919.383	9934
919.494	10101
919.604	10325
919.715	10090
919.826	10074
919.936	10090
920.047	10200
920.157	10131
920.267	10356
920.378	10166
920.488	10158
920.598	10394
920.708	10523
920.818	10322
920.928	10341
921.038	10500
921.148	10462
921.258	10238
921.368	10063
921.477	10055
921.587	9953
921.697	9884
921.806	9953
921.916	9873
922.025	9778
922.134	9728
922.244	9675
922.353	9751
922.462	9595
922.571	9561
922.68	9382
922.789	9313
922.898	9466
923.007	9363
923.116	9469
923.224	9405
923.333	9386
923.442	9340
923.55	9283
923.659	9332
923.767	9336
923.876	9176
923.984	9344
924.092	9294
924.201	9195
924.309	9313
924.417	9294
924.525	9256
924.633	9222
924.741	10246
924.849	8982
924.956	9195
925.064	9058
925.172	8967
925.279	9047
925.387	9024
925.494	9062
925.602	9237
925.709	9169
925.816	8971
925.924	8994
926.031	9039
926.138	9077
926.245	9131
926.352	9001
926.459	9131
926.566	9135
926.673	8990
926.779	8906
926.886	8902
926.993	8796
927.099	8743
927.206	8735
927.312	8697
927.419	8815
927.525	8834
927.631	8838
927.737	8659
927.843	8705
927.95	8537
928.056	8674
928.162	8670
928.267	8762
928.373	9355
928.479	8724
928.585	8549
928.69	8587
928.796	8762
928.901	8537
929.007	8431
929.112	8564
929.218	8564
929.323	8488
929.428	8427
929.533	8571
929.638	8450
929.743	8488
929.848	8556
929.953	8514
930.058	8366
930.163	8202
930.267	8259
930.372	8381
930.477	8252
930.581	8438
930.685	8339
930.79	8244
930.894	8248
930.998	8180
931.103	8404
931.207	7944
931.311	7982
931.415	7944
931.519	7769
931.623	7647
