Data from test_V78500241_1652.txt Node
Date: Fri Mar 25 14:45:13 CST 2022
User: usil
Spectrometer: V785-0024
Trigger mode: 0
Integration Time (sec): 4.000000E-1
Scans to average: 1
Nonlinearity correction enabled: false
Boxcar width: 0
Storing dark spectrum: false
XAxis mode: Wavelengths
Number of Pixels in Spectrum: 1024
>>>>>Begin Spectral Data<<<<<
801.071	22276
801.214	22154
801.356	21972
801.499	21812
801.641	21648
801.783	21671
801.926	21625
802.068	21629
802.211	21462
802.353	21443
802.496	21313
802.638	21161
802.78	21199
802.923	21089
803.065	20971
803.208	20941
803.35	20956
803.492	21131
803.635	21112
803.777	21020
803.919	20921
804.061	21313
804.204	21009
804.346	20960
804.488	20876
804.63	21009
804.773	20845
804.915	20960
805.057	21108
805.199	20868
805.341	21093
805.483	21142
805.626	21058
805.768	20876
805.91	20998
806.052	20876
806.194	20868
806.336	21116
806.478	21051
806.62	20861
806.762	20937
806.904	21013
807.046	21408
807.188	21249
807.33	21260
807.472	21325
807.614	21169
807.756	21150
807.898	21005
808.04	20979
808.182	20960
808.324	21131
808.465	21138
808.607	21211
808.749	21370
808.891	21511
809.033	21568
809.174	21492
809.316	21332
809.458	21351
809.6	21321
809.741	21359
809.883	21275
810.025	21496
810.166	21492
810.308	21606
810.45	21477
810.591	21416
810.733	21252
810.875	21085
811.016	21055
811.158	20918
811.299	21085
811.441	21241
811.582	21226
811.724	21119
811.865	21112
812.007	21112
812.148	21203
812.29	21157
812.431	21336
812.573	21466
812.714	21393
812.855	21633
812.997	21819
813.138	21873
813.279	21690
813.421	21785
813.562	21526
813.703	21268
813.845	21184
813.986	20941
814.127	20880
814.268	20826
814.41	20735
814.551	20526
814.692	20716
814.833	20568
814.974	20552
815.115	20541
815.256	20438
815.397	20480
815.539	20568
815.68	20355
815.821	20423
815.962	20499
816.103	20389
816.244	20248
816.385	20119
816.526	20134
816.666	19986
816.807	19788
816.948	19917
817.089	19951
817.23	19799
817.371	19803
817.512	19860
817.653	19852
817.793	19757
817.934	19753
818.075	19666
818.216	19689
818.356	19757
818.497	19594
818.638	19525
818.778	19449
818.919	19537
819.06	19563
819.2	19578
819.341	19613
819.481	19643
819.622	19723
819.762	20020
819.903	19982
820.043	19822
820.184	19791
820.324	19662
820.465	19849
820.605	19871
820.746	19719
820.886	19658
821.026	19742
821.167	19761
821.307	19753
821.447	19689
821.588	19605
821.728	19506
821.868	19278
822.008	19206
822.149	19209
822.289	19156
822.429	18928
822.569	18829
822.709	18829
822.849	18623
822.99	18703
823.13	18650
823.27	18566
823.41	18426
823.55	18464
823.69	18532
823.83	18376
823.97	18414
824.11	18285
824.25	18216
824.389	18243
824.529	18292
824.669	18266
824.809	18372
824.949	18319
825.089	18273
825.228	18224
825.368	18117
825.508	18019
825.648	18076
825.787	18076
825.927	18057
826.067	17908
826.206	18026
826.346	18049
826.485	17996
826.625	18003
826.765	18087
826.904	18003
827.044	17718
827.183	17741
827.323	17726
827.462	17802
827.601	17676
827.741	17649
827.88	17535
828.02	17505
828.159	17699
828.298	17729
828.437	17786
828.577	17756
828.716	17832
828.855	17649
828.994	17421
829.134	17474
829.273	17528
829.412	17326
829.551	17372
829.69	17360
829.829	17512
829.968	17623
830.107	17471
830.246	17444
830.385	17429
830.524	17425
830.663	17254
830.802	17220
830.941	17025
831.08	17079
831.219	17071
831.357	17098
831.496	17318
831.635	16892
831.774	16961
831.913	16942
832.051	16866
832.19	16793
832.329	16942
832.467	16717
832.606	16706
832.744	16694
832.883	16729
833.022	16649
833.16	16828
833.299	16850
833.437	16824
833.576	16740
833.714	16790
833.852	16835
833.991	16850
834.129	16831
834.267	16904
834.406	16831
834.544	16831
834.682	16824
834.821	16889
834.959	16869
835.097	16790
835.235	16786
835.373	16820
835.511	16854
835.65	16698
835.788	16736
835.926	16550
836.064	16603
836.202	16569
836.34	16615
836.478	16885
836.615	16649
836.753	16717
836.891	16748
837.029	16672
837.167	16683
837.305	16653
837.443	16615
837.58	16523
837.718	16603
837.856	16504
837.993	16386
838.131	16554
838.269	16489
838.406	16447
838.544	16405
838.681	16284
838.819	16261
838.956	16139
839.094	16124
839.231	15987
839.369	16230
839.506	16478
839.643	16272
839.781	16051
839.918	16025
840.055	16086
840.193	16010
840.33	16074
840.467	16120
840.604	16086
840.742	16314
840.879	15972
841.016	15934
841.153	15941
841.29	16154
841.427	16112
841.564	16097
841.701	16032
841.838	16021
841.975	16002
842.112	16032
842.249	15953
842.385	15835
842.522	15983
842.659	15895
842.796	15808
842.933	15895
843.069	15816
843.206	15823
843.343	15823
843.479	15835
843.616	15873
843.752	15755
843.889	15690
844.025	15686
844.162	15564
844.298	15812
844.435	15652
844.571	15557
844.708	15641
844.844	15915
844.98	15941
845.117	15732
845.253	15519
845.389	15534
845.525	15656
845.661	15526
845.798	15466
845.934	15561
846.07	15519
846.206	15538
846.342	15652
846.478	15458
846.614	15233
846.75	15222
846.886	15176
847.022	15325
847.158	15249
847.294	15237
847.429	15332
847.565	15188
847.701	15382
847.837	14956
847.972	14914
848.108	15066
848.244	15013
848.379	14792
848.515	14902
848.65	14762
848.786	14823
848.921	14796
849.057	14887
849.192	14910
849.328	14986
849.463	14773
849.598	14739
849.734	14716
849.869	14632
850.004	14606
850.14	14705
850.275	14587
850.41	14446
850.545	14438
850.68	14590
850.815	14526
850.95	14587
851.085	14697
851.22	14636
851.355	14610
851.49	14644
851.625	14602
851.76	14640
851.895	14427
852.03	14454
852.165	14476
852.299	14686
852.434	14655
852.569	14746
852.703	14636
852.838	14693
852.973	14815
853.107	14636
853.242	14621
853.376	14488
853.511	14415
853.645	14389
853.78	14541
853.914	14427
854.048	14457
854.183	14313
854.317	14469
854.451	14640
854.585	14461
854.72	14438
854.854	14560
854.988	14419
855.122	14454
855.256	14282
855.39	14499
855.524	14545
855.658	14454
855.792	14465
855.926	14457
856.06	14556
856.194	14446
856.327	14431
856.461	14404
856.595	14366
856.729	14393
856.862	14556
856.996	14541
857.13	14552
857.263	14564
857.397	14606
857.53	14431
857.664	14549
857.797	14594
857.931	14575
858.064	14480
858.197	14575
858.331	14484
858.464	14457
858.597	14408
858.731	14393
858.864	14415
858.997	14450
859.13	14537
859.263	14393
859.396	14556
859.529	14454
859.662	14434
859.795	14381
859.928	14533
860.061	14575
860.194	14640
860.327	14583
860.46	14469
860.592	14564
860.725	14583
860.858	14621
860.99	14442
861.123	14454
861.256	14457
861.388	14415
861.521	15066
861.653	14309
861.786	14343
861.918	14305
862.05	14252
862.183	14385
862.315	14450
862.447	14434
862.58	14358
862.712	14248
862.844	14210
862.976	14252
863.108	14332
863.24	14663
863.372	14103
863.504	14214
863.636	14218
863.768	14142
863.9	14313
864.032	14214
864.164	14298
864.296	14317
864.428	14229
864.559	14347
864.691	14332
864.823	14351
864.954	14275
865.086	14282
865.217	14339
865.349	14138
865.48	14221
865.612	14225
865.743	14419
865.875	14221
866.006	14233
866.137	14202
866.269	14206
866.4	14191
866.531	14084
866.662	14126
866.793	14031
866.924	14229
867.055	14290
867.186	14214
867.317	14153
867.448	14153
867.579	14199
867.71	14046
867.841	14145
867.972	14153
868.103	14199
868.233	14172
868.364	14218
868.495	14229
868.625	14454
868.756	14602
868.886	14366
869.017	14385
869.147	14533
869.278	14541
869.408	14423
869.539	14461
869.669	14556
869.799	14579
869.929	14587
870.06	14552
870.19	14674
870.32	14804
870.45	14716
870.58	14918
870.71	14963
870.84	15013
870.97	14807
871.1	14864
871.23	14994
871.36	15074
871.489	15028
871.619	14971
871.749	15051
871.879	15157
872.008	15119
872.138	15127
872.267	15058
872.397	14925
872.526	14937
872.656	14880
872.785	14956
872.915	15093
873.044	15192
873.173	15135
873.303	15097
873.432	15085
873.561	15211
873.69	15051
873.819	15093
873.948	15176
874.077	15256
874.206	15142
874.335	15119
874.464	15218
874.593	15321
874.722	15321
874.851	15450
874.979	15393
875.108	15507
875.237	15291
875.365	15393
875.494	15435
875.623	15447
875.751	15275
875.88	15492
876.008	15431
876.136	15637
876.265	15846
876.393	16029
876.521	15930
876.65	15800
876.778	15789
876.906	15694
877.034	15793
877.162	15861
877.29	15770
877.418	15835
877.546	15892
877.674	15812
877.802	15876
877.93	15915
878.058	15732
878.185	15804
878.313	15816
878.441	15789
878.568	15648
878.696	15831
878.824	15857
878.951	15941
879.079	16017
879.206	16120
879.333	16029
879.461	15964
879.588	15926
879.715	16025
879.842	16196
879.97	15899
880.097	15648
880.224	15652
880.351	15675
880.478	15713
880.605	15682
880.732	15660
880.859	15854
880.986	15694
881.112	15686
881.239	15542
881.366	15576
881.493	15214
881.619	15332
881.746	15332
881.872	15321
881.999	15279
882.125	15348
882.252	15370
882.378	15310
882.505	15431
882.631	15294
882.757	15173
882.883	15195
883.01	15104
883.136	15180
883.262	15009
883.388	14990
883.514	15173
883.64	15252
883.766	15116
883.892	14998
884.018	14967
884.143	15176
884.269	15237
884.395	14849
884.52	14826
884.646	14891
884.772	14857
884.897	14735
885.023	14876
885.148	14979
885.274	15043
885.399	14990
885.524	14746
885.65	14876
885.775	14941
885.9	14823
886.025	14941
886.15	14918
886.275	14769
886.4	14796
886.525	14872
886.65	14895
886.775	14739
886.9	14994
887.025	15005
887.149	14880
887.274	14762
887.399	14682
887.523	14663
887.648	14602
887.773	14606
887.897	14796
888.021	14796
888.146	14640
888.27	14769
888.395	14838
888.519	14819
888.643	14667
888.767	14735
888.891	14655
889.015	14499
889.139	14575
889.263	14621
889.387	14644
889.511	14667
889.635	14667
889.759	14465
889.883	14613
890.006	14625
890.13	14682
890.254	14473
890.377	14533
890.501	14332
890.624	14370
890.748	14404
890.871	14286
890.995	14240
891.118	14149
891.241	14244
891.364	14259
891.488	14355
891.611	14199
891.734	14282
891.857	14313
891.98	14233
892.103	14221
892.226	14286
892.349	14195
892.471	14130
892.594	14248
892.717	14195
892.839	14161
892.962	14214
893.085	14271
893.207	14214
893.33	14176
893.452	14202
893.575	14415
893.697	14210
893.819	14336
893.941	14408
894.064	14366
894.186	14172
894.308	14161
894.43	14374
894.552	14473
894.674	14343
894.796	14214
894.918	14252
895.04	14153
895.161	14343
895.283	14286
895.405	14282
895.526	14339
895.648	14271
895.769	14427
895.891	14431
896.012	14484
896.134	14461
896.255	14370
896.376	14370
896.498	14358
896.619	14488
896.74	14412
896.861	14442
896.982	14693
897.103	14849
897.224	14640
897.345	14735
897.466	14587
897.587	14663
897.708	14758
897.828	14610
897.949	14678
898.07	14552
898.19	14621
898.311	14834
898.431	14674
898.552	14838
898.672	14864
898.792	14823
898.913	14800
899.033	14644
899.153	14621
899.273	14556
899.393	14537
899.513	14708
899.633	14621
899.753	14670
899.873	14625
899.993	14712
900.113	14629
900.232	14545
900.352	14568
900.472	14526
900.591	14442
900.711	14480
900.83	14400
900.95	14556
901.069	14708
901.189	14427
901.308	14244
901.427	14103
901.546	14206
901.665	14202
901.784	14115
901.904	14054
902.023	13898
902.141	13811
902.26	13620
902.379	13746
902.498	13681
902.617	13731
902.735	13715
902.854	13715
902.973	13594
903.091	13377
903.21	13411
903.328	13476
903.446	13343
903.565	13301
903.683	13339
903.801	13369
903.919	13133
904.038	13255
904.156	13194
904.274	13046
904.392	13072
904.51	13118
904.627	13069
904.745	13160
904.863	13141
904.981	12825
905.098	12806
905.216	12722
905.334	12772
905.451	12741
905.569	12776
905.686	12848
905.803	12722
905.921	12654
906.038	12734
906.155	12620
906.272	12601
906.389	12525
906.506	12410
906.623	12369
906.74	12399
906.857	12254
906.974	12247
907.091	12414
907.208	12509
907.324	12464
907.441	12292
907.557	12129
907.674	12121
907.79	12072
907.907	12140
908.023	12201
908.139	12129
908.256	12110
908.372	12041
908.488	12041
908.604	11920
908.72	11843
908.836	11878
908.952	11908
909.068	11870
909.184	11999
909.3	11843
909.415	11882
909.531	11824
909.647	11707
909.762	11589
909.878	11600
909.993	11653
910.108	11630
910.224	11558
910.339	11634
910.454	11615
910.57	11505
910.685	11452
910.8	11714
910.915	11611
911.03	11444
911.145	11330
911.259	11292
911.374	11387
911.489	11307
911.604	11124
911.718	11113
911.833	11094
911.947	10987
912.062	10953
912.176	11094
912.291	11029
912.405	11143
912.519	11239
912.633	11292
912.748	11197
912.862	11060
912.976	10953
913.09	10854
913.204	10984
913.318	11018
913.431	11136
913.545	11060
913.659	11086
913.772	11037
913.886	10896
914	10915
914.113	10968
914.226	11006
914.34	10915
914.453	10755
914.566	10877
914.68	10843
914.793	10839
914.906	10588
915.019	10546
915.132	10443
915.245	10584
915.358	10596
915.47	10588
915.583	10573
915.696	10641
915.809	10778
915.921	10702
916.034	10626
916.146	10561
916.259	10497
916.371	10698
916.483	10637
916.595	10546
916.708	10607
916.82	10554
916.932	10519
917.044	10535
917.156	10508
917.268	10344
917.38	10390
917.491	10352
917.603	10413
917.715	10516
917.826	10565
917.938	10303
918.049	10287
918.161	10447
918.272	10542
918.384	10584
918.495	10424
918.606	10265
918.717	10299
918.828	10325
918.939	10386
919.05	10272
919.161	10291
919.272	10101
919.383	10219
919.494	10409
919.604	10554
919.715	10348
919.826	10211
919.936	10211
920.047	10367
920.157	10295
920.267	10535
920.378	10348
920.488	10291
920.598	10554
920.708	10664
920.818	10493
920.928	10497
921.038	10733
921.148	10721
921.258	10382
921.368	10196
921.477	10135
921.587	10109
921.697	10097
921.806	10143
921.916	10067
922.025	9953
922.134	9907
922.244	9762
922.353	9949
922.462	9728
922.571	9728
922.68	9606
922.789	9519
922.898	9584
923.007	9526
923.116	9618
923.224	9606
923.333	9500
923.442	9462
923.55	9435
923.659	9450
923.767	9526
923.876	9416
923.984	9504
924.092	9336
924.201	9424
924.309	9401
924.417	9466
924.525	9374
924.633	9443
924.741	10078
924.849	9157
924.956	9291
925.064	9184
925.172	9138
925.279	9119
925.387	9169
925.494	9237
925.602	9348
925.709	9226
925.816	9097
925.924	9260
926.031	9222
926.138	9211
926.245	9291
926.352	9127
926.459	9294
926.566	9294
926.673	9199
926.779	9066
926.886	9036
926.993	8925
927.099	8944
927.206	8929
927.312	8883
927.419	8944
927.525	8979
927.631	8963
927.737	8872
927.843	8838
927.95	8678
928.056	8720
928.162	8792
928.267	8902
928.373	9412
928.479	8868
928.585	8655
928.69	8792
928.796	8800
928.901	8796
929.007	8659
929.112	8731
929.218	8617
929.323	8659
929.428	8648
929.533	8853
929.638	8541
929.743	8674
929.848	8583
929.953	8583
930.058	8473
930.163	8423
930.267	8404
930.372	8518
930.477	8343
930.581	8617
930.685	8454
930.79	8343
930.894	8393
930.998	8362
931.103	8446
931.207	8172
931.311	8119
931.415	8043
931.519	7845
931.623	7795
