Data from test_V78500241_1481.txt Node
Date: Fri Mar 25 14:44:01 CST 2022
User: usil
Spectrometer: V785-0024
Trigger mode: 0
Integration Time (sec): 4.000000E-1
Scans to average: 1
Nonlinearity correction enabled: false
Boxcar width: 0
Storing dark spectrum: false
XAxis mode: Wavelengths
Number of Pixels in Spectrum: 1024
>>>>>Begin Spectral Data<<<<<
801.071	22531
801.214	22268
801.356	22082
801.499	21934
801.641	21850
801.783	21831
801.926	21816
802.068	21812
802.211	21595
802.353	21557
802.496	21260
802.638	21355
802.78	21268
802.923	21142
803.065	21047
803.208	20982
803.35	21093
803.492	21268
803.635	21226
803.777	21112
803.919	21237
804.061	21519
804.204	21268
804.346	21066
804.488	21039
804.63	21112
804.773	20963
804.915	21055
805.057	21176
805.199	21036
805.341	21093
805.483	21138
805.626	21199
805.768	21070
805.91	21085
806.052	21138
806.194	20998
806.336	21199
806.478	21096
806.62	20998
806.762	21085
806.904	21226
807.046	21500
807.188	21336
807.33	21477
807.472	21405
807.614	21424
807.756	21389
807.898	21370
808.04	21165
808.182	21268
808.324	21321
808.465	21367
808.607	21466
808.749	21572
808.891	21713
809.033	21812
809.174	21774
809.316	21576
809.458	21667
809.6	21458
809.741	21603
809.883	21595
810.025	21675
810.166	21709
810.308	21618
810.45	21641
810.591	21481
810.733	21439
810.875	21203
811.016	21142
811.158	21180
811.299	21401
811.441	21428
811.582	21481
811.724	21336
811.865	21214
812.007	21218
812.148	21241
812.29	21336
812.431	21393
812.573	21557
812.714	21591
812.855	21717
812.997	21876
813.138	22074
813.279	21869
813.421	21751
813.562	21622
813.703	21504
813.845	21317
813.986	21176
814.127	20963
814.268	20914
814.41	20902
814.551	20712
814.692	20906
814.833	20708
814.974	20796
815.115	20762
815.256	20480
815.397	20606
815.539	20632
815.68	20514
815.821	20488
815.962	20469
816.103	20408
816.244	20320
816.385	20202
816.526	20336
816.666	20005
816.807	19833
816.948	20134
817.089	20081
817.23	19967
817.371	19852
817.512	19982
817.653	19902
817.793	19860
817.934	19982
818.075	19932
818.216	19955
818.356	19830
818.497	19780
818.638	19605
818.778	19578
818.919	19712
819.06	19651
819.2	19689
819.341	19841
819.481	19841
819.622	20024
819.762	20145
819.903	19940
820.043	19917
820.184	19818
820.324	19841
820.465	20012
820.605	20008
820.746	19780
820.886	19784
821.026	19772
821.167	19849
821.307	20039
821.447	19822
821.588	19727
821.728	19552
821.868	19495
822.008	19259
822.149	19255
822.289	19381
822.429	18981
822.569	19072
822.709	18993
822.849	18844
822.99	18783
823.13	18779
823.27	18768
823.41	18608
823.55	18525
823.69	18661
823.83	18582
823.97	18646
824.11	18410
824.25	18369
824.389	18414
824.529	18384
824.669	18350
824.809	18464
824.949	18353
825.089	18372
825.228	18262
825.368	18095
825.508	18125
825.648	18110
825.787	18163
825.927	18152
826.067	18057
826.206	18201
826.346	18106
826.485	18144
826.625	18197
826.765	18254
826.904	18098
827.044	18007
827.183	17771
827.323	17794
827.462	17901
827.601	17790
827.741	17779
827.88	17843
828.02	17760
828.159	17695
828.298	17882
828.437	17863
828.577	17741
828.716	18049
828.855	17737
828.994	17619
829.134	17596
829.273	17619
829.412	17505
829.551	17570
829.69	17509
829.829	17570
829.968	17649
830.107	17684
830.246	17570
830.385	17600
830.524	17444
830.663	17341
830.802	17402
830.941	17261
831.08	17102
831.219	17212
831.357	17322
831.496	17395
831.635	17159
831.774	17117
831.913	17010
832.051	17022
832.19	17029
832.329	16904
832.467	16961
832.606	16828
832.744	16858
832.883	16873
833.022	16938
833.16	16976
833.299	16927
833.437	16972
833.576	16953
833.714	17018
833.852	16873
833.991	16957
834.129	17029
834.267	16858
834.406	16911
834.544	16968
834.682	16961
834.821	16927
834.959	17185
835.097	16892
835.235	16987
835.373	16915
835.511	16961
835.65	16854
835.788	16831
835.926	16588
836.064	16721
836.202	16664
836.34	16957
836.478	16881
836.615	16797
836.753	16790
836.891	16957
837.029	16919
837.167	16725
837.305	16786
837.443	16717
837.58	16649
837.718	16771
837.856	16721
837.993	16717
838.131	16634
838.269	16653
838.406	16626
838.544	16546
838.681	16443
838.819	16303
838.956	16276
839.094	16188
839.231	16230
839.369	16413
839.506	16584
839.643	16500
839.781	16204
839.918	16234
840.055	16185
840.193	16143
840.33	16158
840.467	16246
840.604	16234
840.742	16360
840.879	16109
841.016	16128
841.153	16158
841.29	16299
841.427	16329
841.564	16303
841.701	16204
841.838	16120
841.975	16109
842.112	16185
842.249	15975
842.385	15972
842.522	16135
842.659	16063
842.796	15956
842.933	15956
843.069	15994
843.206	16086
843.343	16090
843.479	15972
843.616	15975
843.752	15911
843.889	15884
844.025	15884
844.162	15728
844.298	16006
844.435	15766
844.571	15698
844.708	15812
844.844	16082
844.98	15941
845.117	15876
845.253	15686
845.389	15705
845.525	15880
845.661	15736
845.798	15743
845.934	15934
846.07	15842
846.206	15964
846.342	15960
846.478	15720
846.614	15485
846.75	15359
846.886	15340
847.022	15450
847.158	15443
847.294	15382
847.429	15408
847.565	15374
847.701	15629
847.837	15112
847.972	15214
848.108	15226
848.244	15150
848.379	14982
848.515	14975
848.65	15009
848.786	14998
848.921	14990
849.057	15051
849.192	15085
849.328	15055
849.463	14971
849.598	14933
849.734	14918
849.869	14857
850.004	14754
850.14	14708
850.275	14716
850.41	14648
850.545	14758
850.68	14731
850.815	14655
850.95	14750
851.085	15028
851.22	14960
851.355	14720
851.49	14617
851.625	14598
851.76	14674
851.895	14499
852.03	14610
852.165	14773
852.299	14674
852.434	14834
852.569	14754
852.703	14773
852.838	14830
852.973	14804
853.107	14823
853.242	14693
853.376	14678
853.511	14488
853.645	14556
853.78	14682
853.914	14556
854.048	14598
854.183	14579
854.317	14640
854.451	14762
854.585	14526
854.72	14549
854.854	14632
854.988	14507
855.122	14507
855.256	14480
855.39	14552
855.524	14743
855.658	14686
855.792	14636
855.926	14697
856.06	14625
856.194	14678
856.327	14488
856.461	14568
856.595	14583
856.729	14533
856.862	14602
856.996	14598
857.13	14594
857.263	14712
857.397	14708
857.53	14617
857.664	14682
857.797	14583
857.931	14701
858.064	14644
858.197	14617
858.331	14533
858.464	14571
858.597	14530
858.731	14598
858.864	14541
858.997	14617
859.13	14514
859.263	14606
859.396	14678
859.529	14564
859.662	14495
859.795	14533
859.928	14579
860.061	14735
860.194	14735
860.327	14632
860.46	14537
860.592	14716
860.725	14743
860.858	14682
860.99	14606
861.123	14560
861.256	14503
861.388	14674
861.521	15142
861.653	14465
861.786	14503
861.918	14419
862.05	14533
862.183	14454
862.315	14511
862.447	14533
862.58	14518
862.712	14381
862.844	14336
862.976	14469
863.108	14434
863.24	14895
863.372	14278
863.504	14355
863.636	14286
863.768	14396
863.9	14366
864.032	14339
864.164	14244
864.296	14442
864.428	14473
864.559	14454
864.691	14495
864.823	14408
864.954	14377
865.086	14347
865.217	14317
865.349	14278
865.48	14328
865.612	14396
865.743	14438
865.875	14370
866.006	14301
866.137	14282
866.269	14362
866.4	14320
866.531	14218
866.662	14267
866.793	14282
866.924	14256
867.055	14389
867.186	14374
867.317	14237
867.448	14180
867.579	14332
867.71	14278
867.841	14286
867.972	14431
868.103	14298
868.233	14355
868.364	14332
868.495	14415
868.625	14503
868.756	14724
868.886	14575
869.017	14629
869.147	14697
869.278	14727
869.408	14613
869.539	14594
869.669	14583
869.799	14659
869.929	14651
870.06	14613
870.19	14941
870.32	14883
870.45	14902
870.58	15047
870.71	15146
870.84	15127
870.97	15001
871.1	15001
871.23	15146
871.36	15051
871.489	15157
871.619	15116
871.749	15070
871.879	15192
872.008	15332
872.138	15211
872.267	15097
872.397	15032
872.526	14990
872.656	14887
872.785	15055
872.915	15173
873.044	15325
873.173	15287
873.303	15233
873.432	15313
873.561	15287
873.69	15264
873.819	15226
873.948	15321
874.077	15275
874.206	15226
874.335	15237
874.464	15393
874.593	15523
874.722	15443
874.851	15595
874.979	15545
875.108	15545
875.237	15458
875.365	15504
875.494	15564
875.623	15564
875.751	15500
875.88	15644
876.008	15690
876.136	15759
876.265	15911
876.393	16074
876.521	16059
876.65	16055
876.778	15926
876.906	15899
877.034	15854
877.162	16051
877.29	15892
877.418	15907
877.546	16010
877.674	15892
877.802	15949
877.93	16013
878.058	15960
878.185	15831
878.313	15888
878.441	16029
878.568	15816
878.696	15926
878.824	16002
878.951	16131
879.079	16147
879.206	16363
879.333	16246
879.461	16173
879.588	16154
879.715	16234
879.842	16325
879.97	16131
880.097	15846
880.224	15895
880.351	15888
880.478	15865
880.605	15793
880.732	15743
880.859	16090
880.986	15903
881.112	15854
881.239	15701
881.366	15637
881.493	15538
881.619	15447
881.746	15500
881.872	15458
881.999	15378
882.125	15412
882.252	15523
882.378	15466
882.505	15599
882.631	15317
882.757	15291
882.883	15401
883.01	15252
883.136	15298
883.262	15157
883.388	15131
883.514	15302
883.64	15348
883.766	15233
883.892	15070
884.018	15222
884.143	15370
884.269	15393
884.395	15119
884.52	14975
884.646	15058
884.772	15020
884.897	14883
885.023	14979
885.148	15020
885.274	15165
885.399	15256
885.524	15005
885.65	14956
885.775	14952
885.9	14990
886.025	15207
886.15	15097
886.275	14944
886.4	14872
886.525	14990
886.65	14895
886.775	14967
886.9	15097
887.025	15325
887.149	14960
887.274	14765
887.399	14781
887.523	14716
887.648	14750
887.773	14686
887.897	14914
888.021	14876
888.146	14849
888.27	14899
888.395	14868
888.519	14849
888.643	14933
888.767	14963
888.891	14712
889.015	14640
889.139	14594
889.263	14644
889.387	14781
889.511	14899
889.635	14796
889.759	14583
889.883	14632
890.006	14731
890.13	14731
890.254	14598
890.377	14659
890.501	14526
890.624	14473
890.748	14480
890.871	14438
890.995	14332
891.118	14191
891.241	14301
891.364	14404
891.488	14461
891.611	14438
891.734	14282
891.857	14404
891.98	14465
892.103	14434
892.226	14480
892.349	14381
892.471	14214
892.594	14351
892.717	14393
892.839	14301
892.962	14374
893.085	14408
893.207	14336
893.33	14267
893.452	14278
893.575	14355
893.697	14488
893.819	14533
893.941	14530
894.064	14511
894.186	14320
894.308	14267
894.43	14431
894.552	14598
894.674	14499
894.796	14393
894.918	14438
895.04	14431
895.161	14518
895.283	14446
895.405	14339
895.526	14461
895.648	14400
895.769	14514
895.891	14526
896.012	14552
896.134	14526
896.255	14533
896.376	14457
896.498	14590
896.619	14461
896.74	14492
896.861	14617
896.982	14819
897.103	15009
897.224	14826
897.345	14746
897.466	14754
897.587	14842
897.708	14933
897.828	14792
897.949	14754
898.07	14613
898.19	14758
898.311	14963
898.431	14762
898.552	14963
898.672	14929
898.792	14998
898.913	14918
899.033	14811
899.153	14731
899.273	14613
899.393	14746
899.513	14701
899.633	14727
899.753	14716
899.873	14686
899.993	14811
900.113	14731
900.232	14804
900.352	14724
900.472	14590
900.591	14484
900.711	14541
900.83	14461
900.95	14632
901.069	14705
901.189	14610
901.308	14286
901.427	14199
901.546	14256
901.665	14218
901.784	14366
901.904	14275
902.023	14130
902.141	13845
902.26	13780
902.379	13986
902.498	13772
902.617	13830
902.735	13803
902.854	13830
902.973	13723
903.091	13624
903.21	13487
903.328	13609
903.446	13544
903.565	13419
903.683	13343
903.801	13289
903.919	13320
904.038	13445
904.156	13206
904.274	13278
904.392	13213
904.51	13221
904.627	13206
904.745	13198
904.863	13168
904.981	12966
905.098	12932
905.216	12863
905.334	12913
905.451	12882
905.569	12882
905.686	12833
905.803	12776
905.921	12749
906.038	12764
906.155	12692
906.272	12669
906.389	12608
906.506	12475
906.623	12483
906.74	12544
906.857	12292
906.974	12429
907.091	12525
907.208	12627
907.324	12578
907.441	12403
907.557	12232
907.674	12243
907.79	12136
907.907	12201
908.023	12266
908.139	12247
908.256	12178
908.372	12091
908.488	12060
908.604	11942
908.72	11969
908.836	11950
908.952	11988
909.068	11969
909.184	12102
909.3	11969
909.415	11980
909.531	11973
909.647	11737
909.762	11767
909.878	11733
909.993	11790
910.108	11688
910.224	11733
910.339	11684
910.454	11653
910.57	11573
910.685	11566
910.8	11824
910.915	11790
911.03	11600
911.145	11585
911.259	11444
911.374	11547
911.489	11273
911.604	11296
911.718	11235
911.833	11181
911.947	11056
912.062	11018
912.176	11124
912.291	11090
912.405	11147
912.519	11482
912.633	11410
912.748	11239
912.862	11162
912.976	11048
913.09	10946
913.204	11037
913.318	11060
913.431	11155
913.545	11155
913.659	11204
913.772	11155
913.886	10866
914	10881
914.113	11025
914.226	11071
914.34	11029
914.453	10831
914.566	11094
914.68	10976
914.793	10869
914.906	10675
915.019	10660
915.132	10649
915.245	10656
915.358	10721
915.47	10691
915.583	10725
915.696	10714
915.809	10843
915.921	10862
916.034	10683
916.146	10599
916.259	10622
916.371	10748
916.483	10615
916.595	10615
916.708	10599
916.82	10596
916.932	10603
917.044	10580
917.156	10649
917.268	10538
917.38	10546
917.491	10485
917.603	10474
917.715	10588
917.826	10516
917.938	10443
918.049	10333
918.161	10489
918.272	10683
918.384	10599
918.495	10466
918.606	10417
918.717	10280
918.828	10440
918.939	10306
919.05	10295
919.161	10333
919.272	10196
919.383	10185
919.494	10455
919.604	10603
919.715	10432
919.826	10322
919.936	10352
920.047	10462
920.157	10436
920.267	10592
920.378	10394
920.488	10405
920.598	10607
920.708	10752
920.818	10607
920.928	10512
921.038	10763
921.148	10714
921.258	10466
921.368	10344
921.477	10356
921.587	10196
921.697	10078
921.806	10230
921.916	10131
922.025	9949
922.134	9960
922.244	9895
922.353	9949
922.462	9831
922.571	9819
922.68	9732
922.789	9625
922.898	9637
923.007	9591
923.116	9660
923.224	9606
923.333	9595
923.442	9625
923.55	9519
923.659	9519
923.767	9599
923.876	9454
923.984	9591
924.092	9420
924.201	9568
924.309	9504
924.417	9447
924.525	9386
924.633	9462
924.741	10360
924.849	9241
924.956	9469
925.064	9355
925.172	9214
925.279	9195
925.387	9321
925.494	9302
925.602	9504
925.709	9397
925.816	9188
925.924	9245
926.031	9405
926.138	9310
926.245	9332
926.352	9233
926.459	9367
926.566	9450
926.673	9287
926.779	9173
926.886	9062
926.993	9001
927.099	9017
927.206	8918
927.312	9043
927.419	9032
927.525	9028
927.631	9001
927.737	8899
927.843	8838
927.95	8781
928.056	8861
928.162	8899
928.267	8967
928.373	9542
928.479	8956
928.585	8796
928.69	8845
928.796	8925
928.901	8735
929.007	8693
929.112	8773
929.218	8769
929.323	8682
929.428	8640
929.533	8807
929.638	8613
929.743	8682
929.848	8758
929.953	8701
930.058	8613
930.163	8450
930.267	8522
930.372	8682
930.477	8412
930.581	8682
930.685	8530
930.79	8389
930.894	8408
930.998	8381
931.103	8549
931.207	8279
931.311	8176
931.415	8134
931.519	7921
931.623	7845
