Data from test_V78500241_1029.txt Node
Date: Fri Mar 25 14:40:52 CST 2022
User: usil
Spectrometer: V785-0024
Trigger mode: 0
Integration Time (sec): 4.000000E-1
Scans to average: 1
Nonlinearity correction enabled: false
Boxcar width: 0
Storing dark spectrum: false
XAxis mode: Wavelengths
Number of Pixels in Spectrum: 1024
>>>>>Begin Spectral Data<<<<<
801.071	22968
801.214	22733
801.356	22577
801.499	22512
801.641	22276
801.783	22318
801.926	22268
802.068	22211
802.211	22013
802.353	22048
802.496	21797
802.638	21854
802.78	21720
802.923	21720
803.065	21557
803.208	21686
803.35	21663
803.492	21629
803.635	21671
803.777	21568
803.919	21835
804.061	22032
804.204	21648
804.346	21625
804.488	21485
804.63	21652
804.773	21606
804.915	21637
805.057	21785
805.199	21576
805.341	21682
805.483	21759
805.626	21622
805.768	21473
805.91	21557
806.052	21682
806.194	21519
806.336	21861
806.478	21694
806.62	21538
806.762	21644
806.904	21869
807.046	22086
807.188	22036
807.33	22055
807.472	22101
807.614	22021
807.756	22105
807.898	22021
808.04	21956
808.182	22051
808.324	22154
808.465	22257
808.607	22569
808.749	22797
808.891	22923
809.033	22991
809.174	22877
809.316	22599
809.458	22523
809.6	22421
809.741	22371
809.883	22352
810.025	22379
810.166	22474
810.308	22276
810.45	22390
810.591	22169
810.733	21991
810.875	21941
811.016	21892
811.158	21762
811.299	21915
811.441	21903
811.582	21926
811.724	21892
811.865	21903
812.007	21762
812.148	21800
812.29	21892
812.431	22017
812.573	22139
812.714	22234
812.855	22443
812.997	22402
813.138	22504
813.279	22348
813.421	22371
813.562	22226
813.703	22048
813.845	21873
813.986	21690
814.127	21439
814.268	21344
814.41	21386
814.551	21321
814.692	21405
814.833	21332
814.974	21283
815.115	21401
815.256	21230
815.397	21211
815.539	21135
815.68	21146
815.821	20986
815.962	21005
816.103	21081
816.244	20944
816.385	20826
816.526	20857
816.666	20716
816.807	20556
816.948	20606
817.089	20659
817.23	20427
817.371	20484
817.512	20492
817.653	20404
817.793	20381
817.934	20537
818.075	20480
818.216	20560
818.356	20415
818.497	20339
818.638	20206
818.778	20183
818.919	20183
819.06	20199
819.2	20366
819.341	20446
819.481	20427
819.622	20438
819.762	20720
819.903	20560
820.043	20499
820.184	20537
820.324	20518
820.465	20495
820.605	20457
820.746	20358
820.886	20214
821.026	20507
821.167	20362
821.307	20522
821.447	20450
821.588	20233
821.728	20126
821.868	20050
822.008	19826
822.149	19795
822.289	19795
822.429	19586
822.569	19464
822.709	19521
822.849	19244
822.99	19278
823.13	19384
823.27	19400
823.41	19187
823.55	19122
823.69	19225
823.83	19141
823.97	19148
824.11	18939
824.25	18951
824.389	18932
824.529	18970
824.669	18875
824.809	18970
824.949	18928
825.089	18928
825.228	18867
825.368	18734
825.508	18886
825.648	18760
825.787	18730
825.927	18871
826.067	18722
826.206	18650
826.346	18787
826.485	18684
826.625	18707
826.765	18970
826.904	18795
827.044	18506
827.183	18422
827.323	18426
827.462	18471
827.601	18460
827.741	18330
827.88	18437
828.02	18285
828.159	18350
828.298	18414
828.437	18407
828.577	18289
828.716	18429
828.855	18346
828.994	18144
829.134	18072
829.273	18216
829.412	18213
829.551	18102
829.69	18197
829.829	18152
829.968	18194
830.107	18190
830.246	18258
830.385	18114
830.524	18015
830.663	17965
830.802	17908
830.941	17741
831.08	17786
831.219	17882
831.357	17863
831.496	18041
831.635	17668
831.774	17661
831.913	17638
832.051	17554
832.19	17585
832.329	17714
832.467	17429
832.606	17433
832.744	17486
832.883	17402
833.022	17440
833.16	17376
833.299	17566
833.437	17524
833.576	17585
833.714	17554
833.852	17490
833.991	17486
834.129	17516
834.267	17589
834.406	17608
834.544	17547
834.682	17436
834.821	17440
834.959	17733
835.097	17414
835.235	17623
835.373	17562
835.511	17493
835.65	17421
835.788	17433
835.926	17223
836.064	17322
836.202	17216
836.34	17417
836.478	17482
836.615	17261
836.753	17471
836.891	17524
837.029	17421
837.167	17414
837.305	17307
837.443	17284
837.58	17227
837.718	17269
837.856	17220
837.993	17159
838.131	17223
838.269	17159
838.406	17189
838.544	17246
838.681	16896
838.819	16938
838.956	16809
839.094	16881
839.231	16809
839.369	16938
839.506	17204
839.643	17022
839.781	16721
839.918	16755
840.055	16820
840.193	16797
840.33	16847
840.467	16736
840.604	16767
840.742	17143
840.879	16645
841.016	16793
841.153	16759
841.29	16862
841.427	16759
841.564	16869
841.701	16812
841.838	16664
841.975	16660
842.112	16630
842.249	16588
842.385	16508
842.522	16691
842.659	16538
842.796	16481
842.933	16580
843.069	16599
843.206	16538
843.343	16641
843.479	16603
843.616	16706
843.752	16371
843.889	16356
844.025	16527
844.162	16272
844.298	16592
844.435	16356
844.571	16306
844.708	16447
844.844	16451
844.98	16573
845.117	16413
845.253	16398
845.389	16470
845.525	16618
845.661	16645
845.798	16984
845.934	17155
846.07	17151
846.206	17098
846.342	17029
846.478	16660
846.614	16432
846.75	16131
846.886	15953
847.022	16006
847.158	15911
847.294	16006
847.429	15968
847.565	15964
847.701	16185
847.837	15625
847.972	15557
848.108	15759
848.244	15660
848.379	15576
848.515	15485
848.65	15462
848.786	15595
848.921	15538
849.057	15568
849.192	15564
849.328	15530
849.463	15507
849.598	15450
849.734	15370
849.869	15401
850.004	15287
850.14	15272
850.275	15203
850.41	15093
850.545	15275
850.68	15256
850.815	15294
850.95	15207
851.085	15412
851.22	15408
851.355	15279
851.49	15173
851.625	15218
851.76	15165
851.895	15116
852.03	15077
852.165	15226
852.299	15306
852.434	15321
852.569	15336
852.703	15291
852.838	15294
852.973	15492
853.107	15450
853.242	15302
853.376	15093
853.511	15081
853.645	15036
853.78	15245
853.914	15230
854.048	15066
854.183	15085
854.317	15173
854.451	15310
854.585	15100
854.72	15024
854.854	15207
854.988	15070
855.122	15097
855.256	14971
855.39	15104
855.524	15252
855.658	15150
855.792	15093
855.926	15268
856.06	15195
856.194	15176
856.327	15047
856.461	15058
856.595	15097
856.729	15020
856.862	15214
856.996	15146
857.13	15127
857.263	15306
857.397	15131
857.53	15180
857.664	15199
857.797	15123
857.931	15275
858.064	15218
858.197	15237
858.331	15074
858.464	15039
858.597	15066
858.731	15157
858.864	15047
858.997	15100
859.13	15218
859.263	15119
859.396	15142
859.529	15135
859.662	15017
859.795	15024
859.928	15100
860.061	15252
860.194	15313
860.327	15161
860.46	15062
860.592	15161
860.725	15085
860.858	15291
860.99	15131
861.123	15051
861.256	15032
861.388	15154
861.521	15770
861.653	15039
861.786	14948
861.918	15089
862.05	15108
862.183	15081
862.315	15104
862.447	15154
862.58	14998
862.712	14834
862.844	14845
862.976	14941
863.108	14967
863.24	15241
863.372	14815
863.504	14921
863.636	14914
863.768	14937
863.9	14842
864.032	14788
864.164	14788
864.296	14876
864.428	14982
864.559	14971
864.691	14914
864.823	14994
864.954	14899
865.086	14883
865.217	14887
865.349	14708
865.48	14895
865.612	14864
865.743	14933
865.875	14876
866.006	14769
866.137	14876
866.269	14807
866.4	14823
866.531	14853
866.662	14716
866.793	14762
866.924	14769
867.055	14960
867.186	14773
867.317	14849
867.448	14815
867.579	14807
867.71	14693
867.841	14796
867.972	14857
868.103	14864
868.233	14785
868.364	14785
868.495	14864
868.625	15161
868.756	15165
868.886	14994
869.017	15039
869.147	15169
869.278	15214
869.408	15043
869.539	15184
869.669	15237
869.799	15184
869.929	15131
870.06	15332
870.19	15458
870.32	15351
870.45	15462
870.58	15370
870.71	15591
870.84	15492
870.97	15488
871.1	15416
871.23	15671
871.36	15656
871.489	15485
871.619	15720
871.749	15644
871.879	15717
872.008	15739
872.138	15549
872.267	15705
872.397	15477
872.526	15447
872.656	15500
872.785	15561
872.915	15686
873.044	15793
873.173	15667
873.303	15766
873.432	15743
873.561	15880
873.69	15770
873.819	15800
873.948	15789
874.077	15751
874.206	15671
874.335	15743
874.464	15945
874.593	16006
874.722	15880
874.851	15975
874.979	16150
875.108	16044
875.237	16021
875.365	15911
875.494	16067
875.623	16173
875.751	16029
875.88	16017
876.008	16181
876.136	16348
876.265	16462
876.393	16717
876.521	16497
876.65	16577
876.778	16558
876.906	16428
877.034	16421
877.162	16443
877.29	16459
877.418	16485
877.546	16481
877.674	16379
877.802	16436
877.93	16413
878.058	16508
878.185	16478
878.313	16573
878.441	16580
878.568	16382
878.696	16538
878.824	16618
878.951	16660
879.079	16831
879.206	17102
879.333	17018
879.461	16984
879.588	17086
879.715	17025
879.842	17121
879.97	16828
880.097	16645
880.224	16535
880.351	16447
880.478	16459
880.605	16504
880.732	16436
880.859	16717
880.986	16516
881.112	16478
881.239	16253
881.366	16219
881.493	16059
881.619	16120
881.746	16071
881.872	16051
881.999	16059
882.125	16013
882.252	16154
882.378	16097
882.505	16192
882.631	16044
882.757	15899
882.883	15964
883.01	15918
883.136	15854
883.262	15720
883.388	15781
883.514	15907
883.64	15949
883.766	15747
883.892	15641
884.018	15713
884.143	15922
884.269	15907
884.395	15686
884.52	15580
884.646	15523
884.772	15481
884.897	15496
885.023	15644
885.148	15675
885.274	15739
885.399	15584
885.524	15633
885.65	15591
885.775	15599
885.9	15564
886.025	15698
886.15	15618
886.275	15454
886.4	15378
886.525	15500
886.65	15447
886.775	15519
886.9	15618
887.025	15812
887.149	15526
887.274	15355
887.399	15363
887.523	15340
887.648	15214
887.773	15279
887.897	15313
888.021	15405
888.146	15287
888.27	15336
888.395	15492
888.519	15306
888.643	15344
888.767	15370
888.891	15264
889.015	15116
889.139	15302
889.263	15176
889.387	15207
889.511	15431
889.635	15272
889.759	15195
889.883	15184
890.006	15294
890.13	15218
890.254	15123
890.377	15058
890.501	15066
890.624	14937
890.748	15043
890.871	14906
890.995	14762
891.118	14792
891.241	14785
891.364	14925
891.488	14967
891.611	14826
891.734	14902
891.857	14899
891.98	14842
892.103	14937
892.226	14724
892.349	14823
892.471	14689
892.594	14857
892.717	14823
892.839	14743
892.962	14960
893.085	14910
893.207	14693
893.33	14644
893.452	14842
893.575	14769
893.697	14746
893.819	14971
893.941	15116
894.064	15017
894.186	14727
894.308	14762
894.43	14880
894.552	15028
894.674	14952
894.796	14743
894.918	14781
895.04	14762
895.161	14963
895.283	14868
895.405	14796
895.526	14921
895.648	14857
895.769	14960
895.891	14975
896.012	15013
896.134	14944
896.255	14967
896.376	14918
896.498	14941
896.619	14975
896.74	14876
896.861	14994
896.982	15268
897.103	15401
897.224	15169
897.345	15207
897.466	15138
897.587	15195
897.708	15351
897.828	15241
897.949	15131
898.07	15043
898.19	15264
898.311	15313
898.431	15245
898.552	15252
898.672	15355
898.792	15306
898.913	15397
899.033	15233
899.153	15104
899.273	15055
899.393	15127
899.513	15089
899.633	15085
899.753	15131
899.873	15119
899.993	15230
900.113	15169
900.232	15074
900.352	15135
900.472	15055
900.591	14872
900.711	15055
900.83	14979
900.95	15077
901.069	15135
901.189	14941
901.308	14651
901.427	14621
901.546	14625
901.665	14727
901.784	14693
901.904	14560
902.023	14434
902.141	14328
902.26	14244
902.379	14286
902.498	14275
902.617	14210
902.735	14180
902.854	14248
902.973	14138
903.091	13917
903.21	13970
903.328	13951
903.446	13856
903.565	13761
903.683	13757
903.801	13704
903.919	13795
904.038	13750
904.156	13616
904.274	13700
904.392	13563
904.51	13537
904.627	13643
904.745	13624
904.863	13544
904.981	13415
905.098	13289
905.216	13274
905.334	13240
905.451	13266
905.569	13194
905.686	13339
905.803	13282
905.921	13012
906.038	13206
906.155	13221
906.272	12928
906.389	12924
906.506	12871
906.623	12901
906.74	12916
906.857	12821
906.974	12688
907.091	12939
907.208	12977
907.324	12821
907.441	12810
907.557	12544
907.674	12525
907.79	12525
907.907	12498
908.023	12692
908.139	12593
908.256	12593
908.372	12490
908.488	12563
908.604	12327
908.72	12308
908.836	12403
908.952	12266
909.068	12289
909.184	12460
909.3	12372
909.415	12380
909.531	12338
909.647	12095
909.762	12041
909.878	12095
909.993	12167
910.108	12019
910.224	12026
910.339	12045
910.454	11969
910.57	12007
910.685	11923
910.8	12155
910.915	12125
911.03	12015
911.145	11836
911.259	11821
911.374	11840
911.489	11653
911.604	11642
911.718	11577
911.833	11573
911.947	11326
912.062	11379
912.176	11493
912.291	11562
912.405	11501
912.519	11668
912.633	11760
912.748	11604
912.862	11547
912.976	11341
913.09	11288
913.204	11376
913.318	11429
913.431	11493
913.545	11516
913.659	11528
913.772	11372
913.886	11326
914	11334
914.113	11395
914.226	11364
914.34	11337
914.453	11216
914.566	11398
914.68	11231
914.793	11193
914.906	11079
915.019	11025
915.132	10984
915.245	11090
915.358	11067
915.47	11029
915.583	11048
915.696	11113
915.809	11162
915.921	11124
916.034	10938
916.146	10900
916.259	10915
916.371	11056
916.483	11006
916.595	10904
916.708	10900
916.82	10904
916.932	10930
917.044	10946
917.156	10854
917.268	10774
917.38	10816
917.491	10801
917.603	10862
917.715	10900
917.826	10972
917.938	10793
918.049	10714
918.161	10885
918.272	11014
918.384	10873
918.495	10850
918.606	10668
918.717	10656
918.828	10660
918.939	10782
919.05	10630
919.161	10698
919.272	10447
919.383	10611
919.494	10767
919.604	10896
919.715	10702
919.826	10630
919.936	10664
920.047	10793
920.157	10729
920.267	10809
920.378	10744
920.488	10664
920.598	10919
920.708	11045
920.818	10862
920.928	10900
921.038	11022
921.148	11056
921.258	10679
921.368	10630
921.477	10596
921.587	10462
921.697	10409
921.806	10565
921.916	10462
922.025	10246
922.134	10261
922.244	10196
922.353	10284
922.462	10128
922.571	10097
922.68	9945
922.789	9941
922.898	9850
923.007	9876
923.116	9983
923.224	9907
923.333	9899
923.442	9808
923.55	9705
923.659	9766
923.767	9915
923.876	9808
923.984	9816
924.092	9812
924.201	9694
924.309	9747
924.417	9835
924.525	9675
924.633	9690
924.741	10660
924.849	9545
924.956	9755
925.064	9492
925.172	9454
925.279	9545
925.387	9591
925.494	9610
925.602	9675
925.709	9675
925.816	9431
925.924	9576
926.031	9667
926.138	9568
926.245	9618
926.352	9469
926.459	9568
926.566	9641
926.673	9530
926.779	9416
926.886	9382
926.993	9344
927.099	9249
927.206	9245
927.312	9169
927.419	9291
927.525	9237
927.631	9344
927.737	9188
927.843	9116
927.95	9013
928.056	9100
928.162	9150
928.267	9173
928.373	9842
928.479	9260
928.585	9009
928.69	9100
928.796	9123
928.901	9070
929.007	8929
929.112	9055
929.218	8994
929.323	8918
929.428	8937
929.533	9055
929.638	8906
929.743	8899
929.848	8952
929.953	8906
930.058	8876
930.163	8621
930.267	8686
930.372	8834
930.477	8640
930.581	8929
930.685	8800
930.79	8648
930.894	8716
930.998	8625
931.103	8750
931.207	8442
931.311	8366
931.415	8313
931.519	8199
931.623	8153
