Data from test_V78500241_1530.txt Node
Date: Fri Mar 25 14:44:22 CST 2022
User: usil
Spectrometer: V785-0024
Trigger mode: 0
Integration Time (sec): 4.000000E-1
Scans to average: 1
Nonlinearity correction enabled: false
Boxcar width: 0
Storing dark spectrum: false
XAxis mode: Wavelengths
Number of Pixels in Spectrum: 1024
>>>>>Begin Spectral Data<<<<<
801.071	22424
801.214	22272
801.356	22067
801.499	22013
801.641	21751
801.783	21736
801.926	21835
802.068	21629
802.211	21652
802.353	21519
802.496	21374
802.638	21245
802.78	21298
802.923	21180
803.065	21017
803.208	21070
803.35	21051
803.492	21230
803.635	21226
803.777	21184
803.919	21119
804.061	21488
804.204	20994
804.346	20986
804.488	20963
804.63	21074
804.773	20956
804.915	21051
805.057	21051
805.199	20948
805.341	21112
805.483	21104
805.626	21127
805.768	20990
805.91	21066
806.052	20921
806.194	20979
806.336	21123
806.478	20979
806.62	21013
806.762	21032
806.904	21283
807.046	21500
807.188	21416
807.33	21313
807.472	21359
807.614	21264
807.756	21298
807.898	21230
808.04	21074
808.182	21157
808.324	21165
808.465	21310
808.607	21481
808.749	21610
808.891	21663
809.033	21759
809.174	21679
809.316	21466
809.458	21492
809.6	21515
809.741	21587
809.883	21557
810.025	21583
810.166	21663
810.308	21507
810.45	21447
810.591	21576
810.733	21420
810.875	21275
811.016	21188
811.158	21146
811.299	21154
811.441	21397
811.582	21336
811.724	21241
811.865	21081
812.007	21249
812.148	21173
812.29	21283
812.431	21370
812.573	21450
812.714	21595
812.855	21709
812.997	21732
813.138	21945
813.279	21857
813.421	21675
813.562	21526
813.703	21397
813.845	21374
813.986	21017
814.127	20952
814.268	20807
814.41	20765
814.551	20716
814.692	20845
814.833	20720
814.974	20667
815.115	20785
815.256	20598
815.397	20606
815.539	20541
815.68	20526
815.821	20434
815.962	20457
816.103	20454
816.244	20465
816.385	20210
816.526	20233
816.666	20138
816.807	19928
816.948	19951
817.089	20058
817.23	19955
817.371	20005
817.512	19902
817.653	19871
817.793	19902
817.934	20005
818.075	19951
818.216	19989
818.356	19830
818.497	19628
818.638	19559
818.778	19624
818.919	19746
819.06	19605
819.2	19738
819.341	19807
819.481	19803
819.622	19936
819.762	20103
819.903	19989
820.043	19852
820.184	19868
820.324	19894
820.465	19974
820.605	19925
820.746	19856
820.886	19822
821.026	19807
821.167	19723
821.307	19856
821.447	19791
821.588	19784
821.728	19605
821.868	19426
822.008	19312
822.149	19232
822.289	19198
822.429	19034
822.569	18966
822.709	18985
822.849	18741
822.99	18738
823.13	18722
823.27	18620
823.41	18593
823.55	18540
823.69	18722
823.83	18661
823.97	18483
824.11	18353
824.25	18334
824.389	18365
824.529	18361
824.669	18369
824.809	18437
824.949	18429
825.089	18418
825.228	18334
825.368	18174
825.508	18114
825.648	18129
825.787	18174
825.927	18174
826.067	18174
826.206	18011
826.346	18148
826.485	18060
826.625	18106
826.765	18209
826.904	18163
827.044	17984
827.183	17893
827.323	17828
827.462	17824
827.601	17783
827.741	17794
827.88	17771
828.02	17676
828.159	17794
828.298	17893
828.437	17920
828.577	17741
828.716	17927
828.855	17802
828.994	17630
829.134	17482
829.273	17592
829.412	17467
829.551	17501
829.69	17592
829.829	17493
829.968	17611
830.107	17524
830.246	17573
830.385	17528
830.524	17398
830.663	17395
830.802	17356
830.941	17277
831.08	17220
831.219	17269
831.357	17220
831.496	17433
831.635	17045
831.774	17098
831.913	16991
832.051	16968
832.19	16942
832.329	17022
832.467	16854
832.606	16866
832.744	16839
832.883	16828
833.022	16854
833.16	16869
833.299	16843
833.437	16744
833.576	16919
833.714	16831
833.852	16919
833.991	16953
834.129	16923
834.267	16968
834.406	16984
834.544	17010
834.682	16904
834.821	16881
834.959	17006
835.097	16881
835.235	16949
835.373	17025
835.511	16946
835.65	16790
835.788	16828
835.926	16622
836.064	16603
836.202	16622
836.34	16953
836.478	16866
836.615	16809
836.753	16805
836.891	16828
837.029	16713
837.167	16767
837.305	16710
837.443	16706
837.58	16607
837.718	16763
837.856	16744
837.993	16573
838.131	16656
838.269	16615
838.406	16580
838.544	16550
838.681	16356
838.819	16333
838.956	16226
839.094	16276
839.231	16363
839.369	16462
839.506	16527
839.643	16451
839.781	16188
839.918	16128
840.055	16310
840.193	16261
840.33	16181
840.467	16192
840.604	16238
840.742	16462
840.879	15975
841.016	16154
841.153	16101
841.29	16284
841.427	16226
841.564	16185
841.701	16234
841.838	16154
841.975	16021
842.112	16105
842.249	16013
842.385	15987
842.522	16211
842.659	15975
842.796	15953
842.933	16032
843.069	16071
843.206	15903
843.343	16021
843.479	16025
843.616	15987
843.752	15823
843.889	15774
844.025	15892
844.162	15720
844.298	15873
844.435	15751
844.571	15774
844.708	15819
844.844	15892
844.98	15869
845.117	16032
845.253	15720
845.389	15644
845.525	15660
845.661	15827
845.798	15732
845.934	15759
846.07	15736
846.206	15800
846.342	15819
846.478	15717
846.614	15412
846.75	15367
846.886	15370
847.022	15351
847.158	15363
847.294	15279
847.429	15378
847.565	15332
847.701	15492
847.837	15066
847.972	15005
848.108	15222
848.244	15123
848.379	14979
848.515	14902
848.65	14990
848.786	14960
848.921	14838
849.057	15032
849.192	14906
849.328	15009
849.463	14975
849.598	14906
849.734	14864
849.869	14682
850.004	14739
850.14	14781
850.275	14876
850.41	14667
850.545	14663
850.68	14621
850.815	14701
850.95	14739
851.085	14792
851.22	14792
851.355	14727
851.49	14606
851.625	14720
851.76	14712
851.895	14568
852.03	14530
852.165	14659
852.299	14663
852.434	14792
852.569	14697
852.703	14754
852.838	14826
852.973	14826
853.107	14891
853.242	14659
853.376	14682
853.511	14492
853.645	14613
853.78	14686
853.914	14499
854.048	14530
854.183	14617
854.317	14648
854.451	14720
854.585	14587
854.72	14636
854.854	14564
854.988	14507
855.122	14594
855.256	14457
855.39	14552
855.524	14693
855.658	14629
855.792	14530
855.926	14590
856.06	14644
856.194	14667
856.327	14606
856.461	14533
856.595	14602
856.729	14564
856.862	14735
856.996	14613
857.13	14686
857.263	14697
857.397	14724
857.53	14632
857.664	14564
857.797	14686
857.931	14693
858.064	14587
858.197	14689
858.331	14663
858.464	14571
858.597	14434
858.731	14590
858.864	14537
858.997	14530
859.13	14598
859.263	14674
859.396	14659
859.529	14549
859.662	14488
859.795	14560
859.928	14613
860.061	14754
860.194	14769
860.327	14648
860.46	14571
860.592	14686
860.725	14727
860.858	14705
860.99	14617
861.123	14454
861.256	14530
861.388	14629
861.521	15184
861.653	14415
861.786	14488
861.918	14492
862.05	14522
862.183	14598
862.315	14648
862.447	14667
862.58	14511
862.712	14271
862.844	14343
862.976	14442
863.108	14438
863.24	14823
863.372	14286
863.504	14427
863.636	14309
863.768	14454
863.9	14355
864.032	14343
864.164	14370
864.296	14404
864.428	14431
864.559	14362
864.691	14427
864.823	14488
864.954	14434
865.086	14404
865.217	14320
865.349	14309
865.48	14317
865.612	14286
865.743	14522
865.875	14400
866.006	14377
866.137	14336
866.269	14317
866.4	14355
866.531	14404
866.662	14328
866.793	14362
866.924	14301
867.055	14366
867.186	14332
867.317	14332
867.448	14225
867.579	14244
867.71	14218
867.841	14263
867.972	14275
868.103	14339
868.233	14385
868.364	14358
868.495	14377
868.625	14583
868.756	14659
868.886	14568
869.017	14636
869.147	14712
869.278	14613
869.408	14613
869.539	14579
869.669	14674
869.799	14606
869.929	14667
870.06	14746
870.19	14895
870.32	14857
870.45	15009
870.58	14941
870.71	15077
870.84	14990
870.97	15043
871.1	14986
871.23	15142
871.36	15135
871.489	15024
871.619	15074
871.749	15169
871.879	15249
872.008	15348
872.138	15268
872.267	15131
872.397	15070
872.526	15005
872.656	15070
872.785	15070
872.915	15214
873.044	15207
873.173	15203
873.303	15188
873.432	15256
873.561	15344
873.69	15207
873.819	15195
873.948	15302
874.077	15298
874.206	15283
874.335	15252
874.464	15397
874.593	15416
874.722	15534
874.851	15603
874.979	15534
875.108	15587
875.237	15542
875.365	15473
875.494	15431
875.623	15629
875.751	15523
875.88	15534
876.008	15648
876.136	15705
876.265	16017
876.393	16162
876.521	16048
876.65	15949
876.778	15972
876.906	15941
877.034	15812
877.162	15915
877.29	15888
877.418	15941
877.546	15960
877.674	15915
877.802	16048
877.93	16002
878.058	15934
878.185	15842
878.313	15781
878.441	15998
878.568	15793
878.696	15922
878.824	15964
878.951	15972
879.079	16177
879.206	16265
879.333	16249
879.461	16048
879.588	16207
879.715	16265
879.842	16306
879.97	16067
880.097	15869
880.224	15861
880.351	15838
880.478	15816
880.605	15797
880.732	15694
880.859	16055
880.986	15831
881.112	15895
881.239	15701
881.366	15641
881.493	15500
881.619	15473
881.746	15504
881.872	15534
881.999	15435
882.125	15530
882.252	15538
882.378	15561
882.505	15720
882.631	15389
882.757	15245
882.883	15233
883.01	15317
883.136	15119
883.262	15138
883.388	15066
883.514	15233
883.64	15294
883.766	15310
883.892	15043
884.018	15154
884.143	15336
884.269	15359
884.395	15043
884.52	14891
884.646	15070
884.772	14963
884.897	14933
885.023	14994
885.148	15070
885.274	15199
885.399	15173
885.524	14906
885.65	15043
885.775	15032
885.9	14967
886.025	15100
886.15	15043
886.275	14918
886.4	14948
886.525	14914
886.65	14902
886.775	14941
886.9	15127
887.025	15192
887.149	14994
887.274	14792
887.399	14826
887.523	14800
887.648	14762
887.773	14750
887.897	14857
888.021	14830
888.146	14746
888.27	14918
888.395	14876
888.519	14826
888.643	14956
888.767	14796
888.891	14689
889.015	14636
889.139	14644
889.263	14564
889.387	14701
889.511	14830
889.635	14762
889.759	14693
889.883	14598
890.006	14716
890.13	14811
890.254	14625
890.377	14579
890.501	14495
890.624	14404
890.748	14606
890.871	14366
890.995	14263
891.118	14263
891.241	14427
891.364	14343
891.488	14488
891.611	14332
891.734	14381
891.857	14412
891.98	14404
892.103	14408
892.226	14465
892.349	14275
892.471	14183
892.594	14358
892.717	14328
892.839	14267
892.962	14263
893.085	14434
893.207	14282
893.33	14252
893.452	14317
893.575	14415
893.697	14343
893.819	14495
893.941	14549
894.064	14526
894.186	14328
894.308	14221
894.43	14442
894.552	14450
894.674	14469
894.796	14328
894.918	14480
895.04	14351
895.161	14419
895.283	14480
895.405	14374
895.526	14396
895.648	14370
895.769	14655
895.891	14514
896.012	14594
896.134	14507
896.255	14503
896.376	14473
896.498	14533
896.619	14636
896.74	14549
896.861	14613
896.982	14906
897.103	14994
897.224	14705
897.345	14826
897.466	14708
897.587	14739
897.708	14906
897.828	14826
897.949	14743
898.07	14640
898.19	14648
898.311	14880
898.431	14765
898.552	14872
898.672	14891
898.792	14982
898.913	14906
899.033	14743
899.153	14686
899.273	14598
899.393	14606
899.513	14746
899.633	14674
899.753	14720
899.873	14788
899.993	14819
900.113	14655
900.232	14807
900.352	14659
900.472	14560
900.591	14617
900.711	14602
900.83	14514
900.95	14659
901.069	14602
901.189	14484
901.308	14305
901.427	14100
901.546	14259
901.665	14199
901.784	14240
901.904	14123
902.023	14084
902.141	13963
902.26	13925
902.379	13879
902.498	13791
902.617	13906
902.735	13833
902.854	13757
902.973	13807
903.091	13487
903.21	13552
903.328	13537
903.446	13449
903.565	13415
903.683	13384
903.801	13316
903.919	13316
904.038	13369
904.156	13213
904.274	13270
904.392	13198
904.51	13244
904.627	13213
904.745	13297
904.863	13202
904.981	13008
905.098	12852
905.216	12821
905.334	12871
905.451	12852
905.569	12840
905.686	12875
905.803	12882
905.921	12745
906.038	12791
906.155	12662
906.272	12502
906.389	12601
906.506	12521
906.623	12391
906.74	12498
906.857	12388
906.974	12353
907.091	12555
907.208	12582
907.324	12464
907.441	12445
907.557	12228
907.674	12159
907.79	12144
907.907	12182
908.023	12197
908.139	12136
908.256	12186
908.372	12083
908.488	12140
908.604	11965
908.72	11878
908.836	11961
908.952	11931
909.068	11950
909.184	12095
909.3	11999
909.415	11977
909.531	11897
909.647	11786
909.762	11661
909.878	11733
909.993	11741
910.108	11665
910.224	11699
910.339	11741
910.454	11589
910.57	11623
910.685	11524
910.8	11771
910.915	11786
911.03	11573
911.145	11421
911.259	11455
911.374	11383
911.489	11379
911.604	11360
911.718	11280
911.833	11204
911.947	11029
912.062	11033
912.176	11208
912.291	11220
912.405	11162
912.519	11364
912.633	11341
912.748	11246
912.862	11166
912.976	11102
913.09	10999
913.204	10984
913.318	11079
913.431	11166
913.545	11098
913.659	11041
913.772	11045
913.886	10942
914	10900
914.113	11010
914.226	11010
914.34	11128
914.453	10793
914.566	10991
914.68	10927
914.793	10828
914.906	10672
915.019	10603
915.132	10558
915.245	10653
915.358	10649
915.47	10664
915.583	10691
915.696	10755
915.809	10714
915.921	10805
916.034	10565
916.146	10660
916.259	10558
916.371	10675
916.483	10634
916.595	10603
916.708	10672
916.82	10584
916.932	10561
917.044	10580
917.156	10622
917.268	10481
917.38	10504
917.491	10432
917.603	10512
917.715	10500
917.826	10622
917.938	10546
918.049	10367
918.161	10527
918.272	10649
918.384	10607
918.495	10554
918.606	10398
918.717	10360
918.828	10394
918.939	10466
919.05	10325
919.161	10344
919.272	10261
919.383	10257
919.494	10493
919.604	10649
919.715	10417
919.826	10318
919.936	10409
920.047	10504
920.157	10367
920.267	10645
920.378	10504
920.488	10409
920.598	10630
920.708	10778
920.818	10641
920.928	10672
921.038	10771
921.148	10706
921.258	10470
921.368	10322
921.477	10242
921.587	10261
921.697	10185
921.806	10261
921.916	10169
922.025	10010
922.134	9998
922.244	9884
922.353	10036
922.462	9835
922.571	9854
922.68	9701
922.789	9591
922.898	9682
923.007	9717
923.116	9698
923.224	9698
923.333	9637
923.442	9576
923.55	9523
923.659	9538
923.767	9610
923.876	9450
923.984	9603
924.092	9576
924.201	9534
924.309	9523
924.417	9519
924.525	9408
924.633	9473
924.741	10398
924.849	9310
924.956	9519
925.064	9291
925.172	9199
925.279	9214
925.387	9260
925.494	9294
925.602	9378
925.709	9397
925.816	9287
925.924	9393
926.031	9374
926.138	9279
926.245	9378
926.352	9256
926.459	9306
926.566	9458
926.673	9313
926.779	9214
926.886	9207
926.993	8986
927.099	9043
927.206	8998
927.312	8891
927.419	9119
927.525	8948
927.631	9036
927.737	8975
927.843	8883
927.95	8766
928.056	8899
928.162	8902
928.267	8960
928.373	9488
928.479	8994
928.585	8766
928.69	8921
928.796	8887
928.901	8842
929.007	8663
929.112	8845
929.218	8880
929.323	8792
929.428	8762
929.533	8910
929.638	8686
929.743	8720
929.848	8693
929.953	8678
930.058	8632
930.163	8469
930.267	8617
930.372	8731
930.477	8533
930.581	8659
930.685	8552
930.79	8408
930.894	8446
930.998	8419
931.103	8549
931.207	8267
931.311	8130
931.415	8111
931.519	7951
931.623	7906
