Data from test_V78500241_559.txt Node
Date: Fri Mar 25 14:37:36 CST 2022
User: usil
Spectrometer: V785-0024
Trigger mode: 0
Integration Time (sec): 4.000000E-1
Scans to average: 1
Nonlinearity correction enabled: false
Boxcar width: 0
Storing dark spectrum: false
XAxis mode: Wavelengths
Number of Pixels in Spectrum: 1024
>>>>>Begin Spectral Data<<<<<
801.071	27679
801.214	27671
801.356	27374
801.499	27306
801.641	27051
801.783	26994
801.926	27116
802.068	26921
802.211	26864
802.353	26880
802.496	26602
802.638	26587
802.78	26708
802.923	26530
803.065	26431
803.208	26526
803.35	26598
803.492	26499
803.635	26731
803.777	26648
803.919	26545
804.061	26906
804.204	26765
804.346	26613
804.488	26495
804.63	26712
804.773	26632
804.915	26697
805.057	26807
805.199	26765
805.341	26933
805.483	26963
805.626	26914
805.768	26838
805.91	26998
806.052	27123
806.194	27112
806.336	27382
806.478	27161
806.62	27340
806.762	27542
806.904	27899
807.046	28143
807.188	28287
807.33	28550
807.472	28923
807.614	29048
807.756	29562
807.898	29965
808.04	30798
808.182	31647
808.324	33017
808.465	34424
808.607	35984
808.749	37533
808.891	38377
809.033	38404
809.174	37457
809.316	35965
809.458	34413
809.6	32845
809.741	31453
809.883	30608
810.025	29969
810.166	29528
810.308	28946
810.45	28683
810.591	28455
810.733	28002
810.875	27869
811.016	27663
811.158	27553
811.299	27614
811.441	27625
811.582	27583
811.724	27249
811.865	27260
812.007	27287
812.148	27123
812.29	27287
812.431	27321
812.573	27378
812.714	27561
812.855	27572
812.997	27644
813.138	27850
813.279	27690
813.421	27344
813.562	27332
813.703	27294
813.845	27024
813.986	26762
814.127	26564
814.268	26412
814.41	26385
814.551	26362
814.692	26248
814.833	26396
814.974	26347
815.115	26434
815.256	26263
815.397	26168
815.539	26199
815.68	25970
815.821	25906
815.962	25986
816.103	25986
816.244	25833
816.385	25746
816.526	25677
816.666	25487
816.807	25483
816.948	25407
817.089	25506
817.23	25354
817.371	25358
817.512	25331
817.653	25289
817.793	25270
817.934	25346
818.075	25194
818.216	25301
818.356	25084
818.497	25038
818.638	25008
818.778	25012
818.919	24947
819.06	25072
819.2	25137
819.341	25190
819.481	25266
819.622	25373
819.762	25438
819.903	25533
820.043	25350
820.184	25156
820.324	25282
820.465	25426
820.605	25175
820.746	25259
820.886	25069
821.026	25206
821.167	25164
821.307	25160
821.447	25015
821.588	24897
821.728	24798
821.868	24608
822.008	24532
822.149	24559
822.289	24319
822.429	24262
822.569	24053
822.709	24144
822.849	23961
822.99	23988
823.13	23954
823.27	23965
823.41	23600
823.55	23653
823.69	23741
823.83	23722
823.97	23661
824.11	23551
824.25	23486
824.389	23501
824.529	23512
824.669	23581
824.809	23528
824.949	23539
825.089	23608
825.228	23474
825.368	23398
825.508	23337
825.648	23284
825.787	23315
825.927	23395
826.067	23105
826.206	23246
826.346	23231
826.485	23307
826.625	23239
826.765	23326
826.904	23326
827.044	23079
827.183	23075
827.323	22892
827.462	23025
827.601	22896
827.741	22957
827.88	22858
828.02	22892
828.159	22858
828.298	22797
828.437	22946
828.577	22831
828.716	23006
828.855	22786
828.994	22622
829.134	22729
829.273	22637
829.412	22481
829.551	22535
829.69	22542
829.829	22668
829.968	22721
830.107	22569
830.246	22679
830.385	22500
830.524	22474
830.663	22394
830.802	22192
830.941	22284
831.08	22112
831.219	22215
831.357	22261
831.496	22451
831.635	22169
831.774	22070
831.913	22051
832.051	21968
832.19	22032
832.329	22120
832.467	21975
832.606	21956
832.744	22006
832.883	22010
833.022	21975
833.16	22059
833.299	22093
833.437	22048
833.576	22116
833.714	22337
833.852	22459
833.991	22402
834.129	22550
834.267	22428
834.406	22363
834.544	22459
834.682	22455
834.821	22314
834.959	22390
835.097	22116
835.235	22139
835.373	22032
835.511	21979
835.65	21819
835.788	21903
835.926	21652
836.064	21633
836.202	21447
836.34	21888
836.478	21800
836.615	21720
836.753	21785
836.891	21713
837.029	21720
837.167	21606
837.305	21454
837.443	21682
837.58	21534
837.718	21637
837.856	21530
837.993	21447
838.131	21439
838.269	21336
838.406	21466
838.544	21378
838.681	21211
838.819	21032
838.956	20990
839.094	20971
839.231	21119
839.369	21131
839.506	21268
839.643	21161
839.781	20944
839.918	20826
840.055	20933
840.193	20804
840.33	20823
840.467	20899
840.604	20796
840.742	21161
840.879	20834
841.016	20864
841.153	20708
841.29	21013
841.427	20807
841.564	20891
841.701	20686
841.838	20773
841.975	20769
842.112	20670
842.249	20648
842.385	20552
842.522	20743
842.659	20720
842.796	20640
842.933	20746
843.069	20587
843.206	20579
843.343	20819
843.479	20724
843.616	20750
843.752	20454
843.889	20499
844.025	20667
844.162	20541
844.298	20693
844.435	20609
844.571	20678
844.708	20887
844.844	21112
844.98	21351
845.117	21641
845.253	21865
845.389	22702
845.525	24448
845.661	27055
845.798	30437
845.934	33096
846.07	33983
846.206	33671
846.342	31499
846.478	28097
846.614	25213
846.75	23132
846.886	22074
847.022	21393
847.158	20933
847.294	20564
847.429	20358
847.565	20221
847.701	20320
847.837	19986
847.972	19723
848.108	19868
848.244	19814
848.379	19655
848.515	19605
848.65	19403
848.786	19548
848.921	19510
849.057	19662
849.192	19472
849.328	19499
849.463	19396
849.598	19434
849.734	19396
849.869	19373
850.004	19183
850.14	19171
850.275	19187
850.41	19110
850.545	19107
850.68	19145
850.815	19148
850.95	19247
851.085	19297
851.22	19217
851.355	19114
851.49	19122
851.625	19008
851.76	19023
851.895	19027
852.03	19008
852.165	19046
852.299	19122
852.434	19221
852.569	19190
852.703	19141
852.838	19244
852.973	19358
853.107	19365
853.242	19148
853.376	19069
853.511	19053
853.645	19019
853.78	19289
853.914	19114
854.048	19031
854.183	19080
854.317	19164
854.451	19301
854.585	19168
854.72	19141
854.854	19133
854.988	19076
855.122	19069
855.256	18890
855.39	19031
855.524	19118
855.658	19103
855.792	19023
855.926	19031
856.06	19061
856.194	19038
856.327	18871
856.461	18882
856.595	18875
856.729	18932
856.862	18943
856.996	19031
857.13	19042
857.263	19110
857.397	19107
857.53	18897
857.664	19027
857.797	18859
857.931	19091
858.064	18947
858.197	19000
858.331	18951
858.464	18791
858.597	18802
858.731	18856
858.864	18753
858.997	18783
859.13	18958
859.263	18730
859.396	18993
859.529	18817
859.662	18795
859.795	18757
859.928	18958
860.061	18977
860.194	18996
860.327	18837
860.46	18753
860.592	18920
860.725	18958
860.858	18958
860.99	18829
861.123	18783
861.256	18783
861.388	18814
861.521	19453
861.653	18673
861.786	18650
861.918	18745
862.05	18776
862.183	18863
862.315	18890
862.447	18882
862.58	18821
862.712	18635
862.844	18486
862.976	18555
863.108	18585
863.24	18916
863.372	18547
863.504	18574
863.636	18563
863.768	18589
863.9	18547
864.032	18369
864.164	18525
864.296	18604
864.428	18582
864.559	18551
864.691	18597
864.823	18570
864.954	18612
865.086	18521
865.217	18509
865.349	18448
865.48	18448
865.612	18475
865.743	18620
865.875	18410
866.006	18346
866.137	18388
866.269	18399
866.4	18445
866.531	18399
866.662	18403
866.793	18376
866.924	18350
867.055	18445
867.186	18323
867.317	18338
867.448	18399
867.579	18353
867.71	18346
867.841	18384
867.972	18464
868.103	18502
868.233	18448
868.364	18426
868.495	18437
868.625	18650
868.756	18837
868.886	18578
869.017	18696
869.147	18779
869.278	18760
869.408	18665
869.539	18646
869.669	18764
869.799	18684
869.929	18722
870.06	18753
870.19	18875
870.32	18939
870.45	18928
870.58	19129
870.71	19091
870.84	19160
870.97	19042
871.1	19046
871.23	19156
871.36	19362
871.489	19171
871.619	19228
871.749	19285
871.879	19217
872.008	19415
872.138	19415
872.267	19316
872.397	19122
872.526	19057
872.656	19168
872.785	19221
872.915	19422
873.044	19514
873.173	19343
873.303	19487
873.432	19506
873.561	19472
873.69	19487
873.819	19499
873.948	19594
874.077	19457
874.206	19514
874.335	19582
874.464	19674
874.593	19719
874.722	19799
874.851	19890
874.979	19833
875.108	19940
875.237	19765
875.365	19772
875.494	19757
875.623	19997
875.751	19909
875.88	20005
876.008	20142
876.136	20187
876.265	20374
876.393	20480
876.521	20625
876.65	20480
876.778	20507
876.906	20533
877.034	20530
877.162	20648
877.29	20587
877.418	20678
877.546	20800
877.674	20807
877.802	20712
877.93	20872
878.058	20994
878.185	20921
878.313	21161
878.441	21310
878.568	21370
878.696	21686
878.824	22226
878.951	22721
879.079	23497
879.206	24616
879.333	25597
879.461	26336
879.588	26872
879.715	26986
879.842	26731
879.97	25552
880.097	24471
880.224	23665
880.351	23052
880.478	22531
880.605	22253
880.732	22120
880.859	22257
880.986	22017
881.112	21945
881.239	21732
881.366	21629
881.493	21481
881.619	21428
881.746	21481
881.872	21477
881.999	21504
882.125	21329
882.252	21603
882.378	21485
882.505	21709
882.631	21603
882.757	21355
882.883	21488
883.01	21317
883.136	21412
883.262	21325
883.388	21214
883.514	21378
883.64	21389
883.766	21291
883.892	21150
884.018	21146
884.143	21310
884.269	21291
884.395	21077
884.52	21009
884.646	21161
884.772	21017
884.897	20883
885.023	21013
885.148	21077
885.274	21180
885.399	21039
885.524	20876
885.65	20712
885.775	20807
885.9	20701
886.025	20716
886.15	20541
886.275	20514
886.4	20351
886.525	20362
886.65	20199
886.775	20096
886.9	20355
887.025	20385
887.149	20111
887.274	19879
887.399	19883
887.523	19742
887.648	19757
887.773	19544
887.897	19765
888.021	19765
888.146	19548
888.27	19830
888.395	19731
888.519	19696
888.643	19552
888.767	19502
888.891	19293
889.015	19350
889.139	19339
889.263	19244
889.387	19293
889.511	19396
889.635	19255
889.759	19209
889.883	19244
890.006	19129
890.13	19236
890.254	19080
890.377	18947
890.501	18897
890.624	18894
890.748	18844
890.871	18688
890.995	18639
891.118	18528
891.241	18639
891.364	18574
891.488	18734
891.611	18467
891.734	18559
891.857	18658
891.98	18456
892.103	18734
892.226	18650
892.349	18544
892.471	18266
892.594	18395
892.717	18475
892.839	18418
892.962	18445
893.085	18399
893.207	18346
893.33	18285
893.452	18270
893.575	18357
893.697	18186
893.819	18506
893.941	18525
894.064	18399
894.186	18239
894.308	18247
894.43	18258
894.552	18388
894.674	18258
894.796	18155
894.918	18220
895.04	18197
895.161	18190
895.283	18228
895.405	18102
895.526	18140
895.648	18091
895.769	18057
895.891	18190
896.012	18258
896.134	18216
896.255	18258
896.376	18136
896.498	18136
896.619	18330
896.74	18167
896.861	18228
896.982	18464
897.103	18612
897.224	18486
897.345	18441
897.466	18285
897.587	18407
897.708	18506
897.828	18418
897.949	18239
898.07	18152
898.19	18319
898.311	18475
898.431	18296
898.552	18414
898.672	18509
898.792	18555
898.913	18471
899.033	18342
899.153	18205
899.273	18125
899.393	18144
899.513	18182
899.633	18129
899.753	18167
899.873	18133
899.993	18060
900.113	18106
900.232	18148
900.352	18026
900.472	18041
900.591	17912
900.711	17904
900.83	17920
900.95	18068
901.069	18019
901.189	17920
901.308	17596
901.427	17566
901.546	17661
901.665	17665
901.784	17608
901.904	17455
902.023	17326
902.141	17174
902.26	17052
902.379	17083
902.498	17113
902.617	17033
902.735	17060
902.854	17083
902.973	16881
903.091	16767
903.21	16672
903.328	16660
903.446	16660
903.565	16630
903.683	16546
903.801	16360
903.919	16523
904.038	16516
904.156	16246
904.274	16402
904.392	16265
904.51	16196
904.627	16257
904.745	16234
904.863	16322
904.981	16131
905.098	15884
905.216	15991
905.334	15941
905.451	15956
905.569	15918
905.686	16055
905.803	15888
905.921	15644
906.038	15850
906.155	15755
906.272	15507
906.389	15625
906.506	15435
906.623	15504
906.74	15389
906.857	15348
906.974	15367
907.091	15466
907.208	15568
907.324	15507
907.441	15370
907.557	15218
907.674	15108
907.79	15112
907.907	15089
908.023	15119
908.139	15119
908.256	15062
908.372	14971
908.488	14853
908.604	14781
908.72	14823
908.836	14785
908.952	14750
909.068	14796
909.184	14830
909.3	14941
909.415	14849
909.531	14857
909.647	14598
909.762	14613
909.878	14488
909.993	14556
910.108	14473
910.224	14431
910.339	14438
910.454	14442
910.57	14419
910.685	14305
910.8	14617
910.915	14545
911.03	14396
911.145	14229
911.259	14202
911.374	14103
911.489	14058
911.604	14043
911.718	14020
911.833	13997
911.947	13803
912.062	13799
912.176	13951
912.291	13913
912.405	13909
912.519	14073
912.633	14088
912.748	13993
912.862	13974
912.976	13727
913.09	13636
913.204	13723
913.318	13784
913.431	13788
913.545	13788
913.659	13879
913.772	13613
913.886	13529
914	13506
914.113	13590
914.226	13677
914.34	13674
914.453	13464
914.566	13578
914.68	13609
914.793	13491
914.906	13285
915.019	13297
915.132	13217
915.245	13221
915.358	13285
915.47	13304
915.583	13373
915.696	13415
915.809	13392
915.921	13415
916.034	13209
916.146	13160
916.259	13171
916.371	13251
916.483	13259
916.595	13126
916.708	13118
916.82	13225
916.932	13145
917.044	13118
917.156	13088
917.268	13034
917.38	13099
917.491	12996
917.603	12958
917.715	13065
917.826	13103
917.938	12886
918.049	12817
918.161	12951
918.272	13034
918.384	13114
918.495	12913
918.606	12795
918.717	12764
918.828	12764
918.939	12798
919.05	12741
919.161	12642
919.272	12593
919.383	12585
919.494	12745
919.604	12913
919.715	12707
919.826	12703
919.936	12696
920.047	12772
920.157	12741
920.267	12943
920.378	12711
920.488	12696
920.598	12916
920.708	13008
920.818	12924
920.928	12886
921.038	13038
921.148	12962
921.258	12654
921.368	12555
921.477	12563
921.587	12426
921.697	12342
921.806	12582
921.916	12376
922.025	12178
922.134	12155
922.244	12140
922.353	12159
922.462	12019
922.571	11961
922.68	11771
922.789	11840
922.898	11863
923.007	11745
923.116	11840
923.224	11802
923.333	11779
923.442	11665
923.55	11657
923.659	11619
923.767	11703
923.876	11596
923.984	11668
924.092	11524
924.201	11611
924.309	11623
924.417	11657
924.525	11505
924.633	11532
924.741	12270
924.849	11337
924.956	11467
925.064	11322
925.172	11242
925.279	11326
925.387	11429
925.494	11280
925.602	11562
925.709	11311
925.816	11235
925.924	11326
926.031	11372
926.138	11345
926.245	11360
926.352	11189
926.459	11364
926.566	11395
926.673	11212
926.779	11216
926.886	11056
926.993	11006
927.099	10919
927.206	10881
927.312	10892
927.419	10980
927.525	10995
927.631	11003
927.737	10816
927.843	10820
927.95	10744
928.056	10790
928.162	10740
928.267	10854
928.373	11448
928.479	10930
928.585	10538
928.69	10790
928.796	10812
928.901	10755
929.007	10527
929.112	10694
929.218	10554
929.323	10679
929.428	10565
929.533	10694
929.638	10462
929.743	10519
929.848	10478
929.953	10474
930.058	10443
930.163	10314
930.267	10318
930.372	10451
930.477	10299
930.581	10459
930.685	10318
930.79	10173
930.894	10215
930.998	10181
931.103	10333
931.207	9899
931.311	9873
931.415	9747
931.519	9618
931.623	9698
