Data from test_V78500241_2734.txt Node
Date: Fri Mar 25 14:52:45 CST 2022
User: usil
Spectrometer: V785-0024
Trigger mode: 0
Integration Time (sec): 4.000000E-1
Scans to average: 1
Nonlinearity correction enabled: false
Boxcar width: 0
Storing dark spectrum: false
XAxis mode: Wavelengths
Number of Pixels in Spectrum: 1024
>>>>>Begin Spectral Data<<<<<
801.071	22074
801.214	21857
801.356	21633
801.499	21743
801.641	21370
801.783	21336
801.926	21439
802.068	21351
802.211	21264
802.353	21138
802.496	21043
802.638	20868
802.78	20872
802.923	20689
803.065	20693
803.208	20689
803.35	20785
803.492	20880
803.635	20887
803.777	20739
803.919	20834
804.061	21085
804.204	20785
804.346	20663
804.488	20659
804.63	20674
804.773	20571
804.915	20670
805.057	20743
805.199	20648
805.341	20773
805.483	20750
805.626	20826
805.768	20655
805.91	20708
806.052	20621
806.194	20507
806.336	20743
806.478	20552
806.62	20648
806.762	20735
806.904	20819
807.046	20986
807.188	21017
807.33	21005
807.472	20918
807.614	20872
807.756	20952
807.898	20724
808.04	20697
808.182	20659
808.324	20720
808.465	20716
808.607	20967
808.749	20986
808.891	21058
809.033	21195
809.174	21036
809.316	20975
809.458	20899
809.6	20975
809.741	21001
809.883	21096
810.025	21096
810.166	21119
810.308	21116
810.45	21085
810.591	20952
810.733	20891
810.875	20872
811.016	20594
811.158	20632
811.299	20632
811.441	20872
811.582	20819
811.724	20804
811.865	20743
812.007	20617
812.148	20720
812.29	20682
812.431	20823
812.573	21093
812.714	21058
812.855	21203
812.997	21310
813.138	21439
813.279	21245
813.421	21260
813.562	21195
813.703	21036
813.845	20834
813.986	20651
814.127	20389
814.268	20339
814.41	20305
814.551	20317
814.692	20366
814.833	20294
814.974	20343
815.115	20214
815.256	20332
815.397	20149
815.539	20153
815.68	20054
815.821	19970
815.962	20046
816.103	19947
816.244	19894
816.385	19708
816.526	19693
816.666	19700
816.807	19487
816.948	19495
817.089	19613
817.23	19571
817.371	19388
817.512	19472
817.653	19457
817.793	19384
817.934	19460
818.075	19350
818.216	19400
818.356	19468
818.497	19335
818.638	19244
818.778	19175
818.919	19148
819.06	19251
819.2	19240
819.341	19377
819.481	19320
819.622	19457
819.762	19635
819.903	19571
820.043	19441
820.184	19460
820.324	19308
820.465	19499
820.605	19422
820.746	19422
820.886	19301
821.026	19327
821.167	19358
821.307	19388
821.447	19419
821.588	19259
821.728	19122
821.868	19000
822.008	18905
822.149	18821
822.289	18776
822.429	18536
822.569	18467
822.709	18509
822.849	18407
822.99	18277
823.13	18254
823.27	18258
823.41	18053
823.55	18072
823.69	18182
823.83	18068
823.97	18053
824.11	17805
824.25	17889
824.389	17893
824.529	17950
824.669	17939
824.809	17988
824.949	17984
825.089	17859
825.228	17893
825.368	17638
825.508	17748
825.648	17767
825.787	17745
825.927	17741
826.067	17558
826.206	17638
826.346	17668
826.485	17638
826.625	17615
826.765	17836
826.904	17695
827.044	17436
827.183	17501
827.323	17436
827.462	17436
827.601	17345
827.741	17417
827.88	17421
828.02	17406
828.159	17391
828.298	17322
828.437	17535
828.577	17337
828.716	17452
828.855	17356
828.994	17140
829.134	17193
829.273	17136
829.412	17033
829.551	17136
829.69	17189
829.829	17193
829.968	17269
830.107	17181
830.246	17220
830.385	17113
830.524	17090
830.663	17071
830.802	16877
830.941	16767
831.08	16733
831.219	16816
831.357	16828
831.496	17003
831.635	16771
831.774	16611
831.913	16752
832.051	16485
832.19	16588
832.329	16569
832.467	16538
832.606	16428
832.744	16462
832.883	16356
833.022	16478
833.16	16558
833.299	16474
833.437	16413
833.576	16607
833.714	16500
833.852	16573
833.991	16523
834.129	16580
834.267	16554
834.406	16577
834.544	16577
834.682	16580
834.821	16508
834.959	16573
835.097	16474
835.235	16649
835.373	16554
835.511	16527
835.65	16402
835.788	16352
835.926	16310
836.064	16181
836.202	16333
836.34	16531
836.478	16531
836.615	16424
836.753	16512
836.891	16592
837.029	16569
837.167	16569
837.305	16382
837.443	16375
837.58	16242
837.718	16363
837.856	16310
837.993	16306
838.131	16303
838.269	16185
838.406	16238
838.544	16131
838.681	16002
838.819	16025
838.956	15842
839.094	15926
839.231	15953
839.369	15983
839.506	16215
839.643	16162
839.781	15823
839.918	15812
840.055	15968
840.193	15873
840.33	15846
840.467	15915
840.604	15926
840.742	16078
840.879	15808
841.016	15728
841.153	15812
841.29	16040
841.427	15781
841.564	15895
841.701	15808
841.838	15865
841.975	15736
842.112	15857
842.249	15595
842.385	15603
842.522	15762
842.659	15641
842.796	15660
842.933	15637
843.069	15587
843.206	15671
843.343	15675
843.479	15728
843.616	15633
843.752	15424
843.889	15477
844.025	15637
844.162	15507
844.298	15557
844.435	15405
844.571	15450
844.708	15462
844.844	15584
844.98	15648
845.117	15511
845.253	15428
845.389	15393
845.525	15298
845.661	15386
845.798	15233
845.934	15252
846.07	15226
846.206	15252
846.342	15363
846.478	15214
846.614	15123
846.75	14902
846.886	14979
847.022	15131
847.158	15062
847.294	15005
847.429	14967
847.565	14982
847.701	15230
847.837	14872
847.972	14765
848.108	14842
848.244	14823
848.379	14541
848.515	14545
848.65	14629
848.786	14560
848.921	14488
849.057	14632
849.192	14701
849.328	14625
849.463	14636
849.598	14613
849.734	14537
849.869	14450
850.004	14412
850.14	14480
850.275	14351
850.41	14313
850.545	14336
850.68	14393
850.815	14454
850.95	14294
851.085	14476
851.22	14473
851.355	14450
851.49	14366
851.625	14225
851.76	14408
851.895	14328
852.03	14221
852.165	14419
852.299	14446
852.434	14400
852.569	14419
852.703	14396
852.838	14450
852.973	14568
853.107	14503
853.242	14290
853.376	14290
853.511	14123
853.645	14107
853.78	14374
853.914	14309
854.048	14298
854.183	14240
854.317	14240
854.451	14370
854.585	14301
854.72	14210
854.854	14347
854.988	14130
855.122	14290
855.256	14096
855.39	14199
855.524	14351
855.658	14218
855.792	14263
855.926	14328
856.06	14290
856.194	14294
856.327	14168
856.461	14221
856.595	14180
856.729	14168
856.862	14408
856.996	14275
857.13	14336
857.263	14389
857.397	14381
857.53	14278
857.664	14351
857.797	14271
857.931	14317
858.064	14320
858.197	14320
858.331	14358
858.464	14123
858.597	14138
858.731	14161
858.864	14210
858.997	14233
859.13	14244
859.263	14244
859.396	14343
859.529	14240
859.662	14286
859.795	14294
859.928	14244
860.061	14366
860.194	14313
860.327	14233
860.46	14278
860.592	14415
860.725	14343
860.858	14427
860.99	14252
861.123	14278
861.256	14301
861.388	14229
861.521	14963
861.653	14119
861.786	14096
861.918	14134
862.05	14145
862.183	14164
862.315	14164
862.447	14237
862.58	14149
862.712	14027
862.844	14043
862.976	14035
863.108	14107
863.24	14537
863.372	13974
863.504	13959
863.636	13970
863.768	14100
863.9	14031
864.032	13936
864.164	14001
864.296	14012
864.428	14103
864.559	14191
864.691	14111
864.823	14081
864.954	14058
865.086	13997
865.217	13963
865.349	13989
865.48	13982
865.612	14027
865.743	14103
865.875	13947
866.006	13906
866.137	14012
866.269	13925
866.4	14012
866.531	13955
866.662	13868
866.793	13963
866.924	13932
867.055	13978
867.186	13978
867.317	13955
867.448	13928
867.579	13936
867.71	13868
867.841	13894
867.972	13982
868.103	13906
868.233	13963
868.364	13925
868.495	14027
868.625	14221
868.756	14404
868.886	14153
869.017	14172
869.147	14347
869.278	14389
869.408	14240
869.539	14206
869.669	14301
869.799	14298
869.929	14412
870.06	14366
870.19	14522
870.32	14473
870.45	14598
870.58	14724
870.71	14750
870.84	14705
870.97	14632
871.1	14579
871.23	14887
871.36	14842
871.489	14765
871.619	14819
871.749	14762
871.879	14910
872.008	14883
872.138	14933
872.267	14834
872.397	14701
872.526	14705
872.656	14712
872.785	14712
872.915	14807
873.044	14982
873.173	14941
873.303	14864
873.432	14982
873.561	14963
873.69	14868
873.819	14880
873.948	15020
874.077	14971
874.206	14952
874.335	14876
874.464	15100
874.593	15123
874.722	15131
874.851	15199
874.979	15374
875.108	15222
875.237	15249
875.365	15108
875.494	15245
875.623	15344
875.751	15188
875.88	15306
876.008	15355
876.136	15500
876.265	15519
876.393	15800
876.521	15652
876.65	15644
876.778	15698
876.906	15580
877.034	15587
877.162	15641
877.29	15507
877.418	15580
877.546	15584
877.674	15663
877.802	15679
877.93	15504
878.058	15614
878.185	15576
878.313	15618
878.441	15705
878.568	15496
878.696	15622
878.824	15622
878.951	15728
879.079	15827
879.206	15816
879.333	15823
879.461	15694
879.588	15698
879.715	15762
879.842	15884
879.97	15652
880.097	15462
880.224	15431
880.351	15644
880.478	15443
880.605	15443
880.732	15439
880.859	15736
880.986	15526
881.112	15412
881.239	15256
881.366	15283
881.493	15218
881.619	15154
881.746	15188
881.872	15150
881.999	15165
882.125	15104
882.252	15241
882.378	15131
882.505	15447
882.631	15066
882.757	14876
882.883	14963
883.01	14967
883.136	14948
883.262	14750
883.388	14826
883.514	14921
883.64	15039
883.766	14952
883.892	14785
884.018	14861
884.143	14937
884.269	15085
884.395	14708
884.52	14598
884.646	14750
884.772	14549
884.897	14545
885.023	14716
885.148	14667
885.274	14819
885.399	14720
885.524	14670
885.65	14705
885.775	14739
885.9	14606
886.025	14796
886.15	14674
886.275	14648
886.4	14606
886.525	14602
886.65	14575
886.775	14507
886.9	14743
887.025	14834
887.149	14708
887.274	14518
887.399	14434
887.523	14492
887.648	14408
887.773	14381
887.897	14583
888.021	14606
888.146	14389
888.27	14492
888.395	14594
888.519	14495
888.643	14610
888.767	14583
888.891	14408
889.015	14324
889.139	14244
889.263	14324
889.387	14446
889.511	14480
889.635	14552
889.759	14324
889.883	14381
890.006	14385
890.13	14442
890.254	14305
890.377	14225
890.501	14252
890.624	14161
890.748	14248
890.871	14031
890.995	14016
891.118	13932
891.241	14005
891.364	14043
891.488	14107
891.611	14054
891.734	13978
891.857	14123
891.98	14043
892.103	14168
892.226	14069
892.349	14024
892.471	13909
892.594	14062
892.717	14100
892.839	14035
892.962	14050
893.085	14123
893.207	14084
893.33	13936
893.452	14046
893.575	14050
893.697	14035
893.819	14149
893.941	14248
894.064	14187
894.186	14054
894.308	13947
894.43	14237
894.552	14305
894.674	14202
894.796	13921
894.918	14157
895.04	14092
895.161	14210
895.283	14240
895.405	14065
895.526	14172
895.648	14145
895.769	14183
895.891	14275
896.012	14275
896.134	14248
896.255	14256
896.376	14206
896.498	14275
896.619	14199
896.74	14195
896.861	14317
896.982	14693
897.103	14693
897.224	14579
897.345	14476
897.466	14476
897.587	14469
897.708	14549
897.828	14583
897.949	14381
898.07	14381
898.19	14476
898.311	14621
898.431	14480
898.552	14560
898.672	14598
898.792	14739
898.913	14625
899.033	14530
899.153	14423
899.273	14343
899.393	14377
899.513	14427
899.633	14499
899.753	14473
899.873	14320
899.993	14454
900.113	14233
900.232	14434
900.352	14385
900.472	14393
900.591	14347
900.711	14252
900.83	14294
900.95	14457
901.069	14457
901.189	14240
901.308	14039
901.427	13947
901.546	13978
901.665	13986
901.784	14012
901.904	13814
902.023	13799
902.141	13643
902.26	13567
902.379	13651
902.498	13483
902.617	13510
902.735	13571
902.854	13518
902.973	13476
903.091	13274
903.21	13293
903.328	13285
903.446	13194
903.565	13126
903.683	13198
903.801	13012
903.919	13122
904.038	13031
904.156	12928
904.274	13053
904.392	12886
904.51	12924
904.627	12875
904.745	12920
904.863	13019
904.981	12760
905.098	12593
905.216	12608
905.334	12669
905.451	12593
905.569	12585
905.686	12707
905.803	12623
905.921	12441
906.038	12536
906.155	12536
906.272	12281
906.389	12395
906.506	12190
906.623	12232
906.74	12258
906.857	12098
906.974	12136
907.091	12155
907.208	12403
907.324	12270
907.441	12121
907.557	11988
907.674	11958
907.79	11893
907.907	11916
908.023	11984
908.139	11984
908.256	11935
908.372	11878
908.488	11893
908.604	11726
908.72	11714
908.836	11714
908.952	11627
909.068	11824
909.184	11870
909.3	11737
909.415	11798
909.531	11737
909.647	11543
909.762	11509
909.878	11482
909.993	11528
910.108	11463
910.224	11471
910.339	11471
910.454	11368
910.57	11436
910.685	11261
910.8	11539
910.915	11490
911.03	11372
911.145	11254
911.259	11216
911.374	11227
911.489	11060
911.604	11064
911.718	10896
911.833	11052
911.947	10812
912.062	10755
912.176	10953
912.291	10980
912.405	10946
912.519	11060
912.633	11132
912.748	10980
912.862	10927
912.976	10854
913.09	10748
913.204	10702
913.318	10858
913.431	10911
913.545	10854
913.659	10949
913.772	10877
913.886	10714
914	10694
914.113	10809
914.226	10862
914.34	10816
914.453	10706
914.566	10858
914.68	10675
914.793	10607
914.906	10500
915.019	10436
915.132	10386
915.245	10451
915.358	10462
915.47	10462
915.583	10436
915.696	10466
915.809	10626
915.921	10615
916.034	10462
916.146	10417
916.259	10363
916.371	10432
916.483	10375
916.595	10367
916.708	10386
916.82	10325
916.932	10379
917.044	10409
917.156	10367
917.268	10242
917.38	10318
917.491	10322
917.603	10363
917.715	10367
917.826	10443
917.938	10227
918.049	10158
918.161	10310
918.272	10402
918.384	10421
918.495	10352
918.606	10143
918.717	10093
918.828	10177
918.939	10207
919.05	10074
919.161	10219
919.272	10048
919.383	10029
919.494	10227
919.604	10409
919.715	10204
919.826	10147
919.936	10169
920.047	10246
920.157	10188
920.267	10390
920.378	10207
920.488	10124
920.598	10360
920.708	10447
920.818	10379
920.928	10299
921.038	10558
921.148	10440
921.258	10223
921.368	10063
921.477	9979
921.587	9998
921.697	9922
921.806	10090
921.916	9873
922.025	9732
922.134	9728
922.244	9724
922.353	9724
922.462	9671
922.571	9549
922.68	9408
922.789	9481
922.898	9488
923.007	9405
923.116	9530
923.224	9466
923.333	9466
923.442	9355
923.55	9272
923.659	9302
923.767	9466
923.876	9256
923.984	9389
924.092	9222
924.201	9310
924.309	9260
924.417	9310
924.525	9226
924.633	9340
924.741	9972
924.849	9100
924.956	9264
925.064	9051
925.172	8971
925.279	9047
925.387	9104
925.494	9020
925.602	9268
925.709	9214
925.816	9017
925.924	9017
926.031	9142
926.138	9081
926.245	9199
926.352	8986
926.459	9203
926.566	9222
926.673	9081
926.779	8956
926.886	8941
926.993	8796
927.099	8735
927.206	8777
927.312	8720
927.419	8861
927.525	8826
927.631	8842
927.737	8785
927.843	8705
927.95	8568
928.056	8648
928.162	8766
928.267	8762
928.373	9454
928.479	8766
928.585	8648
928.69	8648
928.796	8655
928.901	8583
929.007	8518
929.112	8590
929.218	8617
929.323	8484
929.428	8480
929.533	8640
929.638	8461
929.743	8499
929.848	8518
929.953	8484
930.058	8404
930.163	8252
930.267	8259
930.372	8434
930.477	8214
930.581	8511
930.685	8343
930.79	8240
930.894	8187
930.998	8237
931.103	8389
931.207	8016
931.311	7947
931.415	7932
931.519	7803
931.623	7772
