Data from test_V78500241_205.txt Node
Date: Fri Mar 25 14:35:09 CST 2022
User: usil
Spectrometer: V785-0024
Trigger mode: 0
Integration Time (sec): 4.000000E-1
Scans to average: 1
Nonlinearity correction enabled: false
Boxcar width: 0
Storing dark spectrum: false
XAxis mode: Wavelengths
Number of Pixels in Spectrum: 1024
>>>>>Begin Spectral Data<<<<<
801.071	28078
801.214	27937
801.356	27762
801.499	27583
801.641	27473
801.783	27424
801.926	27492
802.068	27492
802.211	27325
802.353	27214
802.496	27150
802.638	27051
802.78	27066
802.923	27077
803.065	26960
803.208	26944
803.35	26823
803.492	26956
803.635	27093
803.777	26975
803.919	27047
804.061	27351
804.204	27131
804.346	26849
804.488	26982
804.63	27001
804.773	26963
804.915	26979
805.057	26975
805.199	27058
805.341	27043
805.483	27131
805.626	27142
805.768	26990
805.91	27074
806.052	27233
806.194	27009
806.336	27214
806.478	27131
806.62	27036
806.762	27123
806.904	27245
807.046	27587
807.188	27427
807.33	27507
807.472	27488
807.614	27340
807.756	27466
807.898	27412
808.04	27264
808.182	27382
808.324	27610
808.465	27717
808.607	28124
808.749	28276
808.891	28211
809.033	28405
809.174	28192
809.316	28211
809.458	28074
809.6	27873
809.741	27846
809.883	27789
810.025	27857
810.166	27892
810.308	27766
810.45	27736
810.591	27671
810.733	27534
810.875	27329
811.016	27351
811.158	27302
811.299	27458
811.441	27420
811.582	27458
811.724	27332
811.865	27401
812.007	27462
812.148	27515
812.29	27469
812.431	27496
812.573	27618
812.714	27648
812.855	27884
812.997	27930
813.138	28048
813.279	27892
813.421	27968
813.562	27785
813.703	27614
813.845	27530
813.986	27150
814.127	26982
814.268	27001
814.41	26975
814.551	27009
814.692	27096
814.833	26986
814.974	26819
815.115	26990
815.256	26705
815.397	26743
815.539	26762
815.68	26629
815.821	26670
815.962	26613
816.103	26648
816.244	26450
816.385	26408
816.526	26396
816.666	26164
816.807	26107
816.948	26008
817.089	26084
817.23	26024
817.371	26065
817.512	26084
817.653	25955
817.793	25989
817.934	26081
818.075	26092
818.216	26081
818.356	26081
818.497	25788
818.638	25765
818.778	25818
818.919	25723
819.06	25833
819.2	25864
819.341	25944
819.481	25909
819.622	26058
819.762	26195
819.903	26252
820.043	26103
820.184	26001
820.324	26058
820.465	26126
820.605	26065
820.746	25909
820.886	25890
821.026	26031
821.167	25860
821.307	26046
821.447	25875
821.588	25620
821.728	25662
821.868	25472
822.008	25320
822.149	25377
822.289	25255
822.429	25038
822.569	24996
822.709	25019
822.849	24711
822.99	24863
823.13	24711
823.27	24795
823.41	24490
823.55	24418
823.69	24601
823.83	24555
823.97	24452
824.11	24452
824.25	24403
824.389	24391
824.529	24471
824.669	24308
824.809	24494
824.949	24494
825.089	24471
825.228	24323
825.368	24254
825.508	24243
825.648	24098
825.787	24155
825.927	24228
826.067	24201
826.206	24171
826.346	24091
826.485	24178
826.625	24125
826.765	24224
826.904	24281
827.044	23973
827.183	23817
827.323	23851
827.462	23855
827.601	23821
827.741	23920
827.88	23878
828.02	23843
828.159	23783
828.298	23828
828.437	23817
828.577	23756
828.716	23916
828.855	23737
828.994	23562
829.134	23528
829.273	23646
829.412	23497
829.551	23455
829.69	23459
829.829	23547
829.968	23627
830.107	23596
830.246	23547
830.385	23379
830.524	23417
830.663	23414
830.802	23124
830.941	22976
831.08	23204
831.219	23140
831.357	23102
831.496	23303
831.635	23067
831.774	23048
831.913	22908
832.051	22938
832.19	22824
832.329	22858
832.467	22763
832.606	22630
832.744	22694
832.883	22805
833.022	22725
833.16	22744
833.299	22805
833.437	22527
833.576	22767
833.714	22767
833.852	22843
833.991	22797
834.129	22752
834.267	22801
834.406	22866
834.544	22786
834.682	22801
834.821	22698
834.959	22961
835.097	22748
835.235	22713
835.373	22580
835.511	22687
835.65	22577
835.788	22596
835.926	22497
836.064	22261
836.202	22443
836.34	22561
836.478	22691
836.615	22550
836.753	22440
836.891	22653
837.029	22508
837.167	22405
837.305	22557
837.443	22455
837.58	22375
837.718	22405
837.856	22402
837.993	22124
838.131	22485
838.269	22287
838.406	22329
838.544	22234
838.681	22044
838.819	21964
838.956	21781
839.094	21804
839.231	21690
839.369	21876
839.506	22234
839.643	22093
839.781	21705
839.918	21698
840.055	21831
840.193	21724
840.33	21652
840.467	21736
840.604	21606
840.742	22021
840.879	21523
841.016	21644
841.153	21580
841.29	21774
841.427	21644
841.564	21755
841.701	21694
841.838	21549
841.975	21572
842.112	21538
842.249	21481
842.385	21397
842.522	21663
842.659	21454
842.796	21344
842.933	21469
843.069	21264
843.206	21351
843.343	21428
843.479	21393
843.616	21530
843.752	21241
843.889	21176
844.025	21321
844.162	21081
844.298	21325
844.435	21112
844.571	21176
844.708	21279
844.844	21188
844.98	21283
845.117	21237
845.253	21116
845.389	21195
845.525	21272
845.661	21469
845.798	21572
845.934	21800
846.07	21804
846.206	21793
846.342	21698
846.478	21351
846.614	21024
846.75	20864
846.886	20815
847.022	20686
847.158	20720
847.294	20579
847.429	20716
847.565	20537
847.701	20876
847.837	20240
847.972	20252
848.108	20347
848.244	20374
848.379	20168
848.515	20130
848.65	20088
848.786	20073
848.921	20100
849.057	20305
849.192	20107
849.328	20180
849.463	20103
849.598	20134
849.734	20088
849.869	20035
850.004	19871
850.14	19959
850.275	19791
850.41	19940
850.545	19925
850.68	19883
850.815	19898
850.95	19890
851.085	20020
851.22	19913
851.355	19890
851.49	19811
851.625	19746
851.76	19803
851.895	19757
852.03	19769
852.165	19837
852.299	19723
852.434	19913
852.569	19932
852.703	19772
852.838	19989
852.973	19951
853.107	19928
853.242	19803
853.376	19723
853.511	19689
853.645	19594
853.78	19833
853.914	19685
854.048	19586
854.183	19708
854.317	19681
854.451	19811
854.585	19647
854.72	19719
854.854	19708
854.988	19609
855.122	19616
855.256	19563
855.39	19666
855.524	19814
855.658	19712
855.792	19628
855.926	19685
856.06	19681
856.194	19776
856.327	19719
856.461	19605
856.595	19578
856.729	19499
856.862	19818
856.996	19658
857.13	19643
857.263	19780
857.397	19723
857.53	19582
857.664	19719
857.797	19757
857.931	19780
858.064	19738
858.197	19795
858.331	19575
858.464	19518
858.597	19453
858.731	19491
858.864	19586
858.997	19609
859.13	19594
859.263	19540
859.396	19693
859.529	19590
859.662	19499
859.795	19529
859.928	19609
860.061	19704
860.194	19746
860.327	19578
860.46	19499
860.592	19731
860.725	19685
860.858	19502
860.99	19537
861.123	19483
861.256	19476
861.388	19502
861.521	20142
861.653	19537
861.786	19445
861.918	19392
862.05	19457
862.183	19635
862.315	19639
862.447	19708
862.58	19620
862.712	19274
862.844	19304
862.976	19362
863.108	19441
863.24	19556
863.372	19354
863.504	19343
863.636	19259
863.768	19263
863.9	19339
864.032	19171
864.164	19312
864.296	19301
864.428	19377
864.559	19403
864.691	19419
864.823	19244
864.954	19316
865.086	19343
865.217	19190
865.349	19118
865.48	19228
865.612	19221
865.743	19190
865.875	19152
866.006	19148
866.137	19190
866.269	19244
866.4	19221
866.531	19141
866.662	19038
866.793	19050
866.924	19152
867.055	19107
867.186	19198
867.317	19160
867.448	19129
867.579	19072
867.71	19072
867.841	19099
867.972	19061
868.103	19187
868.233	19187
868.364	19187
868.495	19148
868.625	19236
868.756	19514
868.886	19285
869.017	19297
869.147	19441
869.278	19411
869.408	19495
869.539	19384
869.669	19320
869.799	19358
869.929	19354
870.06	19472
870.19	19628
870.32	19651
870.45	19670
870.58	19784
870.71	19902
870.84	19753
870.97	19742
871.1	19689
871.23	19909
871.36	20035
871.489	19738
871.619	19856
871.749	20020
871.879	19947
872.008	20043
872.138	19970
872.267	19955
872.397	19822
872.526	19776
872.656	19761
872.785	19799
872.915	20005
873.044	20103
873.173	19951
873.303	19997
873.432	19993
873.561	20157
873.69	20016
873.819	20035
873.948	20031
874.077	20130
874.206	19769
874.335	19989
874.464	20100
874.593	20263
874.722	20195
874.851	20309
874.979	20309
875.108	20271
875.237	20309
875.365	20065
875.494	20153
875.623	20286
875.751	20240
875.88	20259
876.008	20385
876.136	20465
876.265	20598
876.393	20811
876.521	20777
876.65	20727
876.778	20762
876.906	20629
877.034	20484
877.162	20507
877.29	20644
877.418	20682
877.546	20678
877.674	20689
877.802	20644
877.93	20705
878.058	20602
878.185	20602
878.313	20670
878.441	20754
878.568	20621
878.696	20663
878.824	20765
878.951	20826
879.079	21051
879.206	21237
879.333	21119
879.461	21024
879.588	21237
879.715	21287
879.842	21298
879.97	20982
880.097	20781
880.224	20632
880.351	20804
880.478	20609
880.605	20602
880.732	20621
880.859	20849
880.986	20765
881.112	20693
881.239	20412
881.366	20317
881.493	20336
881.619	20259
881.746	20199
881.872	20214
881.999	20111
882.125	20180
882.252	20161
882.378	20199
882.505	20275
882.631	20164
882.757	19951
882.883	20046
883.01	19982
883.136	19864
883.262	19757
883.388	19822
883.514	19913
883.64	19986
883.766	19951
883.892	19696
884.018	19765
884.143	19902
884.269	19944
884.395	19575
884.52	19586
884.646	19578
884.772	19590
884.897	19441
885.023	19594
885.148	19769
885.274	19742
885.399	19616
885.524	19407
885.65	19521
885.775	19518
885.9	19514
886.025	19613
886.15	19655
886.275	19472
886.4	19441
886.525	19480
886.65	19491
886.775	19514
886.9	19734
887.025	19620
887.149	19460
887.274	19369
887.399	19320
887.523	19350
887.648	19266
887.773	19145
887.897	19438
888.021	19232
888.146	19282
888.27	19434
888.395	19400
888.519	19259
888.643	19343
888.767	19343
888.891	19099
889.015	19072
889.139	19171
889.263	19133
889.387	19137
889.511	19263
889.635	19118
889.759	18996
889.883	19042
890.006	19061
890.13	19095
890.254	18947
890.377	18924
890.501	18840
890.624	18677
890.748	18863
890.871	18730
890.995	18559
891.118	18494
891.241	18665
891.364	18730
891.488	18707
891.611	18669
891.734	18639
891.857	18745
891.98	18658
892.103	18715
892.226	18677
892.349	18555
892.471	18410
892.594	18490
892.717	18494
892.839	18517
892.962	18639
893.085	18707
893.207	18631
893.33	18494
893.452	18471
893.575	18642
893.697	18509
893.819	18700
893.941	18722
894.064	18726
894.186	18467
894.308	18407
894.43	18563
894.552	18749
894.674	18658
894.796	18563
894.918	18578
895.04	18532
895.161	18768
895.283	18658
895.405	18479
895.526	18566
895.648	18490
895.769	18525
895.891	18616
896.012	18589
896.134	18673
896.255	18700
896.376	18502
896.498	18635
896.619	18623
896.74	18639
896.861	18753
896.982	19027
897.103	19053
897.224	18939
897.345	18924
897.466	18905
897.587	18947
897.708	19046
897.828	18768
897.949	18806
898.07	18608
898.19	18840
898.311	18894
898.431	18837
898.552	18859
898.672	18924
898.792	18924
898.913	18856
899.033	18802
899.153	18627
899.273	18528
899.393	18578
899.513	18715
899.633	18593
899.753	18665
899.873	18490
899.993	18722
900.113	18521
900.232	18566
900.352	18528
900.472	18418
900.591	18426
900.711	18509
900.83	18494
900.95	18532
901.069	18597
901.189	18391
901.308	18049
901.427	18098
901.546	18060
901.665	18121
901.784	18022
901.904	17920
902.023	17897
902.141	17627
902.26	17608
902.379	17760
902.498	17596
902.617	17592
902.735	17661
902.854	17463
902.973	17414
903.091	17197
903.21	17212
903.328	17208
903.446	17189
903.565	17041
903.683	17056
903.801	16889
903.919	17067
904.038	16858
904.156	16911
904.274	16938
904.392	16793
904.51	16790
904.627	16767
904.745	16885
904.863	16854
904.981	16618
905.098	16462
905.216	16516
905.334	16558
905.451	16504
905.569	16371
905.686	16409
905.803	16436
905.921	16386
906.038	16325
906.155	16352
906.272	16109
906.389	16074
906.506	16040
906.623	16017
906.74	15869
906.857	15873
906.974	15873
907.091	16002
907.208	16002
907.324	16013
907.441	15926
907.557	15705
907.674	15675
907.79	15682
907.907	15603
908.023	15595
908.139	15694
908.256	15496
908.372	15477
908.488	15488
908.604	15431
908.72	15382
908.836	15401
908.952	15275
909.068	15241
909.184	15557
909.3	15378
909.415	15363
909.531	15272
909.647	15127
909.762	15085
909.878	15093
909.993	15032
910.108	15104
910.224	14998
910.339	15028
910.454	14921
910.57	14830
910.685	14781
910.8	15070
910.915	14979
911.03	14864
911.145	14724
911.259	14579
911.374	14735
911.489	14537
911.604	14598
911.718	14415
911.833	14465
911.947	14263
912.062	14286
912.176	14393
912.291	14396
912.405	14507
912.519	14568
912.633	14636
912.748	14328
912.862	14404
912.976	14225
913.09	14142
913.204	14199
913.318	14214
913.431	14320
913.545	14317
913.659	14423
913.772	14157
913.886	14012
914	14046
914.113	14161
914.226	14119
914.34	14115
914.453	14073
914.566	14107
914.68	13898
914.793	13921
914.906	13814
915.019	13689
915.132	13761
915.245	13700
915.358	13712
915.47	13628
915.583	13753
915.696	13742
915.809	13799
915.921	13928
916.034	13567
916.146	13613
916.259	13563
916.371	13734
916.483	13651
916.595	13529
916.708	13575
916.82	13514
916.932	13540
917.044	13575
917.156	13559
917.268	13403
917.38	13449
917.491	13358
917.603	13445
917.715	13460
917.826	13556
917.938	13327
918.049	13274
918.161	13373
918.272	13525
918.384	13464
918.495	13343
918.606	13225
918.717	13228
918.828	13209
918.939	13263
919.05	13072
919.161	13156
919.272	13012
919.383	12977
919.494	13171
919.604	13293
919.715	13217
919.826	13114
919.936	13072
920.047	13240
920.157	13129
920.267	13403
920.378	13107
920.488	13183
920.598	13335
920.708	13460
920.818	13194
920.928	13251
921.038	13438
921.148	13407
921.258	13053
921.368	13004
921.477	12935
921.587	12875
921.697	12707
921.806	12924
921.916	12798
922.025	12616
922.134	12642
922.244	12471
922.353	12566
922.462	12494
922.571	12327
922.68	12296
922.789	12213
922.898	12239
923.007	12053
923.116	12224
923.224	12186
923.333	12209
923.442	12057
923.55	12003
923.659	12068
923.767	12057
923.876	11958
923.984	12003
924.092	11954
924.201	11980
924.309	11992
924.417	12064
924.525	11889
924.633	11965
924.741	12856
924.849	11741
924.956	11847
925.064	11680
925.172	11703
925.279	11745
925.387	11718
925.494	11653
925.602	11805
925.709	11737
925.816	11657
925.924	11596
926.031	11699
926.138	11619
926.245	11627
926.352	11589
926.459	11684
926.566	11741
926.673	11547
926.779	11406
926.886	11463
926.993	11318
927.099	11277
927.206	11311
927.312	11258
927.419	11395
927.525	11299
927.631	11360
927.737	11220
927.843	11212
927.95	11140
928.056	11159
928.162	11170
928.267	11239
928.373	11855
928.479	11147
928.585	10930
928.69	11105
928.796	11094
928.901	10946
929.007	10881
929.112	11067
929.218	10957
929.323	10858
929.428	10900
929.533	10984
929.638	10869
929.743	10854
929.848	10953
929.953	10820
930.058	10717
930.163	10580
930.267	10641
930.372	10694
930.477	10569
930.581	10869
930.685	10607
930.79	10466
930.894	10531
930.998	10531
931.103	10660
931.207	10348
931.311	10135
931.415	10158
931.519	10002
931.623	9903
