Data from test_V78500241_1113.txt Node
Date: Fri Mar 25 14:41:28 CST 2022
User: usil
Spectrometer: V785-0024
Trigger mode: 0
Integration Time (sec): 4.000000E-1
Scans to average: 1
Nonlinearity correction enabled: false
Boxcar width: 0
Storing dark spectrum: false
XAxis mode: Wavelengths
Number of Pixels in Spectrum: 1024
>>>>>Begin Spectral Data<<<<<
801.071	22656
801.214	22588
801.356	22295
801.499	22226
801.641	22063
801.783	22051
801.926	22010
802.068	21964
802.211	21907
802.353	21698
802.496	21576
802.638	21595
802.78	21420
802.923	21374
803.065	21405
803.208	21329
803.35	21329
803.492	21454
803.635	21534
803.777	21287
803.919	21450
804.061	21633
804.204	21401
804.346	21260
804.488	21241
804.63	21321
804.773	21203
804.915	21291
805.057	21496
805.199	21351
805.341	21268
805.483	21275
805.626	21283
805.768	21272
805.91	21237
806.052	21256
806.194	21203
806.336	21458
806.478	21252
806.62	21351
806.762	21386
806.904	21538
807.046	21709
807.188	21686
807.33	21686
807.472	21751
807.614	21572
807.756	21743
807.898	21526
808.04	21431
808.182	21618
808.324	21603
808.465	21599
808.607	21892
808.749	21926
808.891	22177
809.033	22211
809.174	22124
809.316	22006
809.458	21922
809.6	21778
809.741	21831
809.883	21819
810.025	21804
810.166	21918
810.308	21956
810.45	21850
810.591	21956
810.733	21583
810.875	21496
811.016	21530
811.158	21454
811.299	21481
811.441	21648
811.582	21606
811.724	21393
811.865	21488
812.007	21549
812.148	21473
812.29	21572
812.431	21713
812.573	21804
812.714	21876
812.855	22070
812.997	22162
813.138	22238
813.279	22135
813.421	22055
813.562	21915
813.703	21781
813.845	21705
813.986	21359
814.127	21214
814.268	21154
814.41	21020
814.551	20948
814.692	21150
814.833	20944
814.974	20902
815.115	20967
815.256	20826
815.397	20891
815.539	20891
815.68	20689
815.821	20807
815.962	20678
816.103	20689
816.244	20575
816.385	20556
816.526	20415
816.666	20400
816.807	20138
816.948	20328
817.089	20309
817.23	20275
817.371	20107
817.512	20263
817.653	20225
817.793	20138
817.934	20153
818.075	20126
818.216	20107
818.356	20153
818.497	19951
818.638	19750
818.778	19822
818.919	19894
819.06	19887
819.2	19913
819.341	20039
819.481	20119
819.622	20237
819.762	20263
819.903	20298
820.043	20233
820.184	20122
820.324	20195
820.465	20347
820.605	20103
820.746	20161
820.886	19978
821.026	20115
821.167	20145
821.307	20183
821.447	20054
821.588	19974
821.728	19814
821.868	19712
822.008	19518
822.149	19571
822.289	19510
822.429	19225
822.569	19251
822.709	19259
822.849	19126
822.99	19042
823.13	19084
823.27	19012
823.41	18882
823.55	18894
823.69	18844
823.83	18863
823.97	18844
824.11	18597
824.25	18585
824.389	18661
824.529	18681
824.669	18787
824.809	18817
824.949	18726
825.089	18711
825.228	18673
825.368	18471
825.508	18414
825.648	18460
825.787	18601
825.927	18467
826.067	18460
826.206	18407
826.346	18574
826.485	18456
826.625	18433
826.765	18551
826.904	18445
827.044	18205
827.183	18205
827.323	18064
827.462	18197
827.601	18258
827.741	18163
827.88	18072
828.02	18034
828.159	18110
828.298	18216
828.437	18163
828.577	18140
828.716	18292
828.855	18228
828.994	17988
829.134	17912
829.273	17920
829.412	17847
829.551	17863
829.69	17874
829.829	17874
829.968	17980
830.107	18030
830.246	18011
830.385	17855
830.524	17832
830.663	17699
830.802	17551
830.941	17512
831.08	17459
831.219	17543
831.357	17524
831.496	17691
831.635	17524
831.774	17391
831.913	17292
832.051	17231
832.19	17181
832.329	17269
832.467	17220
832.606	17181
832.744	17216
832.883	17261
833.022	17166
833.16	17231
833.299	17345
833.437	17200
833.576	17265
833.714	17322
833.852	17368
833.991	17288
834.129	17353
834.267	17315
834.406	17227
834.544	17391
834.682	17311
834.821	17265
834.959	17463
835.097	17337
835.235	17269
835.373	17231
835.511	17288
835.65	17121
835.788	17105
835.926	16968
836.064	16991
836.202	16965
836.34	17166
836.478	17254
836.615	17136
836.753	17223
836.891	17341
837.029	17136
837.167	17136
837.305	17086
837.443	17147
837.58	17048
837.718	17094
837.856	17200
837.993	16984
838.131	17048
838.269	16805
838.406	17006
838.544	16835
838.681	16790
838.819	16679
838.956	16687
839.094	16542
839.231	16569
839.369	16759
839.506	16892
839.643	16820
839.781	16615
839.918	16538
840.055	16565
840.193	16580
840.33	16592
840.467	16527
840.604	16626
840.742	16828
840.879	16500
841.016	16523
841.153	16550
841.29	16637
841.427	16584
841.564	16561
841.701	16626
841.838	16413
841.975	16413
842.112	16424
842.249	16306
842.385	16341
842.522	16531
842.659	16371
842.796	16246
842.933	16398
843.069	16257
843.206	16276
843.343	16360
843.479	16276
843.616	16185
843.752	16109
843.889	16150
844.025	16405
844.162	16101
844.298	16276
844.435	16063
844.571	16185
844.708	16207
844.844	16379
844.98	16341
845.117	16268
845.253	16173
845.389	16150
845.525	16185
845.661	16230
845.798	16265
845.934	16303
846.07	16261
846.206	16367
846.342	16386
846.478	16162
846.614	15930
846.75	15816
846.886	15736
847.022	15869
847.158	15709
847.294	15751
847.429	15724
847.565	15690
847.701	15918
847.837	15462
847.972	15412
848.108	15439
848.244	15542
848.379	15363
848.515	15260
848.65	15188
848.786	15272
848.921	15348
849.057	15443
849.192	15386
849.328	15359
849.463	15180
849.598	15237
849.734	15176
849.869	15173
850.004	15100
850.14	15116
850.275	15085
850.41	14998
850.545	14944
850.68	14979
850.815	15093
850.95	15001
851.085	15302
851.22	15176
851.355	15112
851.49	15062
851.625	15032
851.76	15093
851.895	14960
852.03	14910
852.165	15062
852.299	15097
852.434	15028
852.569	15150
852.703	15097
852.838	15176
852.973	15211
853.107	15173
853.242	15089
853.376	14990
853.511	14800
853.645	14883
853.78	15001
853.914	14960
854.048	14883
854.183	14933
854.317	15028
854.451	15028
854.585	14857
854.72	14918
854.854	14960
854.988	14750
855.122	14906
855.256	14800
855.39	14849
855.524	14971
855.658	15020
855.792	14929
855.926	14956
856.06	14902
856.194	14971
856.327	14857
856.461	14902
856.595	14853
856.729	14937
856.862	14986
856.996	14967
857.13	14925
857.263	14998
857.397	15039
857.53	14887
857.664	14971
857.797	14963
857.931	15028
858.064	14956
858.197	14986
858.331	14838
858.464	14883
858.597	14891
858.731	14880
858.864	14937
858.997	14918
859.13	14982
859.263	14956
859.396	14998
859.529	14758
859.662	14933
859.795	14830
859.928	14781
860.061	15058
860.194	15123
860.327	14811
860.46	14807
860.592	14956
860.725	15043
860.858	14979
860.99	14925
861.123	14914
861.256	14895
861.388	14811
861.521	15675
861.653	14750
861.786	14659
861.918	14720
862.05	14716
862.183	14834
862.315	14914
862.447	15009
862.58	14895
862.712	14712
862.844	14629
862.976	14754
863.108	14750
863.24	15070
863.372	14644
863.504	14712
863.636	14693
863.768	14735
863.9	14743
864.032	14686
864.164	14648
864.296	14674
864.428	14735
864.559	14785
864.691	14826
864.823	14701
864.954	14746
865.086	14773
865.217	14587
865.349	14598
865.48	14590
865.612	14629
865.743	14902
865.875	14731
866.006	14629
866.137	14701
866.269	14689
866.4	14716
866.531	14636
866.662	14545
866.793	14571
866.924	14579
867.055	14655
867.186	14792
867.317	14587
867.448	14450
867.579	14701
867.71	14480
867.841	14636
867.972	14495
868.103	14625
868.233	14659
868.364	14594
868.495	14720
868.625	14807
868.756	14891
868.886	14826
869.017	14864
869.147	15013
869.278	14994
869.408	14883
869.539	14906
869.669	14933
869.799	14895
869.929	14971
870.06	15001
870.19	15214
870.32	15135
870.45	15195
870.58	15401
870.71	15332
870.84	15355
870.97	15298
871.1	15275
871.23	15393
871.36	15458
871.489	15424
871.619	15462
871.749	15367
871.879	15564
872.008	15549
872.138	15469
872.267	15462
872.397	15416
872.526	15214
872.656	15252
872.785	15355
872.915	15576
873.044	15500
873.173	15439
873.303	15534
873.432	15462
873.561	15523
873.69	15530
873.819	15424
873.948	15557
874.077	15507
874.206	15549
874.335	15637
874.464	15720
874.593	15838
874.722	15770
874.851	15895
874.979	15892
875.108	15892
875.237	15854
875.365	15660
875.494	15892
875.623	15968
875.751	15823
875.88	15857
876.008	16063
876.136	16105
876.265	16272
876.393	16428
876.521	16379
876.65	16333
876.778	16265
876.906	16169
877.034	16249
877.162	16242
877.29	16230
877.418	16226
877.546	16234
877.674	16253
877.802	16211
877.93	16238
878.058	16116
878.185	16204
878.313	16276
878.441	16325
878.568	16211
878.696	16226
878.824	16306
878.951	16356
879.079	16516
879.206	16683
879.333	16634
879.461	16550
879.588	16573
879.715	16679
879.842	16653
879.97	16432
880.097	16230
880.224	16230
880.351	16215
880.478	16280
880.605	16204
880.732	16192
880.859	16238
880.986	16120
881.112	16135
881.239	16059
881.366	15812
881.493	15819
881.619	15808
881.746	15755
881.872	15831
881.999	15823
882.125	15789
882.252	15873
882.378	15800
882.505	15884
882.631	15736
882.757	15454
882.883	15603
883.01	15720
883.136	15564
883.262	15477
883.388	15519
883.514	15724
883.64	15545
883.766	15568
883.892	15401
884.018	15408
884.143	15538
884.269	15656
884.395	15420
884.52	15298
884.646	15336
884.772	15237
884.897	15245
885.023	15344
885.148	15329
885.274	15542
885.399	15462
885.524	15249
885.65	15241
885.775	15370
885.9	15188
886.025	15439
886.15	15477
886.275	15336
886.4	15192
886.525	15256
886.65	15176
886.775	15264
886.9	15408
887.025	15538
887.149	15302
887.274	15116
887.399	15097
887.523	15013
887.648	15116
887.773	15066
887.897	15154
888.021	15192
888.146	15024
888.27	15154
888.395	15279
888.519	15131
888.643	15135
888.767	15169
888.891	15043
889.015	14967
889.139	15100
889.263	14986
889.387	14975
889.511	15142
889.635	15036
889.759	14891
889.883	14960
890.006	14925
890.13	15055
890.254	14853
890.377	14944
890.501	14811
890.624	14785
890.748	14830
890.871	14663
890.995	14693
891.118	14663
891.241	14655
891.364	14724
891.488	14765
891.611	14651
891.734	14598
891.857	14758
891.98	14716
892.103	14678
892.226	14743
892.349	14640
892.471	14465
892.594	14644
892.717	14659
892.839	14594
892.962	14640
893.085	14746
893.207	14667
893.33	14556
893.452	14549
893.575	14670
893.697	14617
893.819	14864
893.941	14804
894.064	14727
894.186	14587
894.308	14533
894.43	14792
894.552	14739
894.674	14731
894.796	14621
894.918	14617
895.04	14667
895.161	14830
895.283	14743
895.405	14613
895.526	14739
895.648	14663
895.769	14765
895.891	14815
896.012	14823
896.134	14887
896.255	14727
896.376	14777
896.498	14769
896.619	14697
896.74	14868
896.861	14872
896.982	15176
897.103	15298
897.224	15112
897.345	15005
897.466	14845
897.587	15077
897.708	15192
897.828	15074
897.949	15036
898.07	14914
898.19	14994
898.311	15116
898.431	14990
898.552	15176
898.672	15256
898.792	15226
898.913	15173
899.033	15089
899.153	14956
899.273	14872
899.393	14891
899.513	14933
899.633	15039
899.753	14990
899.873	14883
899.993	15135
900.113	14960
900.232	14990
900.352	14895
900.472	14804
900.591	14785
900.711	14857
900.83	14735
900.95	14857
901.069	14864
901.189	14708
901.308	14556
901.427	14461
901.546	14495
901.665	14530
901.784	14549
901.904	14271
902.023	14404
902.141	14111
902.26	14111
902.379	14126
902.498	14115
902.617	13982
902.735	14134
902.854	14016
902.973	13967
903.091	13700
903.21	13830
903.328	13799
903.446	13639
903.565	13651
903.683	13685
903.801	13525
903.919	13636
904.038	13620
904.156	13422
904.274	13460
904.392	13392
904.51	13365
904.627	13373
904.745	13441
904.863	13578
904.981	13232
905.098	13099
905.216	13114
905.334	13069
905.451	13069
905.569	13095
905.686	13080
905.803	13103
905.921	12966
906.038	13076
906.155	12913
906.272	12779
906.389	12867
906.506	12658
906.623	12646
906.74	12662
906.857	12635
906.974	12616
907.091	12745
907.208	12768
907.324	12741
907.441	12616
907.557	12528
907.674	12467
907.79	12388
907.907	12464
908.023	12448
908.139	12509
908.256	12319
908.372	12342
908.488	12296
908.604	12273
908.72	12095
908.836	12254
908.952	12201
909.068	12095
909.184	12308
909.3	12243
909.415	12232
909.531	12175
909.647	11946
909.762	11961
909.878	11916
909.993	11912
910.108	11908
910.224	11992
910.339	11961
910.454	11847
910.57	11805
910.685	11695
910.8	12045
910.915	11965
911.03	11813
911.145	11695
911.259	11688
911.374	11649
911.489	11551
911.604	11433
911.718	11372
911.833	11376
911.947	11299
912.062	11292
912.176	11398
912.291	11379
912.405	11482
912.519	11543
912.633	11551
912.748	11444
912.862	11429
912.976	11273
913.09	11296
913.204	11208
913.318	11273
913.431	11368
913.545	11299
913.659	11345
913.772	11181
913.886	11117
914	11117
914.113	11288
914.226	11258
914.34	11197
914.453	11067
914.566	11212
914.68	11056
914.793	11048
914.906	10885
915.019	10885
915.132	10721
915.245	10793
915.358	10873
915.47	10812
915.583	10828
915.696	10949
915.809	10972
915.921	11064
916.034	10839
916.146	10839
916.259	10839
916.371	10900
916.483	10873
916.595	10729
916.708	10820
916.82	10793
916.932	10801
917.044	10801
917.156	10721
917.268	10611
917.38	10702
917.491	10698
917.603	10694
917.715	10725
917.826	10801
917.938	10691
918.049	10542
918.161	10675
918.272	10774
918.384	10782
918.495	10702
918.606	10603
918.717	10519
918.828	10577
918.939	10634
919.05	10443
919.161	10542
919.272	10413
919.383	10455
919.494	10580
919.604	10702
919.715	10565
919.826	10500
919.936	10607
920.047	10615
920.157	10516
920.267	10801
920.378	10626
920.488	10542
920.598	10733
920.708	10915
920.818	10771
920.928	10774
921.038	10873
921.148	10862
921.258	10668
921.368	10519
921.477	10466
921.587	10447
921.697	10318
921.806	10478
921.916	10284
922.025	10135
922.134	10135
922.244	9979
922.353	10150
922.462	9956
922.571	9926
922.68	9903
922.789	9842
922.898	9854
923.007	9766
923.116	9831
923.224	9785
923.333	9797
923.442	9679
923.55	9603
923.659	9679
923.767	9762
923.876	9625
923.984	9789
924.092	9610
924.201	9679
924.309	9625
924.417	9667
924.525	9663
924.633	9587
924.741	10265
924.849	9431
924.956	9553
925.064	9481
925.172	9287
925.279	9348
925.387	9443
925.494	9393
925.602	9584
925.709	9507
925.816	9393
925.924	9473
926.031	9443
926.138	9382
926.245	9485
926.352	9370
926.459	9530
926.566	9519
926.673	9435
926.779	9325
926.886	9291
926.993	9154
927.099	9116
927.206	9138
927.312	9020
927.419	9176
927.525	9135
927.631	9176
927.737	9001
927.843	9017
927.95	8906
928.056	9017
928.162	9036
928.267	9036
928.373	9671
928.479	9119
928.585	8918
928.69	9001
928.796	9058
928.901	8929
929.007	8868
929.112	9009
929.218	8842
929.323	8899
929.428	8796
929.533	8963
929.638	8883
929.743	8842
929.848	8910
929.953	8823
930.058	8659
930.163	8571
930.267	8617
930.372	8739
930.477	8560
930.581	8769
930.685	8629
930.79	8522
930.894	8541
930.998	8571
931.103	8651
931.207	8286
931.311	8240
931.415	8168
931.519	8035
931.623	8046
