Data from test_V78500241_3254.txt Node
Date: Fri Mar 25 14:56:22 CST 2022
User: usil
Spectrometer: V785-0024
Trigger mode: 0
Integration Time (sec): 4.000000E-1
Scans to average: 1
Nonlinearity correction enabled: false
Boxcar width: 0
Storing dark spectrum: false
XAxis mode: Wavelengths
Number of Pixels in Spectrum: 1024
>>>>>Begin Spectral Data<<<<<
801.071	22021
801.214	21949
801.356	21698
801.499	21564
801.641	21382
801.783	21348
801.926	21412
802.068	21321
802.211	21283
802.353	21195
802.496	20967
802.638	21005
802.78	20921
802.923	20796
803.065	20617
803.208	20670
803.35	20644
803.492	20845
803.635	20872
803.777	20678
803.919	20644
804.061	21085
804.204	20815
804.346	20587
804.488	20549
804.63	20663
804.773	20533
804.915	20606
805.057	20644
805.199	20636
805.341	20674
805.483	20689
805.626	20682
805.768	20579
805.91	20621
806.052	20674
806.194	20568
806.336	20724
806.478	20575
806.62	20602
806.762	20640
806.904	20819
807.046	21017
807.188	20967
807.33	20883
807.472	21028
807.614	20815
807.756	20868
807.898	20826
808.04	20526
808.182	20629
808.324	20606
808.465	20659
808.607	20853
808.749	20876
808.891	21074
809.033	21184
809.174	21020
809.316	20967
809.458	20921
809.6	20906
809.741	21047
809.883	21005
810.025	21104
810.166	21127
810.308	21028
810.45	21116
810.591	20971
810.733	20830
810.875	20819
811.016	20640
811.158	20644
811.299	20792
811.441	20861
811.582	20918
811.724	20777
811.865	20708
812.007	20686
812.148	20693
812.29	20727
812.431	21001
812.573	20956
812.714	21135
812.855	21165
812.997	21344
813.138	21351
813.279	21298
813.421	21237
813.562	21218
813.703	20990
813.845	20853
813.986	20571
814.127	20370
814.268	20309
814.41	20431
814.551	20256
814.692	20400
814.833	20271
814.974	20157
815.115	20328
815.256	20111
815.397	20153
815.539	20065
815.68	19978
815.821	19875
815.962	19887
816.103	19944
816.244	19833
816.385	19674
816.526	19635
816.666	19537
816.807	19350
816.948	19518
817.089	19578
817.23	19438
817.371	19289
817.512	19445
817.653	19384
817.793	19384
817.934	19411
818.075	19396
818.216	19339
818.356	19301
818.497	19171
818.638	18989
818.778	19247
818.919	19198
819.06	19118
819.2	19247
819.341	19194
819.481	19213
819.622	19483
819.762	19632
819.903	19441
820.043	19430
820.184	19434
820.324	19400
820.465	19373
820.605	19365
820.746	19331
820.886	19171
821.026	19312
821.167	19285
821.307	19384
821.447	19381
821.588	19247
821.728	19133
821.868	18989
822.008	18783
822.149	18749
822.289	18764
822.429	18498
822.569	18467
822.709	18506
822.849	18171
822.99	18182
823.13	18266
823.27	18239
823.41	18102
823.55	17992
823.69	18076
823.83	18083
823.97	18026
824.11	17904
824.25	17783
824.389	17824
824.529	17805
824.669	17802
824.809	17965
824.949	17946
825.089	17832
825.228	17832
825.368	17668
825.508	17642
825.648	17589
825.787	17695
825.927	17665
826.067	17627
826.206	17566
826.346	17627
826.485	17619
826.625	17653
826.765	17817
826.904	17684
827.044	17524
827.183	17326
827.323	17280
827.462	17368
827.601	17467
827.741	17341
827.88	17337
828.02	17181
828.159	17258
828.298	17425
828.437	17387
828.577	17322
828.716	17528
828.855	17197
828.994	17056
829.134	17033
829.273	17006
829.412	17022
829.551	16968
829.69	17079
829.829	17029
829.968	17181
830.107	17136
830.246	17090
830.385	17121
830.524	16904
830.663	16930
830.802	16866
830.941	16668
831.08	16577
831.219	16809
831.357	16869
831.496	16831
831.635	16702
831.774	16569
831.913	16603
832.051	16478
832.19	16481
832.329	16500
832.467	16432
832.606	16371
832.744	16375
832.883	16348
833.022	16265
833.16	16413
833.299	16455
833.437	16424
833.576	16356
833.714	16405
833.852	16466
833.991	16538
834.129	16546
834.267	16554
834.406	16356
834.544	16565
834.682	16466
834.821	16375
834.959	16569
835.097	16459
835.235	16500
835.373	16455
835.511	16424
835.65	16432
835.788	16352
835.926	16173
836.064	16105
836.202	16090
836.34	16272
836.478	16538
836.615	16455
836.753	16352
836.891	16440
837.029	16398
837.167	16413
837.305	16363
837.443	16303
837.58	16207
837.718	16314
837.856	16272
837.993	16253
838.131	16291
838.269	16139
838.406	16158
838.544	16207
838.681	15945
838.819	15949
838.956	15743
839.094	15732
839.231	15854
839.369	16017
839.506	16169
839.643	16055
839.781	15808
839.918	15682
840.055	15793
840.193	15759
840.33	15778
840.467	15831
840.604	15679
840.742	16078
840.879	15641
841.016	15717
841.153	15743
841.29	15915
841.427	15850
841.564	15812
841.701	15774
841.838	15778
841.975	15629
842.112	15660
842.249	15656
842.385	15473
842.522	15743
842.659	15538
842.796	15603
842.933	15606
843.069	15504
843.206	15507
843.343	15610
843.479	15576
843.616	15561
843.752	15306
843.889	15294
844.025	15523
844.162	15298
844.298	15504
844.435	15287
844.571	15245
844.708	15321
844.844	15553
844.98	15447
845.117	15473
845.253	15325
845.389	15272
845.525	15279
845.661	15249
845.798	14979
845.934	15207
846.07	15043
846.206	15093
846.342	15275
846.478	15211
846.614	14933
846.75	14902
846.886	14891
847.022	14979
847.158	14994
847.294	14895
847.429	15032
847.565	14872
847.701	15074
847.837	14796
847.972	14674
848.108	14743
848.244	14754
848.379	14533
848.515	14503
848.65	14473
848.786	14480
848.921	14552
849.057	14659
849.192	14682
849.328	14636
849.463	14545
849.598	14446
849.734	14499
849.869	14328
850.004	14332
850.14	14324
850.275	14252
850.41	14157
850.545	14229
850.68	14278
850.815	14278
850.95	14298
851.085	14377
851.22	14309
851.355	14313
851.49	14244
851.625	14347
851.76	14263
851.895	14282
852.03	14176
852.165	14206
852.299	14317
852.434	14332
852.569	14256
852.703	14358
852.838	14377
852.973	14366
853.107	14457
853.242	14263
853.376	14199
853.511	14046
853.645	14020
853.78	14225
853.914	14149
854.048	14138
854.183	14119
854.317	14145
854.451	14442
854.585	14024
854.72	14069
854.854	14180
854.988	14001
855.122	14088
855.256	13963
855.39	14157
855.524	14259
855.658	14187
855.792	14240
855.926	14237
856.06	14259
856.194	14294
856.327	14157
856.461	13993
856.595	14111
856.729	14195
856.862	14347
856.996	14161
857.13	14172
857.263	14233
857.397	14294
857.53	14191
857.664	14088
857.797	14187
857.931	14317
858.064	14123
858.197	14256
858.331	14172
858.464	14176
858.597	14062
858.731	14073
858.864	14100
858.997	14237
859.13	14149
859.263	14187
859.396	14256
859.529	14092
859.662	14058
859.795	14062
859.928	14282
860.061	14309
860.194	14275
860.327	14210
860.46	14145
860.592	14240
860.725	14244
860.858	14320
860.99	14248
861.123	14016
861.256	14157
861.388	14153
861.521	14941
861.653	14012
861.786	13997
861.918	14065
862.05	14195
862.183	14088
862.315	14145
862.447	14191
862.58	14092
862.712	13936
862.844	13750
862.976	13993
863.108	14008
863.24	14317
863.372	13890
863.504	13917
863.636	13951
863.768	13963
863.9	13830
864.032	13913
864.164	13887
864.296	13860
864.428	14039
864.559	13955
864.691	14069
864.823	13967
864.954	13997
865.086	13875
865.217	13928
865.349	13864
865.48	13997
865.612	13970
865.743	13967
865.875	13989
866.006	13887
866.137	13906
866.269	14043
866.4	13940
866.531	13906
866.662	13803
866.793	13830
866.924	13864
867.055	13883
867.186	13898
867.317	13818
867.448	13811
867.579	13921
867.71	13788
867.841	13890
867.972	13951
868.103	13852
868.233	13913
868.364	13928
868.495	13986
868.625	14199
868.756	14317
868.886	14084
869.017	14103
869.147	14298
869.278	14339
869.408	14271
869.539	14210
869.669	14195
869.799	14134
869.929	14339
870.06	14240
870.19	14514
870.32	14431
870.45	14568
870.58	14587
870.71	14727
870.84	14644
870.97	14560
871.1	14579
871.23	14727
871.36	14739
871.489	14530
871.619	14731
871.749	14788
871.879	14758
872.008	14834
872.138	14777
872.267	14724
872.397	14632
872.526	14640
872.656	14541
872.785	14587
872.915	14792
873.044	14880
873.173	14758
873.303	14925
873.432	14834
873.561	14895
873.69	14746
873.819	14727
873.948	14826
874.077	14857
874.206	14887
874.335	14899
874.464	14944
874.593	15131
874.722	15051
874.851	15192
874.979	15077
875.108	15085
875.237	15032
875.365	15039
875.494	15085
875.623	15260
875.751	15135
875.88	15214
876.008	15397
876.136	15401
876.265	15530
876.393	15652
876.521	15701
876.65	15686
876.778	15564
876.906	15477
877.034	15610
877.162	15500
877.29	15450
877.418	15644
877.546	15488
877.674	15515
877.802	15549
877.93	15595
878.058	15557
878.185	15450
878.313	15515
878.441	15564
878.568	15454
878.696	15542
878.824	15545
878.951	15580
879.079	15629
879.206	15846
879.333	15671
879.461	15610
879.588	15698
879.715	15717
879.842	15869
879.97	15595
880.097	15454
880.224	15317
880.351	15473
880.478	15382
880.605	15393
880.732	15420
880.859	15629
880.986	15443
881.112	15374
881.239	15332
881.366	15184
881.493	15070
881.619	14975
881.746	15066
881.872	15055
881.999	15108
882.125	15047
882.252	15104
882.378	15085
882.505	15226
882.631	14971
882.757	14864
882.883	14941
883.01	14937
883.136	14804
883.262	14720
883.388	14678
883.514	14918
883.64	14963
883.766	14826
883.892	14708
884.018	14758
884.143	14887
884.269	14952
884.395	14674
884.52	14545
884.646	14663
884.772	14533
884.897	14492
885.023	14705
885.148	14693
885.274	14735
885.399	14644
885.524	14560
885.65	14629
885.775	14678
885.9	14610
886.025	14659
886.15	14659
886.275	14590
886.4	14442
886.525	14590
886.65	14495
886.775	14541
886.9	14689
887.025	14849
887.149	14621
887.274	14446
887.399	14355
887.523	14324
887.648	14317
887.773	14339
887.897	14457
888.021	14457
888.146	14446
888.27	14514
888.395	14560
888.519	14518
888.643	14499
888.767	14575
888.891	14339
889.015	14218
889.139	14256
889.263	14237
889.387	14408
889.511	14503
889.635	14450
889.759	14271
889.883	14347
890.006	14248
890.13	14347
890.254	14244
890.377	14282
890.501	14126
890.624	14092
890.748	14111
890.871	14031
890.995	13989
891.118	13894
891.241	13989
891.364	13947
891.488	14077
891.611	14001
891.734	13970
891.857	14016
891.98	14126
892.103	14024
892.226	13997
892.349	13947
892.471	13818
892.594	14001
892.717	14069
892.839	13940
892.962	13955
893.085	14031
893.207	14031
893.33	13951
893.452	14001
893.575	14054
893.697	14024
893.819	14164
893.941	14168
894.064	14107
894.186	13906
894.308	13940
894.43	14126
894.552	14244
894.674	14221
894.796	13906
894.918	14073
895.04	14012
895.161	14172
895.283	14123
895.405	14039
895.526	14054
895.648	14161
895.769	14168
895.891	14176
896.012	14267
896.134	14142
896.255	14123
896.376	14168
896.498	14218
896.619	14157
896.74	14153
896.861	14183
896.982	14552
897.103	14610
897.224	14526
897.345	14393
897.466	14259
897.587	14362
897.708	14590
897.828	14434
897.949	14320
898.07	14339
898.19	14317
898.311	14602
898.431	14469
898.552	14590
898.672	14568
898.792	14651
898.913	14629
899.033	14358
899.153	14415
899.273	14324
899.393	14457
899.513	14400
899.633	14355
899.753	14454
899.873	14332
899.993	14556
900.113	14282
900.232	14377
900.352	14317
900.472	14332
900.591	14229
900.711	14328
900.83	14107
900.95	14358
901.069	14328
901.189	14180
901.308	14024
901.427	13868
901.546	13959
901.665	14005
901.784	13936
901.904	13757
902.023	13700
902.141	13506
902.26	13487
902.379	13552
902.498	13506
902.617	13457
902.735	13544
902.854	13518
902.973	13339
903.091	13255
903.21	13240
903.328	13126
903.446	13129
903.565	13031
903.683	13050
903.801	12913
903.919	12973
904.038	13019
904.156	12875
904.274	13042
904.392	12966
904.51	12837
904.627	12840
904.745	12920
904.863	13027
904.981	12688
905.098	12448
905.216	12696
905.334	12639
905.451	12585
905.569	12479
905.686	12665
905.803	12715
905.921	12414
906.038	12483
906.155	12437
906.272	12285
906.389	12353
906.506	12247
906.623	12152
906.74	12095
906.857	12064
906.974	12091
907.091	12270
907.208	12361
907.324	12239
907.441	12076
907.557	11980
907.674	11984
907.79	11805
907.907	11935
908.023	11946
908.139	11927
908.256	11912
908.372	11855
908.488	11794
908.604	11684
908.72	11577
908.836	11619
908.952	11615
909.068	11688
909.184	11779
909.3	11699
909.415	11729
909.531	11798
909.647	11398
909.762	11387
909.878	11493
909.993	11486
910.108	11448
910.224	11410
910.339	11387
910.454	11326
910.57	11265
910.685	11303
910.8	11452
910.915	11463
911.03	11334
911.145	11197
911.259	11197
911.374	11094
911.489	11113
911.604	11052
911.718	10866
911.833	10900
911.947	10782
912.062	10733
912.176	10881
912.291	10946
912.405	10938
912.519	11117
912.633	11105
912.748	10968
912.862	10908
912.976	10809
913.09	10645
913.204	10736
913.318	10778
913.431	10919
913.545	10904
913.659	10820
913.772	10691
913.886	10714
914	10618
914.113	10675
914.226	10782
914.34	10873
914.453	10542
914.566	10778
914.68	10660
914.793	10565
914.906	10531
915.019	10402
915.132	10371
915.245	10417
915.358	10405
915.47	10398
915.583	10402
915.696	10398
915.809	10615
915.921	10554
916.034	10382
916.146	10306
916.259	10344
916.371	10466
916.483	10424
916.595	10322
916.708	10299
916.82	10344
916.932	10322
917.044	10291
917.156	10322
917.268	10196
917.38	10314
917.491	10211
917.603	10249
917.715	10329
917.826	10333
917.938	10261
918.049	10139
918.161	10268
918.272	10363
918.384	10382
918.495	10261
918.606	10116
918.717	10044
918.828	10147
918.939	10124
919.05	9987
919.161	10131
919.272	9842
919.383	9907
919.494	10131
919.604	10352
919.715	10173
919.826	10090
919.936	10143
920.047	10116
920.157	10135
920.267	10348
920.378	10227
920.488	10124
920.598	10405
920.708	10481
920.818	10329
920.928	10379
921.038	10493
921.148	10443
921.258	10223
921.368	10109
921.477	9998
921.587	10010
921.697	9884
921.806	10109
921.916	9888
922.025	9766
922.134	9762
922.244	9660
922.353	9656
922.462	9584
922.571	9591
922.68	9454
922.789	9317
922.898	9408
923.007	9351
923.116	9481
923.224	9405
923.333	9367
923.442	9302
923.55	9184
923.659	9272
923.767	9393
923.876	9199
923.984	9340
924.092	9233
924.201	9291
924.309	9355
924.417	9279
924.525	9245
924.633	9192
924.741	10181
924.849	9043
924.956	9253
925.064	9097
925.172	8967
925.279	8975
925.387	9161
925.494	9070
925.602	9237
925.709	9138
925.816	8952
925.924	9058
926.031	9093
926.138	9070
926.245	9154
926.352	8937
926.459	9127
926.566	9211
926.673	9047
926.779	8998
926.886	8933
926.993	8819
927.099	8762
927.206	8689
927.312	8655
927.419	8815
927.525	8727
927.631	8777
927.737	8697
927.843	8674
927.95	8564
928.056	8670
928.162	8716
928.267	8670
928.373	9275
928.479	8792
928.585	8514
928.69	8667
928.796	8739
928.901	8571
929.007	8423
929.112	8602
929.218	8556
929.323	8541
929.428	8450
929.533	8651
929.638	8434
929.743	8549
929.848	8526
929.953	8507
930.058	8374
930.163	8298
930.267	8263
930.372	8366
930.477	8214
930.581	8450
930.685	8244
930.79	8210
930.894	8259
930.998	8149
931.103	8317
931.207	8043
931.311	7909
931.415	7879
931.519	7693
931.623	7670
