Data from test_V78500241_899.txt Node
Date: Fri Mar 25 14:39:58 CST 2022
User: usil
Spectrometer: V785-0024
Trigger mode: 0
Integration Time (sec): 4.000000E-1
Scans to average: 1
Nonlinearity correction enabled: false
Boxcar width: 0
Storing dark spectrum: false
XAxis mode: Wavelengths
Number of Pixels in Spectrum: 1024
>>>>>Begin Spectral Data<<<<<
801.071	25133
801.214	24951
801.356	24642
801.499	24585
801.641	24471
801.783	24342
801.926	24479
802.068	24311
802.211	24273
802.353	24060
802.496	24011
802.638	23927
802.78	23863
802.923	23748
803.065	23707
803.208	23836
803.35	23718
803.492	23996
803.635	23882
803.777	23828
803.919	23954
804.061	24144
804.204	23813
804.346	23786
804.488	23714
804.63	23859
804.773	23779
804.915	23836
805.057	23866
805.199	23813
805.341	23912
805.483	24018
805.626	24030
805.768	23817
805.91	23836
806.052	23977
806.194	24026
806.336	24163
806.478	24148
806.62	24076
806.762	24235
806.904	24509
807.046	24787
807.188	24749
807.33	24768
807.472	25046
807.614	25084
807.756	25381
807.898	25556
808.04	25849
808.182	26240
808.324	26834
808.465	27526
808.607	28413
808.749	29181
808.891	29402
809.033	29558
809.174	28965
809.316	28303
809.458	27580
809.6	26788
809.741	26355
809.883	25822
810.025	25651
810.166	25449
810.308	25213
810.45	25107
810.591	24916
810.733	24753
810.875	24612
811.016	24308
811.158	24273
811.299	24289
811.441	24555
811.582	24494
811.724	24251
811.865	24152
812.007	24197
812.148	24167
812.29	24209
812.431	24201
812.573	24566
812.714	24525
812.855	24658
812.997	24696
813.138	24760
813.279	24635
813.421	24559
813.562	24585
813.703	24376
813.845	24186
813.986	23946
814.127	23775
814.268	23668
814.41	23691
814.551	23547
814.692	23718
814.833	23585
814.974	23596
815.115	23554
815.256	23402
815.397	23364
815.539	23410
815.68	23303
815.821	23140
815.962	23303
816.103	23299
816.244	23124
816.385	23041
816.526	23041
816.666	22763
816.807	22656
816.948	22729
817.089	22759
817.23	22782
817.371	22630
817.512	22656
817.653	22577
817.793	22653
817.934	22599
818.075	22588
818.216	22637
818.356	22630
818.497	22459
818.638	22352
818.778	22337
818.919	22375
819.06	22314
819.2	22459
819.341	22607
819.481	22561
819.622	22607
819.762	22847
819.903	22828
820.043	22687
820.184	22592
820.324	22687
820.465	22698
820.605	22596
820.746	22459
820.886	22417
821.026	22295
821.167	22485
821.307	22546
821.447	22394
821.588	22246
821.728	22325
821.868	22032
822.008	22029
822.149	21873
822.289	21956
822.429	21610
822.569	21454
822.709	21515
822.849	21424
822.99	21466
823.13	21397
823.27	21188
823.41	21138
823.55	21104
823.69	21150
823.83	21203
823.97	21142
824.11	20921
824.25	20853
824.389	20956
824.529	20967
824.669	20868
824.809	21055
824.949	21032
825.089	20998
825.228	20925
825.368	20739
825.508	20708
825.648	20686
825.787	20800
825.927	20758
826.067	20617
826.206	20689
826.346	20750
826.485	20815
826.625	20689
826.765	20788
826.904	20705
827.044	20469
827.183	20294
827.323	20446
827.462	20408
827.601	20313
827.741	20362
827.88	20427
828.02	20237
828.159	20301
828.298	20488
828.437	20446
828.577	20404
828.716	20374
828.855	20366
828.994	20149
829.134	20069
829.273	20153
829.412	20054
829.551	19921
829.69	19993
829.829	20043
829.968	20119
830.107	20024
830.246	20153
830.385	19940
830.524	19967
830.663	19944
830.802	19742
830.941	19670
831.08	19753
831.219	19807
831.357	19616
831.496	19864
831.635	19552
831.774	19518
831.913	19525
832.051	19422
832.19	19411
832.329	19552
832.467	19320
832.606	19240
832.744	19422
832.883	19297
833.022	19388
833.16	19331
833.299	19483
833.437	19441
833.576	19582
833.714	19605
833.852	19559
833.991	19594
834.129	19769
834.267	19677
834.406	19605
834.544	19537
834.682	19655
834.821	19430
834.959	19537
835.097	19441
835.235	19502
835.373	19495
835.511	19350
835.65	19354
835.788	19369
835.926	19118
836.064	19004
836.202	19015
836.34	19179
836.478	19266
836.615	19057
836.753	19095
836.891	19282
837.029	19160
837.167	19107
837.305	19187
837.443	18958
837.58	19000
837.718	19107
837.856	19148
837.993	18993
838.131	19076
838.269	18993
838.406	18905
838.544	18821
838.681	18730
838.819	18753
838.956	18540
839.094	18399
839.231	18502
839.369	18681
839.506	18787
839.643	18829
839.781	18437
839.918	18525
840.055	18528
840.193	18437
840.33	18437
840.467	18506
840.604	18456
840.742	18688
840.879	18327
841.016	18372
841.153	18403
841.29	18570
841.427	18391
841.564	18422
841.701	18395
841.838	18338
841.975	18296
842.112	18342
842.249	18277
842.385	18129
842.522	18414
842.659	18273
842.796	18296
842.933	18254
843.069	18209
843.206	18171
843.343	18315
843.479	18270
843.616	18281
843.752	18045
843.889	18106
844.025	18178
844.162	17980
844.298	18251
844.435	18152
844.571	18106
844.708	18281
844.844	18403
844.98	18448
845.117	18620
845.253	18730
845.389	18856
845.525	19567
845.661	20956
845.798	22459
845.934	23577
846.07	24129
846.206	23908
846.342	23060
846.478	21515
846.614	19913
846.75	19072
846.886	18380
847.022	18304
847.158	17965
847.294	17885
847.429	17748
847.565	17623
847.701	17786
847.837	17372
847.972	17311
848.108	17345
848.244	17250
848.379	17075
848.515	17136
848.65	17079
848.786	17121
848.921	17117
849.057	17208
849.192	17227
849.328	17128
849.463	17140
849.598	17079
849.734	16938
849.869	16869
850.004	16866
850.14	16824
850.275	16831
850.41	16809
850.545	16797
850.68	16778
850.815	16877
850.95	16805
851.085	17052
851.22	16831
851.355	16843
851.49	16797
851.625	16828
851.76	16809
851.895	16710
852.03	16797
852.165	16786
852.299	16930
852.434	16892
852.569	16824
852.703	16885
852.838	16854
852.973	16896
853.107	17018
853.242	16725
853.376	16752
853.511	16584
853.645	16641
853.78	16889
853.914	16782
854.048	16767
854.183	16809
854.317	16763
854.451	16915
854.585	16679
854.72	16721
854.854	16812
854.988	16626
855.122	16645
855.256	16577
855.39	16634
855.524	16843
855.658	16611
855.792	16691
855.926	16755
856.06	16683
856.194	16820
856.327	16740
856.461	16618
856.595	16645
856.729	16653
856.862	16672
856.996	16736
857.13	16752
857.263	16725
857.397	16812
857.53	16611
857.664	16664
857.797	16694
857.931	16854
858.064	16702
858.197	16698
858.331	16615
858.464	16535
858.597	16474
858.731	16611
858.864	16550
858.997	16527
859.13	16656
859.263	16679
859.396	16634
859.529	16558
859.662	16527
859.795	16531
859.928	16637
860.061	16831
860.194	16733
860.327	16641
860.46	16569
860.592	16683
860.725	16748
860.858	16771
860.99	16577
861.123	16527
861.256	16542
861.388	16569
861.521	17197
861.653	16516
861.786	16493
861.918	16577
862.05	16516
862.183	16573
862.315	16603
862.447	16641
862.58	16417
862.712	16325
862.844	16306
862.976	16390
863.108	16367
863.24	16713
863.372	16367
863.504	16303
863.636	16394
863.768	16284
863.9	16329
864.032	16303
864.164	16230
864.296	16360
864.428	16405
864.559	16341
864.691	16367
864.823	16314
864.954	16352
865.086	16360
865.217	16291
865.349	16265
865.48	16303
865.612	16322
865.743	16291
865.875	16280
866.006	16188
866.137	16219
866.269	16272
866.4	16299
866.531	16306
866.662	16223
866.793	16268
866.924	16097
867.055	16226
867.186	16238
867.317	16207
867.448	16226
867.579	16287
867.71	16112
867.841	16143
867.972	16306
868.103	16249
868.233	16276
868.364	16306
868.495	16299
868.625	16417
868.756	16615
868.886	16421
869.017	16459
869.147	16698
869.278	16683
869.408	16504
869.539	16504
869.669	16565
869.799	16546
869.929	16721
870.06	16588
870.19	16828
870.32	16790
870.45	16847
870.58	16843
870.71	16923
870.84	16976
870.97	16938
871.1	16946
871.23	17090
871.36	17102
871.489	17090
871.619	17109
871.749	17102
871.879	17162
872.008	17132
872.138	17094
872.267	17048
872.397	16927
872.526	16915
872.656	16976
872.785	16946
872.915	17273
873.044	17239
873.173	17136
873.303	17273
873.432	17258
873.561	17265
873.69	17151
873.819	17231
873.948	17326
874.077	17292
874.206	17258
874.335	17261
874.464	17410
874.593	17467
874.722	17391
874.851	17501
874.979	17608
875.108	17562
875.237	17440
875.365	17433
875.494	17539
875.623	17512
875.751	17577
875.88	17634
876.008	17828
876.136	17809
876.265	17836
876.393	18159
876.521	18091
876.65	18152
876.778	18121
876.906	18026
877.034	18011
877.162	18167
877.29	18110
877.418	18136
877.546	18174
877.674	18209
877.802	18171
877.93	18205
878.058	18304
878.185	18289
878.313	18346
878.441	18346
878.568	18342
878.696	18574
878.824	18802
878.951	19168
879.079	19597
879.206	20180
879.333	20366
879.461	20659
879.588	21096
879.715	21112
879.842	20998
879.97	20438
880.097	19776
880.224	19339
880.351	19004
880.478	18943
880.605	18894
880.732	18776
880.859	18852
880.986	18707
881.112	18563
881.239	18418
881.366	18232
881.493	18247
881.619	18251
881.746	18285
881.872	18182
881.999	18174
882.125	18251
882.252	18224
882.378	18304
882.505	18376
882.631	18224
882.757	18098
882.883	18178
883.01	18072
883.136	18079
883.262	17965
883.388	17912
883.514	18129
883.64	18144
883.766	18034
883.892	17923
884.018	17885
884.143	18079
884.269	18205
884.395	17882
884.52	17687
884.646	17851
884.772	17657
884.897	17615
885.023	17840
885.148	17783
885.274	17779
885.399	17771
885.524	17657
885.65	17729
885.775	17665
885.9	17665
886.025	17642
886.15	17596
886.275	17444
886.4	17448
886.525	17433
886.65	17349
886.775	17330
886.9	17402
887.025	17760
887.149	17493
887.274	17098
887.399	17113
887.523	17132
887.648	16957
887.773	16938
887.897	17029
888.021	17102
888.146	17090
888.27	17102
888.395	17060
888.519	16965
888.643	17079
888.767	17029
888.891	16889
889.015	16793
889.139	16831
889.263	16691
889.387	16904
889.511	16908
889.635	16862
889.759	16729
889.883	16637
890.006	16790
890.13	16748
890.254	16535
890.377	16687
890.501	16485
890.624	16443
890.748	16577
890.871	16500
890.995	16303
891.118	16211
891.241	16295
891.364	16249
891.488	16382
891.611	16348
891.734	16246
891.857	16394
891.98	16211
892.103	16398
892.226	16344
892.349	16276
892.471	16124
892.594	16268
892.717	16352
892.839	16177
892.962	16188
893.085	16246
893.207	16207
893.33	16173
893.452	16105
893.575	16242
893.697	16211
893.819	16379
893.941	16466
894.064	16314
894.186	16143
894.308	16147
894.43	16348
894.552	16356
894.674	16265
894.796	16090
894.918	16177
895.04	16097
895.161	16318
895.283	16295
895.405	16139
895.526	16276
895.648	16211
895.769	16276
895.891	16215
896.012	16299
896.134	16234
896.255	16223
896.376	16284
896.498	16375
896.619	16402
896.74	16238
896.861	16291
896.982	16519
897.103	16713
897.224	16622
897.345	16440
897.466	16481
897.587	16527
897.708	16561
897.828	16577
897.949	16535
898.07	16424
898.19	16394
898.311	16637
898.431	16588
898.552	16615
898.672	16668
898.792	16641
898.913	16535
899.033	16478
899.153	16348
899.273	16333
899.393	16402
899.513	16352
899.633	16447
899.753	16360
899.873	16436
899.993	16508
900.113	16424
900.232	16504
900.352	16386
900.472	16402
900.591	16238
900.711	16303
900.83	16200
900.95	16356
901.069	16306
901.189	16192
901.308	15918
901.427	15846
901.546	15873
901.665	15869
901.784	15979
901.904	15778
902.023	15652
902.141	15424
902.26	15458
902.379	15481
902.498	15313
902.617	15306
902.735	15439
902.854	15435
902.973	15306
903.091	15146
903.21	15108
903.328	15013
903.446	14910
903.565	14914
903.683	14975
903.801	14701
903.919	14883
904.038	14853
904.156	14625
904.274	14697
904.392	14678
904.51	14701
904.627	14667
904.745	14625
904.863	14727
904.981	14488
905.098	14248
905.216	14290
905.334	14396
905.451	14412
905.569	14374
905.686	14370
905.803	14263
905.921	14058
906.038	14259
906.155	14187
906.272	14050
906.389	14084
906.506	13875
906.623	13875
906.74	13864
906.857	13753
906.974	13818
907.091	13883
907.208	14024
907.324	13883
907.441	13776
907.557	13632
907.674	13616
907.79	13563
907.907	13563
908.023	13571
908.139	13597
908.256	13575
908.372	13502
908.488	13480
908.604	13339
908.72	13335
908.836	13369
908.952	13236
909.068	13278
909.184	13388
909.3	13297
909.415	13346
909.531	13274
909.647	13114
909.762	13065
909.878	13084
909.993	13042
910.108	13061
910.224	13012
910.339	13050
910.454	12985
910.57	12905
910.685	12738
910.8	13137
910.915	13114
911.03	12840
911.145	12639
911.259	12681
911.374	12703
911.489	12681
911.604	12551
911.718	12490
911.833	12422
911.947	12448
912.062	12376
912.176	12452
912.291	12388
912.405	12437
912.519	12604
912.633	12582
912.748	12544
912.862	12475
912.976	12270
913.09	12205
913.204	12285
913.318	12330
913.431	12403
913.545	12372
913.659	12376
913.772	12247
913.886	12167
914	12121
914.113	12235
914.226	12391
914.34	12201
914.453	12125
914.566	12243
914.68	12091
914.793	12152
914.906	11946
915.019	11965
915.132	11882
915.245	11904
915.358	11958
915.47	11950
915.583	11916
915.696	11946
915.809	12117
915.921	12068
916.034	11863
916.146	11920
916.259	11779
916.371	11931
916.483	11931
916.595	11733
916.708	11851
916.82	11794
916.932	11809
917.044	11767
917.156	11752
917.268	11619
917.38	11646
917.491	11638
917.603	11745
917.715	11684
917.826	11783
917.938	11634
918.049	11558
918.161	11699
918.272	11832
918.384	11859
918.495	11748
918.606	11570
918.717	11516
918.828	11562
918.939	11501
919.05	11395
919.161	11459
919.272	11376
919.383	11376
919.494	11478
919.604	11790
919.715	11440
919.826	11383
919.936	11493
920.047	11596
920.157	11551
920.267	11764
920.378	11592
920.488	11395
920.598	11741
920.708	11885
920.818	11688
920.928	11665
921.038	11741
921.148	11874
921.258	11528
921.368	11444
921.477	11345
921.587	11330
921.697	11220
921.806	11334
921.916	11197
922.025	11094
922.134	11056
922.244	11037
922.353	11018
922.462	10873
922.571	10850
922.68	10672
922.789	10668
922.898	10622
923.007	10618
923.116	10683
923.224	10733
923.333	10668
923.442	10527
923.55	10527
923.659	10637
923.767	10607
923.876	10432
923.984	10675
924.092	10451
924.201	10558
924.309	10512
924.417	10649
924.525	10413
924.633	10519
924.741	11258
924.849	10253
924.956	10451
925.064	10234
925.172	10185
925.279	10234
925.387	10268
925.494	10325
925.602	10333
925.709	10276
925.816	10223
925.924	10295
926.031	10394
926.138	10219
926.245	10375
926.352	10173
926.459	10284
926.566	10367
926.673	10314
926.779	10162
926.886	10196
926.993	9941
927.099	9998
927.206	9907
927.312	9907
927.419	9934
927.525	9899
927.631	9972
927.737	9876
927.843	9816
927.95	9724
928.056	9755
928.162	9804
928.267	9918
928.373	10436
928.479	9975
928.585	9644
928.69	9808
928.796	9911
928.901	9823
929.007	9591
929.112	9701
929.218	9660
929.323	9633
929.428	9614
929.533	9804
929.638	9511
929.743	9618
929.848	9587
929.953	9584
930.058	9515
930.163	9386
930.267	9408
930.372	9545
930.477	9313
930.581	9610
930.685	9424
930.79	9325
930.894	9275
930.998	9279
931.103	9416
931.207	9089
931.311	9028
931.415	8876
931.519	8842
931.623	8743
