Data from test_V78500241_1859.txt Node
Date: Fri Mar 25 14:46:39 CST 2022
User: usil
Spectrometer: V785-0024
Trigger mode: 0
Integration Time (sec): 4.000000E-1
Scans to average: 1
Nonlinearity correction enabled: false
Boxcar width: 0
Storing dark spectrum: false
XAxis mode: Wavelengths
Number of Pixels in Spectrum: 1024
>>>>>Begin Spectral Data<<<<<
801.071	22268
801.214	22078
801.356	21842
801.499	21618
801.641	21629
801.783	21485
801.926	21439
802.068	21477
802.211	21386
802.353	21344
802.496	20933
802.638	21070
802.78	20887
802.923	20857
803.065	20845
803.208	20880
803.35	20777
803.492	20963
803.635	20990
803.777	20823
803.919	20979
804.061	21188
804.204	20963
804.346	20716
804.488	20735
804.63	20849
804.773	20716
804.915	20781
805.057	20910
805.199	20754
805.341	20963
805.483	20921
805.626	20921
805.768	20689
805.91	20838
806.052	20868
806.194	20720
806.336	20838
806.478	20762
806.62	20697
806.762	20811
806.904	21081
807.046	21173
807.188	21077
807.33	21131
807.472	21142
807.614	21020
807.756	20925
807.898	20887
808.04	20754
808.182	20838
808.324	20861
808.465	20807
808.607	21020
808.749	21222
808.891	21214
809.033	21412
809.174	21237
809.316	21184
809.458	21146
809.6	21036
809.741	21218
809.883	21195
810.025	21488
810.166	21351
810.308	21260
810.45	21203
810.591	21138
810.733	20944
810.875	20925
811.016	20800
811.158	20773
811.299	20872
811.441	21009
811.582	21001
811.724	20982
811.865	20788
812.007	20876
812.148	20956
812.29	20910
812.431	21249
812.573	21272
812.714	21192
812.855	21424
812.997	21583
813.138	21660
813.279	21587
813.421	21466
813.562	21264
813.703	21161
813.845	21058
813.986	20857
814.127	20617
814.268	20514
814.41	20461
814.551	20442
814.692	20514
814.833	20336
814.974	20385
815.115	20484
815.256	20332
815.397	20195
815.539	20355
815.68	20351
815.821	20199
815.962	20142
816.103	20195
816.244	20020
816.385	19883
816.526	19887
816.666	19742
816.807	19495
816.948	19677
817.089	19723
817.23	19788
817.371	19605
817.512	19632
817.653	19487
817.793	19666
817.934	19628
818.075	19613
818.216	19609
818.356	19480
818.497	19392
818.638	19270
818.778	19365
818.919	19358
819.06	19301
819.2	19460
819.341	19449
819.481	19510
819.622	19537
819.762	19795
819.903	19727
820.043	19518
820.184	19658
820.324	19635
820.465	19632
820.605	19635
820.746	19521
820.886	19480
821.026	19601
821.167	19495
821.307	19696
821.447	19476
821.588	19403
821.728	19247
821.868	19148
822.008	18989
822.149	18993
822.289	18932
822.429	18783
822.569	18753
822.709	18722
822.849	18574
822.99	18475
823.13	18327
823.27	18346
823.41	18304
823.55	18273
823.69	18361
823.83	18369
823.97	18194
824.11	18125
824.25	17977
824.389	18098
824.529	18239
824.669	18060
824.809	18201
824.949	18174
825.089	18140
825.228	18064
825.368	17840
825.508	17843
825.648	17798
825.787	17912
825.927	17851
826.067	17722
826.206	17859
826.346	17840
826.485	17824
826.625	17745
826.765	17946
826.904	17798
827.044	17649
827.183	17657
827.323	17486
827.462	17657
827.601	17482
827.741	17547
827.88	17585
828.02	17471
828.159	17551
828.298	17486
828.437	17573
828.577	17520
828.716	17665
828.855	17524
828.994	17349
829.134	17227
829.273	17379
829.412	17159
829.551	17246
829.69	17318
829.829	17311
829.968	17398
830.107	17296
830.246	17204
830.385	17235
830.524	17189
830.663	17083
830.802	16908
830.941	16889
831.08	16927
831.219	16957
831.357	16995
831.496	17113
831.635	16889
831.774	16854
831.913	16816
832.051	16736
832.19	16664
832.329	16710
832.467	16599
832.606	16542
832.744	16470
832.883	16512
833.022	16596
833.16	16592
833.299	16603
833.437	16649
833.576	16698
833.714	16584
833.852	16809
833.991	16694
834.129	16778
834.267	16729
834.406	16694
834.544	16702
834.682	16748
834.821	16660
834.959	16854
835.097	16649
835.235	16653
835.373	16733
835.511	16603
835.65	16573
835.788	16603
835.926	16413
836.064	16428
836.202	16379
836.34	16558
836.478	16653
836.615	16565
836.753	16691
836.891	16599
837.029	16554
837.167	16466
837.305	16561
837.443	16409
837.58	16341
837.718	16485
837.856	16440
837.993	16371
838.131	16390
838.269	16390
838.406	16405
838.544	16375
838.681	16139
838.819	16082
838.956	16010
839.094	15998
839.231	16002
839.369	16173
839.506	16314
839.643	16109
839.781	16071
839.918	15926
840.055	16040
840.193	15918
840.33	15960
840.467	15991
840.604	16032
840.742	16230
840.879	15732
841.016	15854
841.153	15930
841.29	16109
841.427	16013
841.564	16055
841.701	16059
841.838	15934
841.975	15842
842.112	15934
842.249	15892
842.385	15846
842.522	15945
842.659	15812
842.796	15804
842.933	15861
843.069	15720
843.206	15778
843.343	15812
843.479	15705
843.616	15888
843.752	15587
843.889	15641
844.025	15606
844.162	15496
844.298	15641
844.435	15580
844.571	15473
844.708	15656
844.844	15781
844.98	15732
845.117	15648
845.253	15568
845.389	15355
845.525	15526
845.661	15431
845.798	15428
845.934	15351
846.07	15332
846.206	15344
846.342	15450
846.478	15344
846.614	15127
846.75	15074
846.886	15077
847.022	15188
847.158	15169
847.294	15233
847.429	15161
847.565	15142
847.701	15317
847.837	14796
847.972	14765
848.108	14982
848.244	14933
848.379	14754
848.515	14701
848.65	14644
848.786	14724
848.921	14826
849.057	14830
849.192	14883
849.328	14743
849.463	14781
849.598	14640
849.734	14606
849.869	14644
850.004	14457
850.14	14587
850.275	14526
850.41	14442
850.545	14465
850.68	14537
850.815	14541
850.95	14537
851.085	14655
851.22	14545
851.355	14374
851.49	14442
851.625	14431
851.76	14438
851.895	14465
852.03	14355
852.165	14400
852.299	14469
852.434	14644
852.569	14587
852.703	14537
852.838	14507
852.973	14610
853.107	14594
853.242	14484
853.376	14320
853.511	14290
853.645	14381
853.78	14511
853.914	14336
854.048	14328
854.183	14252
854.317	14415
854.451	14450
854.585	14294
854.72	14351
854.854	14473
854.988	14324
855.122	14233
855.256	14202
855.39	14347
855.524	14473
855.658	14396
855.792	14385
855.926	14484
856.06	14370
856.194	14476
856.327	14317
856.461	14275
856.595	14347
856.729	14438
856.862	14442
856.996	14400
857.13	14492
857.263	14431
857.397	14590
857.53	14389
857.664	14347
857.797	14438
857.931	14492
858.064	14396
858.197	14419
858.331	14313
858.464	14294
858.597	14244
858.731	14332
858.864	14309
858.997	14343
859.13	14419
859.263	14374
859.396	14393
859.529	14309
859.662	14324
859.795	14320
859.928	14438
860.061	14454
860.194	14579
860.327	14358
860.46	14336
860.592	14400
860.725	14450
860.858	14488
860.99	14298
861.123	14355
861.256	14298
861.388	14286
861.521	15081
861.653	14282
861.786	14210
861.918	14218
862.05	14259
862.183	14267
862.315	14351
862.447	14400
862.58	14301
862.712	14126
862.844	14145
862.976	14161
863.108	14130
863.24	14393
863.372	14092
863.504	14111
863.636	14176
863.768	14172
863.9	14077
864.032	14092
864.164	14126
864.296	14233
864.428	14332
864.559	14153
864.691	14248
864.823	14111
864.954	14202
865.086	14107
865.217	14157
865.349	14062
865.48	14176
865.612	14172
865.743	14286
865.875	14142
866.006	14100
866.137	14092
866.269	14142
866.4	14157
866.531	14130
866.662	14050
866.793	14145
866.924	14168
867.055	14126
867.186	14103
867.317	14168
867.448	14069
867.579	14084
867.71	14096
867.841	14123
867.972	14092
868.103	14081
868.233	14119
868.364	14115
868.495	14267
868.625	14374
868.756	14427
868.886	14339
869.017	14271
869.147	14545
869.278	14480
869.408	14370
869.539	14290
869.669	14503
869.799	14492
869.929	14438
870.06	14526
870.19	14621
870.32	14670
870.45	14792
870.58	14762
870.71	14899
870.84	14895
870.97	14804
871.1	14834
871.23	15047
871.36	14963
871.489	14864
871.619	14864
871.749	15055
871.879	14982
872.008	15112
872.138	14975
872.267	14979
872.397	14838
872.526	14773
872.656	14750
872.785	14929
872.915	14967
873.044	15043
873.173	14994
873.303	14979
873.432	15138
873.561	15188
873.69	15058
873.819	14986
873.948	15066
874.077	15058
874.206	15013
874.335	15017
874.464	15199
874.593	15405
874.722	15218
874.851	15302
874.979	15279
875.108	15279
875.237	15291
875.365	15199
875.494	15416
875.623	15420
875.751	15306
875.88	15386
876.008	15584
876.136	15538
876.265	15732
876.393	15987
876.521	15895
876.65	15781
876.778	15812
876.906	15675
877.034	15682
877.162	15625
877.29	15671
877.418	15641
877.546	15819
877.674	15838
877.802	15762
877.93	15793
878.058	15671
878.185	15720
878.313	15762
878.441	15690
878.568	15637
878.696	15709
878.824	15930
878.951	15789
879.079	15953
879.206	16116
879.333	15922
879.461	15812
879.588	15922
879.715	15869
879.842	15956
879.97	15865
880.097	15610
880.224	15504
880.351	15576
880.478	15622
880.605	15671
880.732	15660
880.859	15880
880.986	15625
881.112	15614
881.239	15473
881.366	15485
881.493	15359
881.619	15230
881.746	15150
881.872	15161
881.999	15249
882.125	15279
882.252	15260
882.378	15249
882.505	15386
882.631	15344
882.757	15020
882.883	15100
883.01	15028
883.136	14929
883.262	14963
883.388	14895
883.514	15097
883.64	15199
883.766	15001
883.892	14872
884.018	14895
884.143	15005
884.269	15169
884.395	14762
884.52	14739
884.646	14724
884.772	14735
884.897	14724
885.023	14655
885.148	14929
885.274	14925
885.399	14861
885.524	14796
885.65	14746
885.775	14762
885.9	14819
886.025	14910
886.15	14842
886.275	14765
886.4	14697
886.525	14769
886.65	14758
886.775	14712
886.9	14899
887.025	15097
887.149	14842
887.274	14636
887.399	14530
887.523	14590
887.648	14594
887.773	14541
887.897	14727
888.021	14716
888.146	14541
888.27	14689
888.395	14735
888.519	14644
888.643	14727
888.767	14826
888.891	14617
889.015	14503
889.139	14560
889.263	14393
889.387	14610
889.511	14613
889.635	14564
889.759	14537
889.883	14438
890.006	14499
890.13	14564
890.254	14415
890.377	14374
890.501	14248
890.624	14320
890.748	14313
890.871	14172
890.995	14183
891.118	14077
891.241	14161
891.364	14100
891.488	14191
891.611	14164
891.734	14164
891.857	14313
891.98	14172
892.103	14252
892.226	14240
892.349	14081
892.471	13970
892.594	14107
892.717	14248
892.839	14115
892.962	14168
893.085	14187
893.207	14195
893.33	13967
893.452	14092
893.575	14244
893.697	14153
893.819	14385
893.941	14374
894.064	14225
894.186	14153
894.308	14134
894.43	14256
894.552	14332
894.674	14286
894.796	14187
894.918	14332
895.04	14214
895.161	14263
895.283	14290
895.405	14126
895.526	14244
895.648	14237
895.769	14336
895.891	14328
896.012	14355
896.134	14385
896.255	14324
896.376	14233
896.498	14400
896.619	14457
896.74	14415
896.861	14442
896.982	14682
897.103	14811
897.224	14613
897.345	14613
897.466	14488
897.587	14693
897.708	14724
897.828	14610
897.949	14613
898.07	14415
898.19	14587
898.311	14739
898.431	14575
898.552	14613
898.672	14758
898.792	14705
898.913	14701
899.033	14541
899.153	14526
899.273	14374
899.393	14556
899.513	14556
899.633	14507
899.753	14545
899.873	14503
899.993	14590
900.113	14590
900.232	14507
900.352	14606
900.472	14408
900.591	14374
900.711	14454
900.83	14366
900.95	14549
901.069	14541
901.189	14328
901.308	14100
901.427	14012
901.546	14069
901.665	14077
901.784	14103
901.904	13986
902.023	13841
902.141	13734
902.26	13613
902.379	13677
902.498	13719
902.617	13590
902.735	13727
902.854	13529
902.973	13491
903.091	13407
903.21	13247
903.328	13320
903.446	13244
903.565	13202
903.683	13122
903.801	13149
903.919	13107
904.038	13263
904.156	13088
904.274	13091
904.392	13019
904.51	13015
904.627	12966
904.745	13004
904.863	13015
904.981	12867
905.098	12692
905.216	12745
905.334	12776
905.451	12719
905.569	12711
905.686	12654
905.803	12738
905.921	12490
906.038	12646
906.155	12509
906.272	12448
906.389	12509
906.506	12395
906.623	12292
906.74	12273
906.857	12224
906.974	12273
907.091	12273
907.208	12403
907.324	12357
907.441	12178
907.557	12102
907.674	12079
907.79	11954
907.907	12057
908.023	12175
908.139	11984
908.256	11950
908.372	11996
908.488	11984
908.604	11832
908.72	11729
908.836	11798
908.952	11798
909.068	11885
909.184	11893
909.3	11794
909.415	11912
909.531	11767
909.647	11547
909.762	11608
909.878	11497
909.993	11604
910.108	11528
910.224	11509
910.339	11634
910.454	11471
910.57	11425
910.685	11429
910.8	11672
910.915	11649
911.03	11433
911.145	11284
911.259	11258
911.374	11258
911.489	11239
911.604	11121
911.718	11094
911.833	11121
911.947	10961
912.062	10839
912.176	11041
912.291	11064
912.405	11029
912.519	11132
912.633	11258
912.748	11052
912.862	11124
912.976	10885
913.09	10748
913.204	10877
913.318	10908
913.431	10987
913.545	11029
913.659	11056
913.772	10911
913.886	10771
914	10721
914.113	10873
914.226	10911
914.34	10873
914.453	10733
914.566	10816
914.68	10733
914.793	10778
914.906	10565
915.019	10474
915.132	10436
915.245	10603
915.358	10519
915.47	10546
915.583	10630
915.696	10523
915.809	10710
915.921	10641
916.034	10523
916.146	10451
916.259	10481
916.371	10523
916.483	10542
916.595	10386
916.708	10527
916.82	10481
916.932	10421
917.044	10466
917.156	10459
917.268	10344
917.38	10341
917.491	10348
917.603	10417
917.715	10451
917.826	10558
917.938	10276
918.049	10253
918.161	10306
918.272	10440
918.384	10459
918.495	10478
918.606	10246
918.717	10158
918.828	10204
918.939	10329
919.05	10078
919.161	10150
919.272	10044
919.383	10112
919.494	10352
919.604	10451
919.715	10268
919.826	10124
919.936	10230
920.047	10341
920.157	10223
920.267	10459
920.378	10234
920.488	10200
920.598	10409
920.708	10615
920.818	10398
920.928	10470
921.038	10622
921.148	10592
921.258	10333
921.368	10295
921.477	10139
921.587	10063
921.697	9945
921.806	10101
921.916	9983
922.025	9850
922.134	9812
922.244	9705
922.353	9865
922.462	9717
922.571	9679
922.68	9542
922.789	9507
922.898	9511
923.007	9447
923.116	9553
923.224	9443
923.333	9523
923.442	9363
923.55	9397
923.659	9466
923.767	9435
923.876	9367
923.984	9431
924.092	9370
924.201	9378
924.309	9401
924.417	9435
924.525	9321
924.633	9351
924.741	10238
924.849	9214
924.956	9291
925.064	9157
925.172	9024
925.279	9070
925.387	9116
925.494	9131
925.602	9283
925.709	9237
925.816	9173
925.924	9104
926.031	9173
926.138	9157
926.245	9165
926.352	9070
926.459	9222
926.566	9321
926.673	9077
926.779	8982
926.886	8979
926.993	8876
927.099	8902
927.206	8804
927.312	8864
927.419	8963
927.525	8807
927.631	8857
927.737	8819
927.843	8750
927.95	8587
928.056	8769
928.162	8811
928.267	8830
928.373	9279
928.479	8918
928.585	8617
928.69	8826
928.796	8807
928.901	8693
929.007	8511
929.112	8754
929.218	8644
929.323	8598
929.428	8552
929.533	8727
929.638	8514
929.743	8621
929.848	8594
929.953	8522
930.058	8457
930.163	8339
930.267	8374
930.372	8541
930.477	8317
930.581	8560
930.685	8427
930.79	8298
930.894	8298
930.998	8347
931.103	8389
931.207	8096
931.311	8046
931.415	7936
931.519	7803
931.623	7792
