Data from test_V78500241_900.txt Node
Date: Fri Mar 25 14:39:59 CST 2022
User: usil
Spectrometer: V785-0024
Trigger mode: 0
Integration Time (sec): 4.000000E-1
Scans to average: 1
Nonlinearity correction enabled: false
Boxcar width: 0
Storing dark spectrum: false
XAxis mode: Wavelengths
Number of Pixels in Spectrum: 1024
>>>>>Begin Spectral Data<<<<<
801.071	25198
801.214	24935
801.356	24623
801.499	24597
801.641	24490
801.783	24498
801.926	24369
802.068	24429
802.211	24266
802.353	24159
802.496	24015
802.638	23965
802.78	23927
802.923	23885
803.065	23775
803.208	23707
803.35	23680
803.492	23817
803.635	23870
803.777	23779
803.919	23897
804.061	24209
804.204	23935
804.346	23809
804.488	23783
804.63	23840
804.773	23687
804.915	23760
805.057	23893
805.199	23824
805.341	23977
805.483	23999
805.626	24060
805.768	23798
805.91	23920
806.052	23843
806.194	23973
806.336	24129
806.478	24106
806.62	24121
806.762	24304
806.904	24589
807.046	24669
807.188	24787
807.33	24848
807.472	24928
807.614	25034
807.756	25434
807.898	25468
808.04	25731
808.182	26286
808.324	26849
808.465	27386
808.607	28124
808.749	28961
808.891	29448
809.033	29341
809.174	29090
809.316	28284
809.458	27599
809.6	26830
809.741	26415
809.883	25799
810.025	25662
810.166	25426
810.308	25247
810.45	25179
810.591	24890
810.733	24559
810.875	24467
811.016	24380
811.158	24346
811.299	24388
811.441	24399
811.582	24505
811.724	24152
811.865	24171
812.007	24171
812.148	24224
812.29	24209
812.431	24247
812.573	24445
812.714	24536
812.855	24616
812.997	24658
813.138	24825
813.279	24715
813.421	24684
813.562	24517
813.703	24254
813.845	24190
813.986	23882
814.127	23726
814.268	23691
814.41	23722
814.551	23619
814.692	23611
814.833	23589
814.974	23425
815.115	23539
815.256	23341
815.397	23444
815.539	23356
815.68	23185
815.821	23296
815.962	23254
816.103	23288
816.244	23090
816.385	23025
816.526	22987
816.666	22809
816.807	22706
816.948	22774
817.089	22687
817.23	22630
817.371	22713
817.512	22641
817.653	22557
817.793	22531
817.934	22637
818.075	22679
818.216	22577
818.356	22618
818.497	22508
818.638	22284
818.778	22272
818.919	22261
819.06	22405
819.2	22417
819.341	22481
819.481	22660
819.622	22641
819.762	22793
819.903	22755
820.043	22656
820.184	22516
820.324	22557
820.465	22622
820.605	22630
820.746	22603
820.886	22497
821.026	22523
821.167	22599
821.307	22531
821.447	22375
821.588	22246
821.728	22253
821.868	22097
822.008	21823
822.149	21987
822.289	21937
822.429	21785
822.569	21469
822.709	21644
822.849	21378
822.99	21378
823.13	21401
823.27	21310
823.41	21188
823.55	21096
823.69	21207
823.83	21066
823.97	21138
824.11	20979
824.25	20804
824.389	20891
824.529	20925
824.669	20876
824.809	20982
824.949	21055
825.089	21032
825.228	21001
825.368	20830
825.508	20769
825.648	20807
825.787	20880
825.927	20746
826.067	20689
826.206	20705
826.346	20716
826.485	20682
826.625	20670
826.765	20811
826.904	20659
827.044	20423
827.183	20385
827.323	20244
827.462	20442
827.601	20389
827.741	20313
827.88	20412
828.02	20161
828.159	20355
828.298	20351
828.437	20442
828.577	20130
828.716	20419
828.855	20282
828.994	20138
829.134	20054
829.273	20134
829.412	20062
829.551	19887
829.69	20149
829.829	20096
829.968	20164
830.107	20039
830.246	20077
830.385	20039
830.524	19932
830.663	19788
830.802	19780
830.941	19578
831.08	19613
831.219	19700
831.357	19597
831.496	20001
831.635	19616
831.774	19411
831.913	19457
832.051	19449
832.19	19449
832.329	19422
832.467	19426
832.606	19396
832.744	19400
832.883	19320
833.022	19457
833.16	19365
833.299	19499
833.437	19499
833.576	19491
833.714	19563
833.852	19578
833.991	19704
834.129	19700
834.267	19746
834.406	19658
834.544	19582
834.682	19495
834.821	19476
834.959	19624
835.097	19354
835.235	19521
835.373	19537
835.511	19415
835.65	19316
835.788	19274
835.926	18996
836.064	19084
836.202	19114
836.34	19251
836.478	19278
836.615	19141
836.753	19270
836.891	19240
837.029	19362
837.167	19198
837.305	19168
837.443	19156
837.58	18989
837.718	19107
837.856	18916
837.993	18993
838.131	19065
838.269	18939
838.406	18825
838.544	18905
838.681	18612
838.819	18574
838.956	18486
839.094	18570
839.231	18585
839.369	18574
839.506	18875
839.643	18646
839.781	18399
839.918	18422
840.055	18547
840.193	18369
840.33	18388
840.467	18452
840.604	18483
840.742	18669
840.879	18410
841.016	18357
841.153	18418
841.29	18486
841.427	18521
841.564	18448
841.701	18452
841.838	18323
841.975	18289
842.112	18357
842.249	18216
842.385	18243
842.522	18429
842.659	18277
842.796	18182
842.933	18235
843.069	18110
843.206	18125
843.343	18247
843.479	18270
843.616	18220
843.752	17889
843.889	17958
844.025	18140
844.162	18026
844.298	18159
844.435	18068
844.571	18114
844.708	18239
844.844	18334
844.98	18498
845.117	18677
845.253	18646
845.389	19012
845.525	19674
845.661	20914
845.798	22306
845.934	23520
846.07	23798
846.206	23885
846.342	23117
846.478	21424
846.614	19997
846.75	18909
846.886	18494
847.022	18213
847.158	18030
847.294	17840
847.429	17752
847.565	17672
847.701	17939
847.837	17299
847.972	17273
848.108	17368
848.244	17387
848.379	17204
848.515	17193
848.65	17181
848.786	17261
848.921	17067
849.057	17368
849.192	17258
849.328	17162
849.463	17143
849.598	17067
849.734	17067
849.869	16938
850.004	16927
850.14	16892
850.275	16919
850.41	16668
850.545	16881
850.68	16824
850.815	16889
850.95	16862
851.085	17029
851.22	16896
851.355	16946
851.49	16900
851.625	16790
851.76	16752
851.895	16744
852.03	16771
852.165	16847
852.299	16911
852.434	16961
852.569	16881
852.703	16961
852.838	16862
852.973	17006
853.107	17014
853.242	16809
853.376	16752
853.511	16706
853.645	16656
853.78	16873
853.914	16805
854.048	16900
854.183	16752
854.317	16835
854.451	17018
854.585	16668
854.72	16725
854.854	16786
854.988	16748
855.122	16653
855.256	16603
855.39	16748
855.524	16820
855.658	16767
855.792	16725
855.926	16733
856.06	16744
856.194	16763
856.327	16755
856.461	16679
856.595	16649
856.729	16626
856.862	16786
856.996	16710
857.13	16790
857.263	16717
857.397	16831
857.53	16675
857.664	16767
857.797	16702
857.931	16733
858.064	16596
858.197	16706
858.331	16653
858.464	16577
858.597	16523
858.731	16656
858.864	16538
858.997	16618
859.13	16554
859.263	16607
859.396	16767
859.529	16584
859.662	16535
859.795	16641
859.928	16561
860.061	16675
860.194	16847
860.327	16637
860.46	16573
860.592	16668
860.725	16721
860.858	16771
860.99	16687
861.123	16584
861.256	16558
861.388	16634
861.521	17155
861.653	16512
861.786	16512
861.918	16512
862.05	16535
862.183	16637
862.315	16641
862.447	16641
862.58	16542
862.712	16466
862.844	16325
862.976	16508
863.108	16459
863.24	16774
863.372	16257
863.504	16341
863.636	16428
863.768	16360
863.9	16386
864.032	16196
864.164	16417
864.296	16337
864.428	16512
864.559	16443
864.691	16428
864.823	16379
864.954	16333
865.086	16318
865.217	16344
865.349	16211
865.48	16310
865.612	16337
865.743	16451
865.875	16356
866.006	16356
866.137	16390
866.269	16272
866.4	16287
866.531	16253
866.662	16188
866.793	16223
866.924	16329
867.055	16348
867.186	16291
867.317	16253
867.448	16139
867.579	16295
867.71	16226
867.841	16135
867.972	16318
868.103	16280
868.233	16295
868.364	16287
868.495	16394
868.625	16523
868.756	16588
868.886	16402
869.017	16470
869.147	16660
869.278	16611
869.408	16531
869.539	16599
869.669	16630
869.799	16592
869.929	16748
870.06	16618
870.19	16900
870.32	16839
870.45	16869
870.58	16885
870.71	17048
870.84	17060
870.97	17014
871.1	16877
871.23	17136
871.36	17140
871.489	16934
871.619	17022
871.749	17121
871.879	17109
872.008	17204
872.138	17151
872.267	17151
872.397	17109
872.526	16946
872.656	17140
872.785	17079
872.915	17128
873.044	17204
873.173	17155
873.303	17208
873.432	17223
873.561	17395
873.69	17356
873.819	17254
873.948	17349
874.077	17265
874.206	17242
874.335	17227
874.464	17349
874.593	17520
874.722	17425
874.851	17547
874.979	17509
875.108	17630
875.237	17543
875.365	17463
875.494	17566
875.623	17745
875.751	17627
875.88	17703
876.008	17745
876.136	17889
876.265	18049
876.393	18209
876.521	18152
876.65	18197
876.778	18034
876.906	18117
877.034	18102
877.162	18121
877.29	18068
877.418	18216
877.546	18174
877.674	18106
877.802	18174
877.93	18247
878.058	18232
878.185	18251
878.313	18395
878.441	18467
878.568	18292
878.696	18620
878.824	18878
878.951	19072
879.079	19552
879.206	20081
879.333	20434
879.461	20823
879.588	21104
879.715	21237
879.842	21039
879.97	20324
880.097	19753
880.224	19480
880.351	19122
880.478	19050
880.605	18844
880.732	18700
880.859	18863
880.986	18597
881.112	18593
881.239	18498
881.366	18350
881.493	18095
881.619	18251
881.746	18190
881.872	18273
881.999	18110
882.125	18197
882.252	18338
882.378	18315
882.505	18391
882.631	18251
882.757	18163
882.883	18197
883.01	18235
883.136	18114
883.262	17874
883.388	17935
883.514	18053
883.64	18079
883.766	17992
883.892	17783
884.018	17920
884.143	18053
884.269	18144
884.395	17805
884.52	17775
884.646	17783
884.772	17741
884.897	17638
885.023	17771
885.148	17897
885.274	17931
885.399	17885
885.524	17733
885.65	17589
885.775	17710
885.9	17611
886.025	17707
886.15	17661
886.275	17474
886.4	17379
886.525	17421
886.65	17467
886.775	17334
886.9	17501
887.025	17638
887.149	17322
887.274	17220
887.399	17132
887.523	17052
887.648	16995
887.773	16995
887.897	17071
888.021	17075
888.146	17006
888.27	17109
888.395	17155
888.519	17064
888.643	17060
888.767	17132
888.891	16919
889.015	16869
889.139	16767
889.263	16820
889.387	16900
889.511	17022
889.635	16938
889.759	16767
889.883	16759
890.006	16744
890.13	16839
890.254	16637
890.377	16569
890.501	16531
890.624	16432
890.748	16653
890.871	16447
890.995	16356
891.118	16280
891.241	16333
891.364	16344
891.488	16516
891.611	16367
891.734	16325
891.857	16390
891.98	16303
892.103	16443
892.226	16322
892.349	16253
892.471	16162
892.594	16204
892.717	16306
892.839	16234
892.962	16329
893.085	16352
893.207	16230
893.33	16169
893.452	16207
893.575	16253
893.697	16185
893.819	16291
893.941	16421
894.064	16470
894.186	16147
894.308	16169
894.43	16348
894.552	16367
894.674	16299
894.796	16074
894.918	16238
895.04	16181
895.161	16200
895.283	16295
895.405	16223
895.526	16150
895.648	16219
895.769	16253
895.891	16234
896.012	16390
896.134	16360
896.255	16188
896.376	16207
896.498	16314
896.619	16360
896.74	16398
896.861	16474
896.982	16607
897.103	16782
897.224	16656
897.345	16588
897.466	16546
897.587	16455
897.708	16664
897.828	16580
897.949	16405
898.07	16405
898.19	16554
898.311	16721
898.431	16569
898.552	16573
898.672	16634
898.792	16702
898.913	16630
899.033	16478
899.153	16413
899.273	16440
899.393	16375
899.513	16535
899.633	16432
899.753	16481
899.873	16268
899.993	16474
900.113	16459
900.232	16527
900.352	16478
900.472	16417
900.591	16246
900.711	16344
900.83	16242
900.95	16356
901.069	16356
901.189	16295
901.308	16059
901.427	15778
901.546	15983
901.665	15888
901.784	15930
901.904	15755
902.023	15728
902.141	15663
902.26	15473
902.379	15618
902.498	15496
902.617	15401
902.735	15401
902.854	15454
902.973	15344
903.091	15112
903.21	15138
903.328	15116
903.446	15017
903.565	14918
903.683	14910
903.801	14758
903.919	14933
904.038	14925
904.156	14785
904.274	14842
904.392	14769
904.51	14670
904.627	14629
904.745	14724
904.863	14678
904.981	14530
905.098	14434
905.216	14336
905.334	14499
905.451	14408
905.569	14336
905.686	14301
905.803	14237
905.921	14191
906.038	14202
906.155	14145
906.272	14073
906.389	14088
906.506	13936
906.623	13906
906.74	13845
906.857	13814
906.974	13826
907.091	13902
907.208	14008
907.324	13894
907.441	13837
907.557	13613
907.674	13616
907.79	13578
907.907	13556
908.023	13639
908.139	13616
908.256	13540
908.372	13441
908.488	13396
908.604	13312
908.72	13274
908.836	13339
908.952	13320
909.068	13304
909.184	13419
909.3	13251
909.415	13346
909.531	13274
909.647	13114
909.762	13065
909.878	13088
909.993	13103
910.108	13057
910.224	13057
910.339	13065
910.454	13050
910.57	12916
910.685	12852
910.8	13065
910.915	13103
911.03	12928
911.145	12787
911.259	12802
911.374	12696
911.489	12700
911.604	12563
911.718	12540
911.833	12509
911.947	12395
912.062	12311
912.176	12486
912.291	12471
912.405	12388
912.519	12669
912.633	12639
912.748	12582
912.862	12509
912.976	12365
913.09	12175
913.204	12273
913.318	12369
913.431	12429
913.545	12395
913.659	12407
913.772	12281
913.886	12220
914	12186
914.113	12216
914.226	12311
914.34	12220
914.453	12098
914.566	12273
914.68	12133
914.793	12133
914.906	11889
915.019	11828
915.132	11863
915.245	11859
915.358	11889
915.47	11931
915.583	11931
915.696	11954
915.809	12041
915.921	12041
916.034	11961
916.146	11958
916.259	11836
916.371	11916
916.483	11859
916.595	11745
916.708	11809
916.82	11840
916.932	11870
917.044	11786
917.156	11771
917.268	11676
917.38	11745
917.491	11726
917.603	11741
917.715	11843
917.826	11847
917.938	11722
918.049	11592
918.161	11688
918.272	11775
918.384	11805
918.495	11691
918.606	11592
918.717	11474
918.828	11501
918.939	11505
919.05	11448
919.161	11539
919.272	11277
919.383	11452
919.494	11615
919.604	11794
919.715	11520
919.826	11429
919.936	11551
920.047	11596
920.157	11570
920.267	11741
920.378	11638
920.488	11547
920.598	11688
920.708	11741
920.818	11703
920.928	11707
921.038	11863
921.148	11809
921.258	11577
921.368	11417
921.477	11345
921.587	11277
921.697	11216
921.806	11376
921.916	11178
922.025	10987
922.134	11003
922.244	11014
922.353	11075
922.462	10835
922.571	10866
922.68	10733
922.789	10683
922.898	10702
923.007	10645
923.116	10790
923.224	10706
923.333	10626
923.442	10596
923.55	10664
923.659	10531
923.767	10687
923.876	10558
923.984	10592
924.092	10409
924.201	10527
924.309	10512
924.417	10550
924.525	10485
924.633	10558
924.741	11170
924.849	10337
924.956	10394
925.064	10379
925.172	10227
925.279	10234
925.387	10322
925.494	10329
925.602	10367
925.709	10329
925.816	10188
925.924	10207
926.031	10287
926.138	10276
926.245	10223
926.352	10196
926.459	10356
926.566	10375
926.673	10284
926.779	10109
926.886	10116
926.993	9979
927.099	9922
927.206	9911
927.312	9869
927.419	10040
927.525	9922
927.631	9987
927.737	9823
927.843	9842
927.95	9675
928.056	9838
928.162	9846
928.267	9895
928.373	10523
928.479	9880
928.585	9679
928.69	9842
928.796	9770
928.901	9709
929.007	9641
929.112	9755
929.218	9686
929.323	9633
929.428	9614
929.533	9755
929.638	9538
929.743	9637
929.848	9709
929.953	9576
930.058	9534
930.163	9317
930.267	9443
930.372	9534
930.477	9416
930.581	9614
930.685	9492
930.79	9359
930.894	9329
930.998	9264
931.103	9496
931.207	9074
931.311	9024
931.415	8990
931.519	8785
931.623	8792
