Data from test_V78500241_1310.txt Node
Date: Fri Mar 25 14:42:50 CST 2022
User: usil
Spectrometer: V785-0024
Trigger mode: 0
Integration Time (sec): 4.000000E-1
Scans to average: 1
Nonlinearity correction enabled: false
Boxcar width: 0
Storing dark spectrum: false
XAxis mode: Wavelengths
Number of Pixels in Spectrum: 1024
>>>>>Begin Spectral Data<<<<<
801.071	22428
801.214	22333
801.356	22025
801.499	22090
801.641	21827
801.783	21915
801.926	21831
802.068	21732
802.211	21595
802.353	21504
802.496	21382
802.638	21230
802.78	21412
802.923	21173
803.065	21146
803.208	21032
803.35	21146
803.492	21127
803.635	21211
803.777	21146
803.919	21165
804.061	21500
804.204	21131
804.346	21024
804.488	20960
804.63	21062
804.773	20982
804.915	20986
805.057	21184
805.199	21024
805.341	21154
805.483	21157
805.626	21154
805.768	20979
805.91	20967
806.052	21074
806.194	20868
806.336	21047
806.478	21039
806.62	20979
806.762	21154
806.904	21237
807.046	21568
807.188	21443
807.33	21370
807.472	21526
807.614	21317
807.756	21378
807.898	21302
808.04	21089
808.182	21230
808.324	21256
808.465	21218
808.607	21428
808.749	21603
808.891	21728
809.033	21827
809.174	21561
809.316	21679
809.458	21637
809.6	21473
809.741	21652
809.883	21656
810.025	21698
810.166	21682
810.308	21739
810.45	21629
810.591	21507
810.733	21435
810.875	21188
811.016	21161
811.158	21131
811.299	21302
811.441	21405
811.582	21275
811.724	21169
811.865	21195
812.007	21195
812.148	21211
812.29	21313
812.431	21359
812.573	21545
812.714	21462
812.855	21789
812.997	21800
813.138	21846
813.279	21717
813.421	21663
813.562	21732
813.703	21492
813.845	21321
813.986	21150
814.127	20933
814.268	20804
814.41	20743
814.551	20754
814.692	20906
814.833	20720
814.974	20735
815.115	20872
815.256	20537
815.397	20640
815.539	20609
815.68	20545
815.821	20461
815.962	20427
816.103	20518
816.244	20343
816.385	20278
816.526	20233
816.666	20005
816.807	19982
816.948	20016
817.089	20043
817.23	19982
817.371	19947
817.512	19906
817.653	19978
817.793	19799
817.934	19921
818.075	19974
818.216	19875
818.356	19951
818.497	19746
818.638	19582
818.778	19677
818.919	19582
819.06	19571
819.2	19662
819.341	19898
819.481	19731
819.622	19944
819.762	20077
819.903	20164
820.043	19913
820.184	19814
820.324	19982
820.465	20016
820.605	19913
820.746	20001
820.886	19693
821.026	19799
821.167	19856
821.307	19890
821.447	19837
821.588	19700
821.728	19578
821.868	19453
822.008	19346
822.149	19377
822.289	19259
822.429	19038
822.569	19038
822.709	18993
822.849	18779
822.99	18798
823.13	18867
823.27	18783
823.41	18623
823.55	18559
823.69	18616
823.83	18616
823.97	18544
824.11	18410
824.25	18357
824.389	18376
824.529	18441
824.669	18486
824.809	18418
824.949	18418
825.089	18388
825.228	18399
825.368	18228
825.508	18155
825.648	18209
825.787	18270
825.927	18201
826.067	18174
826.206	18133
826.346	18087
826.485	18266
826.625	18197
826.765	18251
826.904	18163
827.044	18155
827.183	17908
827.323	17771
827.462	17973
827.601	17832
827.741	17912
827.88	17927
828.02	17726
828.159	17809
828.298	17828
828.437	17897
828.577	17798
828.716	17992
828.855	17741
828.994	17581
829.134	17649
829.273	17589
829.412	17581
829.551	17482
829.69	17608
829.829	17490
829.968	17687
830.107	17657
830.246	17532
830.385	17444
830.524	17501
830.663	17334
830.802	17303
830.941	17166
831.08	17159
831.219	17307
831.357	17326
831.496	17520
831.635	17181
831.774	17128
831.913	17086
832.051	16934
832.19	17117
832.329	17162
832.467	16976
832.606	16850
832.744	16927
832.883	16972
833.022	16892
833.16	16911
833.299	17037
833.437	16957
833.576	17003
833.714	16919
833.852	17048
833.991	17014
834.129	17052
834.267	17048
834.406	17003
834.544	17109
834.682	17064
834.821	16896
834.959	17159
835.097	16911
835.235	17041
835.373	17067
835.511	17006
835.65	16790
835.788	16843
835.926	16729
836.064	16668
836.202	16717
836.34	16961
836.478	16961
836.615	16900
836.753	16869
836.891	16938
837.029	16885
837.167	16771
837.305	16873
837.443	16828
837.58	16698
837.718	16774
837.856	16771
837.993	16717
838.131	16755
838.269	16607
838.406	16645
838.544	16535
838.681	16504
838.819	16478
838.956	16303
839.094	16242
839.231	16325
839.369	16508
839.506	16710
839.643	16516
839.781	16318
839.918	16207
840.055	16295
840.193	16314
840.33	16352
840.467	16303
840.604	16371
840.742	16630
840.879	16150
841.016	16276
841.153	16158
841.29	16451
841.427	16219
841.564	16223
841.701	16276
841.838	16147
841.975	16135
842.112	16101
842.249	16048
842.385	16093
842.522	16265
842.659	16109
842.796	16082
842.933	16040
843.069	15953
843.206	16051
843.343	16101
843.479	16105
843.616	16105
843.752	15842
843.889	15789
844.025	16036
844.162	15808
844.298	15941
844.435	15873
844.571	15873
844.708	15994
844.844	16109
844.98	15983
845.117	16025
845.253	15865
845.389	15781
845.525	15812
845.661	15861
845.798	15816
845.934	15964
846.07	15793
846.206	15865
846.342	16067
846.478	15751
846.614	15584
846.75	15500
846.886	15393
847.022	15614
847.158	15447
847.294	15500
847.429	15545
847.565	15302
847.701	15580
847.837	15081
847.972	15055
848.108	15241
848.244	15203
848.379	15047
848.515	15169
848.65	15058
848.786	15017
848.921	14994
849.057	15142
849.192	15116
849.328	15116
849.463	15032
849.598	14979
849.734	14811
849.869	14880
850.004	14823
850.14	14948
850.275	14758
850.41	14724
850.545	14644
850.68	14796
850.815	14697
850.95	14788
851.085	14880
851.22	14914
851.355	14883
851.49	14792
851.625	14754
851.76	14682
851.895	14686
852.03	14746
852.165	14777
852.299	14811
852.434	14811
852.569	14857
852.703	14750
852.838	14941
852.973	14880
853.107	14948
853.242	14708
853.376	14689
853.511	14610
853.645	14590
853.78	14758
853.914	14655
854.048	14701
854.183	14636
854.317	14659
854.451	14781
854.585	14697
854.72	14594
854.854	14705
854.988	14530
855.122	14552
855.256	14480
855.39	14629
855.524	14705
855.658	14678
855.792	14594
855.926	14678
856.06	14678
856.194	14769
856.327	14568
856.461	14610
856.595	14583
856.729	14648
856.862	14716
856.996	14667
857.13	14659
857.263	14811
857.397	14788
857.53	14594
857.664	14651
857.797	14762
857.931	14727
858.064	14644
858.197	14800
858.331	14564
858.464	14552
858.597	14610
858.731	14663
858.864	14663
858.997	14518
859.13	14731
859.263	14670
859.396	14701
859.529	14663
859.662	14659
859.795	14632
859.928	14701
860.061	14830
860.194	14838
860.327	14667
860.46	14663
860.592	14804
860.725	14731
860.858	14792
860.99	14670
861.123	14583
861.256	14621
861.388	14743
861.521	15374
861.653	14518
861.786	14541
861.918	14511
862.05	14568
862.183	14625
862.315	14598
862.447	14689
862.58	14514
862.712	14461
862.844	14362
862.976	14469
863.108	14419
863.24	14906
863.372	14301
863.504	14332
863.636	14339
863.768	14484
863.9	14488
864.032	14282
864.164	14393
864.296	14473
864.428	14556
864.559	14549
864.691	14507
864.823	14465
864.954	14408
865.086	14484
865.217	14442
865.349	14450
865.48	14393
865.612	14454
865.743	14568
865.875	14457
866.006	14393
866.137	14370
866.269	14332
866.4	14415
866.531	14324
866.662	14263
866.793	14419
866.924	14377
867.055	14381
867.186	14370
867.317	14415
867.448	14324
867.579	14317
867.71	14168
867.841	14282
867.972	14552
868.103	14381
868.233	14400
868.364	14366
868.495	14545
868.625	14708
868.756	14800
868.886	14564
869.017	14682
869.147	14876
869.278	14754
869.408	14667
869.539	14507
869.669	14735
869.799	14648
869.929	14743
870.06	14845
870.19	14994
870.32	14956
870.45	14975
870.58	15013
870.71	15123
870.84	15142
870.97	14956
871.1	15097
871.23	15268
871.36	15325
871.489	15180
871.619	15116
871.749	15367
871.879	15256
872.008	15291
872.138	15283
872.267	15188
872.397	15074
872.526	15077
872.656	15051
872.785	15089
872.915	15306
873.044	15306
873.173	15298
873.303	15306
873.432	15329
873.561	15393
873.69	15233
873.819	15355
873.948	15450
874.077	15230
874.206	15226
874.335	15256
874.464	15507
874.593	15561
874.722	15485
874.851	15637
874.979	15648
875.108	15656
875.237	15568
875.365	15584
875.494	15584
875.623	15663
875.751	15568
875.88	15728
876.008	15804
876.136	15808
876.265	15941
876.393	16131
876.521	16044
876.65	16120
876.778	15964
876.906	15941
877.034	15994
877.162	16002
877.29	15915
877.418	16044
877.546	16044
877.674	16071
877.802	15960
877.93	16032
878.058	15945
878.185	15915
878.313	16013
878.441	16013
878.568	15884
878.696	16017
878.824	16128
878.951	16158
879.079	16268
879.206	16390
879.333	16268
879.461	16093
879.588	16268
879.715	16291
879.842	16367
879.97	16192
880.097	15941
880.224	15934
880.351	15972
880.478	15911
880.605	15956
880.732	15934
880.859	16173
880.986	15991
881.112	15892
881.239	15812
881.366	15694
881.493	15549
881.619	15542
881.746	15591
881.872	15595
881.999	15469
882.125	15606
882.252	15545
882.378	15641
882.505	15682
882.631	15462
882.757	15382
882.883	15466
883.01	15435
883.136	15302
883.262	15264
883.388	15256
883.514	15374
883.64	15393
883.766	15260
883.892	15218
884.018	15283
884.143	15336
884.269	15359
884.395	15135
884.52	15108
884.646	15161
884.772	14956
884.897	14971
885.023	15127
885.148	15146
885.274	15142
885.399	15138
885.524	15173
885.65	15112
885.775	15039
885.9	15085
886.025	15165
886.15	15180
886.275	15066
886.4	14994
886.525	14994
886.65	15058
886.775	14979
886.9	15093
887.025	15344
887.149	15055
887.274	14895
887.399	14876
887.523	14800
887.648	14807
887.773	14716
887.897	14952
888.021	14861
888.146	14830
888.27	14925
888.395	15074
888.519	14967
888.643	14948
888.767	14845
888.891	14762
889.015	14731
889.139	14739
889.263	14705
889.387	14788
889.511	14941
889.635	14861
889.759	14804
889.883	14686
890.006	14800
890.13	14762
890.254	14571
890.377	14621
890.501	14495
890.624	14503
890.748	14549
890.871	14507
890.995	14423
891.118	14351
891.241	14339
891.364	14381
891.488	14492
891.611	14492
891.734	14446
891.857	14583
891.98	14419
892.103	14518
892.226	14450
892.349	14389
892.471	14267
892.594	14328
892.717	14484
892.839	14503
892.962	14431
893.085	14457
893.207	14488
893.33	14305
893.452	14457
893.575	14454
893.697	14377
893.819	14583
893.941	14495
894.064	14503
894.186	14480
894.308	14377
894.43	14488
894.552	14590
894.674	14564
894.796	14423
894.918	14518
895.04	14427
895.161	14629
895.283	14484
895.405	14446
895.526	14461
895.648	14552
895.769	14556
895.891	14613
896.012	14556
896.134	14617
896.255	14571
896.376	14552
896.498	14571
896.619	14667
896.74	14537
896.861	14606
896.982	14872
897.103	15017
897.224	14868
897.345	14891
897.466	14823
897.587	14785
897.708	15005
897.828	14876
897.949	14792
898.07	14610
898.19	14765
898.311	15032
898.431	14834
898.552	14979
898.672	14994
898.792	15017
898.913	14921
899.033	14880
899.153	14845
899.273	14762
899.393	14648
899.513	14720
899.633	14727
899.753	14796
899.873	14754
899.993	14785
900.113	14693
900.232	14804
900.352	14819
900.472	14617
900.591	14587
900.711	14682
900.83	14613
900.95	14765
901.069	14697
901.189	14522
901.308	14393
901.427	14191
901.546	14214
901.665	14374
901.784	14244
901.904	14111
902.023	14058
902.141	13909
902.26	13909
902.379	13909
902.498	13814
902.617	13852
902.735	13951
902.854	13860
902.973	13875
903.091	13601
903.21	13582
903.328	13552
903.446	13468
903.565	13415
903.683	13521
903.801	13274
903.919	13400
904.038	13434
904.156	13244
904.274	13324
904.392	13232
904.51	13187
904.627	13187
904.745	13259
904.863	13251
904.981	13046
905.098	12943
905.216	12875
905.334	12970
905.451	12939
905.569	12954
905.686	13034
905.803	12916
905.921	12715
906.038	12848
906.155	12654
906.272	12544
906.389	12627
906.506	12582
906.623	12555
906.74	12433
906.857	12334
906.974	12490
907.091	12696
907.208	12658
907.324	12555
907.441	12479
907.557	12304
907.674	12235
907.79	12254
907.907	12205
908.023	12308
908.139	12205
908.256	12243
908.372	12155
908.488	12155
908.604	12057
908.72	11984
908.836	12022
908.952	11942
909.068	12095
909.184	12053
909.3	12030
909.415	12022
909.531	12019
909.647	11863
909.762	11824
909.878	11775
909.993	11707
910.108	11760
910.224	11745
910.339	11813
910.454	11707
910.57	11608
910.685	11558
910.8	11836
910.915	11771
911.03	11718
911.145	11516
911.259	11490
911.374	11505
911.489	11444
911.604	11356
911.718	11212
911.833	11242
911.947	11166
912.062	10995
912.176	11288
912.291	11303
912.405	11227
912.519	11455
912.633	11474
912.748	11322
912.862	11193
912.976	11090
913.09	10980
913.204	11098
913.318	11098
913.431	11239
913.545	11235
913.659	11227
913.772	11098
913.886	11056
914	10908
914.113	11056
914.226	11083
914.34	10991
914.453	10991
914.566	11037
914.68	10885
914.793	10831
914.906	10771
915.019	10679
915.132	10672
915.245	10740
915.358	10786
915.47	10729
915.583	10664
915.696	10763
915.809	10839
915.921	10843
916.034	10736
916.146	10771
916.259	10675
916.371	10790
916.483	10656
916.595	10618
916.708	10664
916.82	10618
916.932	10588
917.044	10630
917.156	10569
917.268	10535
917.38	10607
917.491	10580
917.603	10485
917.715	10626
917.826	10714
917.938	10531
918.049	10421
918.161	10596
918.272	10714
918.384	10603
918.495	10607
918.606	10436
918.717	10360
918.828	10325
918.939	10440
919.05	10318
919.161	10432
919.272	10200
919.383	10238
919.494	10474
919.604	10592
919.715	10436
919.826	10337
919.936	10367
920.047	10504
920.157	10455
920.267	10603
920.378	10455
920.488	10527
920.598	10626
920.708	10771
920.818	10588
920.928	10672
921.038	10759
921.148	10748
921.258	10519
921.368	10333
921.477	10227
921.587	10287
921.697	10162
921.806	10257
921.916	10204
922.025	10032
922.134	10048
922.244	9922
922.353	10074
922.462	9831
922.571	9778
922.68	9694
922.789	9618
922.898	9686
923.007	9641
923.116	9770
923.224	9660
923.333	9572
923.442	9557
923.55	9481
923.659	9523
923.767	9587
923.876	9496
923.984	9553
924.092	9424
924.201	9519
924.309	9500
924.417	9538
924.525	9405
924.633	9477
924.741	10367
924.849	9382
924.956	9454
925.064	9260
925.172	9222
925.279	9272
925.387	9386
925.494	9363
925.602	9401
925.709	9424
925.816	9222
925.924	9321
926.031	9382
926.138	9313
926.245	9359
926.352	9264
926.459	9370
926.566	9374
926.673	9291
926.779	9165
926.886	9112
926.993	9020
927.099	9097
927.206	8990
927.312	8967
927.419	9062
927.525	9024
927.631	9085
927.737	8960
927.843	8918
927.95	8830
928.056	8857
928.162	8853
928.267	8990
928.373	9580
928.479	9058
928.585	8781
928.69	8925
928.796	8918
928.901	8796
929.007	8697
929.112	8758
929.218	8819
929.323	8644
929.428	8678
929.533	8788
929.638	8678
929.743	8720
929.848	8743
929.953	8701
930.058	8655
930.163	8484
930.267	8492
930.372	8629
930.477	8507
930.581	8796
930.685	8556
930.79	8423
930.894	8400
930.998	8434
931.103	8499
931.207	8233
931.311	8221
931.415	8149
931.519	7875
931.623	7913
