Data from test_V78500241_106.txt Node
Date: Fri Mar 25 14:34:27 CST 2022
User: usil
Spectrometer: V785-0024
Trigger mode: 0
Integration Time (sec): 4.000000E-1
Scans to average: 1
Nonlinearity correction enabled: false
Boxcar width: 0
Storing dark spectrum: false
XAxis mode: Wavelengths
Number of Pixels in Spectrum: 1024
>>>>>Begin Spectral Data<<<<<
801.071	29387
801.214	29433
801.356	29193
801.499	29060
801.641	29048
801.783	28858
801.926	28816
802.068	28866
802.211	28805
802.353	28790
802.496	28797
802.638	28839
802.78	28611
802.923	28573
803.065	28500
803.208	28679
803.35	28694
803.492	28816
803.635	28702
803.777	28790
803.919	28930
804.061	29170
804.204	28831
804.346	28816
804.488	28694
804.63	28812
804.773	28706
804.915	28888
805.057	29022
805.199	29033
805.341	29113
805.483	29159
805.626	29178
805.768	29044
805.91	29204
806.052	29315
806.194	29235
806.336	29440
806.478	29410
806.62	29528
806.762	29703
806.904	29836
807.046	30152
807.188	30136
807.33	30388
807.472	30570
807.614	30852
807.756	31099
807.898	31426
808.04	31875
808.182	32492
808.324	33595
808.465	34531
808.607	35680
808.749	36509
808.891	37217
809.033	37202
809.174	36677
809.316	35383
809.458	34379
809.6	33325
809.741	32613
809.883	31921
810.025	31453
810.166	31270
810.308	30856
810.45	30696
810.591	30498
810.733	30228
810.875	29927
811.016	29703
811.158	29653
811.299	29798
811.441	29912
811.582	29710
811.724	29646
811.865	29516
812.007	29608
812.148	29493
812.29	29516
812.431	29539
812.573	29832
812.714	29908
812.855	29946
812.997	29832
813.138	30079
813.279	30117
813.421	29927
813.562	29790
813.703	29707
813.845	29406
813.986	29083
814.127	28957
814.268	28987
814.41	28911
814.551	28782
814.692	28797
814.833	28759
814.974	28660
815.115	28752
815.256	28660
815.397	28607
815.539	28516
815.68	28660
815.821	28615
815.962	28535
816.103	28504
816.244	28428
816.385	28188
816.526	28147
816.666	28013
816.807	27895
816.948	27994
817.089	27979
817.23	27895
817.371	27873
817.512	27861
817.653	27736
817.793	27797
817.934	27922
818.075	27781
818.216	27804
818.356	27739
818.497	27644
818.638	27599
818.778	27500
818.919	27466
819.06	27663
819.2	27629
819.341	27705
819.481	27899
819.622	27960
819.762	27991
819.903	28036
820.043	27850
820.184	27873
820.324	27876
820.465	27679
820.605	27831
820.746	27762
820.886	27473
821.026	27747
821.167	27488
821.307	27823
821.447	27686
821.588	27545
821.728	27279
821.868	27207
822.008	27047
822.149	26982
822.289	27051
822.429	26845
822.569	26815
822.709	26743
822.849	26625
822.99	26476
823.13	26343
823.27	26419
823.41	26355
823.55	26229
823.69	26244
823.83	26313
823.97	26252
824.11	26153
824.25	25936
824.389	25898
824.529	26191
824.669	25966
824.809	26233
824.949	26092
825.089	26218
825.228	26100
825.368	25928
825.508	25890
825.648	25894
825.787	25917
825.927	25906
826.067	25807
826.206	25795
826.346	25947
826.485	25936
826.625	25940
826.765	25986
826.904	25909
827.044	25529
827.183	25457
827.323	25430
827.462	25537
827.601	25499
827.741	25457
827.88	25620
828.02	25396
828.159	25499
828.298	25468
828.437	25559
828.577	25358
828.716	25647
828.855	25289
828.994	25282
829.134	25187
829.273	25285
829.412	25080
829.551	25194
829.69	25137
829.829	25194
829.968	25152
830.107	25194
830.246	25225
830.385	25133
830.524	25000
830.663	25027
830.802	24943
830.941	24768
831.08	24757
831.219	24837
831.357	24776
831.496	24985
831.635	24722
831.774	24616
831.913	24681
832.051	24566
832.19	24574
832.329	24532
832.467	24544
832.606	24452
832.744	24494
832.883	24448
833.022	24414
833.16	24483
833.299	24570
833.437	24578
833.576	24700
833.714	24669
833.852	24749
833.991	25031
834.129	24928
834.267	24878
834.406	24772
834.544	24764
834.682	24654
834.821	24639
834.959	24947
835.097	24544
835.235	24566
835.373	24536
835.511	24540
835.65	24304
835.788	24247
835.926	24270
836.064	24015
836.202	24068
836.34	24243
836.478	24289
836.615	24224
836.753	24186
836.891	24304
837.029	24281
837.167	24159
837.305	24186
837.443	24140
837.58	24038
837.718	24152
837.856	24129
837.993	23988
838.131	24076
838.269	23809
838.406	23897
838.544	23752
838.681	23722
838.819	23657
838.956	23383
839.094	23402
839.231	23558
839.369	23585
839.506	23802
839.643	23646
839.781	23288
839.918	23349
840.055	23360
840.193	23444
840.33	23299
840.467	23315
840.604	23372
840.742	23642
840.879	23044
841.016	23250
841.153	23136
841.29	23471
841.427	23345
841.564	23239
841.701	23235
841.838	23277
841.975	23151
842.112	23170
842.249	23098
842.385	23025
842.522	23151
842.659	23094
842.796	23121
842.933	23014
843.069	22946
843.206	23094
843.343	23136
843.479	22987
843.616	23064
843.752	22991
843.889	22801
844.025	23064
844.162	22923
844.298	23052
844.435	22976
844.571	23029
844.708	23277
844.844	23322
844.98	23467
845.117	23794
845.253	23790
845.389	24285
845.525	25499
845.661	27230
845.798	29531
845.934	31411
846.07	32134
846.206	31704
846.342	30513
846.478	27922
846.614	26024
846.75	24540
846.886	23771
847.022	23330
847.158	23056
847.294	22634
847.429	22675
847.565	22466
847.701	22618
847.837	22105
847.972	22101
848.108	22124
848.244	22029
848.379	21964
848.515	21930
848.65	21804
848.786	21800
848.921	21800
849.057	21934
849.192	21873
849.328	21816
849.463	21823
849.598	21690
849.734	21720
849.869	21648
850.004	21583
850.14	21580
850.275	21572
850.41	21393
850.545	21507
850.68	21397
850.815	21603
850.95	21435
851.085	21720
851.22	21530
851.355	21561
851.49	21443
851.625	21332
851.76	21485
851.895	21435
852.03	21370
852.165	21393
852.299	21504
852.434	21557
852.569	21526
852.703	21515
852.838	21622
852.973	21534
853.107	21614
853.242	21416
853.376	21351
853.511	21256
853.645	21332
853.78	21576
853.914	21420
854.048	21355
854.183	21355
854.317	21424
854.451	21515
854.585	21424
854.72	21431
854.854	21389
854.988	21173
855.122	21310
855.256	21249
855.39	21283
855.524	21450
855.658	21405
855.792	21329
855.926	21321
856.06	21336
856.194	21344
856.327	21260
856.461	21291
856.595	21222
856.729	21218
856.862	21306
856.996	21348
857.13	21313
857.263	21348
857.397	21272
857.53	21188
857.664	21355
857.797	21313
857.931	21374
858.064	21135
858.197	21260
858.331	21214
858.464	21112
858.597	21058
858.731	21249
858.864	21195
858.997	21100
859.13	21241
859.263	21161
859.396	21226
859.529	21211
859.662	21146
859.795	21085
859.928	21173
860.061	21279
860.194	21321
860.327	21062
860.46	21074
860.592	21195
860.725	21359
860.858	21249
860.99	21154
861.123	21039
861.256	20990
861.388	21192
861.521	21770
861.653	21058
861.786	20887
861.918	21051
862.05	21176
862.183	21119
862.315	21249
862.447	21214
862.58	21195
862.712	21009
862.844	20785
862.976	21005
863.108	20849
863.24	21195
863.372	20769
863.504	20830
863.636	20895
863.768	21028
863.9	20781
864.032	20750
864.164	20811
864.296	20792
864.428	20982
864.559	20880
864.691	21001
864.823	20701
864.954	20823
865.086	20701
865.217	20754
865.349	20708
865.48	20621
865.612	20727
865.743	20899
865.875	20868
866.006	20651
866.137	20678
866.269	20743
866.4	20731
866.531	20625
866.662	20632
866.793	20651
866.924	20644
867.055	20754
867.186	20667
867.317	20587
867.448	20594
867.579	20587
867.71	20541
867.841	20549
867.972	20674
868.103	20568
868.233	20731
868.364	20674
868.495	20651
868.625	20857
868.756	21005
868.886	20708
869.017	20735
869.147	20944
869.278	20986
869.408	20880
869.539	20811
869.669	20933
869.799	20883
869.929	20986
870.06	20982
870.19	21123
870.32	21085
870.45	21192
870.58	21291
870.71	21287
870.84	21355
870.97	21222
871.1	21283
871.23	21405
871.36	21557
871.489	21397
871.619	21538
871.749	21507
871.879	21591
872.008	21641
872.138	21466
872.267	21492
872.397	21500
872.526	21397
872.656	21355
872.785	21374
872.915	21530
873.044	21663
873.173	21557
873.303	21652
873.432	21686
873.561	21717
873.69	21564
873.819	21553
873.948	21778
874.077	21622
874.206	21580
874.335	21625
874.464	21739
874.593	21869
874.722	21911
874.851	21865
874.979	21888
875.108	21979
875.237	21930
875.365	21808
875.494	21930
875.623	22044
875.751	22055
875.88	22010
876.008	22249
876.136	22200
876.265	22485
876.393	22733
876.521	22542
876.65	22527
876.778	22367
876.906	22478
877.034	22516
877.162	22554
877.29	22641
877.418	22611
877.546	22649
877.674	22698
877.802	22679
877.93	22744
878.058	22748
878.185	22862
878.313	23067
878.441	23083
878.568	23102
878.696	23231
878.824	23661
878.951	24091
879.079	24661
879.206	25354
879.333	26001
879.461	26507
879.588	27017
879.715	27017
879.842	26792
879.97	25997
880.097	25152
880.224	24604
880.351	24174
880.478	23828
880.605	23714
880.732	23611
880.859	23611
880.986	23436
881.112	23345
881.239	23364
881.366	23181
881.493	23033
881.619	23022
881.746	23048
881.872	22961
881.999	22923
882.125	23003
882.252	23052
882.378	23102
882.505	23102
882.631	23025
882.757	22736
882.883	22869
883.01	22850
883.136	22672
883.262	22672
883.388	22618
883.514	22797
883.64	22672
883.766	22820
883.892	22596
884.018	22531
884.143	22740
884.269	22736
884.395	22493
884.52	22451
884.646	22371
884.772	22394
884.897	22291
885.023	22394
885.148	22489
885.274	22493
885.399	22299
885.524	22287
885.65	22207
885.775	22303
885.9	22067
886.025	22215
886.15	22177
886.275	22036
886.4	21915
886.525	21876
886.65	21892
886.775	21804
886.9	21854
887.025	21979
887.149	21701
887.274	21603
887.399	21538
887.523	21523
887.648	21378
887.773	21173
887.897	21492
888.021	21405
888.146	21207
888.27	21370
888.395	21389
888.519	21363
888.643	21100
888.767	21264
888.891	21123
889.015	21169
889.139	20998
889.263	20986
889.387	21085
889.511	21104
889.635	21055
889.759	20982
889.883	20845
890.006	20872
890.13	20967
890.254	20792
890.377	20853
890.501	20777
890.624	20537
890.748	20651
890.871	20454
890.995	20530
891.118	20389
891.241	20347
891.364	20457
891.488	20495
891.611	20286
891.734	20183
891.857	20362
891.98	20370
892.103	20362
892.226	20275
892.349	20301
892.471	20100
892.594	20180
892.717	20244
892.839	20096
892.962	20180
893.085	20157
893.207	20126
893.33	20008
893.452	20107
893.575	20149
893.697	19997
893.819	20126
893.941	20290
894.064	20256
894.186	19902
894.308	19947
894.43	20054
894.552	20195
894.674	20115
894.796	20039
894.918	20062
895.04	20012
895.161	20096
895.283	20073
895.405	20024
895.526	19993
895.648	19871
895.769	19871
895.891	19856
896.012	20046
896.134	20035
896.255	19967
896.376	19902
896.498	19894
896.619	20001
896.74	19932
896.861	20012
896.982	20370
897.103	20328
897.224	20256
897.345	20278
897.466	20107
897.587	20256
897.708	20271
897.828	20214
897.949	20176
898.07	19906
898.19	20111
898.311	20111
898.431	20058
898.552	20024
898.672	20084
898.792	20142
898.913	20142
899.033	19993
899.153	19746
899.273	19807
899.393	19837
899.513	19860
899.633	19788
899.753	19814
899.873	19639
899.993	19883
900.113	19742
900.232	19769
900.352	19696
900.472	19696
900.591	19506
900.711	19529
900.83	19563
900.95	19784
901.069	19499
901.189	19506
901.308	19217
901.427	19152
901.546	19255
901.665	19297
901.784	19145
901.904	19008
902.023	18913
902.141	18719
902.26	18688
902.379	18783
902.498	18555
902.617	18559
902.735	18620
902.854	18665
902.973	18498
903.091	18262
903.21	18213
903.328	18342
903.446	18182
903.565	18083
903.683	18079
903.801	17999
903.919	18140
904.038	18110
904.156	17870
904.274	17999
904.392	17809
904.51	17786
904.627	17885
904.745	17992
904.863	17855
904.981	17661
905.098	17547
905.216	17505
905.334	17551
905.451	17570
905.569	17383
905.686	17463
905.803	17520
905.921	17315
906.038	17383
906.155	17334
906.272	17292
906.389	17299
906.506	17018
906.623	17048
906.74	17045
906.857	16911
906.974	16949
907.091	17071
907.208	17189
907.324	16961
907.441	16892
907.557	16889
907.674	16862
907.79	16687
907.907	16653
908.023	16736
908.139	16691
908.256	16721
908.372	16603
908.488	16508
908.604	16459
908.72	16432
908.836	16451
908.952	16394
909.068	16504
909.184	16531
909.3	16440
909.415	16440
909.531	16398
909.647	16044
909.762	16173
909.878	16116
909.993	16185
910.108	16120
910.224	16063
910.339	16032
910.454	15926
910.57	15895
910.685	15804
910.8	16139
910.915	16036
911.03	15842
911.145	15770
911.259	15743
911.374	15747
911.489	15736
911.604	15656
911.718	15553
911.833	15561
911.947	15424
912.062	15275
912.176	15378
912.291	15485
912.405	15332
912.519	15591
912.633	15701
912.748	15530
912.862	15481
912.976	15306
913.09	15150
913.204	15214
913.318	15245
913.431	15401
913.545	15302
913.659	15424
913.772	15176
913.886	15150
914	15119
914.113	15237
914.226	15211
914.34	15188
914.453	14979
914.566	15154
914.68	14979
914.793	15005
914.906	14819
915.019	14739
915.132	14617
915.245	14640
915.358	14716
915.47	14807
915.583	14682
915.696	14807
915.809	14807
915.921	14716
916.034	14674
916.146	14571
916.259	14564
916.371	14724
916.483	14571
916.595	14606
916.708	14571
916.82	14457
916.932	14537
917.044	14488
917.156	14537
917.268	14423
917.38	14400
917.491	14218
917.603	14320
917.715	14507
917.826	14473
917.938	14298
918.049	14210
918.161	14358
918.272	14351
918.384	14434
918.495	14313
918.606	14172
918.717	14081
918.828	14077
918.939	14065
919.05	14005
919.161	14115
919.272	13849
919.383	13993
919.494	14103
919.604	14328
919.715	14069
919.826	13940
919.936	14001
920.047	14126
920.157	14077
920.267	14248
920.378	13986
920.488	14008
920.598	14240
920.708	14218
920.818	14107
920.928	14149
921.038	14305
921.148	14237
921.258	13928
921.368	13830
921.477	13814
921.587	13864
921.697	13624
921.806	13753
921.916	13514
922.025	13537
922.134	13377
922.244	13369
922.353	13472
922.462	13259
922.571	13217
922.68	13126
922.789	13015
922.898	13133
923.007	12943
923.116	13072
923.224	12973
923.333	12985
923.442	12916
923.55	12897
923.659	12848
923.767	12928
923.876	12852
923.984	12897
924.092	12837
924.201	12787
924.309	12817
924.417	12833
924.525	12639
924.633	12726
924.741	13628
924.849	12532
924.956	12673
925.064	12475
925.172	12353
925.279	12506
925.387	12441
925.494	12471
925.602	12555
925.709	12525
925.816	12365
925.924	12452
926.031	12597
926.138	12391
926.245	12467
926.352	12262
926.459	12380
926.566	12509
926.673	12338
926.779	12228
926.886	12243
926.993	12163
927.099	12121
927.206	12034
927.312	11992
927.419	12057
927.525	12045
927.631	12098
927.737	11908
927.843	11912
927.95	11866
928.056	11840
928.162	11836
928.267	11992
928.373	12452
928.479	11950
928.585	11699
928.69	11817
928.796	11836
928.901	11764
929.007	11596
929.112	11733
929.218	11695
929.323	11566
929.428	11539
929.533	11737
929.638	11543
929.743	11634
929.848	11547
929.953	11573
930.058	11493
930.163	11258
930.267	11341
930.372	11421
930.477	11258
930.581	11509
930.685	11356
930.79	11185
930.894	11193
930.998	11147
931.103	11261
931.207	10885
931.311	10805
931.415	10725
931.519	10599
931.623	10538
