Data from test_V78500241_1164.txt Node
Date: Fri Mar 25 14:41:49 CST 2022
User: usil
Spectrometer: V785-0024
Trigger mode: 0
Integration Time (sec): 4.000000E-1
Scans to average: 1
Nonlinearity correction enabled: false
Boxcar width: 0
Storing dark spectrum: false
XAxis mode: Wavelengths
Number of Pixels in Spectrum: 1024
>>>>>Begin Spectral Data<<<<<
801.071	22561
801.214	22405
801.356	22188
801.499	22044
801.641	21884
801.783	21907
801.926	21869
802.068	21751
802.211	21724
802.353	21701
802.496	21416
802.638	21450
802.78	21370
802.923	21268
803.065	21226
803.208	21256
803.35	21218
803.492	21332
803.635	21298
803.777	21279
803.919	21214
804.061	21526
804.204	21279
804.346	21146
804.488	20994
804.63	21180
804.773	21108
804.915	21203
805.057	21325
805.199	21074
805.341	21218
805.483	21279
805.626	21207
805.768	21146
805.91	21074
806.052	21135
806.194	21047
806.336	21435
806.478	21226
806.62	21116
806.762	21260
806.904	21374
807.046	21591
807.188	21401
807.33	21492
807.472	21614
807.614	21412
807.756	21488
807.898	21386
808.04	21332
808.182	21416
808.324	21222
808.465	21405
808.607	21591
808.749	21644
808.891	21831
809.033	21713
809.174	21831
809.316	21633
809.458	21671
809.6	21644
809.741	21682
809.883	21656
810.025	21770
810.166	21739
810.308	21705
810.45	21728
810.591	21576
810.733	21462
810.875	21439
811.016	21302
811.158	21188
811.299	21435
811.441	21450
811.582	21492
811.724	21367
811.865	21348
812.007	21249
812.148	21359
812.29	21416
812.431	21542
812.573	21701
812.714	21682
812.855	21899
812.997	21873
813.138	21926
813.279	21964
813.421	21838
813.562	21694
813.703	21625
813.845	21435
813.986	21150
814.127	21074
814.268	20990
814.41	20918
814.551	20830
814.692	20971
814.833	20781
814.974	20876
815.115	20853
815.256	20674
815.397	20670
815.539	20800
815.68	20678
815.821	20526
815.962	20686
816.103	20697
816.244	20454
816.385	20381
816.526	20313
816.666	20237
816.807	20107
816.948	20130
817.089	20191
817.23	20126
817.371	20103
817.512	20092
817.653	20069
817.793	19963
817.934	20043
818.075	20111
818.216	20043
818.356	20122
818.497	19841
818.638	19860
818.778	19658
818.919	19803
819.06	19742
819.2	19757
819.341	19932
819.481	19944
819.622	19993
819.762	20248
819.903	20119
820.043	20119
820.184	20077
820.324	20149
820.465	20081
820.605	20024
820.746	19955
820.886	19849
821.026	19997
821.167	20005
821.307	20069
821.447	19902
821.588	19852
821.728	19632
821.868	19468
822.008	19449
822.149	19419
822.289	19384
822.429	19259
822.569	19061
822.709	19183
822.849	18817
822.99	18962
823.13	19004
823.27	18905
823.41	18954
823.55	18707
823.69	18779
823.83	18814
823.97	18684
824.11	18616
824.25	18536
824.389	18509
824.529	18517
824.669	18547
824.809	18578
824.949	18658
825.089	18585
825.228	18574
825.368	18300
825.508	18361
825.648	18308
825.787	18361
825.927	18414
826.067	18315
826.206	18220
826.346	18270
826.485	18353
826.625	18372
826.765	18266
826.904	18224
827.044	18060
827.183	18155
827.323	17923
827.462	18026
827.601	17893
827.741	17870
827.88	17958
828.02	17897
828.159	18041
828.298	18053
828.437	17965
828.577	17988
828.716	18159
828.855	17992
828.994	17767
829.134	17783
829.273	17790
829.412	17737
829.551	17729
829.69	17619
829.829	17745
829.968	17897
830.107	17794
830.246	17775
830.385	17646
830.524	17760
830.663	17554
830.802	17398
830.941	17387
831.08	17387
831.219	17429
831.357	17501
831.496	17566
831.635	17280
831.774	17280
831.913	17307
832.051	17185
832.19	17181
832.329	17239
832.467	17045
832.606	17010
832.744	17052
832.883	16972
833.022	16972
833.16	17090
833.299	17105
833.437	17143
833.576	17045
833.714	17170
833.852	17140
833.991	17075
834.129	17250
834.267	17159
834.406	17124
834.544	17128
834.682	17136
834.821	17018
834.959	17269
835.097	17193
835.235	17094
835.373	17121
835.511	17113
835.65	16987
835.788	17105
835.926	16881
836.064	16847
836.202	16930
836.34	17018
836.478	17064
836.615	17014
836.753	16991
836.891	17109
837.029	17014
837.167	16999
837.305	16930
837.443	16965
837.58	16839
837.718	16946
837.856	16980
837.993	16862
838.131	16991
838.269	16801
838.406	16900
838.544	16713
838.681	16694
838.819	16565
838.956	16474
839.094	16428
839.231	16497
839.369	16542
839.506	16759
839.643	16641
839.781	16523
839.918	16436
840.055	16413
840.193	16413
840.33	16413
840.467	16466
840.604	16333
840.742	16637
840.879	16238
841.016	16360
841.153	16371
841.29	16626
841.427	16478
841.564	16447
841.701	16436
841.838	16329
841.975	16318
842.112	16348
842.249	16215
842.385	16173
842.522	16386
842.659	16276
842.796	16341
842.933	16207
843.069	16166
843.206	16147
843.343	16295
843.479	16261
843.616	16143
843.752	16032
843.889	16002
844.025	16173
844.162	15964
844.298	16204
844.435	16093
844.571	16025
844.708	16086
844.844	16109
844.98	16196
845.117	16147
845.253	15945
845.389	16071
845.525	16010
845.661	16021
845.798	15892
845.934	16029
846.07	15983
846.206	16032
846.342	16097
846.478	16090
846.614	15732
846.75	15591
846.886	15591
847.022	15599
847.158	15584
847.294	15644
847.429	15584
847.565	15644
847.701	15888
847.837	15496
847.972	15348
848.108	15336
848.244	15408
848.379	15173
848.515	15287
848.65	15180
848.786	15192
848.921	15203
849.057	15313
849.192	15329
849.328	15249
849.463	15180
849.598	15066
849.734	15074
849.869	15009
850.004	15032
850.14	14929
850.275	14910
850.41	14918
850.545	14918
850.68	15005
850.815	15005
850.95	14986
851.085	15112
851.22	15058
851.355	14956
851.49	14845
851.625	14868
851.76	15039
851.895	14762
852.03	14864
852.165	14952
852.299	14941
852.434	15047
852.569	14998
852.703	14941
852.838	15039
852.973	15074
853.107	15032
853.242	14883
853.376	14921
853.511	14735
853.645	14754
853.78	14948
853.914	14800
854.048	14682
854.183	14765
854.317	14746
854.451	14948
854.585	14857
854.72	14815
854.854	14743
854.988	14705
855.122	14720
855.256	14693
855.39	14739
855.524	14788
855.658	14887
855.792	14823
855.926	14906
856.06	14883
856.194	14868
856.327	14807
856.461	14834
856.595	14712
856.729	14830
856.862	14925
856.996	14815
857.13	14902
857.263	15039
857.397	14804
857.53	14834
857.664	14804
857.797	14906
857.931	14918
858.064	14876
858.197	14883
858.331	14800
858.464	14842
858.597	14739
858.731	14815
858.864	14845
858.997	14769
859.13	14830
859.263	14899
859.396	14750
859.529	14807
859.662	14811
859.795	14670
859.928	14906
860.061	14910
860.194	14979
860.327	14769
860.46	14777
860.592	14937
860.725	14944
860.858	14925
860.99	14804
861.123	14705
861.256	14765
861.388	14785
861.521	15584
861.653	14674
861.786	14655
861.918	14651
862.05	14792
862.183	14807
862.315	14830
862.447	14853
862.58	14743
862.712	14568
862.844	14514
862.976	14670
863.108	14632
863.24	14941
863.372	14446
863.504	14670
863.636	14549
863.768	14640
863.9	14629
864.032	14560
864.164	14583
864.296	14659
864.428	14663
864.559	14667
864.691	14678
864.823	14598
864.954	14625
865.086	14556
865.217	14537
865.349	14495
865.48	14549
865.612	14480
865.743	14701
865.875	14583
866.006	14503
866.137	14590
866.269	14617
866.4	14503
866.531	14530
866.662	14438
866.793	14571
866.924	14621
867.055	14602
867.186	14602
867.317	14545
867.448	14450
867.579	14537
867.71	14514
867.841	14514
867.972	14602
868.103	14568
868.233	14549
868.364	14575
868.495	14651
868.625	14842
868.756	14887
868.886	14598
869.017	14781
869.147	14826
869.278	15009
869.408	14800
869.539	14762
869.669	14853
869.799	14872
869.929	14906
870.06	14883
870.19	15127
870.32	15070
870.45	15074
870.58	15184
870.71	15401
870.84	15317
870.97	15165
871.1	15157
871.23	15344
871.36	15454
871.489	15283
871.619	15287
871.749	15329
871.879	15439
872.008	15447
872.138	15321
872.267	15340
872.397	15298
872.526	15294
872.656	15203
872.785	15180
872.915	15378
873.044	15576
873.173	15401
873.303	15439
873.432	15545
873.561	15500
873.69	15378
873.819	15576
873.948	15511
874.077	15496
874.206	15481
874.335	15351
874.464	15580
874.593	15755
874.722	15736
874.851	15728
874.979	15736
875.108	15915
875.237	15652
875.365	15614
875.494	15610
875.623	15713
875.751	15766
875.88	15869
876.008	15835
876.136	15983
876.265	16158
876.393	16223
876.521	16181
876.65	16215
876.778	16303
876.906	16207
877.034	16116
877.162	16188
877.29	16040
877.418	16196
877.546	16147
877.674	16120
877.802	16188
877.93	16268
878.058	16135
878.185	16032
878.313	16188
878.441	16192
878.568	16048
878.696	16196
878.824	16192
878.951	16238
879.079	16462
879.206	16538
879.333	16253
879.461	16299
879.588	16390
879.715	16481
879.842	16527
879.97	16352
880.097	16143
880.224	16036
880.351	16097
880.478	16025
880.605	15926
880.732	16029
880.859	16257
880.986	16078
881.112	16021
881.239	15949
881.366	15861
881.493	15671
881.619	15660
881.746	15694
881.872	15682
881.999	15686
882.125	15584
882.252	15724
882.378	15709
882.505	15759
882.631	15606
882.757	15481
882.883	15454
883.01	15542
883.136	15424
883.262	15344
883.388	15359
883.514	15492
883.64	15515
883.766	15469
883.892	15264
884.018	15420
884.143	15469
884.269	15568
884.395	15241
884.52	15203
884.646	15233
884.772	15112
884.897	15043
885.023	15165
885.148	15321
885.274	15340
885.399	15218
885.524	15199
885.65	15165
885.775	15260
885.9	15142
886.025	15245
886.15	15180
886.275	15199
886.4	15077
886.525	15230
886.65	15081
886.775	15081
886.9	15302
887.025	15454
887.149	15150
887.274	14998
887.399	14967
887.523	14986
887.648	14902
887.773	14971
887.897	15112
888.021	15131
888.146	15028
888.27	15051
888.395	15150
888.519	15062
888.643	15062
888.767	15184
888.891	14990
889.015	14910
889.139	14811
889.263	14876
889.387	14971
889.511	15032
889.635	15009
889.759	14807
889.883	14804
890.006	14952
890.13	14948
890.254	14781
890.377	14796
890.501	14743
890.624	14644
890.748	14720
890.871	14693
890.995	14518
891.118	14492
891.241	14655
891.364	14503
891.488	14606
891.611	14693
891.734	14507
891.857	14541
891.98	14552
892.103	14613
892.226	14556
892.349	14454
892.471	14419
892.594	14541
892.717	14511
892.839	14590
892.962	14545
893.085	14701
893.207	14461
893.33	14446
893.452	14488
893.575	14636
893.697	14374
893.819	14724
893.941	14781
894.064	14670
894.186	14484
894.308	14522
894.43	14701
894.552	14735
894.674	14739
894.796	14438
894.918	14610
895.04	14549
895.161	14655
895.283	14594
895.405	14537
895.526	14579
895.648	14629
895.769	14682
895.891	14792
896.012	14758
896.134	14716
896.255	14693
896.376	14663
896.498	14697
896.619	14754
896.74	14697
896.861	14750
896.982	15039
897.103	15138
897.224	14921
897.345	14914
897.466	14929
897.587	14921
897.708	15112
897.828	15001
897.949	14971
898.07	14883
898.19	14956
898.311	15116
898.431	15024
898.552	15032
898.672	15195
898.792	15093
898.913	15074
899.033	15032
899.153	14956
899.273	14785
899.393	14868
899.513	14979
899.633	14845
899.753	14853
899.873	14823
899.993	14990
900.113	14891
900.232	14941
900.352	14982
900.472	14746
900.591	14769
900.711	14861
900.83	14659
900.95	14891
901.069	14804
901.189	14693
901.308	14488
901.427	14396
901.546	14393
901.665	14400
901.784	14446
901.904	14259
902.023	14180
902.141	14008
902.26	13883
902.379	14115
902.498	13890
902.617	13989
902.735	13951
902.854	14050
902.973	13883
903.091	13681
903.21	13761
903.328	13753
903.446	13529
903.565	13514
903.683	13563
903.801	13388
903.919	13537
904.038	13514
904.156	13362
904.274	13438
904.392	13278
904.51	13282
904.627	13320
904.745	13468
904.863	13400
904.981	13129
905.098	13076
905.216	13004
905.334	13061
905.451	13091
905.569	12935
905.686	13088
905.803	13034
905.921	12837
906.038	12894
906.155	12779
906.272	12768
906.389	12848
906.506	12669
906.623	12681
906.74	12517
906.857	12509
906.974	12544
907.091	12684
907.208	12768
907.324	12593
907.441	12563
907.557	12346
907.674	12395
907.79	12330
907.907	12277
908.023	12490
908.139	12353
908.256	12388
908.372	12338
908.488	12338
908.604	12125
908.72	12076
908.836	12068
908.952	12125
909.068	12098
909.184	12167
909.3	12163
909.415	12205
909.531	12114
909.647	11878
909.762	12022
909.878	11870
909.993	11916
910.108	11927
910.224	11889
910.339	11802
910.454	11798
910.57	11710
910.685	11722
910.8	11923
910.915	11836
911.03	11722
911.145	11608
911.259	11589
911.374	11516
911.489	11402
911.604	11459
911.718	11318
911.833	11334
911.947	11311
912.062	11162
912.176	11299
912.291	11318
912.405	11356
912.519	11547
912.633	11493
912.748	11398
912.862	11311
912.976	11185
913.09	11045
913.204	11143
913.318	11159
913.431	11296
913.545	11284
913.659	11334
913.772	11239
913.886	11045
914	11037
914.113	11132
914.226	11223
914.34	11174
914.453	10984
914.566	11132
914.68	10934
914.793	11048
914.906	10889
915.019	10862
915.132	10721
915.245	10824
915.358	10820
915.47	10828
915.583	10797
915.696	10839
915.809	10987
915.921	10942
916.034	10824
916.146	10786
916.259	10778
916.371	10816
916.483	10828
916.595	10759
916.708	10763
916.82	10698
916.932	10774
917.044	10702
917.156	10740
917.268	10603
917.38	10679
917.491	10645
917.603	10626
917.715	10717
917.826	10755
917.938	10596
918.049	10531
918.161	10626
918.272	10771
918.384	10698
918.495	10675
918.606	10508
918.717	10394
918.828	10474
918.939	10516
919.05	10405
919.161	10455
919.272	10310
919.383	10367
919.494	10565
919.604	10721
919.715	10569
919.826	10344
919.936	10550
920.047	10561
920.157	10500
920.267	10706
920.378	10580
920.488	10546
920.598	10740
920.708	10816
920.818	10710
920.928	10691
921.038	10858
921.148	10824
921.258	10618
921.368	10417
921.477	10394
921.587	10344
921.697	10188
921.806	10367
921.916	10200
922.025	10143
922.134	10010
922.244	10013
922.353	10116
922.462	9987
922.571	9899
922.68	9701
922.789	9797
922.898	9709
923.007	9713
923.116	9816
923.224	9755
923.333	9736
923.442	9641
923.55	9584
923.659	9633
923.767	9637
923.876	9652
923.984	9679
924.092	9584
924.201	9591
924.309	9545
924.417	9614
924.525	9526
924.633	9561
924.741	10272
924.849	9329
924.956	9488
925.064	9389
925.172	9287
925.279	9275
925.387	9469
925.494	9397
925.602	9507
925.709	9435
925.816	9336
925.924	9393
926.031	9447
926.138	9325
926.245	9473
926.352	9310
926.459	9435
926.566	9462
926.673	9294
926.779	9230
926.886	9237
926.993	9142
927.099	9112
927.206	9005
927.312	9032
927.419	9165
927.525	9093
927.631	9058
927.737	9036
927.843	9055
927.95	8834
928.056	9017
928.162	8990
928.267	9089
928.373	9667
928.479	9097
928.585	8853
928.69	8925
928.796	9020
928.901	8956
929.007	8781
929.112	8925
929.218	8842
929.323	8830
929.428	8834
929.533	8925
929.638	8712
929.743	8746
929.848	8849
929.953	8773
930.058	8712
930.163	8568
930.267	8499
930.372	8667
930.477	8495
930.581	8750
930.685	8602
930.79	8511
930.894	8613
930.998	8533
931.103	8629
931.207	8305
931.311	8233
931.415	8195
931.519	7970
931.623	8024
