Data from test_V78500241_1457.txt Node
Date: Fri Mar 25 14:43:51 CST 2022
User: usil
Spectrometer: V785-0024
Trigger mode: 0
Integration Time (sec): 4.000000E-1
Scans to average: 1
Nonlinearity correction enabled: false
Boxcar width: 0
Storing dark spectrum: false
XAxis mode: Wavelengths
Number of Pixels in Spectrum: 1024
>>>>>Begin Spectral Data<<<<<
801.071	22462
801.214	22204
801.356	22055
801.499	21979
801.641	21747
801.783	21838
801.926	21732
802.068	21816
802.211	21629
802.353	21656
802.496	21374
802.638	21291
802.78	21317
802.923	21093
803.065	21116
803.208	21108
803.35	21100
803.492	21207
803.635	21176
803.777	21077
803.919	21310
804.061	21329
804.204	21306
804.346	21047
804.488	20963
804.63	21108
804.773	20937
804.915	21047
805.057	21150
805.199	20941
805.341	21180
805.483	21283
805.626	21138
805.768	20971
805.91	21184
806.052	21074
806.194	20963
806.336	21066
806.478	21020
806.62	21089
806.762	21142
806.904	21256
807.046	21492
807.188	21431
807.33	21504
807.472	21408
807.614	21340
807.756	21332
807.898	21249
808.04	21116
808.182	21051
808.324	21348
808.465	21310
808.607	21523
808.749	21644
808.891	21755
809.033	21766
809.174	21774
809.316	21622
809.458	21648
809.6	21633
809.741	21553
809.883	21549
810.025	21644
810.166	21587
810.308	21690
810.45	21515
810.591	21564
810.733	21370
810.875	21188
811.016	21192
811.158	21226
811.299	21291
811.441	21386
811.582	21272
811.724	21287
811.865	21249
812.007	21237
812.148	21199
812.29	21298
812.431	21405
812.573	21568
812.714	21663
812.855	21686
812.997	21842
813.138	21956
813.279	21892
813.421	21854
813.562	21629
813.703	21519
813.845	21313
813.986	21131
814.127	20929
814.268	20887
814.41	20826
814.551	20720
814.692	20853
814.833	20659
814.974	20777
815.115	20800
815.256	20644
815.397	20640
815.539	20682
815.68	20583
815.821	20442
815.962	20564
816.103	20484
816.244	20309
816.385	20271
816.526	20259
816.666	20180
816.807	19921
816.948	20005
817.089	20256
817.23	19959
817.371	19894
817.512	19879
817.653	19818
817.793	19967
817.934	19845
818.075	19833
818.216	19940
818.356	19879
818.497	19685
818.638	19556
818.778	19582
818.919	19647
819.06	19704
819.2	19776
819.341	19780
819.481	19784
819.622	20024
819.762	20145
819.903	20122
820.043	20092
820.184	19967
820.324	19868
820.465	19993
820.605	19875
820.746	19833
820.886	19761
821.026	19883
821.167	19833
821.307	20024
821.447	19837
821.588	19772
821.728	19651
821.868	19400
822.008	19320
822.149	19324
822.289	19198
822.429	19129
822.569	19031
822.709	19015
822.849	18859
822.99	18783
823.13	18825
823.27	18795
823.41	18658
823.55	18521
823.69	18661
823.83	18547
823.97	18578
824.11	18483
824.25	18403
824.389	18357
824.529	18486
824.669	18372
824.809	18441
824.949	18365
825.089	18490
825.228	18429
825.368	18140
825.508	18232
825.648	18220
825.787	18152
825.927	18247
826.067	18167
826.206	18155
826.346	18159
826.485	18068
826.625	18167
826.765	18235
826.904	18140
827.044	17878
827.183	17992
827.323	17805
827.462	17897
827.601	17817
827.741	17889
827.88	17870
828.02	17707
828.159	17843
828.298	17847
828.437	17851
828.577	17745
828.716	17999
828.855	17836
828.994	17646
829.134	17581
829.273	17604
829.412	17543
829.551	17440
829.69	17585
829.829	17566
829.968	17767
830.107	17573
830.246	17558
830.385	17490
830.524	17516
830.663	17395
830.802	17299
830.941	17216
831.08	17216
831.219	17235
831.357	17246
831.496	17474
831.635	17261
831.774	17174
831.913	17136
832.051	17029
832.19	16984
832.329	17083
832.467	16938
832.606	16843
832.744	16923
832.883	16866
833.022	16759
833.16	16972
833.299	16904
833.437	16938
833.576	16923
833.714	16919
833.852	17056
833.991	16930
834.129	17079
834.267	17056
834.406	16915
834.544	17090
834.682	16987
834.821	16942
834.959	17128
835.097	16881
835.235	17006
835.373	16919
835.511	16892
835.65	16858
835.788	16873
835.926	16687
836.064	16637
836.202	16725
836.34	16824
836.478	16828
836.615	16869
836.753	16839
836.891	16942
837.029	16869
837.167	16793
837.305	16782
837.443	16786
837.58	16755
837.718	16683
837.856	16668
837.993	16580
838.131	16782
838.269	16603
838.406	16634
838.544	16618
838.681	16424
838.819	16447
838.956	16223
839.094	16234
839.231	16192
839.369	16363
839.506	16626
839.643	16516
839.781	16246
839.918	16196
840.055	16276
840.193	16291
840.33	16158
840.467	16291
840.604	16333
840.742	16386
840.879	16101
841.016	16082
841.153	16249
841.29	16310
841.427	16188
841.564	16344
841.701	16322
841.838	16131
841.975	16196
842.112	16093
842.249	15918
842.385	15983
842.522	16223
842.659	16097
842.796	15994
842.933	16002
843.069	15972
843.206	16002
843.343	16116
843.479	16017
843.616	16040
843.752	15873
843.889	15846
844.025	16017
844.162	15835
844.298	15987
844.435	15747
844.571	15743
844.708	15861
844.844	15945
844.98	15991
845.117	16025
845.253	15770
845.389	15755
845.525	15785
845.661	15755
845.798	15846
845.934	15899
846.07	15888
846.206	16002
846.342	16097
846.478	15614
846.614	15534
846.75	15420
846.886	15412
847.022	15523
847.158	15344
847.294	15462
847.429	15416
847.565	15367
847.701	15603
847.837	15138
847.972	14921
848.108	15154
848.244	15264
848.379	15047
848.515	14914
848.65	14986
848.786	14891
848.921	14933
849.057	15028
849.192	14979
849.328	15074
849.463	14963
849.598	15017
849.734	14899
849.869	14883
850.004	14781
850.14	14853
850.275	14762
850.41	14693
850.545	14678
850.68	14689
850.815	14804
850.95	14746
851.085	14823
851.22	14769
851.355	14773
851.49	14663
851.625	14701
851.76	14655
851.895	14621
852.03	14571
852.165	14720
852.299	14815
852.434	14765
852.569	14750
852.703	14712
852.838	14773
852.973	14933
853.107	14906
853.242	14758
853.376	14522
853.511	14541
853.645	14526
853.78	14804
853.914	14594
854.048	14629
854.183	14644
854.317	14651
854.451	14758
854.585	14598
854.72	14541
854.854	14644
854.988	14571
855.122	14492
855.256	14522
855.39	14484
855.524	14697
855.658	14575
855.792	14621
855.926	14659
856.06	14640
856.194	14765
856.327	14663
856.461	14549
856.595	14560
856.729	14632
856.862	14804
856.996	14530
857.13	14682
857.263	14648
857.397	14720
857.53	14632
857.664	14636
857.797	14705
857.931	14743
858.064	14526
858.197	14644
858.331	14629
858.464	14610
858.597	14514
858.731	14636
858.864	14545
858.997	14568
859.13	14629
859.263	14594
859.396	14693
859.529	14530
859.662	14465
859.795	14556
859.928	14670
860.061	14731
860.194	14777
860.327	14640
860.46	14575
860.592	14765
860.725	14743
860.858	14746
860.99	14533
861.123	14541
861.256	14564
861.388	14575
861.521	15249
861.653	14556
861.786	14404
861.918	14446
862.05	14415
862.183	14564
862.315	14507
862.447	14613
862.58	14625
862.712	14377
862.844	14320
862.976	14438
863.108	14374
863.24	14800
863.372	14332
863.504	14290
863.636	14339
863.768	14480
863.9	14324
864.032	14263
864.164	14328
864.296	14492
864.428	14324
864.559	14511
864.691	14438
864.823	14362
864.954	14492
865.086	14465
865.217	14385
865.349	14286
865.48	14317
865.612	14442
865.743	14507
865.875	14385
866.006	14396
866.137	14244
866.269	14324
866.4	14290
866.531	14370
866.662	14286
866.793	14278
866.924	14396
867.055	14317
867.186	14259
867.317	14282
867.448	14164
867.579	14294
867.71	14123
867.841	14313
867.972	14434
868.103	14313
868.233	14362
868.364	14313
868.495	14400
868.625	14503
868.756	14765
868.886	14590
869.017	14556
869.147	14678
869.278	14724
869.408	14549
869.539	14530
869.669	14697
869.799	14663
869.929	14807
870.06	14720
870.19	14971
870.32	14845
870.45	14853
870.58	15058
870.71	15085
870.84	15104
870.97	14994
871.1	15013
871.23	15211
871.36	15192
871.489	15108
871.619	15135
871.749	15207
871.879	15154
872.008	15359
872.138	15203
872.267	15203
872.397	14967
872.526	15013
872.656	14986
872.785	14986
872.915	15222
873.044	15264
873.173	15279
873.303	15405
873.432	15294
873.561	15367
873.69	15157
873.819	15188
873.948	15306
874.077	15313
874.206	15199
874.335	15233
874.464	15397
874.593	15492
874.722	15424
874.851	15580
874.979	15561
875.108	15568
875.237	15439
875.365	15393
875.494	15454
875.623	15625
875.751	15454
875.88	15568
876.008	15778
876.136	15797
876.265	15888
876.393	16006
876.521	16010
876.65	16097
876.778	15975
876.906	15941
877.034	15911
877.162	16044
877.29	15922
877.418	15998
877.546	15956
877.674	15987
877.802	16017
877.93	15949
878.058	15884
878.185	15850
878.313	16002
878.441	16010
878.568	15869
878.696	15926
878.824	16032
878.951	16013
879.079	16124
879.206	16360
879.333	16280
879.461	16147
879.588	16333
879.715	16261
879.842	16382
879.97	16147
880.097	15903
880.224	15842
880.351	15937
880.478	15865
880.605	15861
880.732	15816
880.859	16063
880.986	15880
881.112	15884
881.239	15766
881.366	15686
881.493	15652
881.619	15462
881.746	15572
881.872	15447
881.999	15477
882.125	15454
882.252	15530
882.378	15511
882.505	15625
882.631	15431
882.757	15363
882.883	15424
883.01	15359
883.136	15237
883.262	15127
883.388	15241
883.514	15420
883.64	15397
883.766	15241
883.892	15135
884.018	15093
884.143	15249
884.269	15439
884.395	15028
884.52	14979
884.646	15005
884.772	14899
884.897	14906
885.023	14963
885.148	15135
885.274	15211
885.399	15104
885.524	14982
885.65	15077
885.775	15036
885.9	14998
886.025	15097
886.15	15150
886.275	14937
886.4	14914
886.525	14963
886.65	14956
886.775	15055
886.9	15085
887.025	15211
887.149	14963
887.274	14864
887.399	14807
887.523	14762
887.648	14807
887.773	14746
887.897	14807
888.021	14876
888.146	14758
888.27	14883
888.395	15005
888.519	14918
888.643	14857
888.767	14842
888.891	14720
889.015	14598
889.139	14674
889.263	14617
889.387	14777
889.511	14941
889.635	14830
889.759	14621
889.883	14571
890.006	14720
890.13	14830
890.254	14701
890.377	14590
890.501	14499
890.624	14465
890.748	14564
890.871	14404
890.995	14267
891.118	14298
891.241	14355
891.364	14381
891.488	14457
891.611	14404
891.734	14393
891.857	14374
891.98	14317
892.103	14385
892.226	14446
892.349	14305
892.471	14199
892.594	14412
892.717	14446
892.839	14339
892.962	14355
893.085	14480
893.207	14362
893.33	14202
893.452	14221
893.575	14358
893.697	14218
893.819	14469
893.941	14541
894.064	14503
894.186	14332
894.308	14305
894.43	14473
894.552	14461
894.674	14495
894.796	14366
894.918	14419
895.04	14408
895.161	14499
895.283	14480
895.405	14396
895.526	14484
895.648	14488
895.769	14454
895.891	14587
896.012	14526
896.134	14526
896.255	14560
896.376	14507
896.498	14495
896.619	14530
896.74	14632
896.861	14602
896.982	14975
897.103	15070
897.224	14853
897.345	14746
897.466	14712
897.587	14727
897.708	14933
897.828	14762
897.949	14792
898.07	14682
898.19	14693
898.311	14975
898.431	14735
898.552	14902
898.672	14895
898.792	15020
898.913	14853
899.033	14769
899.153	14644
899.273	14594
899.393	14674
899.513	14777
899.633	14765
899.753	14838
899.873	14587
899.993	14883
900.113	14720
900.232	14838
900.352	14598
900.472	14663
900.591	14499
900.711	14674
900.83	14564
900.95	14655
901.069	14708
901.189	14602
901.308	14366
901.427	14240
901.546	14298
901.665	14377
901.784	14286
901.904	14081
902.023	14119
902.141	13932
902.26	13826
902.379	13845
902.498	13894
902.617	13784
902.735	13902
902.854	13811
902.973	13685
903.091	13571
903.21	13487
903.328	13616
903.446	13445
903.565	13449
903.683	13365
903.801	13274
903.919	13400
904.038	13384
904.156	13194
904.274	13251
904.392	13213
904.51	13232
904.627	13171
904.745	13213
904.863	13206
904.981	13038
905.098	12905
905.216	12916
905.334	12928
905.451	12817
905.569	12878
905.686	12810
905.803	12856
905.921	12654
906.038	12806
906.155	12730
906.272	12604
906.389	12642
906.506	12525
906.623	12464
906.74	12490
906.857	12369
906.974	12399
907.091	12494
907.208	12665
907.324	12448
907.441	12410
907.557	12243
907.674	12171
907.79	12167
907.907	12224
908.023	12232
908.139	12239
908.256	12117
908.372	12197
908.488	12102
908.604	12087
908.72	11977
908.836	12102
908.952	12003
909.068	12049
909.184	12083
909.3	11980
909.415	11999
909.531	11954
909.647	11779
909.762	11726
909.878	11707
909.993	11691
910.108	11745
910.224	11779
910.339	11703
910.454	11665
910.57	11566
910.685	11554
910.8	11954
910.915	11752
911.03	11570
911.145	11383
911.259	11425
911.374	11406
911.489	11349
911.604	11337
911.718	11178
911.833	11235
911.947	11045
912.062	11010
912.176	11201
912.291	11159
912.405	11151
912.519	11356
912.633	11330
912.748	11296
912.862	11250
912.976	11003
913.09	10949
913.204	11014
913.318	11109
913.431	11197
913.545	11128
913.659	11216
913.772	11052
913.886	10930
914	10938
914.113	10949
914.226	11064
914.34	10995
914.453	10854
914.566	11014
914.68	10854
914.793	10934
914.906	10687
915.019	10630
915.132	10710
915.245	10748
915.358	10630
915.47	10698
915.583	10752
915.696	10710
915.809	10866
915.921	10733
916.034	10679
916.146	10607
916.259	10615
916.371	10752
916.483	10763
916.595	10668
916.708	10561
916.82	10546
916.932	10596
917.044	10622
917.156	10592
917.268	10470
917.38	10527
917.491	10462
917.603	10489
917.715	10588
917.826	10599
917.938	10497
918.049	10402
918.161	10527
918.272	10668
918.384	10641
918.495	10531
918.606	10447
918.717	10299
918.828	10508
918.939	10360
919.05	10318
919.161	10344
919.272	10162
919.383	10173
919.494	10512
919.604	10630
919.715	10356
919.826	10341
919.936	10314
920.047	10504
920.157	10462
920.267	10573
920.378	10409
920.488	10390
920.598	10596
920.708	10786
920.818	10622
920.928	10519
921.038	10763
921.148	10763
921.258	10474
921.368	10371
921.477	10299
921.587	10242
921.697	10109
921.806	10287
921.916	10188
922.025	10029
922.134	9937
922.244	9994
922.353	9911
922.462	9895
922.571	9781
922.68	9682
922.789	9694
922.898	9656
923.007	9549
923.116	9629
923.224	9587
923.333	9633
923.442	9519
923.55	9469
923.659	9492
923.767	9591
923.876	9500
923.984	9580
924.092	9424
924.201	9542
924.309	9412
924.417	9507
924.525	9454
924.633	9450
924.741	10352
924.849	9264
924.956	9416
925.064	9256
925.172	9218
925.279	9264
925.387	9306
925.494	9332
925.602	9439
925.709	9393
925.816	9199
925.924	9268
926.031	9370
926.138	9245
926.245	9348
926.352	9245
926.459	9302
926.566	9336
926.673	9253
926.779	9142
926.886	9157
926.993	9013
927.099	9009
927.206	8941
927.312	8982
927.419	9024
927.525	9036
927.631	9036
927.737	8933
927.843	8902
927.95	8769
928.056	8838
928.162	8921
928.267	9001
928.373	9564
928.479	8994
928.585	8670
928.69	8819
928.796	8937
928.901	8823
929.007	8693
929.112	8712
929.218	8762
929.323	8739
929.428	8712
929.533	8762
929.638	8617
929.743	8648
929.848	8667
929.953	8678
930.058	8651
930.163	8514
930.267	8503
930.372	8533
930.477	8492
930.581	8701
930.685	8514
930.79	8450
930.894	8457
930.998	8400
931.103	8575
931.207	8244
931.311	8183
931.415	8008
931.519	7913
931.623	7902
