Data from test_V78500241_951.txt Node
Date: Fri Mar 25 14:40:20 CST 2022
User: usil
Spectrometer: V785-0024
Trigger mode: 0
Integration Time (sec): 4.000000E-1
Scans to average: 1
Nonlinearity correction enabled: false
Boxcar width: 0
Storing dark spectrum: false
XAxis mode: Wavelengths
Number of Pixels in Spectrum: 1024
>>>>>Begin Spectral Data<<<<<
801.071	23859
801.214	23783
801.356	23520
801.499	23200
801.641	23242
801.783	23109
801.926	23136
802.068	23056
802.211	23003
802.353	22908
802.496	22702
802.638	22645
802.78	22588
802.923	22565
803.065	22390
803.208	22405
803.35	22485
803.492	22630
803.635	22679
803.777	22394
803.919	22577
804.061	22965
804.204	22664
804.346	22500
804.488	22402
804.63	22500
804.773	22413
804.915	22360
805.057	22573
805.199	22573
805.341	22527
805.483	22554
805.626	22645
805.768	22360
805.91	22531
806.052	22546
806.194	22508
806.336	22790
806.478	22588
806.62	22588
806.762	22683
806.904	22873
807.046	23136
807.188	23090
807.33	23083
807.472	23303
807.614	23303
807.756	23284
807.898	23417
808.04	23345
808.182	23722
808.324	23912
808.465	24136
808.607	24661
808.749	24996
808.891	25168
809.033	25327
809.174	24920
809.316	24642
809.458	24300
809.6	24155
809.741	23798
809.883	23718
810.025	23672
810.166	23524
810.308	23486
810.45	23364
810.591	23227
810.733	22984
810.875	22862
811.016	22866
811.158	22839
811.299	22949
811.441	23014
811.582	22946
811.724	22850
811.865	22698
812.007	22835
812.148	22679
812.29	22854
812.431	22965
812.573	23204
812.714	23212
812.855	23204
812.997	23299
813.138	23261
813.279	23345
813.421	23220
813.562	23239
813.703	22942
813.845	22809
813.986	22603
814.127	22360
814.268	22348
814.41	22398
814.551	22291
814.692	22310
814.833	22192
814.974	22291
815.115	22223
815.256	22002
815.397	22097
815.539	22074
815.68	22013
815.821	21934
815.962	21956
816.103	21926
816.244	21736
816.385	21736
816.526	21637
816.666	21477
816.807	21329
816.948	21408
817.089	21511
817.23	21477
817.371	21405
817.512	21298
817.653	21313
817.793	21237
817.934	21443
818.075	21477
818.216	21363
818.356	21310
818.497	21074
818.638	21077
818.778	21055
818.919	21085
819.06	21131
819.2	21218
819.341	21279
819.481	21260
819.622	21370
819.762	21561
819.903	21534
820.043	21275
820.184	21401
820.324	21302
820.465	21447
820.605	21329
820.746	21230
820.886	21211
821.026	21298
821.167	21241
821.307	21363
821.447	21195
821.588	21104
821.728	21039
821.868	20963
822.008	20720
822.149	20754
822.289	20670
822.429	20533
822.569	20454
822.709	20442
822.849	20233
822.99	20191
823.13	20164
823.27	20138
823.41	20031
823.55	19849
823.69	20024
823.83	19967
823.97	19852
824.11	19734
824.25	19788
824.389	19849
824.529	19887
824.669	19845
824.809	19974
824.949	19822
825.089	19807
825.228	19746
825.368	19658
825.508	19628
825.648	19632
825.787	19666
825.927	19643
826.067	19586
826.206	19510
826.346	19582
826.485	19700
826.625	19590
826.765	19685
826.904	19544
827.044	19301
827.183	19297
827.323	19198
827.462	19400
827.601	19251
827.741	19270
827.88	19304
828.02	19103
828.159	19232
828.298	19282
828.437	19304
828.577	19137
828.716	19388
828.855	19206
828.994	19065
829.134	19000
829.273	19031
829.412	18916
829.551	19012
829.69	18916
829.829	19000
829.968	19152
830.107	18981
830.246	19080
830.385	18875
830.524	18920
830.663	18741
830.802	18612
830.941	18566
831.08	18604
831.219	18753
831.357	18639
831.496	18738
831.635	18513
831.774	18540
831.913	18490
832.051	18342
832.19	18376
832.329	18376
832.467	18346
832.606	18357
832.744	18133
832.883	18319
833.022	18380
833.16	18270
833.299	18292
833.437	18361
833.576	18448
833.714	18429
833.852	18414
833.991	18490
834.129	18502
834.267	18467
834.406	18353
834.544	18475
834.682	18327
834.821	18357
834.959	18574
835.097	18342
835.235	18395
835.373	18384
835.511	18509
835.65	18205
835.788	18205
835.926	18114
836.064	18015
836.202	18098
836.34	18224
836.478	18213
836.615	18216
836.753	18194
836.891	18251
837.029	18224
837.167	18125
837.305	18152
837.443	17958
837.58	17958
837.718	18110
837.856	18083
837.993	18003
838.131	18030
838.269	17942
838.406	17882
838.544	17882
838.681	17828
838.819	17653
838.956	17566
839.094	17463
839.231	17592
839.369	17619
839.506	17927
839.643	17809
839.781	17608
839.918	17505
840.055	17509
840.193	17509
840.33	17543
840.467	17524
840.604	17532
840.742	17836
840.879	17406
841.016	17448
841.153	17436
841.29	17596
841.427	17463
841.564	17490
841.701	17577
841.838	17478
841.975	17337
842.112	17436
842.249	17364
842.385	17258
842.522	17490
842.659	17356
842.796	17299
842.933	17341
843.069	17299
843.206	17220
843.343	17440
843.479	17292
843.616	17254
843.752	17132
843.889	17018
844.025	17220
844.162	17193
844.298	17204
844.435	17140
844.571	17071
844.708	17181
844.844	17417
844.98	17463
845.117	17516
845.253	17334
845.389	17421
845.525	17798
845.661	18254
845.798	18753
845.934	19373
846.07	19457
846.206	19540
846.342	19285
846.478	18502
846.614	17779
846.75	17178
846.886	17048
847.022	16854
847.158	16752
847.294	16831
847.429	16759
847.565	16607
847.701	16869
847.837	16379
847.972	16413
848.108	16508
848.244	16432
848.379	16402
848.515	16181
848.65	16185
848.786	16188
848.921	16249
849.057	16265
849.192	16287
849.328	16242
849.463	16135
849.598	16196
849.734	16139
849.869	16090
850.004	16071
850.14	15998
850.275	15994
850.41	15911
850.545	15945
850.68	15918
850.815	15903
850.95	15934
851.085	16063
851.22	16040
851.355	15968
851.49	15804
851.625	15831
851.76	15789
851.895	15911
852.03	15808
852.165	15934
852.299	15911
852.434	16040
852.569	15964
852.703	15930
852.838	16017
852.973	16074
853.107	16074
853.242	15907
853.376	15873
853.511	15747
853.645	15747
853.78	15922
853.914	15800
854.048	15812
854.183	15850
854.317	15895
854.451	16055
854.585	15812
854.72	15827
854.854	15857
854.988	15823
855.122	15850
855.256	15694
855.39	15869
855.524	15922
855.658	15884
855.792	15743
855.926	15857
856.06	15800
856.194	15819
856.327	15770
856.461	15732
856.595	15709
856.729	15888
856.862	15911
856.996	15774
857.13	15797
857.263	15804
857.397	15865
857.53	15831
857.664	15804
857.797	15911
857.931	15918
858.064	15793
858.197	15857
858.331	15728
858.464	15717
858.597	15732
858.731	15781
858.864	15816
858.997	15720
859.13	15762
859.263	15728
859.396	15880
859.529	15755
859.662	15736
859.795	15812
859.928	15819
860.061	15945
860.194	15899
860.327	15774
860.46	15728
860.592	15842
860.725	15869
860.858	15789
860.99	15660
861.123	15732
861.256	15701
861.388	15850
861.521	16363
861.653	15717
861.786	15629
861.918	15720
862.05	15679
862.183	15781
862.315	15705
862.447	15823
862.58	15675
862.712	15534
862.844	15469
862.976	15694
863.108	15542
863.24	15994
863.372	15496
863.504	15549
863.636	15603
863.768	15591
863.9	15481
864.032	15454
864.164	15568
864.296	15580
864.428	15633
864.559	15675
864.691	15622
864.823	15564
864.954	15698
865.086	15450
865.217	15447
865.349	15363
865.48	15405
865.612	15500
865.743	15625
865.875	15542
866.006	15473
866.137	15397
866.269	15488
866.4	15481
866.531	15416
866.662	15443
866.793	15424
866.924	15469
867.055	15401
867.186	15515
867.317	15393
867.448	15294
867.579	15393
867.71	15397
867.841	15302
867.972	15504
868.103	15473
868.233	15572
868.364	15504
868.495	15587
868.625	15690
868.756	15778
868.886	15629
869.017	15663
869.147	15831
869.278	15751
869.408	15842
869.539	15690
869.669	15747
869.799	15686
869.929	15808
870.06	15918
870.19	16040
870.32	15968
870.45	16063
870.58	16071
870.71	16166
870.84	16204
870.97	16112
871.1	16078
871.23	16261
871.36	16284
871.489	16234
871.619	16200
871.749	16284
871.879	16280
872.008	16386
872.138	16344
872.267	16211
872.397	16246
872.526	16051
872.656	16158
872.785	16101
872.915	16226
873.044	16424
873.173	16363
873.303	16356
873.432	16280
873.561	16394
873.69	16409
873.819	16382
873.948	16432
874.077	16470
874.206	16409
874.335	16405
874.464	16497
874.593	16778
874.722	16618
874.851	16660
874.979	16725
875.108	16755
875.237	16694
875.365	16569
875.494	16653
875.623	16733
875.751	16645
875.88	16733
876.008	16930
876.136	16869
876.265	17086
876.393	17269
876.521	17231
876.65	17227
876.778	17098
876.906	17159
877.034	17128
877.162	17102
877.29	17208
877.418	17136
877.546	17235
877.674	17223
877.802	17113
877.93	17178
878.058	17296
878.185	17083
878.313	17326
878.441	17258
878.568	17181
878.696	17345
878.824	17566
878.951	17798
879.079	17889
879.206	18117
879.333	18228
879.461	18334
879.588	18585
879.715	18601
879.842	18616
879.97	18182
880.097	17756
880.224	17623
880.351	17562
880.478	17455
880.605	17414
880.732	17258
880.859	17516
880.986	17299
881.112	17296
881.239	17242
881.366	16972
881.493	16968
881.619	16911
881.746	16976
881.872	16900
881.999	16930
882.125	16908
882.252	16942
882.378	16927
882.505	17079
882.631	16892
882.757	16706
882.883	16816
883.01	16755
883.136	16729
883.262	16733
883.388	16516
883.514	16744
883.64	16892
883.766	16717
883.892	16580
884.018	16561
884.143	16603
884.269	16839
884.395	16527
884.52	16474
884.646	16424
884.772	16333
884.897	16341
885.023	16398
885.148	16432
885.274	16519
885.399	16459
885.524	16371
885.65	16363
885.775	16470
885.9	16348
886.025	16432
886.15	16421
886.275	16379
886.4	16261
886.525	16363
886.65	16223
886.775	16207
886.9	16424
887.025	16538
887.149	16344
887.274	16044
887.399	16128
887.523	16010
887.648	15911
887.773	16021
887.897	16074
888.021	16120
888.146	16128
888.27	16154
888.395	16109
888.519	16082
888.643	16067
888.767	16093
888.891	15941
889.015	15892
889.139	15949
889.263	15724
889.387	15835
889.511	16192
889.635	15945
889.759	15755
889.883	15911
890.006	15869
890.13	15895
890.254	15774
890.377	15747
890.501	15576
890.624	15557
890.748	15690
890.871	15469
890.995	15439
891.118	15355
891.241	15397
891.364	15477
891.488	15591
891.611	15393
891.734	15469
891.857	15545
891.98	15564
892.103	15557
892.226	15549
892.349	15386
892.471	15268
892.594	15466
892.717	15401
892.839	15367
892.962	15496
893.085	15481
893.207	15431
893.33	15287
893.452	15416
893.575	15568
893.697	15420
893.819	15622
893.941	15572
894.064	15492
894.186	15321
894.308	15321
894.43	15568
894.552	15622
894.674	15435
894.796	15332
894.918	15389
895.04	15408
895.161	15526
895.283	15488
895.405	15462
895.526	15386
895.648	15458
895.769	15481
895.891	15526
896.012	15538
896.134	15549
896.255	15553
896.376	15530
896.498	15511
896.619	15500
896.74	15504
896.861	15644
896.982	15937
897.103	15964
897.224	15797
897.345	15698
897.466	15736
897.587	15850
897.708	15941
897.828	15797
897.949	15766
898.07	15671
898.19	15846
898.311	15850
898.431	15755
898.552	15876
898.672	16010
898.792	16017
898.913	15888
899.033	15785
899.153	15701
899.273	15637
899.393	15709
899.513	15720
899.633	15682
899.753	15690
899.873	15648
899.993	15667
900.113	15800
900.232	15766
900.352	15606
900.472	15580
900.591	15496
900.711	15587
900.83	15553
900.95	15743
901.069	15603
901.189	15526
901.308	15298
901.427	15192
901.546	15127
901.665	15260
901.784	15233
901.904	15043
902.023	14941
902.141	14769
902.26	14758
902.379	14720
902.498	14739
902.617	14750
902.735	14777
902.854	14705
902.973	14606
903.091	14438
903.21	14355
903.328	14438
903.446	14351
903.565	14263
903.683	14317
903.801	14180
903.919	14199
904.038	14233
904.156	14103
904.274	14065
904.392	13989
904.51	14088
904.627	14062
904.745	14153
904.863	14123
904.981	13826
905.098	13693
905.216	13822
905.334	13742
905.451	13803
905.569	13727
905.686	13731
905.803	13765
905.921	13651
906.038	13571
906.155	13624
906.272	13434
906.389	13438
906.506	13316
906.623	13263
906.74	13384
906.857	13118
906.974	13263
907.091	13308
907.208	13415
907.324	13445
907.441	13244
907.557	13091
907.674	13027
907.79	12867
907.907	12977
908.023	13000
908.139	13031
908.256	12939
908.372	12943
908.488	12943
908.604	12806
908.72	12757
908.836	12730
908.952	12669
909.068	12795
909.184	12901
909.3	12749
909.415	12894
909.531	12726
909.647	12559
909.762	12589
909.878	12452
909.993	12585
910.108	12547
910.224	12483
910.339	12544
910.454	12399
910.57	12289
910.685	12334
910.8	12627
910.915	12502
911.03	12353
911.145	12262
911.259	12140
911.374	12197
911.489	12072
911.604	12076
911.718	11950
911.833	11999
911.947	11878
912.062	11783
912.176	11935
912.291	11931
912.405	11885
912.519	12060
912.633	12129
912.748	12041
912.862	11935
912.976	11847
913.09	11707
913.204	11722
913.318	11699
913.431	11908
913.545	11840
913.659	11942
913.772	11760
913.886	11707
914	11707
914.113	11752
914.226	11764
914.34	11760
914.453	11642
914.566	11676
914.68	11623
914.793	11497
914.906	11425
915.019	11364
915.132	11334
915.245	11463
915.358	11387
915.47	11414
915.583	11433
915.696	11368
915.809	11493
915.921	11520
916.034	11406
916.146	11360
916.259	11223
916.371	11349
916.483	11455
916.595	11353
916.708	11334
916.82	11235
916.932	11341
917.044	11273
917.156	11269
917.268	11227
917.38	11254
917.491	11128
917.603	11223
917.715	11258
917.826	11318
917.938	11132
918.049	11128
918.161	11143
918.272	11307
918.384	11318
918.495	11212
918.606	11041
918.717	11003
918.828	11067
918.939	11105
919.05	10987
919.161	11029
919.272	10809
919.383	10957
919.494	11086
919.604	11220
919.715	11022
919.826	10949
919.936	11025
920.047	11128
920.157	11037
920.267	11303
920.378	11094
920.488	11113
920.598	11345
920.708	11383
920.818	11227
920.928	11277
921.038	11402
921.148	11277
921.258	11060
921.368	10930
921.477	10927
921.587	10869
921.697	10812
921.806	10869
921.916	10771
922.025	10561
922.134	10607
922.244	10565
922.353	10729
922.462	10405
922.571	10409
922.68	10223
922.789	10215
922.898	10272
923.007	10162
923.116	10318
923.224	10341
923.333	10310
923.442	10128
923.55	10128
923.659	10150
923.767	10238
923.876	10135
923.984	10105
924.092	10021
924.201	10090
924.309	10013
924.417	10124
924.525	9998
924.633	10063
924.741	10824
924.849	9880
924.956	9994
925.064	9800
925.172	9728
925.279	9789
925.387	9869
925.494	9846
925.602	9960
925.709	9865
925.816	9686
925.924	9876
926.031	9876
926.138	9793
926.245	9937
926.352	9778
926.459	9922
926.566	9918
926.673	9789
926.779	9618
926.886	9690
926.993	9625
927.099	9633
927.206	9473
927.312	9519
927.419	9595
927.525	9492
927.631	9557
927.737	9458
927.843	9496
927.95	9294
928.056	9378
928.162	9492
928.267	9469
928.373	9979
928.479	9538
928.585	9298
928.69	9458
928.796	9473
928.901	9351
929.007	9222
929.112	9306
929.218	9249
929.323	9279
929.428	9218
929.533	9393
929.638	9112
929.743	9268
929.848	9287
929.953	9157
930.058	9169
930.163	8998
930.267	8963
930.372	9135
930.477	8986
930.581	9233
930.685	9077
930.79	8918
930.894	8990
930.998	8849
931.103	9066
931.207	8678
931.311	8659
931.415	8594
931.519	8385
931.623	8309
