Data from test_V78500241_1654.txt Node
Date: Fri Mar 25 14:45:13 CST 2022
User: usil
Spectrometer: V785-0024
Trigger mode: 0
Integration Time (sec): 4.000000E-1
Scans to average: 1
Nonlinearity correction enabled: false
Boxcar width: 0
Storing dark spectrum: false
XAxis mode: Wavelengths
Number of Pixels in Spectrum: 1024
>>>>>Begin Spectral Data<<<<<
801.071	22363
801.214	22086
801.356	22040
801.499	21808
801.641	21789
801.783	21717
801.926	21633
802.068	21568
802.211	21519
802.353	21469
802.496	21287
802.638	21249
802.78	21055
802.923	20979
803.065	20937
803.208	21043
803.35	21024
803.492	21028
803.635	21085
803.777	20982
803.919	21020
804.061	21393
804.204	21036
804.346	20891
804.488	20929
804.63	20887
804.773	20838
804.915	20883
805.057	21074
805.199	20982
805.341	21032
805.483	21020
805.626	20971
805.768	20887
805.91	20948
806.052	20956
806.194	20724
806.336	21096
806.478	20910
806.62	20758
806.762	20933
806.904	21230
807.046	21389
807.188	21123
807.33	21272
807.472	21313
807.614	21218
807.756	21252
807.898	21100
808.04	20880
808.182	21100
808.324	20925
808.465	21127
808.607	21241
808.749	21317
808.891	21389
809.033	21595
809.174	21435
809.316	21321
809.458	21389
809.6	21275
809.741	21370
809.883	21435
810.025	21481
810.166	21447
810.308	21500
810.45	21507
810.591	21264
810.733	21294
810.875	21241
811.016	21009
811.158	20925
811.299	21108
811.441	21161
811.582	21355
811.724	21013
811.865	21062
812.007	21116
812.148	21184
812.29	21131
812.431	21275
812.573	21469
812.714	21519
812.855	21580
812.997	21701
813.138	21800
813.279	21751
813.421	21698
813.562	21568
813.703	21378
813.845	21298
813.986	20967
814.127	20899
814.268	20640
814.41	20659
814.551	20594
814.692	20682
814.833	20609
814.974	20659
815.115	20655
815.256	20545
815.397	20480
815.539	20385
815.68	20370
815.821	20252
815.962	20362
816.103	20336
816.244	20290
816.385	20107
816.526	20145
816.666	19989
816.807	19856
816.948	19830
817.089	19860
817.23	19826
817.371	19761
817.512	19845
817.653	19723
817.793	19689
817.934	19833
818.075	19791
818.216	19708
818.356	19704
818.497	19487
818.638	19464
818.778	19529
818.919	19438
819.06	19438
819.2	19480
819.341	19715
819.481	19537
819.622	19879
819.762	19967
819.903	19890
820.043	19719
820.184	19681
820.324	19742
820.465	19845
820.605	19723
820.746	19708
820.886	19491
821.026	19651
821.167	19533
821.307	19719
821.447	19693
821.588	19590
821.728	19548
821.868	19320
822.008	19236
822.149	19126
822.289	19251
822.429	18802
822.569	18810
822.709	18791
822.849	18688
822.99	18616
823.13	18631
823.27	18525
823.41	18414
823.55	18445
823.69	18517
823.83	18448
823.97	18350
824.11	18152
824.25	18152
824.389	18232
824.529	18258
824.669	18224
824.809	18270
824.949	18315
825.089	18323
825.228	18270
825.368	18011
825.508	18034
825.648	18015
825.787	18072
825.927	18182
826.067	17882
826.206	18026
826.346	18068
826.485	18022
826.625	17992
826.765	18076
826.904	18003
827.044	17866
827.183	17798
827.323	17691
827.462	17726
827.601	17741
827.741	17710
827.88	17752
828.02	17539
828.159	17722
828.298	17726
828.437	17699
828.577	17558
828.716	17843
828.855	17642
828.994	17505
829.134	17501
829.273	17410
829.412	17372
829.551	17471
829.69	17383
829.829	17474
829.968	17623
830.107	17512
830.246	17455
830.385	17455
830.524	17258
830.663	17299
830.802	17140
830.941	17029
831.08	17056
831.219	17075
831.357	17094
831.496	17235
831.635	17067
831.774	16957
831.913	16923
832.051	16892
832.19	16862
832.329	16934
832.467	16774
832.606	16694
832.744	16641
832.883	16759
833.022	16774
833.16	16771
833.299	16793
833.437	16717
833.576	16816
833.714	16694
833.852	16740
833.991	16767
834.129	16885
834.267	16721
834.406	16759
834.544	16752
834.682	16820
834.821	16725
834.959	16900
835.097	16691
835.235	16885
835.373	16740
835.511	16782
835.65	16774
835.788	16691
835.926	16603
836.064	16493
836.202	16500
836.34	16675
836.478	16675
836.615	16634
836.753	16660
836.891	16763
837.029	16725
837.167	16675
837.305	16706
837.443	16596
837.58	16561
837.718	16569
837.856	16561
837.993	16637
838.131	16618
838.269	16497
838.406	16535
838.544	16428
838.681	16257
838.819	16211
838.956	16021
839.094	16128
839.231	16207
839.369	16215
839.506	16489
839.643	16348
839.781	16226
839.918	16055
840.055	16166
840.193	16166
840.33	16010
840.467	16154
840.604	16051
840.742	16272
840.879	15994
841.016	15937
841.153	16044
841.29	16200
841.427	16109
841.564	16067
841.701	16093
841.838	16025
841.975	16013
842.112	15987
842.249	15827
842.385	15736
842.522	15953
842.659	15956
842.796	15838
842.933	15842
843.069	15759
843.206	15789
843.343	15968
843.479	15953
843.616	15960
843.752	15610
843.889	15606
844.025	15800
844.162	15553
844.298	15759
844.435	15584
844.571	15580
844.708	15720
844.844	15762
844.98	15743
845.117	15736
845.253	15572
845.389	15534
845.525	15633
845.661	15587
845.798	15408
845.934	15648
846.07	15477
846.206	15534
846.342	15557
846.478	15557
846.614	15268
846.75	15226
846.886	15176
847.022	15386
847.158	15275
847.294	15310
847.429	15203
847.565	15195
847.701	15526
847.837	14975
847.972	14807
848.108	15074
848.244	15055
848.379	14826
848.515	14788
848.65	14826
848.786	14891
848.921	14861
849.057	14853
849.192	14842
849.328	14864
849.463	14834
849.598	14769
849.734	14674
849.869	14667
850.004	14579
850.14	14552
850.275	14480
850.41	14446
850.545	14465
850.68	14602
850.815	14579
850.95	14571
851.085	14864
851.22	14632
851.355	14659
851.49	14587
851.625	14461
851.76	14632
851.895	14545
852.03	14332
852.165	14598
852.299	14537
852.434	14640
852.569	14602
852.703	14541
852.838	14689
852.973	14785
853.107	14716
853.242	14602
853.376	14480
853.511	14309
853.645	14339
853.78	14522
853.914	14499
854.048	14488
854.183	14332
854.317	14514
854.451	14640
854.585	14476
854.72	14362
854.854	14518
854.988	14374
855.122	14389
855.256	14377
855.39	14336
855.524	14488
855.658	14530
855.792	14511
855.926	14427
856.06	14533
856.194	14590
856.327	14511
856.461	14393
856.595	14446
856.729	14457
856.862	14499
856.996	14438
857.13	14503
857.263	14518
857.397	14655
857.53	14480
857.664	14511
857.797	14579
857.931	14541
858.064	14511
858.197	14590
858.331	14473
858.464	14450
858.597	14328
858.731	14507
858.864	14336
858.997	14389
859.13	14408
859.263	14503
859.396	14560
859.529	14355
859.662	14393
859.795	14389
859.928	14454
860.061	14644
860.194	14682
860.327	14503
860.46	14427
860.592	14537
860.725	14499
860.858	14640
860.99	14419
861.123	14377
861.256	14408
861.388	14507
861.521	15024
861.653	14332
861.786	14328
861.918	14267
862.05	14286
862.183	14457
862.315	14434
862.447	14495
862.58	14374
862.712	14252
862.844	14180
862.976	14362
863.108	14313
863.24	14800
863.372	14183
863.504	14123
863.636	14149
863.768	14195
863.9	14244
864.032	14172
864.164	14221
864.296	14206
864.428	14278
864.559	14320
864.691	14370
864.823	14233
864.954	14240
865.086	14256
865.217	14187
865.349	14130
865.48	14233
865.612	14161
865.743	14229
865.875	14305
866.006	14176
866.137	14225
866.269	14195
866.4	14142
866.531	14149
866.662	14103
866.793	14210
866.924	14145
867.055	14161
867.186	14176
867.317	14065
867.448	14145
867.579	14164
867.71	14092
867.841	14149
867.972	14206
868.103	14130
868.233	14187
868.364	14248
868.495	14351
868.625	14427
868.756	14488
868.886	14370
869.017	14404
869.147	14632
869.278	14575
869.408	14465
869.539	14442
869.669	14465
869.799	14606
869.929	14621
870.06	14610
870.19	14819
870.32	14708
870.45	14754
870.58	14735
870.71	14921
870.84	14963
870.97	14845
871.1	14792
871.23	15051
871.36	15062
871.489	14937
871.619	15009
871.749	15066
871.879	15047
872.008	15180
872.138	15039
872.267	14956
872.397	14834
872.526	14906
872.656	14872
872.785	14906
872.915	14948
873.044	15180
873.173	15081
873.303	15017
873.432	15131
873.561	15157
873.69	15146
873.819	15077
873.948	15131
874.077	15123
874.206	15100
874.335	15127
874.464	15211
874.593	15401
874.722	15302
874.851	15405
874.979	15500
875.108	15481
875.237	15477
875.365	15310
875.494	15420
875.623	15523
875.751	15458
875.88	15397
876.008	15557
876.136	15694
876.265	15857
876.393	16010
876.521	15972
876.65	15854
876.778	15861
876.906	15766
877.034	15732
877.162	15816
877.29	15804
877.418	15781
877.546	15804
877.674	15781
877.802	15816
877.93	15857
878.058	15728
878.185	15713
878.313	15816
878.441	15797
878.568	15701
878.696	15797
878.824	15831
878.951	15884
879.079	16036
879.206	16116
879.333	15983
879.461	15930
879.588	16048
879.715	15987
879.842	16139
879.97	15968
880.097	15671
880.224	15629
880.351	15831
880.478	15751
880.605	15629
880.732	15648
880.859	15880
880.986	15606
881.112	15724
881.239	15564
881.366	15351
881.493	15424
881.619	15348
881.746	15351
881.872	15393
881.999	15298
882.125	15298
882.252	15382
882.378	15355
882.505	15500
882.631	15329
882.757	15154
882.883	15195
883.01	15260
883.136	15036
883.262	14979
883.388	14963
883.514	15154
883.64	15245
883.766	15100
883.892	14944
884.018	15043
884.143	15112
884.269	15256
884.395	14918
884.52	14887
884.646	14758
884.772	14800
884.897	14800
885.023	14937
885.148	14868
885.274	15017
885.399	14830
885.524	14906
885.65	14872
885.775	14853
885.9	14842
886.025	14944
886.15	14887
886.275	14777
886.4	14823
886.525	14758
886.65	14667
886.775	14811
886.9	15009
887.025	15047
887.149	14918
887.274	14796
887.399	14594
887.523	14674
887.648	14613
887.773	14590
887.897	14750
888.021	14762
888.146	14602
888.27	14845
888.395	14785
888.519	14781
888.643	14739
888.767	14693
888.891	14625
889.015	14450
889.139	14610
889.263	14522
889.387	14648
889.511	14762
889.635	14606
889.759	14461
889.883	14503
890.006	14499
890.13	14598
890.254	14473
890.377	14537
890.501	14431
890.624	14381
890.748	14374
890.871	14377
890.995	14202
891.118	14248
891.241	14286
891.364	14263
891.488	14355
891.611	14187
891.734	14172
891.857	14282
891.98	14252
892.103	14240
892.226	14290
892.349	14225
892.471	14020
892.594	14176
892.717	14294
892.839	14172
892.962	14275
893.085	14225
893.207	14263
893.33	14157
893.452	14225
893.575	14298
893.697	14187
893.819	14282
893.941	14480
894.064	14400
894.186	14195
894.308	14202
894.43	14271
894.552	14393
894.674	14389
894.796	14199
894.918	14267
895.04	14290
895.161	14389
895.283	14336
895.405	14191
895.526	14298
895.648	14366
895.769	14339
895.891	14370
896.012	14396
896.134	14328
896.255	14434
896.376	14309
896.498	14408
896.619	14419
896.74	14415
896.861	14412
896.982	14777
897.103	14826
897.224	14678
897.345	14598
897.466	14537
897.587	14674
897.708	14876
897.828	14758
897.949	14629
898.07	14457
898.19	14594
898.311	14845
898.431	14682
898.552	14739
898.672	14785
898.792	14785
898.913	14842
899.033	14708
899.153	14556
899.273	14541
899.393	14560
899.513	14594
899.633	14617
899.753	14571
899.873	14579
899.993	14602
900.113	14663
900.232	14682
900.352	14663
900.472	14549
900.591	14541
900.711	14461
900.83	14404
900.95	14446
901.069	14499
901.189	14442
901.308	14176
901.427	14130
901.546	14130
901.665	14157
901.784	14225
901.904	14027
902.023	13936
902.141	13765
902.26	13693
902.379	13753
902.498	13704
902.617	13803
902.735	13822
902.854	13636
902.973	13616
903.091	13354
903.21	13411
903.328	13403
903.446	13388
903.565	13263
903.683	13324
903.801	13149
903.919	13274
904.038	13263
904.156	13099
904.274	13099
904.392	13084
904.51	13126
904.627	13114
904.745	13145
904.863	13228
904.981	12909
905.098	12779
905.216	12753
905.334	12806
905.451	12852
905.569	12806
905.686	12920
905.803	12757
905.921	12601
906.038	12627
906.155	12646
906.272	12429
906.389	12498
906.506	12361
906.623	12410
906.74	12350
906.857	12254
906.974	12311
907.091	12369
907.208	12544
907.324	12509
907.441	12289
907.557	12076
907.674	12053
907.79	12003
907.907	12030
908.023	12171
908.139	12201
908.256	12121
908.372	12019
908.488	12049
908.604	11916
908.72	11851
908.836	11802
908.952	11855
909.068	11897
909.184	11942
909.3	11817
909.415	11893
909.531	11866
909.647	11726
909.762	11608
909.878	11600
909.993	11672
910.108	11562
910.224	11600
910.339	11630
910.454	11539
910.57	11398
910.685	11452
910.8	11638
910.915	11680
911.03	11509
911.145	11292
911.259	11372
911.374	11204
911.489	11246
911.604	11166
911.718	11105
911.833	11045
911.947	10976
912.062	10968
912.176	11029
912.291	11064
912.405	11162
912.519	11315
912.633	11227
912.748	11178
912.862	11083
912.976	11006
913.09	10801
913.204	10938
913.318	10976
913.431	11045
913.545	11064
913.659	11124
913.772	10984
913.886	10900
914	10778
914.113	10915
914.226	11033
914.34	10965
914.453	10782
914.566	10904
914.68	10790
914.793	10752
914.906	10599
915.019	10580
915.132	10558
915.245	10542
915.358	10584
915.47	10618
915.583	10656
915.696	10523
915.809	10679
915.921	10714
916.034	10508
916.146	10554
916.259	10493
916.371	10714
916.483	10626
916.595	10538
916.708	10542
916.82	10542
916.932	10542
917.044	10500
917.156	10440
917.268	10363
917.38	10443
917.491	10325
917.603	10447
917.715	10459
917.826	10516
917.938	10363
918.049	10398
918.161	10390
918.272	10527
918.384	10584
918.495	10462
918.606	10314
918.717	10246
918.828	10375
918.939	10306
919.05	10211
919.161	10268
919.272	10021
919.383	10162
919.494	10367
919.604	10542
919.715	10249
919.826	10227
919.936	10261
920.047	10356
920.157	10325
920.267	10531
920.378	10363
920.488	10276
920.598	10516
920.708	10656
920.818	10470
920.928	10493
921.038	10645
921.148	10580
921.258	10337
921.368	10249
921.477	10154
921.587	10196
921.697	10078
921.806	10242
921.916	10082
922.025	9960
922.134	9857
922.244	9793
922.353	9907
922.462	9751
922.571	9774
922.68	9523
922.789	9572
922.898	9614
923.007	9488
923.116	9610
923.224	9557
923.333	9477
923.442	9420
923.55	9473
923.659	9431
923.767	9538
923.876	9431
923.984	9526
924.092	9393
924.201	9420
924.309	9382
924.417	9378
924.525	9325
924.633	9389
924.741	10116
924.849	9249
924.956	9408
925.064	9222
925.172	9157
925.279	9173
925.387	9199
925.494	9245
925.602	9294
925.709	9317
925.816	9100
925.924	9180
926.031	9325
926.138	9222
926.245	9127
926.352	9241
926.459	9230
926.566	9321
926.673	9173
926.779	9104
926.886	9066
926.993	8929
927.099	8868
927.206	8823
927.312	8971
927.419	8998
927.525	8891
927.631	9036
927.737	8902
927.843	8804
927.95	8735
928.056	8876
928.162	8811
928.267	8853
928.373	9416
928.479	8941
928.585	8705
928.69	8800
928.796	8861
928.901	8746
929.007	8549
929.112	8716
929.218	8716
929.323	8594
929.428	8686
929.533	8693
929.638	8518
929.743	8621
929.848	8663
929.953	8598
930.058	8549
930.163	8362
930.267	8415
930.372	8552
930.477	8366
930.581	8613
930.685	8492
930.79	8313
930.894	8423
930.998	8332
931.103	8503
931.207	8115
931.311	8081
931.415	8024
931.519	7788
931.623	7841
