Data from test_V78500241_1441.txt Node
Date: Fri Mar 25 14:43:44 CST 2022
User: usil
Spectrometer: V785-0024
Trigger mode: 0
Integration Time (sec): 4.000000E-1
Scans to average: 1
Nonlinearity correction enabled: false
Boxcar width: 0
Storing dark spectrum: false
XAxis mode: Wavelengths
Number of Pixels in Spectrum: 1024
>>>>>Begin Spectral Data<<<<<
801.071	22508
801.214	22356
801.356	21998
801.499	21941
801.641	21812
801.783	21679
801.926	21622
802.068	21705
802.211	21561
802.353	21614
802.496	21370
802.638	21294
802.78	21237
802.923	21157
803.065	21188
803.208	21142
803.35	21207
803.492	21089
803.635	21192
803.777	21104
803.919	21192
804.061	21450
804.204	21241
804.346	21039
804.488	21028
804.63	21043
804.773	21047
804.915	21047
805.057	21237
805.199	21085
805.341	21104
805.483	21127
805.626	21176
805.768	21051
805.91	21074
806.052	20944
806.194	21047
806.336	21363
806.478	21043
806.62	21020
806.762	21066
806.904	21214
807.046	21534
807.188	21428
807.33	21325
807.472	21424
807.614	21279
807.756	21462
807.898	21252
808.04	21249
808.182	21184
808.324	21363
808.465	21401
808.607	21408
808.749	21694
808.891	21717
809.033	21804
809.174	21739
809.316	21572
809.458	21466
809.6	21572
809.741	21599
809.883	21553
810.025	21660
810.166	21622
810.308	21595
810.45	21663
810.591	21450
810.733	21367
810.875	21351
811.016	21108
811.158	21142
811.299	21408
811.441	21313
811.582	21363
811.724	21291
811.865	21150
812.007	21180
812.148	21211
812.29	21233
812.431	21443
812.573	21587
812.714	21553
812.855	21705
812.997	21717
813.138	21861
813.279	21949
813.421	21747
813.562	21656
813.703	21515
813.845	21367
813.986	21100
814.127	21032
814.268	20902
814.41	20819
814.551	20838
814.692	20902
814.833	20762
814.974	20686
815.115	20743
815.256	20724
815.397	20636
815.539	20667
815.68	20583
815.821	20381
815.962	20617
816.103	20514
816.244	20286
816.385	20309
816.526	20191
816.666	20271
816.807	19925
816.948	19982
817.089	20088
817.23	20005
817.371	19887
817.512	19917
817.653	19871
817.793	19830
817.934	19944
818.075	19928
818.216	19955
818.356	19852
818.497	19776
818.638	19628
818.778	19556
818.919	19708
819.06	19567
819.2	19715
819.341	19822
819.481	19868
819.622	19917
819.762	20111
819.903	20065
820.043	20008
820.184	19875
820.324	19791
820.465	19974
820.605	19955
820.746	19883
820.886	19795
821.026	19837
821.167	19879
821.307	19890
821.447	19822
821.588	19734
821.728	19616
821.868	19377
822.008	19434
822.149	19350
822.289	19301
822.429	19084
822.569	18924
822.709	18973
822.849	18814
822.99	18871
823.13	18696
823.27	18802
823.41	18593
823.55	18563
823.69	18528
823.83	18540
823.97	18532
824.11	18388
824.25	18384
824.389	18437
824.529	18346
824.669	18365
824.809	18467
824.949	18494
825.089	18372
825.228	18376
825.368	18148
825.508	18224
825.648	18262
825.787	18209
825.927	18270
826.067	18121
826.206	18045
826.346	18144
826.485	18140
826.625	18155
826.765	18281
826.904	18182
827.044	17958
827.183	17927
827.323	17840
827.462	17923
827.601	17855
827.741	17764
827.88	17855
828.02	17695
828.159	17893
828.298	17767
828.437	17904
828.577	17805
828.716	18034
828.855	17767
828.994	17638
829.134	17638
829.273	17554
829.412	17493
829.551	17539
829.69	17554
829.829	17630
829.968	17630
830.107	17649
830.246	17646
830.385	17539
830.524	17467
830.663	17493
830.802	17322
830.941	17277
831.08	17227
831.219	17337
831.357	17204
831.496	17509
831.635	17220
831.774	17140
831.913	17140
832.051	16965
832.19	17014
832.329	17041
832.467	16896
832.606	16949
832.744	16843
832.883	16900
833.022	16873
833.16	16889
833.299	16911
833.437	16900
833.576	16889
833.714	16957
833.852	17033
833.991	16915
834.129	17003
834.267	17041
834.406	16889
834.544	17025
834.682	16953
834.821	16873
834.959	17136
835.097	16919
835.235	17098
835.373	16869
835.511	17064
835.65	16839
835.788	16862
835.926	16778
836.064	16679
836.202	16687
836.34	16831
836.478	16900
836.615	16885
836.753	16930
836.891	16889
837.029	16790
837.167	16679
837.305	16733
837.443	16835
837.58	16672
837.718	16850
837.856	16702
837.993	16691
838.131	16710
838.269	16569
838.406	16573
838.544	16630
838.681	16371
838.819	16360
838.956	16295
839.094	16242
839.231	16276
839.369	16424
839.506	16694
839.643	16527
839.781	16249
839.918	16150
840.055	16234
840.193	16310
840.33	16086
840.467	16291
840.604	16284
840.742	16527
840.879	16169
841.016	16135
841.153	16211
841.29	16417
841.427	16196
841.564	16234
841.701	16215
841.838	16207
841.975	16177
842.112	16143
842.249	15987
842.385	15998
842.522	16207
842.659	16074
842.796	16036
842.933	16021
843.069	16078
843.206	16025
843.343	16021
843.479	15991
843.616	15979
843.752	15835
843.889	15854
844.025	15945
844.162	15812
844.298	15838
844.435	15827
844.571	15766
844.708	15880
844.844	15987
844.98	16010
845.117	16002
845.253	15835
845.389	15709
845.525	15755
845.661	15778
845.798	15865
845.934	15926
846.07	15846
846.206	15911
846.342	15926
846.478	15819
846.614	15618
846.75	15450
846.886	15412
847.022	15496
847.158	15424
847.294	15401
847.429	15488
847.565	15367
847.701	15633
847.837	15218
847.972	15123
848.108	15211
848.244	15192
848.379	15043
848.515	15005
848.65	15017
848.786	15047
848.921	15066
849.057	15176
849.192	15074
849.328	15093
849.463	14963
849.598	14990
849.734	14876
849.869	14925
850.004	14807
850.14	14880
850.275	14739
850.41	14625
850.545	14720
850.68	14765
850.815	14712
850.95	14750
851.085	14956
851.22	14830
851.355	14823
851.49	14724
851.625	14804
851.76	14777
851.895	14781
852.03	14648
852.165	14689
852.299	14819
852.434	14876
852.569	14826
852.703	14819
852.838	14834
852.973	14880
853.107	14986
853.242	14773
853.376	14606
853.511	14518
853.645	14514
853.78	14773
853.914	14693
854.048	14621
854.183	14530
854.317	14697
854.451	14872
854.585	14632
854.72	14629
854.854	14648
854.988	14587
855.122	14590
855.256	14556
855.39	14693
855.524	14792
855.658	14674
855.792	14663
855.926	14712
856.06	14705
856.194	14819
856.327	14632
856.461	14579
856.595	14598
856.729	14674
856.862	14708
856.996	14663
857.13	14727
857.263	14727
857.397	14853
857.53	14636
857.664	14754
857.797	14697
857.931	14804
858.064	14796
858.197	14788
858.331	14678
858.464	14488
858.597	14552
858.731	14670
858.864	14579
858.997	14663
859.13	14678
859.263	14625
859.396	14739
859.529	14625
859.662	14575
859.795	14571
859.928	14587
860.061	14720
860.194	14773
860.327	14689
860.46	14663
860.592	14731
860.725	14754
860.858	14800
860.99	14587
861.123	14571
861.256	14568
861.388	14640
861.521	15359
861.653	14533
861.786	14446
861.918	14442
862.05	14552
862.183	14526
862.315	14613
862.447	14659
862.58	14636
862.712	14404
862.844	14377
862.976	14461
863.108	14465
863.24	14952
863.372	14313
863.504	14423
863.636	14393
863.768	14465
863.9	14396
864.032	14396
864.164	14374
864.296	14507
864.428	14514
864.559	14541
864.691	14457
864.823	14484
864.954	14488
865.086	14419
865.217	14427
865.349	14400
865.48	14419
865.612	14480
865.743	14431
865.875	14385
866.006	14381
866.137	14370
866.269	14400
866.4	14446
866.531	14427
866.662	14290
866.793	14377
866.924	14298
867.055	14362
867.186	14305
867.317	14355
867.448	14298
867.579	14301
867.71	14393
867.841	14275
867.972	14408
868.103	14374
868.233	14396
868.364	14374
868.495	14476
868.625	14648
868.756	14712
868.886	14575
869.017	14552
869.147	14762
869.278	14670
869.408	14667
869.539	14640
869.669	14792
869.799	14708
869.929	14739
870.06	14746
870.19	14952
870.32	14868
870.45	14994
870.58	15074
870.71	15211
870.84	15108
870.97	15123
871.1	15013
871.23	15291
871.36	15180
871.489	15127
871.619	15195
871.749	15207
871.879	15264
872.008	15340
872.138	15256
872.267	15142
872.397	15093
872.526	15017
872.656	15017
872.785	15066
872.915	15291
873.044	15279
873.173	15173
873.303	15302
873.432	15363
873.561	15393
873.69	15287
873.819	15256
873.948	15359
874.077	15317
874.206	15264
874.335	15428
874.464	15538
874.593	15530
874.722	15538
874.851	15500
874.979	15682
875.108	15648
875.237	15606
875.365	15401
875.494	15663
875.623	15709
875.751	15625
875.88	15599
876.008	15580
876.136	15857
876.265	15975
876.393	16120
876.521	16059
876.65	16002
876.778	15987
876.906	15899
877.034	16013
877.162	16078
877.29	15953
877.418	15968
877.546	16048
877.674	16074
877.802	16067
877.93	15983
878.058	15968
878.185	15873
878.313	15956
878.441	16055
878.568	15945
878.696	15918
878.824	16082
878.951	16124
879.079	16204
879.206	16455
879.333	16299
879.461	16253
879.588	16234
879.715	16379
879.842	16466
879.97	16120
880.097	15949
880.224	15949
880.351	15975
880.478	15975
880.605	15888
880.732	15945
880.859	16120
880.986	15911
881.112	15979
881.239	15804
881.366	15603
881.493	15599
881.619	15492
881.746	15591
881.872	15557
881.999	15568
882.125	15656
882.252	15568
882.378	15526
882.505	15603
882.631	15454
882.757	15287
882.883	15363
883.01	15367
883.136	15245
883.262	15252
883.388	15226
883.514	15405
883.64	15382
883.766	15283
883.892	15218
884.018	15176
884.143	15355
884.269	15397
884.395	15241
884.52	15131
884.646	15028
884.772	15009
884.897	14967
885.023	15074
885.148	15195
885.274	15211
885.399	15211
885.524	15081
885.65	15070
885.775	15097
885.9	15097
886.025	15161
886.15	15104
886.275	14994
886.4	15009
886.525	14994
886.65	14975
886.775	14925
886.9	15176
887.025	15294
887.149	15001
887.274	14899
887.399	14899
887.523	14724
887.648	14765
887.773	14845
887.897	14864
888.021	15009
888.146	14773
888.27	14998
888.395	14960
888.519	14990
888.643	14883
888.767	14826
888.891	14788
889.015	14644
889.139	14880
889.263	14777
889.387	14811
889.511	14906
889.635	14887
889.759	14727
889.883	14708
890.006	14807
890.13	14762
890.254	14590
890.377	14762
890.501	14450
890.624	14400
890.748	14697
890.871	14389
890.995	14347
891.118	14309
891.241	14393
891.364	14427
891.488	14571
891.611	14385
891.734	14358
891.857	14328
891.98	14438
892.103	14465
892.226	14404
892.349	14351
892.471	14157
892.594	14412
892.717	14370
892.839	14305
892.962	14412
893.085	14465
893.207	14385
893.33	14168
893.452	14366
893.575	14480
893.697	14320
893.819	14575
893.941	14594
894.064	14545
894.186	14419
894.308	14309
894.43	14480
894.552	14621
894.674	14549
894.796	14400
894.918	14488
895.04	14377
895.161	14526
895.283	14545
895.405	14419
895.526	14431
895.648	14461
895.769	14488
895.891	14495
896.012	14560
896.134	14488
896.255	14526
896.376	14507
896.498	14484
896.619	14568
896.74	14507
896.861	14629
896.982	14906
897.103	15077
897.224	14975
897.345	14853
897.466	14720
897.587	14823
897.708	14971
897.828	14830
897.949	14743
898.07	14712
898.19	14727
898.311	14941
898.431	14788
898.552	14849
898.672	15028
898.792	15013
898.913	14857
899.033	14853
899.153	14804
899.273	14689
899.393	14765
899.513	14769
899.633	14743
899.753	14762
899.873	14667
899.993	14864
900.113	14670
900.232	14716
900.352	14731
900.472	14667
900.591	14632
900.711	14701
900.83	14537
900.95	14724
901.069	14788
901.189	14495
901.308	14278
901.427	14240
901.546	14248
901.665	14358
901.784	14351
901.904	14172
902.023	14020
902.141	13936
902.26	13860
902.379	13890
902.498	13921
902.617	13898
902.735	13799
902.854	13833
902.973	13807
903.091	13681
903.21	13537
903.328	13632
903.446	13514
903.565	13426
903.683	13449
903.801	13308
903.919	13392
904.038	13430
904.156	13266
904.274	13304
904.392	13240
904.51	13251
904.627	13209
904.745	13403
904.863	13251
904.981	13053
905.098	12882
905.216	12875
905.334	12920
905.451	12966
905.569	12863
905.686	12924
905.803	12913
905.921	12730
906.038	12821
906.155	12711
906.272	12684
906.389	12585
906.506	12490
906.623	12566
906.74	12513
906.857	12460
906.974	12334
907.091	12555
907.208	12555
907.324	12532
907.441	12391
907.557	12254
907.674	12262
907.79	12175
907.907	12270
908.023	12289
908.139	12243
908.256	12190
908.372	12148
908.488	12125
908.604	12038
908.72	11965
908.836	11984
908.952	11969
909.068	12026
909.184	12102
909.3	11996
909.415	12068
909.531	12034
909.647	11817
909.762	11790
909.878	11710
909.993	11745
910.108	11680
910.224	11760
910.339	11794
910.454	11642
910.57	11649
910.685	11512
910.8	11802
910.915	11783
911.03	11729
911.145	11486
911.259	11376
911.374	11421
911.489	11364
911.604	11406
911.718	11201
911.833	11242
911.947	11109
912.062	11037
912.176	11174
912.291	11212
912.405	11261
912.519	11345
912.633	11364
912.748	11242
912.862	11197
912.976	11071
913.09	11064
913.204	11045
913.318	11109
913.431	11121
913.545	11193
913.659	11254
913.772	11102
913.886	10938
914	10930
914.113	10987
914.226	11140
914.34	11079
914.453	10889
914.566	11174
914.68	10930
914.793	10881
914.906	10668
915.019	10645
915.132	10523
915.245	10687
915.358	10729
915.47	10744
915.583	10714
915.696	10752
915.809	10786
915.921	10862
916.034	10759
916.146	10577
916.259	10668
916.371	10763
916.483	10706
916.595	10668
916.708	10649
916.82	10710
916.932	10603
917.044	10660
917.156	10554
917.268	10519
917.38	10599
917.491	10478
917.603	10478
917.715	10675
917.826	10603
917.938	10516
918.049	10466
918.161	10542
918.272	10729
918.384	10679
918.495	10561
918.606	10443
918.717	10390
918.828	10500
918.939	10500
919.05	10341
919.161	10432
919.272	10223
919.383	10306
919.494	10451
919.604	10641
919.715	10409
919.826	10413
919.936	10356
920.047	10497
920.157	10447
920.267	10725
920.378	10398
920.488	10466
920.598	10558
920.708	10820
920.818	10634
920.928	10630
921.038	10755
921.148	10790
921.258	10447
921.368	10421
921.477	10341
921.587	10306
921.697	10154
921.806	10303
921.916	10196
922.025	10063
922.134	9960
922.244	9991
922.353	10090
922.462	9941
922.571	9861
922.68	9740
922.789	9690
922.898	9690
923.007	9606
923.116	9698
923.224	9679
923.333	9667
923.442	9576
923.55	9564
923.659	9633
923.767	9561
923.876	9523
923.984	9705
924.092	9496
924.201	9496
924.309	9542
924.417	9549
924.525	9462
924.633	9587
924.741	10409
924.849	9378
924.956	9435
925.064	9351
925.172	9253
925.279	9321
925.387	9374
925.494	9291
925.602	9439
925.709	9473
925.816	9272
925.924	9416
926.031	9466
926.138	9321
926.245	9507
926.352	9233
926.459	9370
926.566	9416
926.673	9283
926.779	9249
926.886	9146
926.993	9157
927.099	8998
927.206	9020
927.312	8998
927.419	9138
927.525	9123
927.631	9055
927.737	8986
927.843	8941
927.95	8834
928.056	8952
928.162	8967
928.267	9017
928.373	9614
928.479	9062
928.585	8807
928.69	8868
928.796	8929
928.901	8777
929.007	8735
929.112	8899
929.218	8785
929.323	8804
929.428	8670
929.533	8857
929.638	8701
929.743	8754
929.848	8773
929.953	8766
930.058	8613
930.163	8503
930.267	8549
930.372	8621
930.477	8514
930.581	8720
930.685	8648
930.79	8408
930.894	8537
930.998	8434
931.103	8625
931.207	8263
931.311	8206
931.415	8092
931.519	7974
931.623	7970
