Data from test_V78500241_473.txt Node
Date: Fri Mar 25 14:37:00 CST 2022
User: usil
Spectrometer: V785-0024
Trigger mode: 0
Integration Time (sec): 4.000000E-1
Scans to average: 1
Nonlinearity correction enabled: false
Boxcar width: 0
Storing dark spectrum: false
XAxis mode: Wavelengths
Number of Pixels in Spectrum: 1024
>>>>>Begin Spectral Data<<<<<
801.071	26537
801.214	26393
801.356	26183
801.499	26046
801.641	26092
801.783	25955
801.926	26084
802.068	25909
802.211	25989
802.353	25822
802.496	25605
802.638	25666
802.78	25521
802.923	25411
803.065	25400
803.208	25419
803.35	25479
803.492	25491
803.635	25784
803.777	25586
803.919	25567
804.061	25791
804.204	25559
804.346	25506
804.488	25343
804.63	25396
804.773	25438
804.915	25441
805.057	25624
805.199	25476
805.341	25438
805.483	25666
805.626	25479
805.768	25479
805.91	25491
806.052	25548
806.194	25343
806.336	25609
806.478	25460
806.62	25479
806.762	25704
806.904	25799
807.046	26043
807.188	25845
807.33	25845
807.472	25860
807.614	25685
807.756	25723
807.898	25723
808.04	25651
808.182	25506
808.324	25723
808.465	25651
808.607	25833
808.749	25932
808.891	26016
809.033	26130
809.174	26122
809.316	26039
809.458	26043
809.6	25940
809.741	26020
809.883	25970
810.025	26256
810.166	26172
810.308	26149
810.45	26039
810.591	26130
810.733	25841
810.875	25944
811.016	25814
811.158	25769
811.299	25959
811.441	25841
811.582	25963
811.724	25830
811.865	25693
812.007	25742
812.148	25883
812.29	25784
812.431	25970
812.573	26267
812.714	26149
812.855	26351
812.997	26381
813.138	26571
813.279	26431
813.421	26328
813.562	26248
813.703	26065
813.845	25947
813.986	25567
814.127	25556
814.268	25430
814.41	25354
814.551	25396
814.692	25506
814.833	25312
814.974	25259
815.115	25289
815.256	25206
815.397	25168
815.539	25145
815.68	25148
815.821	25141
815.962	25019
816.103	25046
816.244	24890
816.385	24856
816.526	24650
816.666	24681
816.807	24521
816.948	24601
817.089	24582
817.23	24612
817.371	24418
817.512	24437
817.653	24589
817.793	24296
817.934	24563
818.075	24540
818.216	24540
818.356	24422
818.497	24304
818.638	24136
818.778	24182
818.919	24186
819.06	24232
819.2	24380
819.341	24399
819.481	24224
819.622	24544
819.762	24658
819.903	24570
820.043	24661
820.184	24361
820.324	24475
820.465	24620
820.605	24525
820.746	24410
820.886	24319
821.026	24403
821.167	24361
821.307	24418
821.447	24391
821.588	24262
821.728	24182
821.868	24045
822.008	23813
822.149	23920
822.289	23790
822.429	23501
822.569	23512
822.709	23471
822.849	23239
822.99	23242
823.13	23311
823.27	23132
823.41	23083
823.55	23033
823.69	23117
823.83	23143
823.97	23006
824.11	22850
824.25	22812
824.389	22763
824.529	22805
824.669	22740
824.809	22881
824.949	22858
825.089	22843
825.228	22786
825.368	22653
825.508	22554
825.648	22630
825.787	22584
825.927	22729
826.067	22474
826.206	22569
826.346	22721
826.485	22577
826.625	22672
826.765	22615
826.904	22535
827.044	22314
827.183	22337
827.323	22242
827.462	22276
827.601	22215
827.741	22215
827.88	22234
828.02	22101
828.159	22253
828.298	22325
828.437	22196
828.577	22238
828.716	22402
828.855	22226
828.994	22101
829.134	21808
829.273	22044
829.412	21975
829.551	22101
829.69	21960
829.829	21994
829.968	22010
830.107	22105
830.246	21968
830.385	22017
830.524	21915
830.663	21724
830.802	21861
830.941	21473
831.08	21557
831.219	21694
831.357	21557
831.496	21747
831.635	21591
831.774	21447
831.913	21443
832.051	21306
832.19	21428
832.329	21283
832.467	21306
832.606	21119
832.744	21112
832.883	21237
833.022	21161
833.16	21283
833.299	21226
833.437	21291
833.576	21161
833.714	21302
833.852	21252
833.991	21272
834.129	21336
834.267	21401
834.406	21249
834.544	21382
834.682	21264
834.821	21272
834.959	21428
835.097	21211
835.235	21245
835.373	21256
835.511	21306
835.65	21150
835.788	21066
835.926	21036
836.064	20990
836.202	20982
836.34	21077
836.478	21199
836.615	21058
836.753	21150
836.891	21226
837.029	21176
837.167	21024
837.305	21005
837.443	21013
837.58	20975
837.718	20994
837.856	21119
837.993	20990
838.131	20963
838.269	20819
838.406	20883
838.544	20895
838.681	20598
838.819	20480
838.956	20495
839.094	20351
839.231	20514
839.369	20518
839.506	20762
839.643	20590
839.781	20450
839.918	20408
840.055	20446
840.193	20355
840.33	20275
840.467	20298
840.604	20419
840.742	20621
840.879	20248
841.016	20298
841.153	20195
841.29	20370
841.427	20347
841.564	20358
841.701	20294
841.838	20240
841.975	20145
842.112	20210
842.249	20107
842.385	20077
842.522	20305
842.659	20073
842.796	19982
842.933	19997
843.069	19970
843.206	20031
843.343	20183
843.479	20039
843.616	20111
843.752	19849
843.889	19856
844.025	19925
844.162	19814
844.298	19947
844.435	19772
844.571	19666
844.708	19814
844.844	19906
844.98	19913
845.117	19951
845.253	19753
845.389	19715
845.525	19784
845.661	19689
845.798	19620
845.934	19784
846.07	19586
846.206	19700
846.342	19696
846.478	19518
846.614	19324
846.75	19278
846.886	19331
847.022	19324
847.158	19434
847.294	19247
847.429	19392
847.565	19373
847.701	19449
847.837	18989
847.972	18909
848.108	19194
848.244	19084
848.379	18867
848.515	18764
848.65	18768
848.786	18646
848.921	18932
849.057	18905
849.192	18909
849.328	18829
849.463	18833
849.598	18776
849.734	18589
849.869	18627
850.004	18677
850.14	18719
850.275	18654
850.41	18502
850.545	18521
850.68	18521
850.815	18719
850.95	18544
851.085	18772
851.22	18612
851.355	18525
851.49	18494
851.625	18612
851.76	18483
851.895	18506
852.03	18334
852.165	18639
852.299	18578
852.434	18658
852.569	18604
852.703	18635
852.838	18597
852.973	18566
853.107	18673
853.242	18540
853.376	18410
853.511	18266
853.645	18346
853.78	18627
853.914	18357
854.048	18334
854.183	18498
854.317	18456
854.451	18540
854.585	18369
854.72	18384
854.854	18555
854.988	18369
855.122	18429
855.256	18251
855.39	18467
855.524	18399
855.658	18384
855.792	18342
855.926	18395
856.06	18445
856.194	18445
856.327	18460
856.461	18346
856.595	18330
856.729	18262
856.862	18426
856.996	18456
857.13	18456
857.263	18399
857.397	18490
857.53	18361
857.664	18353
857.797	18429
857.931	18448
858.064	18384
858.197	18418
858.331	18228
858.464	18342
858.597	18140
858.731	18235
858.864	18258
858.997	18155
859.13	18350
859.263	18350
859.396	18479
859.529	18277
859.662	18304
859.795	18315
859.928	18353
860.061	18551
860.194	18483
860.327	18350
860.46	18376
860.592	18353
860.725	18452
860.858	18399
860.99	18213
861.123	18281
861.256	18258
861.388	18289
861.521	18920
861.653	18091
861.786	18167
861.918	18190
862.05	18243
862.183	18327
862.315	18391
862.447	18365
862.58	18270
862.712	18091
862.844	18098
862.976	18045
863.108	18209
863.24	18486
863.372	17996
863.504	17969
863.636	18072
863.768	18224
863.9	18110
864.032	17992
864.164	18026
864.296	18041
864.428	18159
864.559	18174
864.691	18121
864.823	18087
864.954	17992
865.086	18015
865.217	17889
865.349	17942
865.48	17889
865.612	17980
865.743	18114
865.875	18049
866.006	17901
866.137	18026
866.269	18072
866.4	18034
866.531	17901
866.662	17870
866.793	17866
866.924	17828
867.055	17958
867.186	17923
867.317	17847
867.448	17813
867.579	17927
867.71	17817
867.841	17802
867.972	17931
868.103	17912
868.233	17893
868.364	17916
868.495	18049
868.625	18152
868.756	18258
868.886	17996
869.017	18182
869.147	18266
869.278	18178
869.408	18091
869.539	18220
869.669	18174
869.799	18095
869.929	18209
870.06	18220
870.19	18471
870.32	18384
870.45	18483
870.58	18555
870.71	18608
870.84	18612
870.97	18570
871.1	18532
871.23	18673
871.36	18882
871.489	18669
871.619	18661
871.749	18738
871.879	18779
872.008	18768
872.138	18772
872.267	18840
872.397	18642
872.526	18631
872.656	18582
872.785	18681
872.915	18795
873.044	18760
873.173	18684
873.303	18715
873.432	18795
873.561	18783
873.69	18741
873.819	18749
873.948	18958
874.077	18711
874.206	18776
874.335	18802
874.464	18985
874.593	18916
874.722	19156
874.851	19004
874.979	19088
875.108	19084
875.237	19027
875.365	18905
875.494	19133
875.623	19217
875.751	19015
875.88	19133
876.008	19293
876.136	19228
876.265	19438
876.393	19651
876.521	19628
876.65	19582
876.778	19350
876.906	19346
877.034	19274
877.162	19308
877.29	19263
877.418	19434
877.546	19441
877.674	19350
877.802	19460
877.93	19343
878.058	19377
878.185	19259
878.313	19453
878.441	19392
878.568	19331
878.696	19312
878.824	19449
878.951	19483
879.079	19578
879.206	19811
879.333	19632
879.461	19563
879.588	19582
879.715	19685
879.842	19795
879.97	19521
880.097	19225
880.224	19206
880.351	19365
880.478	19289
880.605	19114
880.732	19259
880.859	19491
880.986	19320
881.112	19209
881.239	19206
881.366	19015
881.493	18875
881.619	18932
881.746	18981
881.872	18928
881.999	18852
882.125	18844
882.252	19065
882.378	18852
882.505	19042
882.631	18768
882.757	18566
882.883	18833
883.01	18730
883.136	18650
883.262	18540
883.388	18559
883.514	18620
883.64	18852
883.766	18585
883.892	18490
884.018	18555
884.143	18692
884.269	18669
884.395	18448
884.52	18353
884.646	18460
884.772	18209
884.897	18239
885.023	18311
885.148	18426
885.274	18528
885.399	18475
885.524	18292
885.65	18346
885.775	18254
885.9	18232
886.025	18525
886.15	18334
886.275	18296
886.4	18232
886.525	18300
886.65	18258
886.775	18205
886.9	18395
887.025	18566
887.149	18395
887.274	18125
887.399	18053
887.523	18011
887.648	18064
887.773	18030
887.897	18102
888.021	18057
888.146	18026
888.27	18098
888.395	18273
888.519	18110
888.643	18053
888.767	18167
888.891	18038
889.015	17904
889.139	18003
889.263	17882
889.387	17950
889.511	18091
889.635	18026
889.759	17882
889.883	17939
890.006	17942
890.13	17939
890.254	17824
890.377	17893
890.501	17687
890.624	17551
890.748	17695
890.871	17611
890.995	17497
891.118	17486
891.241	17512
891.364	17543
891.488	17729
891.611	17474
891.734	17501
891.857	17604
891.98	17630
892.103	17581
892.226	17558
892.349	17444
892.471	17444
892.594	17452
892.717	17566
892.839	17429
892.962	17478
893.085	17490
893.207	17532
893.33	17360
893.452	17436
893.575	17566
893.697	17471
893.819	17665
893.941	17608
894.064	17478
894.186	17440
894.308	17402
894.43	17657
894.552	17638
894.674	17570
894.796	17425
894.918	17452
895.04	17551
895.161	17547
895.283	17391
895.405	17448
895.526	17482
895.648	17516
895.769	17589
895.891	17516
896.012	17745
896.134	17630
896.255	17512
896.376	17554
896.498	17676
896.619	17600
896.74	17570
896.861	17741
896.982	17920
897.103	18038
897.224	17901
897.345	17703
897.466	17840
897.587	17764
897.708	17908
897.828	17767
897.949	17775
898.07	17676
898.19	17775
898.311	17870
898.431	17687
898.552	17885
898.672	17783
898.792	17874
898.913	17817
899.033	17619
899.153	17710
899.273	17448
899.393	17600
899.513	17668
899.633	17630
899.753	17566
899.873	17589
899.993	17615
900.113	17570
900.232	17539
900.352	17543
900.472	17505
900.591	17353
900.711	17368
900.83	17356
900.95	17585
901.069	17543
901.189	17387
901.308	17155
901.427	17018
901.546	16984
901.665	16995
901.784	17170
901.904	16835
902.023	16866
902.141	16607
902.26	16493
902.379	16622
902.498	16596
902.617	16542
902.735	16409
902.854	16550
902.973	16417
903.091	16230
903.21	16246
903.328	16280
903.446	16215
903.565	16124
903.683	16086
903.801	16010
903.919	15956
904.038	15979
904.156	15812
904.274	15960
904.392	15846
904.51	15892
904.627	15846
904.745	15876
904.863	15903
904.981	15603
905.098	15507
905.216	15469
905.334	15530
905.451	15462
905.569	15450
905.686	15568
905.803	15534
905.921	15313
906.038	15386
906.155	15203
906.272	15199
906.389	15256
906.506	15131
906.623	15039
906.74	15146
906.857	14914
906.974	14948
907.091	15108
907.208	15131
907.324	15062
907.441	14895
907.557	14750
907.674	14750
907.79	14712
907.907	14792
908.023	14777
908.139	14815
908.256	14693
908.372	14674
908.488	14617
908.604	14541
908.72	14495
908.836	14492
908.952	14450
909.068	14541
909.184	14533
909.3	14518
909.415	14495
909.531	14415
909.647	14286
909.762	14275
909.878	14180
909.993	14153
910.108	14275
910.224	14145
910.339	14202
910.454	13974
910.57	14046
910.685	13925
910.8	14142
910.915	14237
911.03	14084
911.145	13818
911.259	13677
911.374	13818
911.489	13784
911.604	13685
911.718	13655
911.833	13578
911.947	13529
912.062	13400
912.176	13529
912.291	13559
912.405	13559
912.519	13731
912.633	13757
912.748	13594
912.862	13472
912.976	13438
913.09	13324
913.204	13426
913.318	13419
913.431	13434
913.545	13434
913.659	13472
913.772	13445
913.886	13316
914	13259
914.113	13358
914.226	13327
914.34	13343
914.453	13171
914.566	13331
914.68	13255
914.793	13103
914.906	13046
915.019	12928
915.132	12878
915.245	12966
915.358	13046
915.47	12939
915.583	13027
915.696	12977
915.809	13061
915.921	13114
916.034	12894
916.146	12764
916.259	12837
916.371	12916
916.483	12840
916.595	12772
916.708	12829
916.82	12810
916.932	12848
917.044	12757
917.156	12715
917.268	12639
917.38	12730
917.491	12696
917.603	12722
917.715	12757
917.826	12730
917.938	12677
918.049	12582
918.161	12589
918.272	12814
918.384	12726
918.495	12696
918.606	12532
918.717	12460
918.828	12547
918.939	12467
919.05	12437
919.161	12441
919.272	12247
919.383	12277
919.494	12597
919.604	12612
919.715	12490
919.826	12357
919.936	12384
920.047	12494
920.157	12456
920.267	12627
920.378	12479
920.488	12437
920.598	12547
920.708	12726
920.818	12684
920.928	12623
921.038	12715
921.148	12726
921.258	12388
921.368	12251
921.477	12194
921.587	12190
921.697	12121
921.806	12171
921.916	12060
922.025	11878
922.134	11897
922.244	11809
922.353	11908
922.462	11741
922.571	11665
922.68	11649
922.789	11520
922.898	11532
923.007	11448
923.116	11543
923.224	11509
923.333	11539
923.442	11391
923.55	11307
923.659	11387
923.767	11486
923.876	11341
923.984	11497
924.092	11349
924.201	11383
924.309	11315
924.417	11284
924.525	11204
924.633	11322
924.741	12254
924.849	11113
924.956	11208
925.064	11086
925.172	11010
925.279	11071
925.387	11079
925.494	11083
925.602	11204
925.709	11174
925.816	11048
925.924	10987
926.031	11178
926.138	11052
926.245	11071
926.352	10911
926.459	11102
926.566	11037
926.673	11025
926.779	10919
926.886	10862
926.993	10767
927.099	10630
927.206	10691
927.312	10668
927.419	10698
927.525	10755
927.631	10752
927.737	10611
927.843	10558
927.95	10432
928.056	10447
928.162	10596
928.267	10656
928.373	11140
928.479	10634
928.585	10424
928.69	10508
928.796	10523
928.901	10386
929.007	10386
929.112	10466
929.218	10413
929.323	10318
929.428	10375
929.533	10402
929.638	10162
929.743	10253
929.848	10371
929.953	10314
930.058	10196
930.163	10074
930.267	10135
930.372	10128
930.477	9991
930.581	10143
930.685	10116
930.79	9865
930.894	9972
930.998	9907
931.103	10071
931.207	9762
931.311	9656
931.415	9542
931.519	9370
931.623	9389
