Data from test_V78500241_725.txt Node
Date: Fri Mar 25 14:38:45 CST 2022
User: usil
Spectrometer: V785-0024
Trigger mode: 0
Integration Time (sec): 4.000000E-1
Scans to average: 1
Nonlinearity correction enabled: false
Boxcar width: 0
Storing dark spectrum: false
XAxis mode: Wavelengths
Number of Pixels in Spectrum: 1024
>>>>>Begin Spectral Data<<<<<
801.071	27492
801.214	27644
801.356	27222
801.499	27104
801.641	27062
801.783	27017
801.926	26948
802.068	26773
802.211	26804
802.353	26530
802.496	26400
802.638	26438
802.78	26347
802.923	26336
803.065	26256
803.208	26396
803.35	26488
803.492	26629
803.635	26511
803.777	26446
803.919	26651
804.061	26998
804.204	26667
804.346	26598
804.488	26606
804.63	26545
804.773	26518
804.915	26811
805.057	27100
805.199	26739
805.341	26891
805.483	27112
805.626	27116
805.768	27176
805.91	27355
806.052	27511
806.194	27462
806.336	27827
806.478	27926
806.62	28006
806.762	28379
806.904	28740
807.046	29349
807.188	29501
807.33	30079
807.472	30661
807.614	31232
807.756	32446
807.898	33443
808.04	35128
808.182	37107
808.324	39899
808.465	42996
808.607	46207
808.749	49575
808.891	51218
809.033	51424
809.174	49769
809.316	46721
809.458	43129
809.6	39622
809.741	36783
809.883	34577
810.025	32918
810.166	31902
810.308	30973
810.45	30266
810.591	29687
810.733	29022
810.875	28713
811.016	28451
811.158	28295
811.299	28169
811.441	28048
811.582	27888
811.724	27644
811.865	27386
812.007	27389
812.148	27393
812.29	27260
812.431	27496
812.573	27466
812.714	27496
812.855	27580
812.997	27511
813.138	27606
813.279	27477
813.421	27386
813.562	27249
813.703	27131
813.845	26921
813.986	26587
814.127	26199
814.268	26126
814.41	26176
814.551	26161
814.692	26225
814.833	26024
814.974	25906
815.115	26122
815.256	25913
815.397	25795
815.539	25734
815.68	25719
815.821	25540
815.962	25708
816.103	25681
816.244	25510
816.385	25343
816.526	25198
816.666	25084
816.807	24973
816.948	24928
817.089	24996
817.23	24958
817.371	24840
817.512	24875
817.653	24817
817.793	24935
817.934	24772
818.075	24829
818.216	24863
818.356	24715
818.497	24661
818.638	24620
818.778	24536
818.919	24467
819.06	24570
819.2	24661
819.341	24764
819.481	24749
819.622	24707
819.762	24962
819.903	24992
820.043	24966
820.184	24753
820.324	24726
820.465	24719
820.605	24673
820.746	24585
820.886	24544
821.026	24620
821.167	24486
821.307	24597
821.447	24570
821.588	24342
821.728	24220
821.868	24129
822.008	23988
822.149	23946
822.289	23946
822.429	23623
822.569	23657
822.709	23680
822.849	23364
822.99	23417
823.13	23379
823.27	23303
823.41	23105
823.55	23170
823.69	22991
823.83	23079
823.97	23086
824.11	22854
824.25	22919
824.389	22854
824.529	22984
824.669	22965
824.809	23064
824.949	23022
825.089	23079
825.228	22812
825.368	22809
825.508	22736
825.648	22645
825.787	22736
825.927	22763
826.067	22637
826.206	22672
826.346	22736
826.485	22706
826.625	22679
826.765	22778
826.904	22713
827.044	22428
827.183	22409
827.323	22398
827.462	22386
827.601	22280
827.741	22261
827.88	22314
828.02	22242
828.159	22211
828.298	22371
828.437	22249
828.577	22280
828.716	22402
828.855	22287
828.994	22055
829.134	22139
829.273	22185
829.412	21899
829.551	21937
829.69	21987
829.829	22063
829.968	22017
830.107	22051
830.246	22032
830.385	21903
830.524	21956
830.663	21857
830.802	21812
830.941	21648
831.08	21523
831.219	21625
831.357	21656
831.496	21835
831.635	21633
831.774	21485
831.913	21519
832.051	21439
832.19	21504
832.329	21454
832.467	21397
832.606	21469
832.744	21500
832.883	21576
833.022	21561
833.16	21610
833.299	21876
833.437	21865
833.576	22044
833.714	22246
833.852	22474
833.991	22508
834.129	22630
834.267	22592
834.406	22599
834.544	22702
834.682	22386
834.821	22192
834.959	22337
835.097	21892
835.235	21922
835.373	21823
835.511	21606
835.65	21519
835.788	21386
835.926	21146
836.064	21188
836.202	21116
836.34	21161
836.478	21431
836.615	21142
836.753	21169
836.891	21279
837.029	21039
837.167	21070
837.305	20941
837.443	20979
837.58	20834
837.718	20986
837.856	20899
837.993	20883
838.131	20963
838.269	20819
838.406	20830
838.544	20701
838.681	20503
838.819	20583
838.956	20503
839.094	20362
839.231	20370
839.369	20427
839.506	20693
839.643	20602
839.781	20450
839.918	20290
840.055	20263
840.193	20343
840.33	20233
840.467	20377
840.604	20320
840.742	20495
840.879	20225
841.016	20259
841.153	20313
841.29	20336
841.427	20320
841.564	20480
841.701	20290
841.838	20180
841.975	20176
842.112	20202
842.249	20050
842.385	20161
842.522	20305
842.659	20191
842.796	20122
842.933	20221
843.069	20077
843.206	20100
843.343	20328
843.479	20240
843.616	20374
843.752	20111
843.889	20233
844.025	20457
844.162	20336
844.298	20549
844.435	20636
844.571	20777
844.708	21188
844.844	21477
844.98	22082
845.117	22740
845.253	23653
845.389	25529
845.525	29482
845.661	35608
845.798	42749
845.934	47980
846.07	49970
846.206	48429
846.342	43392
846.478	36254
846.614	30235
846.75	26081
846.886	23901
847.022	22443
847.158	21538
847.294	20891
847.429	20613
847.565	20282
847.701	20286
847.837	19791
847.972	19757
848.108	19605
848.244	19518
848.379	19362
848.515	19145
848.65	19190
848.786	19171
848.921	19099
849.057	19168
849.192	19175
849.328	19042
849.463	19019
849.598	19080
849.734	19019
849.869	18859
850.004	18715
850.14	18882
850.275	18852
850.41	18726
850.545	18753
850.68	18696
850.815	18734
850.95	18840
851.085	18909
851.22	18867
851.355	18817
851.49	18741
851.625	18726
851.76	18707
851.895	18707
852.03	18646
852.165	18768
852.299	18726
852.434	18844
852.569	18935
852.703	18806
852.838	18970
852.973	19031
853.107	18973
853.242	18928
853.376	18829
853.511	18711
853.645	18817
853.78	19053
853.914	18962
854.048	18909
854.183	18924
854.317	19015
854.451	19221
854.585	19065
854.72	18920
854.854	19042
854.988	18810
855.122	18863
855.256	18646
855.39	18852
855.524	18894
855.658	18760
855.792	18741
855.926	18768
856.06	18696
856.194	18715
856.327	18616
856.461	18547
856.595	18471
856.729	18506
856.862	18673
856.996	18627
857.13	18654
857.263	18757
857.397	18582
857.53	18738
857.664	18509
857.797	18684
857.931	18711
858.064	18448
858.197	18661
858.331	18498
858.464	18369
858.597	18506
858.731	18509
858.864	18498
858.997	18429
859.13	18490
859.263	18513
859.396	18445
859.529	18346
859.662	18388
859.795	18361
859.928	18388
860.061	18585
860.194	18582
860.327	18407
860.46	18429
860.592	18422
860.725	18460
860.858	18467
860.99	18346
861.123	18315
861.256	18334
861.388	18445
861.521	19095
861.653	18190
861.786	18186
861.918	18178
862.05	18216
862.183	18467
862.315	18365
862.447	18327
862.58	18372
862.712	18110
862.844	18110
862.976	18273
863.108	18197
863.24	18544
863.372	17965
863.504	18060
863.636	17996
863.768	18038
863.9	17980
864.032	17874
864.164	17954
864.296	18068
864.428	18174
864.559	18152
864.691	18136
864.823	17973
864.954	18091
865.086	18083
865.217	18057
865.349	17950
865.48	17988
865.612	17969
865.743	18148
865.875	18015
866.006	17961
866.137	17965
866.269	17954
866.4	17920
866.531	17897
866.662	17836
866.793	17965
866.924	17897
867.055	17916
867.186	17958
867.317	17783
867.448	17908
867.579	17939
867.71	17790
867.841	17874
867.972	18015
868.103	17935
868.233	17889
868.364	17946
868.495	18011
868.625	18186
868.756	18334
868.886	18117
869.017	18155
869.147	18304
869.278	18338
869.408	18144
869.539	18190
869.669	18292
869.799	18289
869.929	18437
870.06	18391
870.19	18555
870.32	18467
870.45	18593
870.58	18722
870.71	18776
870.84	18859
870.97	18760
871.1	18757
871.23	18795
871.36	18859
871.489	18802
871.619	18821
871.749	18962
871.879	18837
872.008	18989
872.138	19031
872.267	18875
872.397	18817
872.526	18795
872.656	18844
872.785	18833
872.915	19084
873.044	19118
873.173	19156
873.303	19118
873.432	19137
873.561	19270
873.69	19293
873.819	19213
873.948	19327
874.077	19152
874.206	19289
874.335	19331
874.464	19552
874.593	19700
874.722	19624
874.851	19734
874.979	19704
875.108	19913
875.237	19742
875.365	19647
875.494	20001
875.623	19898
875.751	19921
875.88	19917
876.008	20233
876.136	20271
876.265	20575
876.393	20651
876.521	20743
876.65	20807
876.778	20716
876.906	20807
877.034	20823
877.162	21009
877.29	20956
877.418	21154
877.546	21237
877.674	21214
877.802	21382
877.93	21500
878.058	21610
878.185	21850
878.313	22188
878.441	22523
878.568	22995
878.696	23455
878.824	24433
878.951	25582
879.079	27195
879.206	29212
879.333	31407
879.461	33180
879.588	34280
879.715	34360
879.842	33408
879.97	31445
880.097	29303
880.224	27523
880.351	26446
880.478	25464
880.605	24844
880.732	24448
880.859	24369
880.986	23980
881.112	24057
881.239	23687
881.366	23596
881.493	23558
881.619	23429
881.746	23505
881.872	23543
881.999	23501
882.125	23589
882.252	23608
882.378	23691
882.505	23817
882.631	23703
882.757	23516
882.883	23623
883.01	23657
883.136	23554
883.262	23490
883.388	23417
883.514	23570
883.64	23520
883.766	23254
883.892	23189
884.018	23288
884.143	23292
884.269	23490
884.395	23193
884.52	23124
884.646	23239
884.772	23200
884.897	23212
885.023	23265
885.148	23239
885.274	23288
885.399	23132
885.524	22911
885.65	22946
885.775	22721
885.9	22489
886.025	22653
886.15	22367
886.275	22048
886.4	21907
886.525	21865
886.65	21728
886.775	21564
886.9	21561
887.025	21538
887.149	21306
887.274	20975
887.399	20815
887.523	20678
887.648	20655
887.773	20583
887.897	20598
888.021	20606
888.146	20351
888.27	20526
888.395	20450
888.519	20138
888.643	20233
888.767	20199
888.891	20050
889.015	19879
889.139	19864
889.263	19913
889.387	19826
889.511	19982
889.635	19761
889.759	19696
889.883	19544
890.006	19548
890.13	19689
890.254	19392
890.377	19445
890.501	19407
890.624	19194
890.748	19270
890.871	19099
890.995	18935
891.118	18909
891.241	18977
891.364	18973
891.488	18920
891.611	18749
891.734	18837
891.857	18878
891.98	18738
892.103	18760
892.226	18608
892.349	18582
892.471	18528
892.594	18551
892.717	18608
892.839	18445
892.962	18536
893.085	18525
893.207	18403
893.33	18388
893.452	18247
893.575	18437
893.697	18308
893.819	18460
893.941	18448
894.064	18266
894.186	18205
894.308	18232
894.43	18327
894.552	18315
894.674	18216
894.796	18060
894.918	18079
895.04	18102
895.161	18155
895.283	18019
895.405	17840
895.526	18083
895.648	18060
895.769	18011
895.891	17980
896.012	18045
896.134	17946
896.255	18019
896.376	17931
896.498	17942
896.619	17923
896.74	17980
896.861	17912
896.982	18243
897.103	18372
897.224	18311
897.345	18171
897.466	18041
897.587	18095
897.708	18232
897.828	18060
897.949	17999
898.07	17996
898.19	18026
898.311	18155
898.431	18045
898.552	18060
898.672	18197
898.792	18197
898.913	18129
899.033	18064
899.153	18030
899.273	17878
899.393	17908
899.513	17882
899.633	17954
899.753	17942
899.873	17878
899.993	17874
900.113	17802
900.232	17954
900.352	17767
900.472	17752
900.591	17752
900.711	17737
900.83	17745
900.95	17714
901.069	17828
901.189	17623
901.308	17425
901.427	17326
901.546	17254
901.665	17235
901.784	17341
901.904	17098
902.023	17060
902.141	16866
902.26	16733
902.379	16706
902.498	16729
902.617	16713
902.735	16755
902.854	16687
902.973	16607
903.091	16428
903.21	16356
903.328	16375
903.446	16291
903.565	16177
903.683	16143
903.801	16048
903.919	16154
904.038	16143
904.156	16032
904.274	16040
904.392	15892
904.51	15899
904.627	15895
904.745	15956
904.863	15831
904.981	15675
905.098	15496
905.216	15538
905.334	15606
905.451	15568
905.569	15496
905.686	15549
905.803	15492
905.921	15344
906.038	15382
906.155	15359
906.272	15230
906.389	15298
906.506	15043
906.623	15077
906.74	15051
906.857	14883
906.974	14941
907.091	15127
907.208	15176
907.324	15089
907.441	15017
907.557	14815
907.674	14746
907.79	14727
907.907	14739
908.023	14811
908.139	14667
908.256	14632
908.372	14644
908.488	14552
908.604	14408
908.72	14511
908.836	14552
908.952	14377
909.068	14389
909.184	14575
909.3	14457
909.415	14541
909.531	14499
909.647	14199
909.762	14221
909.878	14103
909.993	14191
910.108	14252
910.224	14172
910.339	14062
910.454	14153
910.57	14020
910.685	13978
910.8	14225
910.915	14176
911.03	14058
911.145	13906
911.259	13822
911.374	13856
911.489	13738
911.604	13693
911.718	13620
911.833	13685
911.947	13476
912.062	13415
912.176	13521
912.291	13559
912.405	13556
912.519	13704
912.633	13750
912.748	13586
912.862	13556
912.976	13502
913.09	13373
913.204	13346
913.318	13457
913.431	13495
913.545	13472
913.659	13460
913.772	13384
913.886	13221
914	13251
914.113	13324
914.226	13388
914.34	13350
914.453	13190
914.566	13320
914.68	13263
914.793	13072
914.906	13057
915.019	12920
915.132	12909
915.245	12993
915.358	12993
915.47	13057
915.583	12932
915.696	12901
915.809	13110
915.921	13069
916.034	12977
916.146	12806
916.259	12916
916.371	13000
916.483	12985
916.595	12852
916.708	12905
916.82	12924
916.932	12966
917.044	12867
917.156	12909
917.268	12734
917.38	12776
917.491	12760
917.603	12776
917.715	12840
917.826	12886
917.938	12654
918.049	12544
918.161	12669
918.272	12779
918.384	12745
918.495	12722
918.606	12563
918.717	12471
918.828	12486
918.939	12563
919.05	12448
919.161	12452
919.272	12232
919.383	12346
919.494	12494
919.604	12650
919.715	12506
919.826	12292
919.936	12437
920.047	12517
920.157	12448
920.267	12734
920.378	12369
920.488	12357
920.598	12589
920.708	12791
920.818	12589
920.928	12563
921.038	12738
921.148	12650
921.258	12452
921.368	12315
921.477	12178
921.587	12216
921.697	12091
921.806	12220
921.916	12106
922.025	11958
922.134	11855
922.244	11813
922.353	11942
922.462	11741
922.571	11775
922.68	11573
922.789	11493
922.898	11592
923.007	11611
923.116	11589
923.224	11589
923.333	11417
923.442	11501
923.55	11360
923.659	11448
923.767	11429
923.876	11337
923.984	11444
924.092	11417
924.201	11383
924.309	11341
924.417	11360
924.525	11246
924.633	11379
924.741	12186
924.849	11090
924.956	11330
925.064	11140
925.172	11018
925.279	10991
925.387	11162
925.494	11067
925.602	11193
925.709	11155
925.816	10972
925.924	11029
926.031	11201
926.138	11022
926.245	11124
926.352	10991
926.459	11124
926.566	11067
926.673	10892
926.779	10854
926.886	10896
926.993	10668
927.099	10774
927.206	10664
927.312	10702
927.419	10675
927.525	10672
927.631	10698
927.737	10580
927.843	10618
927.95	10455
928.056	10546
928.162	10603
928.267	10691
928.373	11121
928.479	10622
928.585	10390
928.69	10504
928.796	10546
928.901	10474
929.007	10291
929.112	10432
929.218	10538
929.323	10413
929.428	10295
929.533	10519
929.638	10318
929.743	10333
929.848	10409
929.953	10379
930.058	10257
930.163	10048
930.267	10124
930.372	10249
930.477	10032
930.581	10188
930.685	10074
930.79	9960
930.894	10017
930.998	9998
931.103	10124
931.207	9747
931.311	9698
931.415	9526
931.519	9412
931.623	9321
