Data from test_V78500241_1858.txt Node
Date: Fri Mar 25 14:46:39 CST 2022
User: usil
Spectrometer: V785-0024
Trigger mode: 0
Integration Time (sec): 4.000000E-1
Scans to average: 1
Nonlinearity correction enabled: false
Boxcar width: 0
Storing dark spectrum: false
XAxis mode: Wavelengths
Number of Pixels in Spectrum: 1024
>>>>>Begin Spectral Data<<<<<
801.071	22169
801.214	22017
801.356	21835
801.499	21625
801.641	21561
801.783	21519
801.926	21526
802.068	21428
802.211	21488
802.353	21249
802.496	21211
802.638	21108
802.78	20994
802.923	20811
803.065	20777
803.208	20785
803.35	20804
803.492	20883
803.635	20910
803.777	20708
803.919	20941
804.061	21169
804.204	20914
804.346	20826
804.488	20762
804.63	20872
804.773	20678
804.915	20872
805.057	20880
805.199	20762
805.341	20724
805.483	20804
805.626	20925
805.768	20682
805.91	20712
806.052	20796
806.194	20743
806.336	20925
806.478	20754
806.62	20689
806.762	20914
806.904	20998
807.046	21100
807.188	21252
807.33	21070
807.472	21074
807.614	21001
807.756	21070
807.898	20777
808.04	20819
808.182	20811
808.324	20800
808.465	20838
808.607	21028
808.749	21165
808.891	21135
809.033	21203
809.174	21237
809.316	21005
809.458	21104
809.6	21036
809.741	21150
809.883	21264
810.025	21283
810.166	21249
810.308	21302
810.45	21294
810.591	21150
810.733	21013
810.875	21119
811.016	20864
811.158	20754
811.299	20899
811.441	21039
811.582	21062
811.724	20933
811.865	20952
812.007	20868
812.148	20929
812.29	20804
812.431	21089
812.573	21351
812.714	21291
812.855	21416
812.997	21492
813.138	21629
813.279	21435
813.421	21393
813.562	21344
813.703	21199
813.845	21108
813.986	20773
814.127	20701
814.268	20503
814.41	20499
814.551	20492
814.692	20560
814.833	20290
814.974	20355
815.115	20488
815.256	20263
815.397	20423
815.539	20317
815.68	20130
815.821	20145
815.962	20183
816.103	20183
816.244	20088
816.385	19921
816.526	19978
816.666	19780
816.807	19689
816.948	19712
817.089	19689
817.23	19677
817.371	19601
817.512	19624
817.653	19563
817.793	19635
817.934	19502
818.075	19506
818.216	19582
818.356	19487
818.497	19441
818.638	19251
818.778	19194
818.919	19289
819.06	19304
819.2	19392
819.341	19506
819.481	19419
819.622	19578
819.762	19753
819.903	19597
820.043	19723
820.184	19597
820.324	19620
820.465	19563
820.605	19510
820.746	19586
820.886	19384
821.026	19487
821.167	19525
821.307	19552
821.447	19426
821.588	19346
821.728	19255
821.868	19168
822.008	19038
822.149	18989
822.289	18954
822.429	18677
822.569	18658
822.709	18623
822.849	18517
822.99	18506
823.13	18456
823.27	18502
823.41	18399
823.55	18308
823.69	18254
823.83	18311
823.97	18254
824.11	17980
824.25	18019
824.389	18091
824.529	18266
824.669	18038
824.809	18171
824.949	18194
825.089	18171
825.228	18083
825.368	17748
825.508	17813
825.648	17813
825.787	17813
825.927	17927
826.067	17767
826.206	17764
826.346	17840
826.485	17824
826.625	17817
826.765	17980
826.904	17729
827.044	17573
827.183	17558
827.323	17501
827.462	17581
827.601	17554
827.741	17611
827.88	17566
828.02	17425
828.159	17585
828.298	17478
828.437	17596
828.577	17482
828.716	17630
828.855	17524
828.994	17273
829.134	17334
829.273	17360
829.412	17204
829.551	17246
829.69	17242
829.829	17387
829.968	17326
830.107	17311
830.246	17254
830.385	17318
830.524	17170
830.663	17151
830.802	16976
830.941	16752
831.08	16965
831.219	16930
831.357	17014
831.496	17189
831.635	16919
831.774	16843
831.913	16634
832.051	16618
832.19	16634
832.329	16797
832.467	16649
832.606	16523
832.744	16527
832.883	16592
833.022	16637
833.16	16641
833.299	16656
833.437	16607
833.576	16626
833.714	16615
833.852	16618
833.991	16774
834.129	16683
834.267	16774
834.406	16706
834.544	16698
834.682	16599
834.821	16679
834.959	16805
835.097	16660
835.235	16733
835.373	16626
835.511	16683
835.65	16542
835.788	16622
835.926	16493
836.064	16413
836.202	16363
836.34	16588
836.478	16645
836.615	16558
836.753	16516
836.891	16618
837.029	16531
837.167	16508
837.305	16459
837.443	16451
837.58	16474
837.718	16447
837.856	16371
837.993	16413
838.131	16394
838.269	16386
838.406	16322
838.544	16363
838.681	16074
838.819	16032
838.956	15994
839.094	16044
839.231	16002
839.369	16048
839.506	16386
839.643	16242
839.781	15953
839.918	15911
840.055	16029
840.193	16036
840.33	15937
840.467	16002
840.604	16044
840.742	16196
840.879	15941
841.016	15884
841.153	15873
841.29	15998
841.427	16013
841.564	16013
841.701	16006
841.838	15926
841.975	15915
842.112	15960
842.249	15793
842.385	15755
842.522	16010
842.659	15827
842.796	15800
842.933	15766
843.069	15747
843.206	15751
843.343	15785
843.479	15789
843.616	15915
843.752	15633
843.889	15534
844.025	15724
844.162	15515
844.298	15679
844.435	15637
844.571	15500
844.708	15519
844.844	15755
844.98	15686
845.117	15717
845.253	15587
845.389	15515
845.525	15500
845.661	15386
845.798	15355
845.934	15336
846.07	15428
846.206	15473
846.342	15477
846.478	15412
846.614	15108
846.75	15093
846.886	15135
847.022	15393
847.158	15138
847.294	15127
847.429	15192
847.565	15146
847.701	15313
847.837	14838
847.972	14906
848.108	14986
848.244	15005
848.379	14769
848.515	14746
848.65	14689
848.786	14910
848.921	14777
849.057	14876
849.192	14785
849.328	14838
849.463	14880
849.598	14705
849.734	14689
849.869	14625
850.004	14598
850.14	14731
850.275	14511
850.41	14412
850.545	14454
850.68	14434
850.815	14530
850.95	14518
851.085	14765
851.22	14522
851.355	14598
851.49	14476
851.625	14495
851.76	14514
851.895	14351
852.03	14446
852.165	14423
852.299	14476
852.434	14598
852.569	14606
852.703	14594
852.838	14655
852.973	14720
853.107	14560
853.242	14461
853.376	14457
853.511	14233
853.645	14339
853.78	14571
853.914	14400
854.048	14328
854.183	14278
854.317	14454
854.451	14503
854.585	14320
854.72	14412
854.854	14358
854.988	14332
855.122	14351
855.256	14214
855.39	14427
855.524	14507
855.658	14473
855.792	14419
855.926	14480
856.06	14545
856.194	14488
856.327	14438
856.461	14275
856.595	14370
856.729	14328
856.862	14613
856.996	14358
857.13	14507
857.263	14488
857.397	14476
857.53	14484
857.664	14393
857.797	14549
857.931	14590
858.064	14396
858.197	14560
858.331	14457
858.464	14442
858.597	14259
858.731	14313
858.864	14278
858.997	14438
859.13	14377
859.263	14404
859.396	14358
859.529	14366
859.662	14370
859.795	14415
859.928	14374
860.061	14514
860.194	14568
860.327	14415
860.46	14362
860.592	14469
860.725	14522
860.858	14507
860.99	14404
861.123	14377
861.256	14343
861.388	14317
861.521	15058
861.653	14393
861.786	14202
861.918	14237
862.05	14412
862.183	14301
862.315	14412
862.447	14469
862.58	14278
862.712	14187
862.844	14088
862.976	14202
863.108	14157
863.24	14473
863.372	13978
863.504	14103
863.636	14187
863.768	14187
863.9	14145
864.032	14031
864.164	14126
864.296	14191
864.428	14313
864.559	14263
864.691	14290
864.823	14233
864.954	14176
865.086	14229
865.217	14191
865.349	14084
865.48	14164
865.612	14206
865.743	14286
865.875	14172
866.006	14130
866.137	14115
866.269	14161
866.4	14103
866.531	14168
866.662	14069
866.793	14077
866.924	14088
867.055	14206
867.186	14088
867.317	14081
867.448	14046
867.579	14138
867.71	14031
867.841	14130
867.972	14176
868.103	14218
868.233	14092
868.364	14180
868.495	14187
868.625	14385
868.756	14503
868.886	14237
869.017	14336
869.147	14507
869.278	14552
869.408	14484
869.539	14328
869.669	14473
869.799	14423
869.929	14606
870.06	14492
870.19	14781
870.32	14758
870.45	14712
870.58	14712
870.71	14933
870.84	15020
870.97	14758
871.1	14785
871.23	14952
871.36	14941
871.489	14899
871.619	15085
871.749	14990
871.879	15131
872.008	15142
872.138	15043
872.267	15039
872.397	14849
872.526	14781
872.656	14800
872.785	14994
872.915	15066
873.044	15062
873.173	15085
873.303	15180
873.432	15051
873.561	15081
873.69	15089
873.819	15077
873.948	15089
874.077	15081
874.206	15020
874.335	15062
874.464	15157
874.593	15313
874.722	15245
874.851	15340
874.979	15462
875.108	15481
875.237	15374
875.365	15233
875.494	15424
875.623	15393
875.751	15306
875.88	15378
876.008	15485
876.136	15641
876.265	15899
876.393	15854
876.521	15895
876.65	15812
876.778	15778
876.906	15781
877.034	15736
877.162	15793
877.29	15709
877.418	15755
877.546	15789
877.674	15698
877.802	15785
877.93	15816
878.058	15778
878.185	15717
878.313	15854
878.441	15774
878.568	15553
878.696	15774
878.824	15797
878.951	15766
879.079	16063
879.206	16044
879.333	16010
879.461	15880
879.588	15873
879.715	16010
879.842	16090
879.97	15800
880.097	15629
880.224	15584
880.351	15603
880.478	15625
880.605	15584
880.732	15652
880.859	15819
880.986	15732
881.112	15625
881.239	15485
881.366	15348
881.493	15283
881.619	15294
881.746	15359
881.872	15264
881.999	15157
882.125	15184
882.252	15428
882.378	15332
882.505	15466
882.631	15150
882.757	15070
882.883	15176
883.01	15089
883.136	15051
883.262	15020
883.388	14944
883.514	15252
883.64	15081
883.766	15055
883.892	14895
884.018	14906
884.143	15089
884.269	15157
884.395	14842
884.52	14857
884.646	14891
884.772	14746
884.897	14796
885.023	14765
885.148	14967
885.274	15005
885.399	14914
885.524	14861
885.65	14815
885.775	14842
885.9	14807
886.025	14944
886.15	14887
886.275	14708
886.4	14590
886.525	14845
886.65	14731
886.775	14739
886.9	14956
887.025	15039
887.149	14739
887.274	14670
887.399	14610
887.523	14587
887.648	14522
887.773	14636
887.897	14720
888.021	14705
888.146	14686
888.27	14708
888.395	14785
888.519	14693
888.643	14762
888.767	14701
888.891	14469
889.015	14446
889.139	14450
889.263	14442
889.387	14606
889.511	14731
889.635	14644
889.759	14545
889.883	14476
890.006	14545
890.13	14571
890.254	14385
890.377	14415
890.501	14240
890.624	14225
890.748	14480
890.871	14317
890.995	14244
891.118	14111
891.241	14225
891.364	14187
891.488	14267
891.611	14168
891.734	14233
891.857	14278
891.98	14244
892.103	14191
892.226	14252
892.349	14157
892.471	14027
892.594	14168
892.717	14187
892.839	14176
892.962	14263
893.085	14221
893.207	14210
893.33	14145
893.452	14199
893.575	14210
893.697	14172
893.819	14370
893.941	14450
894.064	14385
894.186	14168
894.308	14103
894.43	14271
894.552	14343
894.674	14256
894.796	14187
894.918	14313
895.04	14142
895.161	14294
895.283	14305
895.405	14256
895.526	14298
895.648	14328
895.769	14324
895.891	14442
896.012	14446
896.134	14400
896.255	14309
896.376	14278
896.498	14294
896.619	14454
896.74	14412
896.861	14431
896.982	14705
897.103	14785
897.224	14648
897.345	14583
897.466	14465
897.587	14640
897.708	14777
897.828	14651
897.949	14541
898.07	14427
898.19	14678
898.311	14693
898.431	14610
898.552	14663
898.672	14834
898.792	14796
898.913	14716
899.033	14621
899.153	14495
899.273	14564
899.393	14537
899.513	14674
899.633	14606
899.753	14674
899.873	14492
899.993	14526
900.113	14526
900.232	14537
900.352	14568
900.472	14507
900.591	14377
900.711	14488
900.83	14351
900.95	14556
901.069	14419
901.189	14282
901.308	14092
901.427	14088
901.546	14092
901.665	14027
901.784	14123
901.904	13959
902.023	13947
902.141	13620
902.26	13624
902.379	13658
902.498	13582
902.617	13632
902.735	13761
902.854	13666
902.973	13601
903.091	13365
903.21	13346
903.328	13354
903.446	13354
903.565	13263
903.683	13240
903.801	13065
903.919	13126
904.038	13183
904.156	13137
904.274	13061
904.392	13050
904.51	12981
904.627	13061
904.745	13072
904.863	13099
904.981	12886
905.098	12734
905.216	12692
905.334	12719
905.451	12840
905.569	12646
905.686	12749
905.803	12745
905.921	12585
906.038	12734
906.155	12555
906.272	12467
906.389	12464
906.506	12353
906.623	12357
906.74	12258
906.857	12209
906.974	12251
907.091	12361
907.208	12437
907.324	12369
907.441	12235
907.557	12121
907.674	12106
907.79	11988
907.907	12026
908.023	12152
908.139	12060
908.256	12114
908.372	12030
908.488	11988
908.604	11847
908.72	11733
908.836	11843
908.952	11821
909.068	11805
909.184	11923
909.3	11840
909.415	11874
909.531	11813
909.647	11611
909.762	11573
909.878	11482
909.993	11608
910.108	11558
910.224	11547
910.339	11596
910.454	11520
910.57	11547
910.685	11455
910.8	11714
910.915	11684
911.03	11444
911.145	11376
911.259	11299
911.374	11307
911.489	11223
911.604	11181
911.718	11098
911.833	10995
911.947	11014
912.062	10911
912.176	11041
912.291	11060
912.405	10953
912.519	11223
912.633	11220
912.748	11117
912.862	11037
912.976	10991
913.09	10790
913.204	10858
913.318	10866
913.431	11014
913.545	11003
913.659	11071
913.772	10946
913.886	10740
914	10771
914.113	10957
914.226	10946
914.34	10843
914.453	10752
914.566	10965
914.68	10771
914.793	10702
914.906	10577
915.019	10546
915.132	10481
915.245	10535
915.358	10603
915.47	10535
915.583	10569
915.696	10516
915.809	10706
915.921	10729
916.034	10512
916.146	10508
916.259	10500
916.371	10634
916.483	10569
916.595	10462
916.708	10523
916.82	10546
916.932	10474
917.044	10512
917.156	10409
917.268	10432
917.38	10341
917.491	10337
917.603	10421
917.715	10512
917.826	10459
917.938	10360
918.049	10276
918.161	10451
918.272	10542
918.384	10531
918.495	10558
918.606	10295
918.717	10207
918.828	10299
918.939	10375
919.05	10287
919.161	10276
919.272	10124
919.383	10097
919.494	10299
919.604	10565
919.715	10310
919.826	10284
919.936	10352
920.047	10386
920.157	10344
920.267	10565
920.378	10310
920.488	10227
920.598	10409
920.708	10698
920.818	10485
920.928	10504
921.038	10641
921.148	10672
921.258	10413
921.368	10253
921.477	10215
921.587	10169
921.697	10086
921.806	10158
921.916	10078
922.025	9960
922.134	9857
922.244	9770
922.353	9930
922.462	9804
922.571	9698
922.68	9606
922.789	9580
922.898	9644
923.007	9485
923.116	9595
923.224	9557
923.333	9530
923.442	9428
923.55	9450
923.659	9424
923.767	9523
923.876	9355
923.984	9500
924.092	9424
924.201	9473
924.309	9424
924.417	9428
924.525	9378
924.633	9424
924.741	10272
924.849	9249
924.956	9336
925.064	9142
925.172	9112
925.279	9161
925.387	9275
925.494	9146
925.602	9336
925.709	9260
925.816	9089
925.924	9157
926.031	9291
926.138	9218
926.245	9241
926.352	9081
926.459	9291
926.566	9207
926.673	9123
926.779	9074
926.886	9097
926.993	8921
927.099	8902
927.206	8872
927.312	8815
927.419	8929
927.525	8880
927.631	8963
927.737	8864
927.843	8739
927.95	8708
928.056	8807
928.162	8811
928.267	8887
928.373	9389
928.479	8967
928.585	8724
928.69	8838
928.796	8769
928.901	8781
929.007	8564
929.112	8754
929.218	8674
929.323	8716
929.428	8625
929.533	8731
929.638	8537
929.743	8590
929.848	8663
929.953	8587
930.058	8560
930.163	8328
930.267	8431
930.372	8511
930.477	8377
930.581	8583
930.685	8415
930.79	8351
930.894	8381
930.998	8351
931.103	8469
931.207	8039
931.311	8092
931.415	8008
931.519	7792
931.623	7871
