Data from test_V78500241_575.txt Node
Date: Fri Mar 25 14:37:43 CST 2022
User: usil
Spectrometer: V785-0024
Trigger mode: 0
Integration Time (sec): 4.000000E-1
Scans to average: 1
Nonlinearity correction enabled: false
Boxcar width: 0
Storing dark spectrum: false
XAxis mode: Wavelengths
Number of Pixels in Spectrum: 1024
>>>>>Begin Spectral Data<<<<<
801.071	27713
801.214	27682
801.356	27374
801.499	27386
801.641	27096
801.783	27203
801.926	27233
802.068	26979
802.211	26933
802.353	26796
802.496	26815
802.638	26659
802.78	26701
802.923	26583
803.065	26613
803.208	26518
803.35	26617
803.492	26754
803.635	26891
803.777	26621
803.919	26712
804.061	26963
804.204	26838
804.346	26781
804.488	26796
804.63	26746
804.773	26625
804.915	26883
805.057	26956
805.199	26948
805.341	27001
805.483	27127
805.626	27104
805.768	26990
805.91	27093
806.052	27237
806.194	27161
806.336	27447
806.478	27424
806.62	27542
806.762	27808
806.904	28219
807.046	28569
807.188	28626
807.33	28835
807.472	29288
807.614	29623
807.756	29965
807.898	30551
808.04	31571
808.182	32598
808.324	34070
808.465	35737
808.607	37879
808.749	39401
808.891	40272
809.033	40421
809.174	39439
809.316	37662
809.458	35786
809.6	33758
809.741	32431
809.883	31228
810.025	30475
810.166	29901
810.308	29448
810.45	28847
810.591	28888
810.733	28348
810.875	28173
811.016	27793
811.158	27759
811.299	27800
811.441	27793
811.582	27656
811.724	27496
811.865	27477
812.007	27237
812.148	27291
812.29	27469
812.431	27386
812.573	27477
812.714	27561
812.855	27701
812.997	27797
813.138	27816
813.279	27690
813.421	27526
813.562	27553
813.703	27332
813.845	27123
813.986	26883
814.127	26708
814.268	26526
814.41	26583
814.551	26511
814.692	26423
814.833	26396
814.974	26476
815.115	26415
815.256	26183
815.397	26427
815.539	26172
815.68	26176
815.821	26008
815.962	26062
816.103	26062
816.244	25833
816.385	25856
816.526	25757
816.666	25567
816.807	25559
816.948	25483
817.089	25506
817.23	25521
817.371	25460
817.512	25499
817.653	25301
817.793	25202
817.934	25377
818.075	25377
818.216	25316
818.356	25377
818.497	25179
818.638	24951
818.778	25046
818.919	24989
819.06	25183
819.2	25293
819.341	25335
819.481	25282
819.622	25232
819.762	25518
819.903	25559
820.043	25403
820.184	25301
820.324	25388
820.465	25438
820.605	25232
820.746	25308
820.886	25072
821.026	25160
821.167	25168
821.307	25152
821.447	25190
821.588	25061
821.728	24966
821.868	24760
822.008	24642
822.149	24498
822.289	24467
822.429	24357
822.569	24254
822.709	24129
822.849	23897
822.99	24057
823.13	24087
823.27	23878
823.41	23927
823.55	23745
823.69	23866
823.83	23828
823.97	23737
824.11	23668
824.25	23573
824.389	23547
824.529	23524
824.669	23627
824.809	23718
824.949	23581
825.089	23672
825.228	23585
825.368	23364
825.508	23246
825.648	23433
825.787	23486
825.927	23433
826.067	23334
826.206	23334
826.346	23417
826.485	23440
826.625	23318
826.765	23471
826.904	23444
827.044	23143
827.183	23083
827.323	22961
827.462	23014
827.601	22995
827.741	22946
827.88	22995
828.02	22904
828.159	22904
828.298	22995
828.437	23018
828.577	22965
828.716	23033
828.855	22930
828.994	22694
829.134	22679
829.273	22831
829.412	22577
829.551	22649
829.69	22634
829.829	22755
829.968	22782
830.107	22759
830.246	22660
830.385	22656
830.524	22626
830.663	22516
830.802	22314
830.941	22333
831.08	22322
831.219	22421
831.357	22276
831.496	22569
831.635	22257
831.774	22215
831.913	22147
832.051	22021
832.19	22200
832.329	22276
832.467	22074
832.606	21975
832.744	22109
832.883	22082
833.022	22139
833.16	22070
833.299	22200
833.437	22291
833.576	22512
833.714	22500
833.852	22660
833.991	22557
834.129	22706
834.267	22626
834.406	22683
834.544	22599
834.682	22584
834.821	22413
834.959	22512
835.097	22226
835.235	22329
835.373	22169
835.511	22051
835.65	21949
835.788	21979
835.926	21739
836.064	21762
836.202	21743
836.34	21892
836.478	21956
836.615	21857
836.753	21709
836.891	21907
837.029	21899
837.167	21743
837.305	21759
837.443	21663
837.58	21523
837.718	21637
837.856	21576
837.993	21583
838.131	21538
838.269	21466
838.406	21424
838.544	21462
838.681	21298
838.819	21222
838.956	21146
839.094	21001
839.231	21074
839.369	21154
839.506	21488
839.643	21222
839.781	20971
839.918	20933
840.055	20990
840.193	21036
840.33	20956
840.467	20941
840.604	21066
840.742	21230
840.879	20807
841.016	20883
841.153	20864
841.29	21127
841.427	20998
841.564	21043
841.701	20990
841.838	20845
841.975	20754
842.112	20876
842.249	20746
842.385	20769
842.522	20979
842.659	20739
842.796	20689
842.933	20819
843.069	20670
843.206	20648
843.343	20880
843.479	20804
843.616	20765
843.752	20640
843.889	20636
844.025	20815
844.162	20659
844.298	20861
844.435	20921
844.571	20921
844.708	21123
844.844	21492
844.98	21538
845.117	21945
845.253	22447
845.389	23269
845.525	25148
845.661	28455
845.798	32161
845.934	35239
846.07	36490
846.206	35862
846.342	33374
846.478	29486
846.614	26031
846.75	23745
846.886	22424
847.022	21835
847.158	21074
847.294	20876
847.429	20670
847.565	20476
847.701	20511
847.837	20024
847.972	19982
848.108	19902
848.244	19921
848.379	19670
848.515	19594
848.65	19696
848.786	19613
848.921	19712
849.057	19746
849.192	19784
849.328	19708
849.463	19571
849.598	19419
849.734	19438
849.869	19449
850.004	19259
850.14	19460
850.275	19373
850.41	19126
850.545	19312
850.68	19259
850.815	19316
850.95	19240
851.085	19407
851.22	19365
851.355	19270
851.49	19259
851.625	19274
851.76	19308
851.895	19183
852.03	19213
852.165	19324
852.299	19320
852.434	19411
852.569	19312
852.703	19244
852.838	19400
852.973	19518
853.107	19434
853.242	19373
853.376	19171
853.511	19160
853.645	19247
853.78	19362
853.914	19377
854.048	19221
854.183	19354
854.317	19453
854.451	19563
854.585	19301
854.72	19274
854.854	19304
854.988	19232
855.122	19152
855.256	19095
855.39	19247
855.524	19407
855.658	19179
855.792	19122
855.926	19129
856.06	19263
856.194	19285
856.327	19084
856.461	19053
856.595	19053
856.729	19065
856.862	19225
856.996	19126
857.13	19095
857.263	19156
857.397	19160
857.53	19023
857.664	19137
857.797	19065
857.931	19187
858.064	18951
858.197	19061
858.331	18924
858.464	18935
858.597	18863
858.731	18928
858.864	19069
858.997	18890
859.13	19031
859.263	18970
859.396	19129
859.529	19061
859.662	18916
859.795	18882
859.928	18924
860.061	19072
860.194	19118
860.327	18878
860.46	18977
860.592	19091
860.725	19034
860.858	19012
860.99	18905
861.123	18859
861.256	18844
861.388	18886
861.521	19624
861.653	18772
861.786	18669
861.918	18802
862.05	18882
862.183	19019
862.315	18894
862.447	19015
862.58	18859
862.712	18677
862.844	18669
862.976	18867
863.108	18757
863.24	19019
863.372	18544
863.504	18597
863.636	18650
863.768	18757
863.9	18738
864.032	18582
864.164	18593
864.296	18506
864.428	18776
864.559	18677
864.691	18650
864.823	18696
864.954	18585
865.086	18559
865.217	18578
865.349	18498
865.48	18608
865.612	18631
865.743	18566
865.875	18544
866.006	18486
866.137	18559
866.269	18593
866.4	18627
866.531	18521
866.662	18464
866.793	18612
866.924	18460
867.055	18555
867.186	18665
867.317	18486
867.448	18475
867.579	18464
867.71	18502
867.841	18338
867.972	18566
868.103	18467
868.233	18559
868.364	18509
868.495	18528
868.625	18734
868.756	18859
868.886	18677
869.017	18700
869.147	18962
869.278	18787
869.408	18871
869.539	18814
869.669	18798
869.799	18859
869.929	18791
870.06	18916
870.19	18981
870.32	19095
870.45	19091
870.58	19206
870.71	19221
870.84	19324
870.97	19175
871.1	19228
871.23	19381
871.36	19358
871.489	19308
871.619	19457
871.749	19426
871.879	19430
872.008	19411
872.138	19362
872.267	19472
872.397	19457
872.526	19213
872.656	19350
872.785	19339
872.915	19510
873.044	19662
873.173	19506
873.303	19537
873.432	19616
873.561	19658
873.69	19605
873.819	19635
873.948	19677
874.077	19696
874.206	19643
874.335	19590
874.464	19795
874.593	19936
874.722	19921
874.851	19902
874.979	20020
875.108	20012
875.237	19997
875.365	19932
875.494	20096
875.623	20233
875.751	20096
875.88	20172
876.008	20347
876.136	20385
876.265	20659
876.393	20758
876.521	20792
876.65	20788
876.778	20682
876.906	20777
877.034	20739
877.162	20857
877.29	20735
877.418	20967
877.546	20998
877.674	20921
877.802	21104
877.93	21184
878.058	21283
878.185	21306
878.313	21542
878.441	21876
878.568	21880
878.696	22169
878.824	22634
878.951	23299
879.079	24106
879.206	25502
879.333	26568
879.461	27523
879.588	28185
879.715	28215
879.842	27876
879.97	26697
880.097	25274
880.224	24342
880.351	23680
880.478	23204
880.605	22771
880.732	22531
880.859	22694
880.986	22386
881.112	22306
881.239	22253
881.366	22017
881.493	22025
881.619	22048
881.746	21998
881.872	22116
881.999	21918
882.125	21857
882.252	22093
882.378	22017
882.505	22124
882.631	21960
882.757	21873
882.883	21895
883.01	21865
883.136	21774
883.262	21652
883.388	21637
883.514	21717
883.64	21751
883.766	21766
883.892	21523
884.018	21599
884.143	21747
884.269	21884
884.395	21690
884.52	21405
884.646	21564
884.772	21370
884.897	21496
885.023	21431
885.148	21576
885.274	21526
885.399	21557
885.524	21378
885.65	21275
885.775	21230
885.9	21116
886.025	21195
886.15	21176
886.275	20880
886.4	20636
886.525	20556
886.65	20621
886.775	20598
886.9	20682
887.025	20720
887.149	20362
887.274	20267
887.399	20122
887.523	20084
887.648	19993
887.773	19936
887.897	19944
888.021	19944
888.146	19780
888.27	19959
888.395	19898
888.519	19887
888.643	19822
888.767	19761
888.891	19761
889.015	19472
889.139	19472
889.263	19377
889.387	19655
889.511	19685
889.635	19552
889.759	19373
889.883	19407
890.006	19354
890.13	19411
890.254	19304
890.377	19316
890.501	19126
890.624	19080
890.748	19023
890.871	19012
890.995	18886
891.118	18749
891.241	18894
891.364	18795
891.488	18890
891.611	18875
891.734	18715
891.857	18730
891.98	18795
892.103	18776
892.226	18688
892.349	18608
892.471	18471
892.594	18566
892.717	18642
892.839	18502
892.962	18578
893.085	18585
893.207	18559
893.33	18388
893.452	18395
893.575	18532
893.697	18429
893.819	18547
893.941	18646
894.064	18540
894.186	18327
894.308	18361
894.43	18384
894.552	18528
894.674	18403
894.796	18277
894.918	18311
895.04	18403
895.161	18376
895.283	18262
895.405	18273
895.526	18384
895.648	18285
895.769	18285
895.891	18357
896.012	18334
896.134	18448
896.255	18273
896.376	18315
896.498	18300
896.619	18388
896.74	18315
896.861	18353
896.982	18654
897.103	18711
897.224	18544
897.345	18475
897.466	18414
897.587	18479
897.708	18506
897.828	18525
897.949	18460
898.07	18327
898.19	18426
898.311	18608
898.431	18388
898.552	18540
898.672	18658
898.792	18513
898.913	18551
899.033	18418
899.153	18338
899.273	18186
899.393	18213
899.513	18216
899.633	18205
899.753	18311
899.873	18167
899.993	18304
900.113	18296
900.232	18224
900.352	18205
900.472	18102
900.591	18098
900.711	18083
900.83	18026
900.95	18224
901.069	18167
901.189	18034
901.308	17794
901.427	17532
901.546	17707
901.665	17718
901.784	17653
901.904	17566
902.023	17372
902.141	17128
902.26	17181
902.379	17254
902.498	17136
902.617	17109
902.735	17147
902.854	17060
902.973	17060
903.091	16908
903.21	16782
903.328	16809
903.446	16713
903.565	16558
903.683	16607
903.801	16516
903.919	16527
904.038	16542
904.156	16462
904.274	16386
904.392	16341
904.51	16303
904.627	16386
904.745	16356
904.863	16371
904.981	16086
905.098	15945
905.216	15991
905.334	16044
905.451	16025
905.569	16002
905.686	16044
905.803	16048
905.921	15720
906.038	15880
906.155	15774
906.272	15660
906.389	15724
906.506	15469
906.623	15435
906.74	15435
906.857	15458
906.974	15359
907.091	15572
907.208	15534
907.324	15481
907.441	15424
907.557	15264
907.674	15195
907.79	15108
907.907	15237
908.023	15222
908.139	15214
908.256	15100
908.372	15017
908.488	15024
908.604	14933
908.72	14853
908.836	14883
908.952	14952
909.068	14883
909.184	14998
909.3	14872
909.415	15005
909.531	14868
909.647	14689
909.762	14648
909.878	14663
909.993	14716
910.108	14537
910.224	14594
910.339	14594
910.454	14488
910.57	14476
910.685	14370
910.8	14655
910.915	14655
911.03	14461
911.145	14294
911.259	14271
911.374	14267
911.489	14126
911.604	14123
911.718	14081
911.833	14016
911.947	13928
912.062	13841
912.176	13963
912.291	13986
912.405	13986
912.519	14252
912.633	14180
912.748	14103
912.862	14005
912.976	13818
913.09	13765
913.204	13841
913.318	13837
913.431	13906
913.545	13887
913.659	13879
913.772	13776
913.886	13567
914	13609
914.113	13742
914.226	13841
914.34	13670
914.453	13567
914.566	13681
914.68	13643
914.793	13624
914.906	13377
915.019	13225
915.132	13312
915.245	13244
915.358	13346
915.47	13312
915.583	13411
915.696	13422
915.809	13468
915.921	13430
916.034	13320
916.146	13282
916.259	13263
916.371	13457
916.483	13304
916.595	13171
916.708	13187
916.82	13339
916.932	13232
917.044	13270
917.156	13129
917.268	13069
917.38	13183
917.491	13050
917.603	13152
917.715	13053
917.826	13263
917.938	13027
918.049	12894
918.161	13080
918.272	13126
918.384	13198
918.495	13027
918.606	12928
918.717	12703
918.828	12977
918.939	12935
919.05	12726
919.161	12848
919.272	12608
919.383	12703
919.494	12833
919.604	12897
919.715	12757
919.826	12677
919.936	12726
920.047	12894
920.157	12901
920.267	13023
920.378	12871
920.488	12821
920.598	12928
920.708	13065
920.818	12958
920.928	12871
921.038	13118
921.148	13053
921.258	12749
921.368	12688
921.477	12597
921.587	12585
921.697	12407
921.806	12528
921.916	12365
922.025	12403
922.134	12209
922.244	12190
922.353	12296
922.462	12087
922.571	11996
922.68	11840
922.789	11912
922.898	11878
923.007	11760
923.116	11882
923.224	11920
923.333	11836
923.442	11794
923.55	11752
923.659	11767
923.767	11813
923.876	11649
923.984	11775
924.092	11600
924.201	11657
924.309	11615
924.417	11661
924.525	11581
924.633	11710
924.741	12296
924.849	11417
924.956	11596
925.064	11410
925.172	11311
925.279	11368
925.387	11490
925.494	11410
925.602	11512
925.709	11421
925.816	11315
925.924	11330
926.031	11474
926.138	11429
926.245	11421
926.352	11303
926.459	11345
926.566	11341
926.673	11269
926.779	11193
926.886	11083
926.993	11151
927.099	11022
927.206	10987
927.312	10972
927.419	11010
927.525	11037
927.631	11083
927.737	10862
927.843	10946
927.95	10778
928.056	10862
928.162	10793
928.267	10965
928.373	11414
928.479	10949
928.585	10668
928.69	10774
928.796	10774
928.901	10748
929.007	10584
929.112	10733
929.218	10759
929.323	10687
929.428	10675
929.533	10691
929.638	10573
929.743	10523
929.848	10550
929.953	10580
930.058	10417
930.163	10310
930.267	10424
930.372	10371
930.477	10295
930.581	10573
930.685	10333
930.79	10257
930.894	10268
930.998	10234
931.103	10421
931.207	10017
931.311	9922
931.415	9895
931.519	9736
931.623	9709
