Data from test_V78500241_1949.txt Node
Date: Fri Mar 25 14:47:17 CST 2022
User: usil
Spectrometer: V785-0024
Trigger mode: 0
Integration Time (sec): 4.000000E-1
Scans to average: 1
Nonlinearity correction enabled: false
Boxcar width: 0
Storing dark spectrum: false
XAxis mode: Wavelengths
Number of Pixels in Spectrum: 1024
>>>>>Begin Spectral Data<<<<<
801.071	22021
801.214	21998
801.356	21671
801.499	21667
801.641	21420
801.783	21523
801.926	21431
802.068	21348
802.211	21363
802.353	21226
802.496	21009
802.638	21028
802.78	20918
802.923	20868
803.065	20686
803.208	20777
803.35	20800
803.492	20815
803.635	20864
803.777	20781
803.919	20948
804.061	21123
804.204	20834
804.346	20811
804.488	20598
804.63	20693
804.773	20648
804.915	20678
805.057	20823
805.199	20606
805.341	20743
805.483	20712
805.626	20686
805.768	20708
805.91	20724
806.052	20758
806.194	20640
806.336	20910
806.478	20655
806.62	20587
806.762	20697
806.904	20918
807.046	20994
807.188	21070
807.33	21020
807.472	21142
807.614	20967
807.756	20986
807.898	20743
808.04	20769
808.182	20788
808.324	20819
808.465	20811
808.607	21024
808.749	20994
808.891	21161
809.033	21154
809.174	21104
809.316	21055
809.458	21119
809.6	20960
809.741	21256
809.883	21039
810.025	21176
810.166	21180
810.308	21180
810.45	21184
810.591	21161
810.733	20857
810.875	20921
811.016	20842
811.158	20663
811.299	20876
811.441	21024
811.582	20963
811.724	20849
811.865	20689
812.007	20777
812.148	20845
812.29	20845
812.431	21020
812.573	21176
812.714	21195
812.855	21135
812.997	21401
813.138	21519
813.279	21344
813.421	21268
813.562	21264
813.703	21096
813.845	21032
813.986	20796
814.127	20697
814.268	20408
814.41	20355
814.551	20309
814.692	20465
814.833	20324
814.974	20240
815.115	20256
815.256	20191
815.397	20149
815.539	20206
815.68	20092
815.821	20005
815.962	20142
816.103	20012
816.244	19997
816.385	19849
816.526	19890
816.666	19689
816.807	19639
816.948	19620
817.089	19700
817.23	19616
817.371	19514
817.512	19499
817.653	19483
817.793	19381
817.934	19472
818.075	19460
818.216	19643
818.356	19403
818.497	19403
818.638	19137
818.778	19133
818.919	19080
819.06	19141
819.2	19392
819.341	19468
819.481	19346
819.622	19483
819.762	19727
819.903	19563
820.043	19601
820.184	19548
820.324	19426
820.465	19597
820.605	19514
820.746	19540
820.886	19320
821.026	19411
821.167	19472
821.307	19540
821.447	19400
821.588	19388
821.728	19213
821.868	19156
822.008	18894
822.149	18806
822.289	18894
822.429	18726
822.569	18525
822.709	18661
822.849	18384
822.99	18418
823.13	18384
823.27	18346
823.41	18190
823.55	18167
823.69	18209
823.83	18262
823.97	18133
824.11	17961
824.25	17965
824.389	17946
824.529	18007
824.669	17935
824.809	18057
824.949	18216
825.089	18041
825.228	17935
825.368	17760
825.508	17737
825.648	17882
825.787	17756
825.927	17920
826.067	17821
826.206	17790
826.346	17771
826.485	17851
826.625	17703
826.765	17756
826.904	17824
827.044	17562
827.183	17440
827.323	17425
827.462	17512
827.601	17383
827.741	17474
827.88	17391
828.02	17429
828.159	17417
828.298	17528
828.437	17414
828.577	17368
828.716	17516
828.855	17383
828.994	17307
829.134	17284
829.273	17265
829.412	17197
829.551	17105
829.69	17128
829.829	17258
829.968	17292
830.107	17277
830.246	17269
830.385	17204
830.524	17197
830.663	17025
830.802	16991
830.941	16828
831.08	16801
831.219	16877
831.357	16938
831.496	17037
831.635	16934
831.774	16786
831.913	16862
832.051	16626
832.19	16531
832.329	16675
832.467	16615
832.606	16500
832.744	16421
832.883	16558
833.022	16481
833.16	16558
833.299	16588
833.437	16546
833.576	16565
833.714	16626
833.852	16641
833.991	16637
834.129	16649
834.267	16607
834.406	16729
834.544	16611
834.682	16542
834.821	16592
834.959	16733
835.097	16653
835.235	16694
835.373	16573
835.511	16577
835.65	16523
835.788	16455
835.926	16356
836.064	16398
836.202	16303
836.34	16523
836.478	16588
836.615	16405
836.753	16474
836.891	16618
837.029	16626
837.167	16455
837.305	16367
837.443	16379
837.58	16394
837.718	16333
837.856	16417
837.993	16261
838.131	16341
838.269	16337
838.406	16322
838.544	16276
838.681	16017
838.819	16082
838.956	15907
839.094	15884
839.231	15987
839.369	16086
839.506	16390
839.643	16185
839.781	15899
839.918	15888
840.055	15934
840.193	15953
840.33	15922
840.467	16074
840.604	15991
840.742	16147
840.879	15930
841.016	15835
841.153	15835
841.29	16101
841.427	15998
841.564	16017
841.701	16097
841.838	15960
841.975	15823
842.112	15937
842.249	15663
842.385	15732
842.522	15922
842.659	15625
842.796	15629
842.933	15797
843.069	15701
843.206	15751
843.343	15827
843.479	15679
843.616	15736
843.752	15507
843.889	15515
844.025	15705
844.162	15511
844.298	15698
844.435	15496
844.571	15393
844.708	15462
844.844	15698
844.98	15633
845.117	15728
845.253	15420
845.389	15439
845.525	15454
845.661	15408
845.798	15268
845.934	15264
846.07	15287
846.206	15325
846.342	15412
846.478	15279
846.614	15131
846.75	15154
846.886	14960
847.022	15161
847.158	15112
847.294	15161
847.429	15173
847.565	15097
847.701	15382
847.837	14853
847.972	14834
848.108	14895
848.244	14906
848.379	14735
848.515	14644
848.65	14663
848.786	14720
848.921	14720
849.057	14785
849.192	14762
849.328	14670
849.463	14777
849.598	14686
849.734	14594
849.869	14610
850.004	14446
850.14	14488
850.275	14514
850.41	14301
850.545	14495
850.68	14499
850.815	14552
850.95	14396
851.085	14549
851.22	14556
851.355	14484
851.49	14431
851.625	14374
851.76	14415
851.895	14358
852.03	14313
852.165	14362
852.299	14427
852.434	14541
852.569	14552
852.703	14488
852.838	14461
852.973	14575
853.107	14511
853.242	14499
853.376	14355
853.511	14298
853.645	14244
853.78	14298
853.914	14290
854.048	14396
854.183	14259
854.317	14351
854.451	14530
854.585	14278
854.72	14320
854.854	14351
854.988	14237
855.122	14290
855.256	14195
855.39	14328
855.524	14377
855.658	14271
855.792	14404
855.926	14339
856.06	14396
856.194	14530
856.327	14286
856.461	14233
856.595	14332
856.729	14317
856.862	14419
856.996	14336
857.13	14473
857.263	14499
857.397	14431
857.53	14313
857.664	14396
857.797	14465
857.931	14442
858.064	14286
858.197	14374
858.331	14301
858.464	14343
858.597	14126
858.731	14294
858.864	14290
858.997	14313
859.13	14431
859.263	14438
859.396	14404
859.529	14309
859.662	14256
859.795	14336
859.928	14400
860.061	14511
860.194	14431
860.327	14385
860.46	14362
860.592	14431
860.725	14518
860.858	14446
860.99	14324
861.123	14119
861.256	14237
861.388	14408
861.521	15013
861.653	14244
861.786	14073
861.918	14218
862.05	14301
862.183	14301
862.315	14347
862.447	14339
862.58	14336
862.712	14153
862.844	14100
862.976	14202
863.108	14054
863.24	14469
863.372	14084
863.504	14092
863.636	14119
863.768	14088
863.9	14020
864.032	14058
864.164	14123
864.296	14115
864.428	14218
864.559	14237
864.691	14206
864.823	14149
864.954	14164
865.086	14058
865.217	14126
865.349	14077
865.48	14073
865.612	14043
865.743	14191
865.875	14100
866.006	14119
866.137	13951
866.269	14119
866.4	14138
866.531	14054
866.662	14058
866.793	14103
866.924	14123
867.055	14145
867.186	14039
867.317	14065
867.448	14012
867.579	13997
867.71	14039
867.841	14119
867.972	14100
868.103	14050
868.233	14126
868.364	14054
868.495	14191
868.625	14309
868.756	14389
868.886	14286
869.017	14336
869.147	14530
869.278	14488
869.408	14366
869.539	14275
869.669	14454
869.799	14347
869.929	14461
870.06	14495
870.19	14727
870.32	14644
870.45	14727
870.58	14682
870.71	14823
870.84	14857
870.97	14712
871.1	14716
871.23	14925
871.36	14937
871.489	14773
871.619	14754
871.749	14918
871.879	14921
872.008	15146
872.138	14998
872.267	14971
872.397	14804
872.526	14712
872.656	14750
872.785	14731
872.915	14914
873.044	14944
873.173	14929
873.303	14982
873.432	15013
873.561	14994
873.69	14971
873.819	14944
873.948	14975
874.077	14952
874.206	15013
874.335	14971
874.464	15081
874.593	15241
874.722	15180
874.851	15313
874.979	15245
875.108	15359
875.237	15260
875.365	15241
875.494	15188
875.623	15378
875.751	15256
875.88	15275
876.008	15462
876.136	15599
876.265	15808
876.393	15808
876.521	15846
876.65	15720
876.778	15808
876.906	15568
877.034	15641
877.162	15701
877.29	15690
877.418	15728
877.546	15694
877.674	15728
877.802	15660
877.93	15717
878.058	15648
878.185	15656
878.313	15652
878.441	15717
878.568	15530
878.696	15564
878.824	15759
878.951	15717
879.079	15816
879.206	15983
879.333	15968
879.461	15770
879.588	15831
879.715	15975
879.842	16036
879.97	15785
880.097	15698
880.224	15485
880.351	15599
880.478	15595
880.605	15526
880.732	15564
880.859	15812
880.986	15606
881.112	15530
881.239	15466
881.366	15473
881.493	15294
881.619	15093
881.746	15291
881.872	15226
881.999	15207
882.125	15169
882.252	15283
882.378	15176
882.505	15313
882.631	15203
882.757	15077
882.883	15085
883.01	14960
883.136	15009
883.262	14887
883.388	14845
883.514	15055
883.64	15135
883.766	15043
883.892	14815
884.018	14834
884.143	15100
884.269	15161
884.395	14777
884.52	14781
884.646	14769
884.772	14705
884.897	14712
885.023	14735
885.148	14902
885.274	14826
885.399	14788
885.524	14739
885.65	14731
885.775	14792
885.9	14735
886.025	14823
886.15	14800
886.275	14708
886.4	14651
886.525	14701
886.65	14617
886.775	14651
886.9	14937
887.025	14906
887.149	14693
887.274	14689
887.399	14541
887.523	14602
887.648	14587
887.773	14476
887.897	14663
888.021	14663
888.146	14495
888.27	14701
888.395	14720
888.519	14773
888.643	14655
888.767	14564
888.891	14575
889.015	14396
889.139	14454
889.263	14457
889.387	14473
889.511	14644
889.635	14434
889.759	14419
889.883	14412
890.006	14495
890.13	14473
890.254	14343
890.377	14328
890.501	14275
890.624	14233
890.748	14347
890.871	14145
890.995	14142
891.118	14115
891.241	14157
891.364	14142
891.488	14290
891.611	14111
891.734	14142
891.857	14183
891.98	14161
892.103	14221
892.226	14103
892.349	14073
892.471	13921
892.594	14115
892.717	14157
892.839	14202
892.962	14145
893.085	14142
893.207	14069
893.33	14024
893.452	14115
893.575	14126
893.697	14069
893.819	14267
893.941	14328
894.064	14313
894.186	14088
894.308	14107
894.43	14176
894.552	14286
894.674	14301
894.796	14123
894.918	14058
895.04	14153
895.161	14263
895.283	14256
895.405	14119
895.526	14130
895.648	14286
895.769	14252
895.891	14324
896.012	14370
896.134	14355
896.255	14259
896.376	14187
896.498	14248
896.619	14396
896.74	14393
896.861	14362
896.982	14632
897.103	14777
897.224	14636
897.345	14594
897.466	14552
897.587	14598
897.708	14674
897.828	14678
897.949	14568
898.07	14423
898.19	14610
898.311	14644
898.431	14636
898.552	14632
898.672	14712
898.792	14743
898.913	14587
899.033	14621
899.153	14549
899.273	14400
899.393	14564
899.513	14514
899.633	14457
899.753	14568
899.873	14560
899.993	14678
900.113	14438
900.232	14541
900.352	14450
900.472	14476
900.591	14275
900.711	14339
900.83	14164
900.95	14473
901.069	14317
901.189	14298
901.308	14111
901.427	14054
901.546	14024
901.665	13997
901.784	13970
901.904	13928
902.023	13788
902.141	13647
902.26	13533
902.379	13750
902.498	13586
902.617	13548
902.735	13658
902.854	13620
902.973	13658
903.091	13392
903.21	13232
903.328	13358
903.446	13247
903.565	13126
903.683	13206
903.801	13175
903.919	13278
904.038	13145
904.156	13023
904.274	13027
904.392	12989
904.51	12833
904.627	12973
904.745	13023
904.863	13053
904.981	12806
905.098	12715
905.216	12631
905.334	12738
905.451	12768
905.569	12688
905.686	12821
905.803	12578
905.921	12578
906.038	12631
906.155	12536
906.272	12452
906.389	12460
906.506	12266
906.623	12266
906.74	12239
906.857	12178
906.974	12152
907.091	12346
907.208	12445
907.324	12353
907.441	12125
907.557	12114
907.674	12072
907.79	11946
907.907	11969
908.023	12053
908.139	11992
908.256	11939
908.372	11923
908.488	11942
908.604	11832
908.72	11805
908.836	11722
908.952	11748
909.068	11703
909.184	11847
909.3	11783
909.415	11802
909.531	11809
909.647	11512
909.762	11493
909.878	11532
909.993	11554
910.108	11520
910.224	11493
910.339	11630
910.454	11452
910.57	11406
910.685	11364
910.8	11600
910.915	11509
911.03	11467
911.145	11212
911.259	11284
911.374	11265
911.489	11128
911.604	11185
911.718	11147
911.833	10999
911.947	10885
912.062	10824
912.176	11014
912.291	11037
912.405	10995
912.519	11242
912.633	11212
912.748	11102
912.862	11052
912.976	10858
913.09	10782
913.204	10877
913.318	10942
913.431	10949
913.545	10919
913.659	11140
913.772	10873
913.886	10759
914	10759
914.113	10786
914.226	10923
914.34	10839
914.453	10774
914.566	10790
914.68	10767
914.793	10679
914.906	10592
915.019	10440
915.132	10405
915.245	10421
915.358	10508
915.47	10497
915.583	10542
915.696	10569
915.809	10706
915.921	10656
916.034	10519
916.146	10508
916.259	10443
916.371	10565
916.483	10538
916.595	10421
916.708	10440
916.82	10436
916.932	10341
917.044	10386
917.156	10379
917.268	10325
917.38	10375
917.491	10329
917.603	10424
917.715	10497
917.826	10466
917.938	10329
918.049	10207
918.161	10367
918.272	10455
918.384	10478
918.495	10428
918.606	10154
918.717	10158
918.828	10207
918.939	10295
919.05	10143
919.161	10211
919.272	9956
919.383	10169
919.494	10246
919.604	10409
919.715	10261
919.826	10154
919.936	10219
920.047	10318
920.157	10238
920.267	10474
920.378	10265
920.488	10284
920.598	10459
920.708	10596
920.818	10417
920.928	10436
921.038	10565
921.148	10489
921.258	10253
921.368	10211
921.477	10101
921.587	10074
921.697	10010
921.806	10185
921.916	9960
922.025	9846
922.134	9778
922.244	9793
922.353	9854
922.462	9701
922.571	9580
922.68	9530
922.789	9469
922.898	9450
923.007	9454
923.116	9473
923.224	9458
923.333	9466
923.442	9355
923.55	9310
923.659	9454
923.767	9408
923.876	9344
923.984	9443
924.092	9302
924.201	9382
924.309	9294
924.417	9351
924.525	9348
924.633	9310
924.741	10284
924.849	9116
924.956	9302
925.064	9138
925.172	9039
925.279	9116
925.387	9146
925.494	9176
925.602	9351
925.709	9214
925.816	9089
925.924	9154
926.031	9192
926.138	9176
926.245	9222
926.352	9051
926.459	9157
926.566	9275
926.673	9116
926.779	9001
926.886	9005
926.993	8853
927.099	8864
927.206	8849
927.312	8826
927.419	8967
927.525	8849
927.631	8925
927.737	8769
927.843	8777
927.95	8674
928.056	8731
928.162	8800
928.267	8807
928.373	9443
928.479	8891
928.585	8621
928.69	8792
928.796	8781
928.901	8705
929.007	8480
929.112	8686
929.218	8629
929.323	8640
929.428	8492
929.533	8731
929.638	8476
929.743	8503
929.848	8602
929.953	8533
930.058	8492
930.163	8393
930.267	8366
930.372	8533
930.477	8320
930.581	8545
930.685	8400
930.79	8248
930.894	8282
930.998	8313
931.103	8434
931.207	8005
931.311	7989
931.415	7970
931.519	7830
931.623	7807
