Data from test_V78500241_867.txt Node
Date: Fri Mar 25 14:39:45 CST 2022
User: usil
Spectrometer: V785-0024
Trigger mode: 0
Integration Time (sec): 4.000000E-1
Scans to average: 1
Nonlinearity correction enabled: false
Boxcar width: 0
Storing dark spectrum: false
XAxis mode: Wavelengths
Number of Pixels in Spectrum: 1024
>>>>>Begin Spectral Data<<<<<
801.071	25685
801.214	25567
801.356	25400
801.499	25263
801.641	24985
801.783	25038
801.926	25171
802.068	24962
802.211	24901
802.353	24753
802.496	24582
802.638	24528
802.78	24505
802.923	24395
803.065	24410
803.208	24338
803.35	24464
803.492	24582
803.635	24566
803.777	24380
803.919	24479
804.061	24916
804.204	24616
804.346	24486
804.488	24357
804.63	24467
804.773	24369
804.915	24528
805.057	24707
805.199	24452
805.341	24661
805.483	24627
805.626	24738
805.768	24642
805.91	24703
806.052	24772
806.194	24821
806.336	25008
806.478	24996
806.62	25042
806.762	25327
806.904	25559
807.046	25932
807.188	25890
807.33	26043
807.472	26404
807.614	26594
807.756	26982
807.898	27378
808.04	27926
808.182	28774
808.324	29916
808.465	31198
808.607	32499
808.749	33595
808.891	34306
809.033	34489
809.174	33564
809.316	32431
809.458	30943
809.6	29764
809.741	28831
809.883	27785
810.025	27416
810.166	26918
810.308	26484
810.45	26233
810.591	26191
810.733	25708
810.875	25601
811.016	25236
811.158	25194
811.299	25206
811.441	25468
811.582	25206
811.724	24977
811.865	25053
812.007	24970
812.148	24890
812.29	24951
812.431	24966
812.573	25304
812.714	25209
812.855	25327
812.997	25343
813.138	25445
813.279	25251
813.421	25324
813.562	25263
813.703	25061
813.845	24871
813.986	24517
814.127	24399
814.268	24281
814.41	24304
814.551	24300
814.692	24289
814.833	24076
814.974	24007
815.115	24121
815.256	24098
815.397	23992
815.539	23969
815.68	23874
815.821	23786
815.962	23908
816.103	23973
816.244	23737
816.385	23512
816.526	23528
816.666	23345
816.807	23143
816.948	23356
817.089	23391
817.23	23277
817.371	23242
817.512	23197
817.653	23193
817.793	23189
817.934	23189
818.075	23235
818.216	23033
818.356	23018
818.497	23086
818.638	22797
818.778	22934
818.919	22885
819.06	22915
819.2	23098
819.341	23037
819.481	23109
819.622	23200
819.762	23368
819.903	23299
820.043	23208
820.184	23223
820.324	23098
820.465	23174
820.605	23185
820.746	23014
820.886	22987
821.026	23109
821.167	22991
821.307	23022
821.447	22923
821.588	22839
821.728	22607
821.868	22504
822.008	22390
822.149	22508
822.289	22341
822.429	22166
822.569	22128
822.709	22090
822.849	21888
822.99	21823
823.13	21956
823.27	21869
823.41	21698
823.55	21663
823.69	21778
823.83	21732
823.97	21561
824.11	21408
824.25	21412
824.389	21492
824.529	21507
824.669	21428
824.809	21538
824.949	21454
825.089	21428
825.228	21302
825.368	21184
825.508	21306
825.648	21230
825.787	21355
825.927	21275
826.067	21161
826.206	21233
826.346	21230
826.485	21150
826.625	21169
826.765	21412
826.904	21157
827.044	20807
827.183	20948
827.323	20708
827.462	20845
827.601	20937
827.741	20864
827.88	20883
828.02	20777
828.159	20861
828.298	20880
828.437	20902
828.577	20777
828.716	20925
828.855	20678
828.994	20743
829.134	20621
829.273	20579
829.412	20530
829.551	20446
829.69	20526
829.829	20522
829.968	20727
830.107	20701
830.246	20541
830.385	20560
830.524	20343
830.663	20415
830.802	20199
830.941	20134
831.08	20126
831.219	20229
831.357	20202
831.496	20377
831.635	20237
831.774	19955
831.913	20081
832.051	19955
832.19	19887
832.329	19936
832.467	19932
832.606	19890
832.744	19898
832.883	19890
833.022	19909
833.16	20016
833.299	20065
833.437	20126
833.576	20115
833.714	20206
833.852	20176
833.991	20305
834.129	20294
834.267	20362
834.406	20400
834.544	20229
834.682	20259
834.821	20294
834.959	20275
835.097	19963
835.235	20149
835.373	20062
835.511	19947
835.65	19837
835.788	19799
835.926	19651
836.064	19514
836.202	19632
836.34	19655
836.478	19811
836.615	19651
836.753	19719
836.891	19727
837.029	19662
837.167	19651
837.305	19597
837.443	19521
837.58	19388
837.718	19552
837.856	19514
837.993	19438
838.131	19472
838.269	19407
838.406	19430
838.544	19335
838.681	19095
838.819	19217
838.956	18985
839.094	19126
839.231	19031
839.369	19126
839.506	19426
839.643	19187
839.781	18985
839.918	18935
840.055	18886
840.193	18894
840.33	18806
840.467	18897
840.604	18852
840.742	19156
840.879	18791
841.016	18783
841.153	18840
841.29	19019
841.427	18856
841.564	18943
841.701	18897
841.838	18935
841.975	18806
842.112	18734
842.249	18722
842.385	18578
842.522	18852
842.659	18642
842.796	18597
842.933	18814
843.069	18612
843.206	18677
843.343	18806
843.479	18711
843.616	18681
843.752	18551
843.889	18574
844.025	18620
844.162	18521
844.298	18700
844.435	18684
844.571	18776
844.708	18897
844.844	19190
844.98	19278
845.117	19499
845.253	19750
845.389	20309
845.525	21743
845.661	23950
845.798	26590
845.934	28923
846.07	29855
846.206	29440
846.342	27892
846.478	24951
846.614	22402
846.75	20705
846.886	19803
847.022	19388
847.158	18791
847.294	18566
847.429	18418
847.565	18273
847.701	18422
847.837	17996
847.972	17931
848.108	17783
848.244	17958
848.379	17672
848.515	17714
848.65	17703
848.786	17581
848.921	17592
849.057	17699
849.192	17577
849.328	17615
849.463	17581
849.598	17589
849.734	17421
849.869	17421
850.004	17387
850.14	17337
850.275	17299
850.41	17189
850.545	17299
850.68	17284
850.815	17284
850.95	17318
851.085	17440
851.22	17425
851.355	17193
851.49	17326
851.625	17216
851.76	17239
851.895	17147
852.03	17204
852.165	17315
852.299	17143
852.434	17402
852.569	17322
852.703	17296
852.838	17398
852.973	17497
853.107	17414
853.242	17376
853.376	17185
853.511	17105
853.645	17200
853.78	17379
853.914	17334
854.048	17254
854.183	17189
854.317	17250
854.451	17372
854.585	17303
854.72	17265
854.854	17326
854.988	17159
855.122	17246
855.256	17052
855.39	17235
855.524	17277
855.658	17185
855.792	17155
855.926	17193
856.06	17189
856.194	17303
856.327	17128
856.461	17121
856.595	17132
856.729	17010
856.862	17193
856.996	17094
857.13	17223
857.263	17200
857.397	17265
857.53	17071
857.664	17166
857.797	17250
857.931	17174
858.064	17048
858.197	17246
858.331	17056
858.464	17109
858.597	16889
858.731	16984
858.864	17033
858.997	17033
859.13	16976
859.263	17086
859.396	17090
859.529	16980
859.662	16968
859.795	17037
859.928	16980
860.061	17197
860.194	17151
860.327	17052
860.46	17064
860.592	17098
860.725	17178
860.858	17128
860.99	16984
861.123	16923
861.256	17022
861.388	16965
861.521	17604
861.653	16968
861.786	16824
861.918	16816
862.05	16885
862.183	16968
862.315	17052
862.447	17048
862.58	17037
862.712	16660
862.844	16763
862.976	16904
863.108	16816
863.24	17075
863.372	16641
863.504	16812
863.636	16759
863.768	16710
863.9	16626
864.032	16649
864.164	16573
864.296	16801
864.428	16854
864.559	16710
864.691	16774
864.823	16816
864.954	16828
865.086	16790
865.217	16812
865.349	16634
865.48	16748
865.612	16759
865.743	16809
865.875	16649
866.006	16489
866.137	16721
866.269	16774
866.4	16752
866.531	16672
866.662	16626
866.793	16630
866.924	16668
867.055	16653
867.186	16672
867.317	16725
867.448	16550
867.579	16565
867.71	16615
867.841	16599
867.972	16675
868.103	16634
868.233	16706
868.364	16615
868.495	16733
868.625	16877
868.756	16976
868.886	16869
869.017	16869
869.147	17010
869.278	17003
869.408	16869
869.539	16961
869.669	16946
869.799	17014
869.929	16991
870.06	16957
870.19	17273
870.32	17128
870.45	17143
870.58	17246
870.71	17410
870.84	17444
870.97	17258
871.1	17200
871.23	17501
871.36	17516
871.489	17452
871.619	17433
871.749	17520
871.879	17615
872.008	17710
872.138	17589
872.267	17581
872.397	17459
872.526	17334
872.656	17417
872.785	17391
872.915	17646
873.044	17779
873.173	17668
873.303	17611
873.432	17653
873.561	17821
873.69	17570
873.819	17657
873.948	17756
874.077	17707
874.206	17596
874.335	17710
874.464	17794
874.593	17980
874.722	17965
874.851	18136
874.979	18068
875.108	18144
875.237	18159
875.365	17999
875.494	18155
875.623	18190
875.751	18072
875.88	18209
876.008	18346
876.136	18285
876.265	18525
876.393	18821
876.521	18646
876.65	18764
876.778	18635
876.906	18608
877.034	18661
877.162	18783
877.29	18711
877.418	18833
877.546	18932
877.674	18897
877.802	18951
877.93	18943
878.058	18947
878.185	19034
878.313	19324
878.441	19350
878.568	19518
878.696	19734
878.824	20084
878.951	20686
879.079	21313
879.206	22154
879.333	23022
879.461	23608
879.588	24152
879.715	24224
879.842	23847
879.97	22953
880.097	21922
880.224	21203
880.351	20788
880.478	20355
880.605	20065
880.732	20039
880.859	20062
880.986	19852
881.112	19791
881.239	19540
881.366	19556
881.493	19426
881.619	19381
881.746	19502
881.872	19270
881.999	19354
882.125	19411
882.252	19544
882.378	19506
882.505	19746
882.631	19365
882.757	19285
882.883	19346
883.01	19266
883.136	19228
883.262	19236
883.388	19141
883.514	19308
883.64	19285
883.766	19141
883.892	19129
884.018	19152
884.143	19255
884.269	19377
884.395	19061
884.52	19091
884.646	19160
884.772	18970
884.897	18859
885.023	19019
885.148	18981
885.274	19023
885.399	18985
885.524	18897
885.65	18837
885.775	18764
885.9	18711
886.025	18677
886.15	18681
886.275	18639
886.4	18410
886.525	18456
886.65	18407
886.775	18346
886.9	18418
887.025	18551
887.149	18311
887.274	18095
887.399	18022
887.523	17988
887.648	17870
887.773	17828
887.897	17965
888.021	17889
888.146	17783
888.27	17980
888.395	17809
888.519	17745
888.643	17676
888.767	17764
888.891	17672
889.015	17482
889.139	17570
889.263	17364
889.387	17627
889.511	17562
889.635	17619
889.759	17436
889.883	17383
890.006	17455
890.13	17482
890.254	17349
890.377	17284
890.501	17060
890.624	17235
890.748	17178
890.871	17060
890.995	16949
891.118	16976
891.241	16961
891.364	16835
891.488	17185
891.611	16805
891.734	16877
891.857	16923
891.98	16869
892.103	16915
892.226	16908
892.349	16778
892.471	16691
892.594	16698
892.717	16862
892.839	16748
892.962	16717
893.085	16809
893.207	16706
893.33	16630
893.452	16729
893.575	16782
893.697	16691
893.819	16915
893.941	16835
894.064	16782
894.186	16683
894.308	16645
894.43	16778
894.552	16820
894.674	16713
894.796	16596
894.918	16675
895.04	16679
895.161	16710
895.283	16672
895.405	16565
895.526	16489
895.648	16664
895.769	16782
895.891	16687
896.012	16736
896.134	16828
896.255	16771
896.376	16755
896.498	16653
896.619	16763
896.74	16721
896.861	16717
896.982	17029
897.103	17075
897.224	16908
897.345	16900
897.466	16824
897.587	16911
897.708	17067
897.828	16850
897.949	16850
898.07	16679
898.19	16957
898.311	16995
898.431	16889
898.552	16968
898.672	16976
898.792	17071
898.913	16946
899.033	16896
899.153	16820
899.273	16767
899.393	16786
899.513	16824
899.633	16816
899.753	16782
899.873	16752
899.993	16790
900.113	16752
900.232	16759
900.352	16672
900.472	16740
900.591	16618
900.711	16713
900.83	16573
900.95	16752
901.069	16626
901.189	16611
901.308	16268
901.427	16188
901.546	16265
901.665	16295
901.784	16215
901.904	16147
902.023	16029
902.141	15903
902.26	15701
902.379	15835
902.498	15797
902.617	15663
902.735	15778
902.854	15774
902.973	15595
903.091	15515
903.21	15454
903.328	15488
903.446	15367
903.565	15104
903.683	15283
903.801	15188
903.919	15142
904.038	15173
904.156	15032
904.274	15127
904.392	14925
904.51	14986
904.627	14880
904.745	15005
904.863	14982
904.981	14834
905.098	14575
905.216	14640
905.334	14617
905.451	14667
905.569	14640
905.686	14689
905.803	14537
905.921	14495
906.038	14549
906.155	14473
906.272	14271
906.389	14339
906.506	14168
906.623	14123
906.74	14123
906.857	14065
906.974	13993
907.091	14210
907.208	14176
907.324	14161
907.441	14043
907.557	13864
907.674	13883
907.79	13852
907.907	13883
908.023	13921
908.139	13970
908.256	13791
908.372	13723
908.488	13803
908.604	13636
908.72	13533
908.836	13544
908.952	13544
909.068	13658
909.184	13677
909.3	13628
909.415	13704
909.531	13636
909.647	13441
909.762	13407
909.878	13308
909.993	13346
910.108	13392
910.224	13339
910.339	13297
910.454	13209
910.57	13149
910.685	13149
910.8	13403
910.915	13331
911.03	13236
911.145	13034
911.259	12973
911.374	13084
911.489	12920
911.604	12867
911.718	12779
911.833	12738
911.947	12601
912.062	12623
912.176	12749
912.291	12798
912.405	12795
912.519	12897
912.633	12837
912.748	12810
912.862	12665
912.976	12547
913.09	12460
913.204	12585
913.318	12662
913.431	12696
913.545	12677
913.659	12703
913.772	12566
913.886	12437
914	12369
914.113	12616
914.226	12563
914.34	12509
914.453	12304
914.566	12498
914.68	12388
914.793	12346
914.906	12205
915.019	12121
915.132	12041
915.245	12026
915.358	12129
915.47	12102
915.583	12228
915.696	12262
915.809	12254
915.921	12254
916.034	12121
916.146	12140
916.259	12091
916.371	12144
916.483	12102
916.595	12095
916.708	12136
916.82	12030
916.932	11999
917.044	12007
917.156	12079
917.268	11935
917.38	11958
917.491	11916
917.603	11912
917.715	12060
917.826	12007
917.938	11828
918.049	11771
918.161	11946
918.272	12030
918.384	12072
918.495	11882
918.606	11783
918.717	11688
918.828	11817
918.939	11813
919.05	11684
919.161	11710
919.272	11471
919.383	11581
919.494	11714
919.604	12053
919.715	11752
919.826	11657
919.936	11722
920.047	11756
920.157	11771
920.267	11984
920.378	11756
920.488	11665
920.598	12007
920.708	11992
920.818	11912
920.928	11969
921.038	12019
921.148	11958
921.258	11710
921.368	11653
921.477	11547
921.587	11448
921.697	11406
921.806	11543
921.916	11299
922.025	11235
922.134	11170
922.244	11201
922.353	11223
922.462	11109
922.571	11102
922.68	10911
922.789	10862
922.898	10934
923.007	10850
923.116	10828
923.224	10828
923.333	10820
923.442	10793
923.55	10710
923.659	10717
923.767	10740
923.876	10736
923.984	10679
924.092	10672
924.201	10786
924.309	10763
924.417	10729
924.525	10675
924.633	10656
924.741	11589
924.849	10432
924.956	10611
925.064	10436
925.172	10341
925.279	10386
925.387	10508
925.494	10451
925.602	10660
925.709	10527
925.816	10356
925.924	10440
926.031	10504
926.138	10402
926.245	10500
926.352	10303
926.459	10504
926.566	10580
926.673	10375
926.779	10344
926.886	10188
926.993	10017
927.099	10143
927.206	10097
927.312	10040
927.419	10158
927.525	10147
927.631	10147
927.737	10025
927.843	10090
927.95	9930
928.056	9979
928.162	10002
928.267	10074
928.373	10668
928.479	10143
928.585	9835
928.69	9907
928.796	9975
928.901	9850
929.007	9816
929.112	9857
929.218	9819
929.323	9793
929.428	9755
929.533	9854
929.638	9724
929.743	9724
929.848	9800
929.953	9740
930.058	9682
930.163	9568
930.267	9545
930.372	9660
930.477	9454
930.581	9751
930.685	9580
930.79	9401
930.894	9519
930.998	9416
931.103	9500
931.207	9165
931.311	9062
931.415	9142
931.519	8883
931.623	8838
