Data from test_V78500241_222.txt Node
Date: Fri Mar 25 14:35:16 CST 2022
User: usil
Spectrometer: V785-0024
Trigger mode: 0
Integration Time (sec): 4.000000E-1
Scans to average: 1
Nonlinearity correction enabled: false
Boxcar width: 0
Storing dark spectrum: false
XAxis mode: Wavelengths
Number of Pixels in Spectrum: 1024
>>>>>Begin Spectral Data<<<<<
801.071	27770
801.214	27705
801.356	27526
801.499	27500
801.641	27218
801.783	27226
801.926	27222
802.068	27077
802.211	26982
802.353	26971
802.496	26925
802.638	26880
802.78	26701
802.923	26746
803.065	26693
803.208	26727
803.35	26796
803.492	26804
803.635	26834
803.777	26804
803.919	26773
804.061	27154
804.204	26807
804.346	26590
804.488	26590
804.63	26823
804.773	26568
804.915	26720
805.057	26807
805.199	26564
805.341	26758
805.483	26868
805.626	26826
805.768	26845
805.91	26811
806.052	26792
806.194	26716
806.336	26948
806.478	26940
806.62	26800
806.762	26819
806.904	27077
807.046	27146
807.188	27146
807.33	27135
807.472	27268
807.614	27233
807.756	26979
807.898	27028
808.04	27093
808.182	27055
808.324	27135
808.465	27127
808.607	27424
808.749	27622
808.891	27778
809.033	27876
809.174	27774
809.316	27568
809.458	27515
809.6	27447
809.741	27507
809.883	27515
810.025	27530
810.166	27534
810.308	27530
810.45	27386
810.591	27477
810.733	27302
810.875	27245
811.016	27074
811.158	27058
811.299	27192
811.441	27222
811.582	27237
811.724	27070
811.865	27291
812.007	27165
812.148	27192
812.29	27165
812.431	27260
812.573	27435
812.714	27496
812.855	27545
812.997	27603
813.138	27819
813.279	27816
813.421	27709
813.562	27458
813.703	27454
813.845	27397
813.986	26956
814.127	26872
814.268	26701
814.41	26785
814.551	26811
814.692	26762
814.833	26594
814.974	26648
815.115	26727
815.256	26549
815.397	26541
815.539	26537
815.68	26415
815.821	26259
815.962	26613
816.103	26450
816.244	26248
816.385	26050
816.526	26058
816.666	26103
816.807	25898
816.948	26024
817.089	25909
817.23	25909
817.371	25677
817.512	25746
817.653	25715
817.793	25670
817.934	25784
818.075	25833
818.216	25761
818.356	25556
818.497	25609
818.638	25518
818.778	25544
818.919	25468
819.06	25540
819.2	25613
819.341	25567
819.481	25674
819.622	25868
819.762	26020
819.903	25978
820.043	25837
820.184	25719
820.324	25689
820.465	25704
820.605	25635
820.746	25639
820.886	25586
821.026	25677
821.167	25609
821.307	25875
821.447	25700
821.588	25548
821.728	25400
821.868	25133
822.008	25114
822.149	25076
822.289	25080
822.429	24920
822.569	24715
822.709	24871
822.849	24658
822.99	24574
823.13	24623
823.27	24532
823.41	24391
823.55	24247
823.69	24384
823.83	24315
823.97	24384
824.11	24216
824.25	24171
824.389	24266
824.529	24201
824.669	24053
824.809	24167
824.949	24327
825.089	24281
825.228	24182
825.368	23889
825.508	23988
825.648	23813
825.787	24136
825.927	23946
826.067	23874
826.206	23969
826.346	24026
826.485	23942
826.625	23863
826.765	24060
826.904	23923
827.044	23653
827.183	23737
827.323	23608
827.462	23737
827.601	23783
827.741	23627
827.88	23581
828.02	23452
828.159	23585
828.298	23687
828.437	23646
828.577	23531
828.716	23733
828.855	23604
828.994	23235
829.134	23345
829.273	23368
829.412	23265
829.551	23231
829.69	23261
829.829	23330
829.968	23440
830.107	23345
830.246	23269
830.385	23273
830.524	23067
830.663	23079
830.802	22972
830.941	22812
831.08	22961
831.219	22869
831.357	22961
831.496	22972
831.635	22862
831.774	22736
831.913	22755
832.051	22588
832.19	22588
832.329	22660
832.467	22531
832.606	22504
832.744	22379
832.883	22470
833.022	22443
833.16	22523
833.299	22527
833.437	22504
833.576	22531
833.714	22443
833.852	22478
833.991	22634
834.129	22523
834.267	22615
834.406	22546
834.544	22478
834.682	22596
834.821	22508
834.959	22599
835.097	22367
835.235	22538
835.373	22451
835.511	22451
835.65	22398
835.788	22322
835.926	22299
836.064	22082
836.202	22070
836.34	22421
836.478	22390
836.615	22211
836.753	22363
836.891	22276
837.029	22306
837.167	22219
837.305	22215
837.443	22139
837.58	22101
837.718	22177
837.856	22154
837.993	22063
838.131	22120
838.269	22090
838.406	22097
838.544	22040
838.681	21964
838.819	21846
838.956	21644
839.094	21694
839.231	21671
839.369	21785
839.506	21892
839.643	21766
839.781	21622
839.918	21431
840.055	21530
840.193	21405
840.33	21298
840.467	21462
840.604	21443
840.742	21793
840.879	21355
841.016	21393
841.153	21397
841.29	21580
841.427	21370
841.564	21462
841.701	21374
841.838	21298
841.975	21424
842.112	21325
842.249	21325
842.385	21294
842.522	21348
842.659	21211
842.796	21233
842.933	21233
843.069	21176
843.206	21051
843.343	21218
843.479	21195
843.616	21268
843.752	20960
843.889	20842
844.025	21062
844.162	20921
844.298	21096
844.435	20910
844.571	20826
844.708	21043
844.844	20975
844.98	21058
845.117	20979
845.253	20948
845.389	20868
845.525	20925
845.661	21039
845.798	21062
845.934	21211
846.07	21138
846.206	21142
846.342	21241
846.478	20933
846.614	20659
846.75	20488
846.886	20465
847.022	20484
847.158	20358
847.294	20347
847.429	20446
847.565	20332
847.701	20579
847.837	20115
847.972	20161
848.108	20157
848.244	20195
848.379	19997
848.515	19951
848.65	19921
848.786	19921
848.921	20039
849.057	20031
849.192	20016
849.328	19936
849.463	19978
849.598	19887
849.734	19833
849.869	19871
850.004	19696
850.14	19765
850.275	19738
850.41	19594
850.545	19662
850.68	19559
850.815	19571
850.95	19776
851.085	19875
851.22	19712
851.355	19628
851.49	19655
851.625	19571
851.76	19525
851.895	19575
852.03	19441
852.165	19563
852.299	19635
852.434	19677
852.569	19677
852.703	19609
852.838	19784
852.973	19742
853.107	19628
853.242	19518
853.376	19521
853.511	19251
853.645	19438
853.78	19696
853.914	19426
854.048	19365
854.183	19449
854.317	19449
854.451	19727
854.585	19331
854.72	19289
854.854	19582
854.988	19407
855.122	19453
855.256	19301
855.39	19419
855.524	19403
855.658	19430
855.792	19422
855.926	19457
856.06	19422
856.194	19529
856.327	19480
856.461	19312
856.595	19365
856.729	19438
856.862	19491
856.996	19400
857.13	19430
857.263	19567
857.397	19464
857.53	19422
857.664	19457
857.797	19594
857.931	19480
858.064	19502
858.197	19559
858.331	19384
858.464	19400
858.597	19392
858.731	19384
858.864	19460
858.997	19377
859.13	19426
859.263	19430
859.396	19510
859.529	19324
859.662	19346
859.795	19358
859.928	19392
860.061	19506
860.194	19464
860.327	19411
860.46	19312
860.592	19521
860.725	19502
860.858	19540
860.99	19487
861.123	19282
861.256	19354
861.388	19320
861.521	19989
861.653	19236
861.786	19217
861.918	19304
862.05	19407
862.183	19392
862.315	19502
862.447	19575
862.58	19289
862.712	19221
862.844	19228
862.976	19251
863.108	19213
863.24	19396
863.372	19076
863.504	19076
863.636	19012
863.768	19145
863.9	19053
864.032	19069
864.164	19084
864.296	19187
864.428	19266
864.559	19129
864.691	19107
864.823	19095
864.954	19198
865.086	19171
865.217	19046
865.349	19012
865.48	19057
865.612	19137
865.743	19156
865.875	19042
866.006	18981
866.137	19080
866.269	19110
866.4	18966
866.531	18890
866.662	18981
866.793	18894
866.924	18977
867.055	19069
867.186	18916
867.317	18985
867.448	18897
867.579	18981
867.71	18806
867.841	18894
867.972	18939
868.103	18924
868.233	19012
868.364	19046
868.495	19103
868.625	19190
868.756	19160
868.886	19168
869.017	19168
869.147	19308
869.278	19304
869.408	19164
869.539	19194
869.669	19232
869.799	19221
869.929	19266
870.06	19266
870.19	19388
870.32	19457
870.45	19685
870.58	19540
870.71	19651
870.84	19742
870.97	19594
871.1	19529
871.23	19803
871.36	19712
871.489	19685
871.619	19696
871.749	19753
871.879	19811
872.008	19959
872.138	19788
872.267	19757
872.397	19742
872.526	19635
872.656	19556
872.785	19609
872.915	19727
873.044	19791
873.173	19814
873.303	19833
873.432	19913
873.561	19936
873.69	19780
873.819	19803
873.948	19883
874.077	19837
874.206	19727
874.335	19811
874.464	19974
874.593	20119
874.722	20027
874.851	19986
874.979	20126
875.108	20164
875.237	20081
875.365	19928
875.494	20176
875.623	20092
875.751	20024
875.88	20115
876.008	20248
876.136	20377
876.265	20450
876.393	20545
876.521	20609
876.65	20598
876.778	20431
876.906	20351
877.034	20396
877.162	20492
877.29	20412
877.418	20450
877.546	20351
877.674	20454
877.802	20549
877.93	20381
878.058	20461
878.185	20438
878.313	20385
878.441	20518
878.568	20275
878.696	20473
878.824	20590
878.951	20636
879.079	20754
879.206	20834
879.333	20792
879.461	20750
879.588	20902
879.715	20910
879.842	21081
879.97	20731
880.097	20313
880.224	20400
880.351	20370
880.478	20332
880.605	20282
880.732	20518
880.859	20598
880.986	20377
881.112	20358
881.239	20142
881.366	20115
881.493	20039
881.619	20107
881.746	20058
881.872	19986
881.999	19902
882.125	19868
882.252	19902
882.378	20096
882.505	20103
882.631	19822
882.757	19761
882.883	19860
883.01	19677
883.136	19670
883.262	19590
883.388	19605
883.514	19719
883.64	19784
883.766	19662
883.892	19491
884.018	19609
884.143	19696
884.269	19734
884.395	19460
884.52	19388
884.646	19430
884.772	19384
884.897	19282
885.023	19419
885.148	19426
885.274	19518
885.399	19510
885.524	19335
885.65	19388
885.775	19308
885.9	19438
886.025	19438
886.15	19362
886.275	19377
886.4	19247
886.525	19335
886.65	19228
886.775	19316
886.9	19472
887.025	19563
887.149	19236
887.274	19217
887.399	18989
887.523	19088
887.648	19099
887.773	19065
887.897	19194
888.021	19175
888.146	18985
888.27	19122
888.395	19179
888.519	19168
888.643	19171
888.767	19148
888.891	18840
889.015	18913
889.139	18977
889.263	18886
889.387	19008
889.511	19072
889.635	18985
889.759	18920
889.883	18833
890.006	18715
890.13	18897
890.254	18749
890.377	18779
890.501	18707
890.624	18654
890.748	18734
890.871	18509
890.995	18441
891.118	18350
891.241	18563
891.364	18429
891.488	18608
891.611	18540
891.734	18597
891.857	18734
891.98	18555
892.103	18601
892.226	18441
892.349	18479
892.471	18209
892.594	18494
892.717	18372
892.839	18513
892.962	18471
893.085	18460
893.207	18445
893.33	18235
893.452	18422
893.575	18486
893.697	18418
893.819	18627
893.941	18673
894.064	18578
894.186	18418
894.308	18391
894.43	18448
894.552	18673
894.674	18486
894.796	18308
894.918	18369
895.04	18296
895.161	18384
895.283	18441
895.405	18330
895.526	18422
895.648	18502
895.769	18418
895.891	18399
896.012	18372
896.134	18498
896.255	18498
896.376	18506
896.498	18422
896.619	18563
896.74	18528
896.861	18585
896.982	18783
897.103	18913
897.224	18719
897.345	18612
897.466	18574
897.587	18814
897.708	18825
897.828	18730
897.949	18707
898.07	18467
898.19	18707
898.311	18852
898.431	18597
898.552	18730
898.672	18848
898.792	18719
898.913	18719
899.033	18669
899.153	18585
899.273	18376
899.393	18426
899.513	18365
899.633	18456
899.753	18464
899.873	18391
899.993	18456
900.113	18464
900.232	18464
900.352	18319
900.472	18254
900.591	18216
900.711	18289
900.83	18224
900.95	18365
901.069	18399
901.189	18041
901.308	17904
901.427	17870
901.546	17885
901.665	17958
901.784	17904
901.904	17802
902.023	17554
902.141	17611
902.26	17440
902.379	17486
902.498	17421
902.617	17356
902.735	17440
902.854	17505
902.973	17311
903.091	17041
903.21	17071
903.328	17121
903.446	17014
903.565	16854
903.683	16919
903.801	16843
903.919	16858
904.038	16755
904.156	16702
904.274	16782
904.392	16618
904.51	16687
904.627	16687
904.745	16649
904.863	16615
904.981	16459
905.098	16341
905.216	16223
905.334	16379
905.451	16440
905.569	16261
905.686	16382
905.803	16363
905.921	16112
906.038	16143
906.155	16162
906.272	16032
906.389	16025
906.506	15816
906.623	15918
906.74	15766
906.857	15656
906.974	15770
907.091	15956
907.208	15926
907.324	15835
907.441	15720
907.557	15652
907.674	15610
907.79	15416
907.907	15553
908.023	15625
908.139	15515
908.256	15428
908.372	15439
908.488	15439
908.604	15161
908.72	15157
908.836	15222
908.952	15287
909.068	15230
909.184	15336
909.3	15287
909.415	15275
909.531	15192
909.647	14986
909.762	14952
909.878	14944
909.993	14967
910.108	14857
910.224	14921
910.339	14921
910.454	14895
910.57	14849
910.685	14724
910.8	14956
910.915	14941
911.03	14754
911.145	14621
911.259	14503
911.374	14644
911.489	14575
911.604	14454
911.718	14294
911.833	14278
911.947	14195
912.062	14092
912.176	14423
912.291	14256
912.405	14233
912.519	14328
912.633	14427
912.748	14309
912.862	14305
912.976	14183
913.09	13986
913.204	14107
913.318	14206
913.431	14123
913.545	14149
913.659	14191
913.772	14126
913.886	14001
914	13978
914.113	14016
914.226	14115
914.34	14073
914.453	13822
914.566	13993
914.68	13799
914.793	13837
914.906	13696
915.019	13571
915.132	13499
915.245	13666
915.358	13616
915.47	13529
915.583	13662
915.696	13620
915.809	13742
915.921	13674
916.034	13639
916.146	13480
916.259	13487
916.371	13696
916.483	13639
916.595	13422
916.708	13343
916.82	13483
916.932	13453
917.044	13422
917.156	13377
917.268	13259
917.38	13308
917.491	13263
917.603	13301
917.715	13304
917.826	13304
917.938	13282
918.049	13190
918.161	13259
918.272	13407
918.384	13438
918.495	13350
918.606	13084
918.717	13069
918.828	13164
918.939	13080
919.05	12996
919.161	13065
919.272	12848
919.383	12901
919.494	13099
919.604	13270
919.715	13008
919.826	12943
919.936	13072
920.047	13019
920.157	13076
920.267	13152
920.378	13004
920.488	12989
920.598	13133
920.708	13343
920.818	13202
920.928	13179
921.038	13289
921.148	13339
921.258	12977
921.368	12871
921.477	12833
921.587	12798
921.697	12650
921.806	12894
921.916	12654
922.025	12486
922.134	12513
922.244	12494
922.353	12475
922.462	12330
922.571	12296
922.68	12095
922.789	12007
922.898	12140
923.007	12015
923.116	12133
923.224	12095
923.333	12038
923.442	12011
923.55	11969
923.659	12079
923.767	12045
923.876	11904
923.984	12007
924.092	11851
924.201	11897
924.309	11954
924.417	11832
924.525	11889
924.633	11889
924.741	12738
924.849	11688
924.956	11809
925.064	11642
925.172	11619
925.279	11604
925.387	11722
925.494	11642
925.602	11695
925.709	11653
925.816	11505
925.924	11558
926.031	11707
926.138	11512
926.245	11596
926.352	11448
926.459	11596
926.566	11581
926.673	11463
926.779	11410
926.886	11376
926.993	11311
927.099	11277
927.206	11151
927.312	11178
927.419	11296
927.525	11178
927.631	11265
927.737	11216
927.843	11121
927.95	10946
928.056	11056
928.162	11029
928.267	11071
928.373	11676
928.479	11201
928.585	10953
928.69	11048
928.796	11056
928.901	11029
929.007	10824
929.112	10885
929.218	10919
929.323	10854
929.428	10873
929.533	10953
929.638	10763
929.743	10820
929.848	10850
929.953	10782
930.058	10748
930.163	10588
930.267	10554
930.372	10702
930.477	10573
930.581	10752
930.685	10584
930.79	10390
930.894	10485
930.998	10436
931.103	10550
931.207	10188
931.311	10169
931.415	10078
931.519	9857
931.623	9895
