Data from test_V78500241_1953.txt Node
Date: Fri Mar 25 14:47:18 CST 2022
User: usil
Spectrometer: V785-0024
Trigger mode: 0
Integration Time (sec): 4.000000E-1
Scans to average: 1
Nonlinearity correction enabled: false
Boxcar width: 0
Storing dark spectrum: false
XAxis mode: Wavelengths
Number of Pixels in Spectrum: 1024
>>>>>Begin Spectral Data<<<<<
801.071	22006
801.214	21998
801.356	21751
801.499	21671
801.641	21431
801.783	21519
801.926	21416
802.068	21279
802.211	21256
802.353	21169
802.496	21024
802.638	20998
802.78	20910
802.923	20937
803.065	20773
803.208	20659
803.35	20705
803.492	20944
803.635	20883
803.777	20746
803.919	20925
804.061	21096
804.204	20906
804.346	20765
804.488	20746
804.63	20800
804.773	20670
804.915	20697
805.057	20834
805.199	20613
805.341	20705
805.483	20853
805.626	20701
805.768	20621
805.91	20686
806.052	20617
806.194	20716
806.336	20857
806.478	20655
806.62	20678
806.762	20765
806.904	20887
807.046	21058
807.188	21028
807.33	21024
807.472	21005
807.614	20952
807.756	20944
807.898	20804
808.04	20697
808.182	20648
808.324	20796
808.465	20785
808.607	20929
808.749	21047
808.891	21169
809.033	21249
809.174	21138
809.316	20986
809.458	21119
809.6	20952
809.741	21066
809.883	21089
810.025	21138
810.166	21157
810.308	21211
810.45	21131
810.591	21096
810.733	20925
810.875	20887
811.016	20716
811.158	20659
811.299	20872
811.441	20883
811.582	20792
811.724	20819
811.865	20880
812.007	20727
812.148	20918
812.29	20910
812.431	20956
812.573	21108
812.714	21275
812.855	21302
812.997	21561
813.138	21496
813.279	21485
813.421	21298
813.562	21176
813.703	21089
813.845	21051
813.986	20792
814.127	20590
814.268	20244
814.41	20492
814.551	20355
814.692	20434
814.833	20301
814.974	20324
815.115	20389
815.256	20237
815.397	20240
815.539	20176
815.68	20081
815.821	20134
815.962	20153
816.103	20138
816.244	20039
816.385	19955
816.526	19811
816.666	19632
816.807	19510
816.948	19605
817.089	19666
817.23	19552
817.371	19597
817.512	19483
817.653	19472
817.793	19525
817.934	19552
818.075	19499
818.216	19594
818.356	19491
818.497	19266
818.638	19274
818.778	19232
818.919	19225
819.06	19251
819.2	19282
819.341	19362
819.481	19483
819.622	19525
819.762	19674
819.903	19662
820.043	19559
820.184	19567
820.324	19544
820.465	19544
820.605	19525
820.746	19468
820.886	19308
821.026	19464
821.167	19445
821.307	19609
821.447	19426
821.588	19187
821.728	19304
821.868	19072
822.008	18890
822.149	18962
822.289	18909
822.429	18703
822.569	18639
822.709	18665
822.849	18513
822.99	18350
823.13	18327
823.27	18426
823.41	18182
823.55	18182
823.69	18125
823.83	18129
823.97	18197
824.11	18079
824.25	17893
824.389	17969
824.529	18064
824.669	18011
824.809	18045
824.949	17973
825.089	18136
825.228	17958
825.368	17745
825.508	17779
825.648	17733
825.787	17691
825.927	17840
826.067	17630
826.206	17718
826.346	17775
826.485	17760
826.625	17737
826.765	17805
826.904	17790
827.044	17551
827.183	17573
827.323	17433
827.462	17512
827.601	17505
827.741	17376
827.88	17341
828.02	17421
828.159	17421
828.298	17551
828.437	17501
828.577	17440
828.716	17539
828.855	17474
828.994	17315
829.134	17181
829.273	17231
829.412	17200
829.551	17132
829.69	17181
829.829	17402
829.968	17341
830.107	17239
830.246	17204
830.385	17151
830.524	17060
830.663	17029
830.802	16896
830.941	16801
831.08	16809
831.219	16877
831.357	16949
831.496	17029
831.635	16885
831.774	16786
831.913	16694
832.051	16672
832.19	16706
832.329	16634
832.467	16577
832.606	16554
832.744	16538
832.883	16558
833.022	16527
833.16	16577
833.299	16493
833.437	16698
833.576	16668
833.714	16675
833.852	16573
833.991	16611
834.129	16634
834.267	16596
834.406	16626
834.544	16462
834.682	16687
834.821	16580
834.959	16691
835.097	16554
835.235	16725
835.373	16584
835.511	16626
835.65	16519
835.788	16527
835.926	16363
836.064	16287
836.202	16390
836.34	16535
836.478	16554
836.615	16485
836.753	16569
836.891	16611
837.029	16489
837.167	16531
837.305	16443
837.443	16398
837.58	16493
837.718	16493
837.856	16371
837.993	16390
838.131	16341
838.269	16405
838.406	16325
838.544	16215
838.681	16067
838.819	16040
838.956	15903
839.094	15857
839.231	16036
839.369	16055
839.506	16325
839.643	16226
839.781	15983
839.918	15816
840.055	15922
840.193	15987
840.33	15888
840.467	15991
840.604	15949
840.742	16173
840.879	15831
841.016	15918
841.153	15899
841.29	16101
841.427	15937
841.564	15994
841.701	15972
841.838	15857
841.975	15911
842.112	15926
842.249	15789
842.385	15732
842.522	15876
842.659	15743
842.796	15705
842.933	15720
843.069	15717
843.206	15701
843.343	15759
843.479	15816
843.616	15831
843.752	15477
843.889	15462
844.025	15694
844.162	15473
844.298	15618
844.435	15523
844.571	15519
844.708	15564
844.844	15686
844.98	15603
845.117	15534
845.253	15530
845.389	15454
845.525	15443
845.661	15386
845.798	15298
845.934	15336
846.07	15325
846.206	15321
846.342	15469
846.478	15344
846.614	15184
846.75	15047
846.886	15013
847.022	15249
847.158	15070
847.294	15119
847.429	15127
847.565	15135
847.701	15291
847.837	14899
847.972	14804
848.108	14929
848.244	14826
848.379	14712
848.515	14693
848.65	14621
848.786	14743
848.921	14640
849.057	14758
849.192	14849
849.328	14674
849.463	14705
849.598	14629
849.734	14613
849.869	14568
850.004	14431
850.14	14518
850.275	14476
850.41	14415
850.545	14438
850.68	14355
850.815	14484
850.95	14461
851.085	14651
851.22	14560
851.355	14484
851.49	14457
851.625	14480
851.76	14351
851.895	14385
852.03	14328
852.165	14465
852.299	14514
852.434	14568
852.569	14423
852.703	14469
852.838	14492
852.973	14575
853.107	14651
853.242	14423
853.376	14263
853.511	14149
853.645	14267
853.78	14427
853.914	14347
854.048	14358
854.183	14225
854.317	14362
854.451	14473
854.585	14298
854.72	14317
854.854	14423
854.988	14278
855.122	14244
855.256	14183
855.39	14305
855.524	14450
855.658	14499
855.792	14248
855.926	14317
856.06	14381
856.194	14404
856.327	14415
856.461	14233
856.595	14313
856.729	14301
856.862	14438
856.996	14336
857.13	14362
857.263	14446
857.397	14389
857.53	14362
857.664	14377
857.797	14400
857.931	14347
858.064	14385
858.197	14480
858.331	14286
858.464	14256
858.597	14256
858.731	14290
858.864	14324
858.997	14301
859.13	14370
859.263	14336
859.396	14374
859.529	14259
859.662	14176
859.795	14332
859.928	14294
860.061	14552
860.194	14469
860.327	14343
860.46	14351
860.592	14454
860.725	14511
860.858	14366
860.99	14362
861.123	14294
861.256	14324
861.388	14275
861.521	15081
861.653	14134
861.786	14153
861.918	14142
862.05	14259
862.183	14252
862.315	14282
862.447	14328
862.58	14290
862.712	14103
862.844	14069
862.976	14069
863.108	14134
863.24	14408
863.372	14016
863.504	14073
863.636	14046
863.768	14153
863.9	14126
864.032	14065
864.164	14031
864.296	14092
864.428	14187
864.559	14191
864.691	14191
864.823	14134
864.954	14081
865.086	14043
865.217	14115
865.349	14027
865.48	14073
865.612	14054
865.743	14206
865.875	14142
866.006	13947
866.137	14046
866.269	14077
866.4	14043
866.531	14058
866.662	13959
866.793	14035
866.924	14016
867.055	14180
867.186	14115
867.317	14069
867.448	14046
867.579	13986
867.71	14027
867.841	13989
867.972	14065
868.103	14020
868.233	14054
868.364	14161
868.495	14153
868.625	14294
868.756	14381
868.886	14252
869.017	14278
869.147	14454
869.278	14343
869.408	14415
869.539	14347
869.669	14473
869.799	14317
869.929	14404
870.06	14389
870.19	14674
870.32	14648
870.45	14598
870.58	14686
870.71	14830
870.84	14819
870.97	14777
871.1	14720
871.23	14830
871.36	14895
871.489	14659
871.619	14906
871.749	14960
871.879	15097
872.008	15097
872.138	14944
872.267	14864
872.397	14769
872.526	14724
872.656	14781
872.785	14845
872.915	14929
873.044	14975
873.173	15017
873.303	14948
873.432	14944
873.561	15081
873.69	14899
873.819	15070
873.948	15077
874.077	14960
874.206	14994
874.335	15028
874.464	15173
874.593	15207
874.722	15188
874.851	15378
874.979	15279
875.108	15310
875.237	15218
875.365	15169
875.494	15226
875.623	15359
875.751	15325
875.88	15298
876.008	15454
876.136	15663
876.265	15690
876.393	15739
876.521	15857
876.65	15869
876.778	15770
876.906	15705
877.034	15648
877.162	15682
877.29	15622
877.418	15778
877.546	15701
877.674	15667
877.802	15701
877.93	15728
878.058	15713
878.185	15724
878.313	15610
878.441	15770
878.568	15545
878.696	15652
878.824	15846
878.951	15823
879.079	15903
879.206	16002
879.333	15835
879.461	15888
879.588	15850
879.715	15945
879.842	15987
879.97	15739
880.097	15553
880.224	15614
880.351	15591
880.478	15576
880.605	15576
880.732	15591
880.859	15876
880.986	15599
881.112	15580
881.239	15466
881.366	15344
881.493	15336
881.619	15097
881.746	15348
881.872	15226
881.999	15123
882.125	15135
882.252	15340
882.378	15306
882.505	15367
882.631	15249
882.757	15013
882.883	15112
883.01	15005
883.136	15039
883.262	14906
883.388	14902
883.514	15066
883.64	15051
883.766	15081
883.892	14811
884.018	14857
884.143	15097
884.269	15032
884.395	14842
884.52	14587
884.646	14811
884.772	14777
884.897	14674
885.023	14804
885.148	14880
885.274	14960
885.399	14845
885.524	14746
885.65	14796
885.775	14686
885.9	14712
886.025	14826
886.15	14815
886.275	14708
886.4	14602
886.525	14708
886.65	14648
886.775	14587
886.9	14849
887.025	14948
887.149	14880
887.274	14518
887.399	14602
887.523	14590
887.648	14514
887.773	14427
887.897	14670
888.021	14590
888.146	14590
888.27	14678
888.395	14724
888.519	14655
888.643	14670
888.767	14678
888.891	14518
889.015	14419
889.139	14400
889.263	14419
889.387	14530
889.511	14590
889.635	14533
889.759	14374
889.883	14320
890.006	14469
890.13	14450
890.254	14450
890.377	14408
890.501	14298
890.624	14123
890.748	14336
890.871	14157
890.995	14115
891.118	14069
891.241	14077
891.364	14084
891.488	14256
891.611	14119
891.734	14161
891.857	14225
891.98	14153
892.103	14149
892.226	14206
892.349	14107
892.471	14016
892.594	14161
892.717	14149
892.839	14081
892.962	14073
893.085	14313
893.207	14176
893.33	13986
893.452	14024
893.575	14180
893.697	14092
893.819	14259
893.941	14419
894.064	14339
894.186	14050
894.308	14134
894.43	14206
894.552	14336
894.674	14240
894.796	14119
894.918	14161
895.04	14267
895.161	14362
895.283	14263
895.405	14202
895.526	14309
895.648	14210
895.769	14278
895.891	14263
896.012	14305
896.134	14252
896.255	14317
896.376	14233
896.498	14355
896.619	14168
896.74	14282
896.861	14317
896.982	14613
897.103	14811
897.224	14606
897.345	14469
897.466	14434
897.587	14530
897.708	14739
897.828	14613
897.949	14564
898.07	14400
898.19	14514
898.311	14762
898.431	14545
898.552	14617
898.672	14796
898.792	14739
898.913	14792
899.033	14621
899.153	14530
899.273	14389
899.393	14454
899.513	14511
899.633	14454
899.753	14488
899.873	14450
899.993	14541
900.113	14533
900.232	14480
900.352	14454
900.472	14457
900.591	14366
900.711	14396
900.83	14358
900.95	14461
901.069	14427
901.189	14263
901.308	14149
901.427	14058
901.546	14024
901.665	14012
901.784	13963
901.904	13978
902.023	13928
902.141	13658
902.26	13628
902.379	13708
902.498	13620
902.617	13559
902.735	13685
902.854	13632
902.973	13464
903.091	13320
903.21	13293
903.328	13289
903.446	13236
903.565	13221
903.683	13179
903.801	13088
903.919	13175
904.038	13251
904.156	13027
904.274	13057
904.392	12977
904.51	12981
904.627	13008
904.745	12996
904.863	13164
904.981	12863
905.098	12669
905.216	12673
905.334	12722
905.451	12677
905.569	12662
905.686	12703
905.803	12662
905.921	12506
906.038	12589
906.155	12494
906.272	12433
906.389	12483
906.506	12319
906.623	12304
906.74	12270
906.857	12216
906.974	12228
907.091	12346
907.208	12319
907.324	12289
907.441	12289
907.557	12003
907.674	12011
907.79	11999
907.907	11984
908.023	12060
908.139	12060
908.256	11958
908.372	11950
908.488	11920
908.604	11805
908.72	11764
908.836	11798
908.952	11767
909.068	11794
909.184	11836
909.3	11786
909.415	11764
909.531	11821
909.647	11562
909.762	11573
909.878	11505
909.993	11619
910.108	11474
910.224	11589
910.339	11486
910.454	11478
910.57	11436
910.685	11296
910.8	11627
910.915	11471
911.03	11455
911.145	11318
911.259	11174
911.374	11261
911.489	11204
911.604	11037
911.718	11025
911.833	11079
911.947	10949
912.062	10885
912.176	10923
912.291	10984
912.405	11010
912.519	11231
912.633	11227
912.748	11067
912.862	11003
912.976	10934
913.09	10847
913.204	10782
913.318	10858
913.431	10896
913.545	10927
913.659	10908
913.772	10873
913.886	10847
914	10763
914.113	10900
914.226	10915
914.34	10843
914.453	10729
914.566	10869
914.68	10729
914.793	10710
914.906	10504
915.019	10459
915.132	10413
915.245	10554
915.358	10489
915.47	10508
915.583	10561
915.696	10550
915.809	10622
915.921	10725
916.034	10455
916.146	10493
916.259	10474
916.371	10554
916.483	10497
916.595	10421
916.708	10466
916.82	10474
916.932	10367
917.044	10402
917.156	10394
917.268	10303
917.38	10341
917.491	10207
917.603	10341
917.715	10409
917.826	10379
917.938	10341
918.049	10253
918.161	10348
918.272	10523
918.384	10493
918.495	10386
918.606	10284
918.717	10097
918.828	10341
918.939	10207
919.05	10112
919.161	10192
919.272	9991
919.383	10109
919.494	10242
919.604	10447
919.715	10185
919.826	10192
919.936	10207
920.047	10246
920.157	10261
920.267	10390
920.378	10341
920.488	10219
920.598	10535
920.708	10558
920.818	10504
920.928	10413
921.038	10592
921.148	10691
921.258	10299
921.368	10139
921.477	9987
921.587	10051
921.697	9960
921.806	10097
921.916	10021
922.025	9751
922.134	9812
922.244	9789
922.353	9831
922.462	9648
922.571	9644
922.68	9454
922.789	9462
922.898	9542
923.007	9458
923.116	9534
923.224	9454
923.333	9454
923.442	9420
923.55	9363
923.659	9363
923.767	9447
923.876	9359
923.984	9481
924.092	9291
924.201	9389
924.309	9363
924.417	9428
924.525	9325
924.633	9272
924.741	10219
924.849	9135
924.956	9237
925.064	9097
925.172	9154
925.279	9074
925.387	9214
925.494	9138
925.602	9291
925.709	9260
925.816	9032
925.924	9123
926.031	9249
926.138	9104
926.245	9173
926.352	9062
926.459	9249
926.566	9241
926.673	9097
926.779	8937
926.886	8990
926.993	8864
927.099	8834
927.206	8804
927.312	8815
927.419	8853
927.525	8823
927.631	8937
927.737	8804
927.843	8693
927.95	8632
928.056	8724
928.162	8807
928.267	8838
928.373	9340
928.479	8815
928.585	8621
928.69	8735
928.796	8788
928.901	8686
929.007	8530
929.112	8659
929.218	8648
929.323	8587
929.428	8549
929.533	8746
929.638	8480
929.743	8526
929.848	8598
929.953	8503
930.058	8514
930.163	8271
930.267	8385
930.372	8442
930.477	8343
930.581	8503
930.685	8339
930.79	8263
930.894	8328
930.998	8298
931.103	8404
931.207	8058
931.311	8031
931.415	7997
931.519	7833
931.623	7837
