Data from test_V78500241_3645.txt Node
Date: Fri Mar 25 14:59:05 CST 2022
User: usil
Spectrometer: V785-0024
Trigger mode: 0
Integration Time (sec): 4.000000E-1
Scans to average: 1
Nonlinearity correction enabled: false
Boxcar width: 0
Storing dark spectrum: false
XAxis mode: Wavelengths
Number of Pixels in Spectrum: 1024
>>>>>Begin Spectral Data<<<<<
801.071	22021
801.214	21743
801.356	21633
801.499	21454
801.641	21298
801.783	21310
801.926	21302
802.068	21165
802.211	21249
802.353	21161
802.496	20864
802.638	20708
802.78	20682
802.923	20800
803.065	20564
803.208	20579
803.35	20549
803.492	20788
803.635	20853
803.777	20648
803.919	20533
804.061	20937
804.204	20724
804.346	20587
804.488	20473
804.63	20587
804.773	20362
804.915	20434
805.057	20746
805.199	20457
805.341	20492
805.483	20670
805.626	20678
805.768	20568
805.91	20526
806.052	20564
806.194	20434
806.336	20682
806.478	20594
806.62	20552
806.762	20609
806.904	20636
807.046	20868
807.188	20769
807.33	20773
807.472	20967
807.614	20750
807.756	20750
807.898	20648
808.04	20648
808.182	20568
808.324	20476
808.465	20583
808.607	20781
808.749	20982
808.891	21074
809.033	21043
809.174	20918
809.316	20769
809.458	20815
809.6	20720
809.741	20906
809.883	20868
810.025	20990
810.166	21005
810.308	20944
810.45	20895
810.591	20956
810.733	20853
810.875	20674
811.016	20533
811.158	20476
811.299	20651
811.441	20796
811.582	20701
811.724	20636
811.865	20541
812.007	20579
812.148	20560
812.29	20727
812.431	20716
812.573	20979
812.714	20986
812.855	21066
812.997	21211
813.138	21241
813.279	21112
813.421	21104
813.562	21077
813.703	20800
813.845	20807
813.986	20484
814.127	20278
814.268	20240
814.41	20252
814.551	20130
814.692	20294
814.833	19959
814.974	20065
815.115	20069
815.256	19986
815.397	19917
815.539	20046
815.68	19898
815.821	19799
815.962	19875
816.103	19890
816.244	19616
816.385	19616
816.526	19658
816.666	19480
816.807	19320
816.948	19289
817.089	19502
817.23	19373
817.371	19285
817.512	19247
817.653	19301
817.793	19171
817.934	19263
818.075	19202
818.216	19266
818.356	19255
818.497	19091
818.638	19076
818.778	18962
818.919	18973
819.06	18996
819.2	19114
819.341	19050
819.481	19232
819.622	19343
819.762	19499
819.903	19460
820.043	19320
820.184	19297
820.324	19247
820.465	19331
820.605	19335
820.746	19175
820.886	19065
821.026	19175
821.167	19141
821.307	19293
821.447	19198
821.588	19129
821.728	18894
821.868	18882
822.008	18802
822.149	18635
822.289	18665
822.429	18399
822.569	18334
822.709	18315
822.849	18163
822.99	18125
823.13	18117
823.27	18140
823.41	18015
823.55	17920
823.69	17946
823.83	18076
823.97	18007
824.11	17775
824.25	17676
824.389	17790
824.529	17866
824.669	17729
824.809	17863
824.949	17961
825.089	17714
825.228	17748
825.368	17722
825.508	17486
825.648	17585
825.787	17596
825.927	17505
826.067	17547
826.206	17486
826.346	17581
826.485	17608
826.625	17490
826.765	17657
826.904	17554
827.044	17265
827.183	17284
827.323	17296
827.462	17174
827.601	17250
827.741	17197
827.88	17178
828.02	17060
828.159	17124
828.298	17235
828.437	17288
828.577	17265
828.716	17360
828.855	17155
828.994	17121
829.134	16980
829.273	17025
829.412	17006
829.551	16968
829.69	16908
829.829	16991
829.968	17041
830.107	17056
830.246	17029
830.385	16892
830.524	16904
830.663	16881
830.802	16694
830.941	16565
831.08	16599
831.219	16702
831.357	16694
831.496	16839
831.635	16558
831.774	16626
831.913	16622
832.051	16402
832.19	16371
832.329	16432
832.467	16295
832.606	16272
832.744	16306
832.883	16265
833.022	16352
833.16	16360
833.299	16356
833.437	16284
833.576	16295
833.714	16360
833.852	16440
833.991	16390
834.129	16337
834.267	16379
834.406	16428
834.544	16405
834.682	16421
834.821	16333
834.959	16497
835.097	16306
835.235	16421
835.373	16413
835.511	16417
835.65	16276
835.788	16276
835.926	16112
836.064	16143
836.202	16063
836.34	16402
836.478	16337
836.615	16234
836.753	16352
836.891	16360
837.029	16394
837.167	16314
837.305	16310
837.443	16192
837.58	16124
837.718	16284
837.856	16131
837.993	16090
838.131	16219
838.269	16078
838.406	16044
838.544	16044
838.681	15808
838.819	15854
838.956	15728
839.094	15778
839.231	15671
839.369	15850
839.506	16067
839.643	15983
839.781	15781
839.918	15641
840.055	15785
840.193	15759
840.33	15717
840.467	15717
840.604	15762
840.742	16074
840.879	15648
841.016	15587
841.153	15705
841.29	15793
841.427	15804
841.564	15759
841.701	15789
841.838	15766
841.975	15591
842.112	15622
842.249	15599
842.385	15511
842.522	15553
842.659	15526
842.796	15477
842.933	15481
843.069	15466
843.206	15439
843.343	15519
843.479	15492
843.616	15549
843.752	15348
843.889	15310
844.025	15462
844.162	15230
844.298	15344
844.435	15272
844.571	15226
844.708	15329
844.844	15485
844.98	15439
845.117	15447
845.253	15294
845.389	15192
845.525	15199
845.661	15226
845.798	15112
845.934	15135
846.07	15058
846.206	15093
846.342	15150
846.478	15028
846.614	14998
846.75	14872
846.886	14834
847.022	15058
847.158	14864
847.294	14994
847.429	14937
847.565	14891
847.701	15066
847.837	14674
847.972	14610
848.108	14640
848.244	14773
848.379	14541
848.515	14492
848.65	14484
848.786	14431
848.921	14480
849.057	14526
849.192	14663
849.328	14457
849.463	14503
849.598	14412
849.734	14320
849.869	14336
850.004	14271
850.14	14332
850.275	14275
850.41	14191
850.545	14107
850.68	14259
850.815	14180
850.95	14229
851.085	14362
851.22	14290
851.355	14256
851.49	14168
851.625	14225
851.76	14145
851.895	14142
852.03	14168
852.165	14244
852.299	14195
852.434	14336
852.569	14233
852.703	14244
852.838	14244
852.973	14465
853.107	14320
853.242	14172
853.376	14123
853.511	13989
853.645	14043
853.78	14168
853.914	14084
854.048	14054
854.183	14092
854.317	14168
854.451	14244
854.585	14046
854.72	14005
854.854	14161
854.988	14008
855.122	14084
855.256	13913
855.39	14069
855.524	14229
855.658	14043
855.792	14229
855.926	14153
856.06	14168
856.194	14237
856.327	14069
856.461	14096
856.595	14024
856.729	14046
856.862	14225
856.996	14115
857.13	14195
857.263	14142
857.397	14202
857.53	14077
857.664	14252
857.797	14206
857.931	14157
858.064	14157
858.197	14275
858.331	14123
858.464	14065
858.597	14046
858.731	14081
858.864	14065
858.997	14005
859.13	14157
859.263	14145
859.396	14225
859.529	14046
859.662	14035
859.795	14035
859.928	14142
860.061	14267
860.194	14301
860.327	14130
860.46	14092
860.592	14157
860.725	14199
860.858	14187
860.99	14164
861.123	14035
861.256	14027
861.388	14119
861.521	14933
861.653	13917
861.786	13951
861.918	13932
862.05	14046
862.183	14164
862.315	14149
862.447	14126
862.58	13982
862.712	13921
862.844	13662
862.976	14043
863.108	13974
863.24	14221
863.372	13791
863.504	13936
863.636	13871
863.768	13963
863.9	13932
864.032	13826
864.164	13925
864.296	13936
864.428	13982
864.559	13959
864.691	13959
864.823	14012
864.954	13917
865.086	13841
865.217	13963
865.349	13894
865.48	13879
865.612	13906
865.743	14031
865.875	13826
866.006	13742
866.137	13928
866.269	13845
866.4	13913
866.531	13776
866.662	13807
866.793	13845
866.924	13776
867.055	13875
867.186	13917
867.317	13780
867.448	13765
867.579	13845
867.71	13936
867.841	13841
867.972	13925
868.103	13921
868.233	13864
868.364	13845
868.495	13925
868.625	14096
868.756	14225
868.886	14107
869.017	14149
869.147	14225
869.278	14309
869.408	14100
869.539	14168
869.669	14176
869.799	14164
869.929	14199
870.06	14244
870.19	14419
870.32	14415
870.45	14408
870.58	14473
870.71	14670
870.84	14625
870.97	14549
871.1	14461
871.23	14678
871.36	14762
871.489	14621
871.619	14682
871.749	14663
871.879	14762
872.008	14811
872.138	14716
872.267	14758
872.397	14590
872.526	14571
872.656	14476
872.785	14655
872.915	14758
873.044	14899
873.173	14705
873.303	14826
873.432	14887
873.561	14819
873.69	14720
873.819	14705
873.948	14891
874.077	14800
874.206	14754
874.335	14750
874.464	15032
874.593	15180
874.722	15074
874.851	15104
874.979	15123
875.108	15112
875.237	14941
875.365	15074
875.494	15097
875.623	15131
875.751	15093
875.88	15142
876.008	15226
876.136	15397
876.265	15595
876.393	15614
876.521	15679
876.65	15618
876.778	15580
876.906	15469
877.034	15507
877.162	15481
877.29	15542
877.418	15466
877.546	15485
877.674	15477
877.802	15553
877.93	15458
878.058	15515
878.185	15367
878.313	15545
878.441	15584
878.568	15412
878.696	15488
878.824	15637
878.951	15557
879.079	15717
879.206	15907
879.333	15690
879.461	15549
879.588	15614
879.715	15701
879.842	15770
879.97	15568
880.097	15340
880.224	15264
880.351	15515
880.478	15401
880.605	15291
880.732	15325
880.859	15545
880.986	15321
881.112	15401
881.239	15230
881.366	15066
881.493	15020
881.619	15001
881.746	15032
881.872	15051
881.999	15039
882.125	14918
882.252	15028
882.378	15062
882.505	15199
882.631	15058
882.757	14785
882.883	14781
883.01	14853
883.136	14781
883.262	14705
883.388	14678
883.514	14823
883.64	14933
883.766	14933
883.892	14648
884.018	14762
884.143	14781
884.269	14925
884.395	14655
884.52	14571
884.646	14526
884.772	14412
884.897	14442
885.023	14598
885.148	14758
885.274	14697
885.399	14739
885.524	14514
885.65	14629
885.775	14507
885.9	14587
886.025	14659
886.15	14598
886.275	14507
886.4	14469
886.525	14583
886.65	14488
886.775	14526
886.9	14708
887.025	14826
887.149	14598
887.274	14419
887.399	14351
887.523	14290
887.648	14324
887.773	14286
887.897	14484
888.021	14473
888.146	14259
888.27	14488
888.395	14526
888.519	14530
888.643	14347
888.767	14484
888.891	14328
889.015	14286
889.139	14343
889.263	14142
889.387	14412
889.511	14499
889.635	14412
889.759	14126
889.883	14183
890.006	14358
890.13	14396
890.254	14202
890.377	14187
890.501	14012
890.624	14050
890.748	14149
890.871	13959
890.995	13986
891.118	13864
891.241	13936
891.364	13928
891.488	14115
891.611	13871
891.734	13955
891.857	14073
891.98	13986
892.103	13944
892.226	13978
892.349	13925
892.471	13845
892.594	13913
892.717	14001
892.839	13982
892.962	13932
893.085	14020
893.207	13894
893.33	13887
893.452	13818
893.575	14024
893.697	13925
893.819	14058
893.941	14275
894.064	14043
894.186	14005
894.308	13902
894.43	13951
894.552	14214
894.674	14062
894.796	13932
894.918	14012
895.04	14005
895.161	14058
895.283	14020
895.405	14005
895.526	14058
895.648	14046
895.769	14180
895.891	14142
896.012	14096
896.134	14199
896.255	14130
896.376	14065
896.498	14161
896.619	14084
896.74	14168
896.861	14161
896.982	14568
897.103	14629
897.224	14377
897.345	14355
897.466	14343
897.587	14400
897.708	14511
897.828	14461
897.949	14389
898.07	14267
898.19	14412
898.311	14556
898.431	14404
898.552	14389
898.672	14552
898.792	14541
898.913	14549
899.033	14438
899.153	14336
899.273	14202
899.393	14278
899.513	14328
899.633	14294
899.753	14351
899.873	14271
899.993	14332
900.113	14301
900.232	14351
900.352	14370
900.472	14286
900.591	14195
900.711	14191
900.83	14187
900.95	14290
901.069	14347
901.189	14069
901.308	13917
901.427	13818
901.546	13871
901.665	13852
901.784	13970
901.904	13696
902.023	13666
902.141	13571
902.26	13438
902.379	13514
902.498	13400
902.617	13335
902.735	13483
902.854	13495
902.973	13312
903.091	13232
903.21	13114
903.328	13126
903.446	13084
903.565	12996
903.683	13053
903.801	12958
903.919	13038
904.038	12958
904.156	12772
904.274	12897
904.392	12882
904.51	12871
904.627	12825
904.745	12966
904.863	12913
904.981	12585
905.098	12540
905.216	12536
905.334	12604
905.451	12547
905.569	12513
905.686	12593
905.803	12502
905.921	12380
906.038	12494
906.155	12372
906.272	12292
906.389	12201
906.506	12159
906.623	12076
906.74	12171
906.857	12091
906.974	12030
907.091	12182
907.208	12338
907.324	12201
907.441	11920
907.557	11889
907.674	11821
907.79	11836
907.907	11859
908.023	11935
908.139	11912
908.256	11832
908.372	11885
908.488	11752
908.604	11577
908.72	11596
908.836	11615
908.952	11646
909.068	11707
909.184	11752
909.3	11596
909.415	11737
909.531	11623
909.647	11516
909.762	11478
909.878	11345
909.993	11543
910.108	11368
910.224	11356
910.339	11425
910.454	11273
910.57	11201
910.685	11178
910.8	11444
910.915	11379
911.03	11326
911.145	11128
911.259	11041
911.374	11086
911.489	11083
911.604	10957
911.718	10786
911.833	10862
911.947	10812
912.062	10771
912.176	10896
912.291	10889
912.405	10843
912.519	11075
912.633	11071
912.748	10961
912.862	10942
912.976	10793
913.09	10637
913.204	10733
913.318	10774
913.431	10862
913.545	10889
913.659	10831
913.772	10698
913.886	10618
914	10675
914.113	10702
914.226	10793
914.34	10592
914.453	10538
914.566	10759
914.68	10596
914.793	10542
914.906	10333
915.019	10409
915.132	10280
915.245	10299
915.358	10379
915.47	10409
915.583	10436
915.696	10466
915.809	10493
915.921	10577
916.034	10405
916.146	10329
916.259	10303
916.371	10493
916.483	10371
916.595	10325
916.708	10413
916.82	10310
916.932	10306
917.044	10230
917.156	10284
917.268	10215
917.38	10257
917.491	10223
917.603	10284
917.715	10253
917.826	10299
917.938	10124
918.049	10078
918.161	10253
918.272	10394
918.384	10421
918.495	10196
918.606	10059
918.717	10063
918.828	10173
918.939	10120
919.05	9945
919.161	10097
919.272	9907
919.383	9934
919.494	10078
919.604	10265
919.715	10101
919.826	10017
919.936	10078
920.047	10169
920.157	10105
920.267	10265
920.378	10105
920.488	10185
920.598	10333
920.708	10436
920.818	10284
920.928	10318
921.038	10527
921.148	10394
921.258	10162
921.368	10032
921.477	9903
921.587	10025
921.697	9888
921.806	10021
921.916	9835
922.025	9732
922.134	9720
922.244	9553
922.353	9743
922.462	9584
922.571	9599
922.68	9443
922.789	9378
922.898	9435
923.007	9348
923.116	9382
923.224	9397
923.333	9344
923.442	9317
923.55	9203
923.659	9298
923.767	9344
923.876	9199
923.984	9275
924.092	9233
924.201	9195
924.309	9275
924.417	9317
924.525	9146
924.633	9176
924.741	9945
924.849	9039
924.956	9203
925.064	8998
925.172	9009
925.279	9001
925.387	9066
925.494	9032
925.602	9154
925.709	9055
925.816	8982
925.924	9066
926.031	9146
926.138	9028
926.245	9112
926.352	8971
926.459	9058
926.566	9127
926.673	9062
926.779	8906
926.886	8857
926.993	8788
927.099	8754
927.206	8693
927.312	8693
927.419	8838
927.525	8773
927.631	8750
927.737	8667
927.843	8678
927.95	8514
928.056	8663
928.162	8598
928.267	8606
928.373	9135
928.479	8712
928.585	8450
928.69	8678
928.796	8697
928.901	8560
929.007	8476
929.112	8533
929.218	8514
929.323	8450
929.428	8454
929.533	8533
929.638	8389
929.743	8434
929.848	8476
929.953	8457
930.058	8358
930.163	8263
930.267	8229
930.372	8423
930.477	8259
930.581	8419
930.685	8358
930.79	8134
930.894	8187
930.998	8157
931.103	8248
931.207	8001
931.311	7951
931.415	7856
931.519	7693
931.623	7704
