Data from test_V78500241_3680.txt Node
Date: Fri Mar 25 14:59:20 CST 2022
User: usil
Spectrometer: V785-0024
Trigger mode: 0
Integration Time (sec): 4.000000E-1
Scans to average: 1
Nonlinearity correction enabled: false
Boxcar width: 0
Storing dark spectrum: false
XAxis mode: Wavelengths
Number of Pixels in Spectrum: 1024
>>>>>Begin Spectral Data<<<<<
801.071	21846
801.214	21892
801.356	21523
801.499	21424
801.641	21275
801.783	21218
801.926	21279
802.068	21226
802.211	21214
802.353	21096
802.496	20758
802.638	20648
802.78	20727
802.923	20625
803.065	20651
803.208	20518
803.35	20587
803.492	20644
803.635	20716
803.777	20651
803.919	20689
804.061	20899
804.204	20575
804.346	20492
804.488	20431
804.63	20579
804.773	20434
804.915	20602
805.057	20682
805.199	20427
805.341	20545
805.483	20556
805.626	20518
805.768	20583
805.91	20549
806.052	20507
806.194	20362
806.336	20526
806.478	20503
806.62	20617
806.762	20602
806.904	20769
807.046	20941
807.188	20823
807.33	20906
807.472	20906
807.614	20621
807.756	20826
807.898	20571
808.04	20571
808.182	20644
808.324	20613
808.465	20644
808.607	20834
808.749	20921
808.891	21051
809.033	21013
809.174	20929
809.316	20788
809.458	20872
809.6	20724
809.741	20819
809.883	20872
810.025	21077
810.166	20963
810.308	21024
810.45	20967
810.591	20792
810.733	20724
810.875	20636
811.016	20568
811.158	20393
811.299	20632
811.441	20826
811.582	20697
811.724	20640
811.865	20469
812.007	20670
812.148	20541
812.29	20606
812.431	20705
812.573	20975
812.714	21024
812.855	21165
812.997	21180
813.138	21420
813.279	21188
813.421	21074
813.562	20979
813.703	20883
813.845	20777
813.986	20579
814.127	20263
814.268	20214
814.41	20229
814.551	20084
814.692	20130
814.833	20138
814.974	20100
815.115	20122
815.256	19978
815.397	20016
815.539	19997
815.68	19875
815.821	19803
815.962	19921
816.103	19807
816.244	19662
816.385	19563
816.526	19559
816.666	19415
816.807	19145
816.948	19434
817.089	19362
817.23	19274
817.371	19308
817.512	19278
817.653	19240
817.793	19217
817.934	19365
818.075	19293
818.216	19232
818.356	19350
818.497	19065
818.638	18958
818.778	19019
818.919	18905
819.06	19012
819.2	19145
819.341	19247
819.481	19209
819.622	19270
819.762	19483
819.903	19400
820.043	19304
820.184	19324
820.324	19293
820.465	19304
820.605	19293
820.746	19202
820.886	19072
821.026	19107
821.167	19263
821.307	19198
821.447	19225
821.588	19145
821.728	19031
821.868	18837
822.008	18795
822.149	18654
822.289	18726
822.429	18422
822.569	18319
822.709	18361
822.849	18232
822.99	18110
823.13	18125
823.27	18114
823.41	17942
823.55	17965
823.69	17927
823.83	17984
823.97	17870
824.11	17821
824.25	17714
824.389	17630
824.529	17939
824.669	17726
824.809	17794
824.949	17840
825.089	17771
825.228	17802
825.368	17566
825.508	17611
825.648	17543
825.787	17592
825.927	17528
826.067	17520
826.206	17471
826.346	17562
826.485	17619
826.625	17577
826.765	17657
826.904	17532
827.044	17414
827.183	17292
827.323	17197
827.462	17311
827.601	17269
827.741	17193
827.88	17288
828.02	17105
828.159	17239
828.298	17356
828.437	17303
828.577	17220
828.716	17353
828.855	17136
828.994	16987
829.134	17048
829.273	17098
829.412	17071
829.551	16858
829.69	16980
829.829	17003
829.968	17140
830.107	17109
830.246	16976
830.385	17094
830.524	17025
830.663	16782
830.802	16748
830.941	16706
831.08	16698
831.219	16577
831.357	16729
831.496	16908
831.635	16687
831.774	16634
831.913	16481
832.051	16428
832.19	16538
832.329	16363
832.467	16306
832.606	16204
832.744	16443
832.883	16432
833.022	16329
833.16	16371
833.299	16337
833.437	16375
833.576	16329
833.714	16413
833.852	16379
833.991	16348
834.129	16497
834.267	16470
834.406	16390
834.544	16306
834.682	16409
834.821	16459
834.959	16561
835.097	16341
835.235	16485
835.373	16402
835.511	16470
835.65	16291
835.788	16375
835.926	16181
836.064	16086
836.202	16086
836.34	16333
836.478	16481
836.615	16280
836.753	16318
836.891	16413
837.029	16306
837.167	16287
837.305	16333
837.443	16226
837.58	16185
837.718	16234
837.856	16162
837.993	16101
838.131	16147
838.269	16071
838.406	16124
838.544	16067
838.681	15953
838.819	15899
838.956	15759
839.094	15751
839.231	15781
839.369	15945
839.506	16124
839.643	15941
839.781	15724
839.918	15766
840.055	15819
840.193	15835
840.33	15705
840.467	15720
840.604	15739
840.742	15915
840.879	15618
841.016	15637
841.153	15675
841.29	15880
841.427	15732
841.564	15694
841.701	15789
841.838	15614
841.975	15648
842.112	15690
842.249	15591
842.385	15515
842.522	15671
842.659	15584
842.796	15435
842.933	15523
843.069	15568
843.206	15477
843.343	15606
843.479	15610
843.616	15591
843.752	15332
843.889	15275
844.025	15507
844.162	15351
844.298	15473
844.435	15370
844.571	15237
844.708	15344
844.844	15500
844.98	15367
845.117	15386
845.253	15264
845.389	15180
845.525	15279
845.661	15176
845.798	15062
845.934	15142
846.07	15039
846.206	15211
846.342	15264
846.478	15150
846.614	14887
846.75	14899
846.886	14887
847.022	15005
847.158	14979
847.294	14921
847.429	15013
847.565	14906
847.701	15150
847.837	14610
847.972	14545
848.108	14705
848.244	14655
848.379	14499
848.515	14549
848.65	14431
848.786	14469
848.921	14526
849.057	14541
849.192	14617
849.328	14575
849.463	14537
849.598	14423
849.734	14374
849.869	14355
850.004	14256
850.14	14286
850.275	14240
850.41	14195
850.545	14294
850.68	14240
850.815	14362
850.95	14233
851.085	14389
851.22	14343
851.355	14248
851.49	14202
851.625	14202
851.76	14225
851.895	14187
852.03	14202
852.165	14153
852.299	14259
852.434	14328
852.569	14309
852.703	14347
852.838	14309
852.973	14389
853.107	14434
853.242	14301
853.376	14161
853.511	14088
853.645	14126
853.78	14286
853.914	14145
854.048	14100
854.183	14172
854.317	14027
854.451	14305
854.585	14054
854.72	14119
854.854	14275
854.988	14084
855.122	14119
855.256	13967
855.39	14065
855.524	14225
855.658	14221
855.792	14214
855.926	14195
856.06	14130
856.194	14206
856.327	14134
856.461	14096
856.595	13993
856.729	14149
856.862	14343
856.996	14153
857.13	14142
857.263	14248
857.397	14343
857.53	14062
857.664	14183
857.797	14172
857.931	14161
858.064	14267
858.197	14244
858.331	14183
858.464	14024
858.597	14054
858.731	14130
858.864	14008
858.997	14107
859.13	14153
859.263	14111
859.396	14286
859.529	14103
859.662	14058
859.795	14073
859.928	14202
860.061	14324
860.194	14309
860.327	14092
860.46	14119
860.592	14195
860.725	14298
860.858	14320
860.99	14233
861.123	14100
861.256	14107
861.388	14210
861.521	14849
861.653	14050
861.786	13959
861.918	14005
862.05	14008
862.183	14096
862.315	14119
862.447	14191
862.58	14100
862.712	13928
862.844	13913
862.976	14027
863.108	13963
863.24	14362
863.372	13921
863.504	13898
863.636	13936
863.768	13955
863.9	13963
864.032	13849
864.164	13898
864.296	13879
864.428	14050
864.559	13993
864.691	13993
864.823	13875
864.954	13944
865.086	13871
865.217	13913
865.349	13795
865.48	13803
865.612	13963
865.743	14054
865.875	13917
866.006	13852
866.137	14020
866.269	13879
866.4	13902
866.531	13906
866.662	13826
866.793	13788
866.924	13845
867.055	13921
867.186	13890
867.317	13868
867.448	13860
867.579	13879
867.71	13788
867.841	13742
867.972	13909
868.103	13890
868.233	13856
868.364	13909
868.495	14058
868.625	14172
868.756	14275
868.886	14100
869.017	14092
869.147	14366
869.278	14290
869.408	14252
869.539	14168
869.669	14240
869.799	14142
869.929	14313
870.06	14176
870.19	14442
870.32	14404
870.45	14484
870.58	14514
870.71	14594
870.84	14613
870.97	14545
871.1	14571
871.23	14750
871.36	14785
871.489	14629
871.619	14682
871.749	14792
871.879	14857
872.008	14887
872.138	14807
872.267	14788
872.397	14621
872.526	14667
872.656	14693
872.785	14594
872.915	14823
873.044	14838
873.173	14876
873.303	14792
873.432	14861
873.561	14834
873.69	14872
873.819	14807
873.948	14906
874.077	14826
874.206	14826
874.335	14804
874.464	14906
874.593	15039
874.722	15074
874.851	15184
874.979	15135
875.108	15146
875.237	15074
875.365	14990
875.494	15074
875.623	15313
875.751	15104
875.88	15222
876.008	15256
876.136	15397
876.265	15507
876.393	15633
876.521	15656
876.65	15625
876.778	15534
876.906	15458
877.034	15420
877.162	15496
877.29	15519
877.418	15504
877.546	15625
877.674	15542
877.802	15523
877.93	15599
878.058	15481
878.185	15431
878.313	15519
878.441	15389
878.568	15344
878.696	15439
878.824	15507
878.951	15603
879.079	15736
879.206	15854
879.333	15762
879.461	15603
879.588	15663
879.715	15667
879.842	15831
879.97	15576
880.097	15443
880.224	15469
880.351	15424
880.478	15348
880.605	15344
880.732	15397
880.859	15690
880.986	15401
881.112	15485
881.239	15283
881.366	15157
881.493	15104
881.619	15070
881.746	15112
881.872	14990
881.999	14948
882.125	15093
882.252	15112
882.378	15108
882.505	15180
882.631	14971
882.757	14838
882.883	14868
883.01	14921
883.136	14739
883.262	14686
883.388	14659
883.514	14906
883.64	14883
883.766	14750
883.892	14625
884.018	14716
884.143	14861
884.269	14956
884.395	14602
884.52	14598
884.646	14518
884.772	14511
884.897	14473
885.023	14594
885.148	14659
885.274	14724
885.399	14629
885.524	14507
885.65	14560
885.775	14564
885.9	14579
886.025	14754
886.15	14701
886.275	14552
886.4	14533
886.525	14518
886.65	14423
886.775	14446
886.9	14712
887.025	14773
887.149	14556
887.274	14530
887.399	14339
887.523	14450
887.648	14408
887.773	14267
887.897	14438
888.021	14537
888.146	14339
888.27	14423
888.395	14530
888.519	14454
888.643	14499
888.767	14526
888.891	14377
889.015	14221
889.139	14313
889.263	14233
889.387	14412
889.511	14408
889.635	14324
889.759	14290
889.883	14259
890.006	14278
890.13	14275
890.254	14180
890.377	14271
890.501	14229
890.624	14119
890.748	14202
890.871	14084
890.995	13940
891.118	13742
891.241	13822
891.364	13982
891.488	14180
891.611	13909
891.734	14031
891.857	14005
891.98	13955
892.103	14123
892.226	14001
892.349	13963
892.471	13780
892.594	13989
892.717	13974
892.839	13963
892.962	13963
893.085	14005
893.207	13997
893.33	13890
893.452	13932
893.575	13894
893.697	13967
893.819	14123
893.941	14199
894.064	14107
894.186	13989
894.308	13940
894.43	14115
894.552	14111
894.674	14126
894.796	13883
894.918	14092
895.04	14039
895.161	14168
895.283	14176
895.405	13986
895.526	14065
895.648	14138
895.769	14107
895.891	14096
896.012	14187
896.134	14088
896.255	14145
896.376	14005
896.498	14107
896.619	14130
896.74	14214
896.861	14301
896.982	14495
897.103	14625
897.224	14366
897.345	14355
897.466	14332
897.587	14347
897.708	14503
897.828	14412
897.949	14301
898.07	14275
898.19	14381
898.311	14568
898.431	14400
898.552	14511
898.672	14545
898.792	14568
898.913	14514
899.033	14446
899.153	14412
899.273	14221
899.393	14313
899.513	14450
899.633	14366
899.753	14408
899.873	14351
899.993	14347
900.113	14317
900.232	14336
900.352	14313
900.472	14336
900.591	14176
900.711	14164
900.83	14221
900.95	14271
901.069	14313
901.189	14096
901.308	13959
901.427	13909
901.546	13932
901.665	13921
901.784	13894
901.904	13700
902.023	13693
902.141	13422
902.26	13343
902.379	13483
902.498	13354
902.617	13430
902.735	13529
902.854	13373
902.973	13369
903.091	13183
903.21	13129
903.328	13179
903.446	13088
903.565	13023
903.683	12973
903.801	12894
903.919	13019
904.038	13004
904.156	12844
904.274	12920
904.392	12833
904.51	12810
904.627	12844
904.745	12901
904.863	12878
904.981	12623
905.098	12536
905.216	12475
905.334	12536
905.451	12494
905.569	12517
905.686	12593
905.803	12448
905.921	12353
906.038	12441
906.155	12388
906.272	12213
906.389	12216
906.506	12133
906.623	12163
906.74	12106
906.857	12068
906.974	12079
907.091	12232
907.208	12346
907.324	12186
907.441	12144
907.557	11931
907.674	11851
907.79	11821
907.907	11786
908.023	11870
908.139	11939
908.256	11817
908.372	11790
908.488	11733
908.604	11722
908.72	11676
908.836	11684
908.952	11649
909.068	11741
909.184	11805
909.3	11657
909.415	11718
909.531	11767
909.647	11417
909.762	11376
909.878	11360
909.993	11455
910.108	11402
910.224	11356
910.339	11417
910.454	11349
910.57	11242
910.685	11117
910.8	11562
910.915	11440
911.03	11235
911.145	11174
911.259	11083
911.374	11113
911.489	11090
911.604	11010
911.718	10889
911.833	10831
911.947	10740
912.062	10714
912.176	10881
912.291	10923
912.405	10820
912.519	11083
912.633	11102
912.748	10930
912.862	10961
912.976	10736
913.09	10714
913.204	10759
913.318	10740
913.431	10820
913.545	10862
913.659	10824
913.772	10782
913.886	10660
914	10607
914.113	10729
914.226	10656
914.34	10774
914.453	10538
914.566	10706
914.68	10542
914.793	10626
914.906	10417
915.019	10363
915.132	10242
915.245	10447
915.358	10382
915.47	10402
915.583	10421
915.696	10394
915.809	10618
915.921	10516
916.034	10329
916.146	10375
916.259	10318
916.371	10329
916.483	10497
916.595	10352
916.708	10322
916.82	10329
916.932	10310
917.044	10219
917.156	10291
917.268	10177
917.38	10242
917.491	10230
917.603	10268
917.715	10306
917.826	10314
917.938	10215
918.049	10139
918.161	10253
918.272	10382
918.384	10360
918.495	10253
918.606	10078
918.717	9937
918.828	10055
918.939	10135
919.05	10002
919.161	10044
919.272	9968
919.383	10013
919.494	10131
919.604	10291
919.715	10112
919.826	10010
919.936	10078
920.047	10211
920.157	10219
920.267	10299
920.378	10162
920.488	10109
920.598	10352
920.708	10440
920.818	10337
920.928	10356
921.038	10535
921.148	10443
921.258	10139
921.368	10097
921.477	9922
921.587	9960
921.697	9850
921.806	10002
921.916	9846
922.025	9701
922.134	9637
922.244	9682
922.353	9793
922.462	9496
922.571	9538
922.68	9416
922.789	9378
922.898	9416
923.007	9397
923.116	9401
923.224	9458
923.333	9348
923.442	9249
923.55	9283
923.659	9230
923.767	9344
923.876	9226
923.984	9275
924.092	9203
924.201	9291
924.309	9294
924.417	9317
924.525	9169
924.633	9180
924.741	10010
924.849	8982
924.956	9165
925.064	9028
925.172	8925
925.279	8952
925.387	9024
925.494	9013
925.602	9142
925.709	9108
925.816	8994
925.924	9062
926.031	9104
926.138	9066
926.245	9142
926.352	8921
926.459	9097
926.566	9058
926.673	9028
926.779	8864
926.886	8868
926.993	8716
927.099	8773
927.206	8629
927.312	8686
927.419	8823
927.525	8758
927.631	8788
927.737	8648
927.843	8602
927.95	8556
928.056	8617
928.162	8674
928.267	8724
928.373	9249
928.479	8735
928.585	8560
928.69	8522
928.796	8640
928.901	8564
929.007	8446
929.112	8564
929.218	8511
929.323	8518
929.428	8522
929.533	8613
929.638	8400
929.743	8408
929.848	8503
929.953	8480
930.058	8385
930.163	8225
930.267	8279
930.372	8408
930.477	8168
930.581	8446
930.685	8305
930.79	8164
930.894	8199
930.998	8187
931.103	8279
931.207	7963
931.311	7890
931.415	7852
931.519	7712
931.623	7693
