Data from test_V78500241_1885.txt Node
Date: Fri Mar 25 14:46:50 CST 2022
User: usil
Spectrometer: V785-0024
Trigger mode: 0
Integration Time (sec): 4.000000E-1
Scans to average: 1
Nonlinearity correction enabled: false
Boxcar width: 0
Storing dark spectrum: false
XAxis mode: Wavelengths
Number of Pixels in Spectrum: 1024
>>>>>Begin Spectral Data<<<<<
801.071	22086
801.214	21987
801.356	21842
801.499	21667
801.641	21519
801.783	21454
801.926	21557
802.068	21386
802.211	21408
802.353	21283
802.496	21100
802.638	20990
802.78	21036
802.923	20952
803.065	20868
803.208	20891
803.35	20838
803.492	20880
803.635	21017
803.777	20785
803.919	20811
804.061	21108
804.204	20918
804.346	20800
804.488	20712
804.63	20842
804.773	20659
804.915	20834
805.057	20925
805.199	20727
805.341	20826
805.483	20925
805.626	20785
805.768	20727
805.91	20845
806.052	20743
806.194	20686
806.336	20895
806.478	20842
806.62	20701
806.762	20807
806.904	20845
807.046	21184
807.188	21104
807.33	21176
807.472	21077
807.614	21020
807.756	21032
807.898	20853
808.04	20796
808.182	20876
808.324	20857
808.465	20769
808.607	20872
808.749	21226
808.891	21176
809.033	21283
809.174	21104
809.316	21116
809.458	21188
809.6	21112
809.741	21135
809.883	21154
810.025	21222
810.166	21302
810.308	21283
810.45	21291
810.591	21112
810.733	20990
810.875	20914
811.016	20834
811.158	20758
811.299	20830
811.441	21116
811.582	21127
811.724	20994
811.865	20746
812.007	20735
812.148	20708
812.29	20880
812.431	20979
812.573	21199
812.714	21291
812.855	21332
812.997	21355
813.138	21667
813.279	21469
813.421	21298
813.562	21249
813.703	21188
813.845	21039
813.986	20762
814.127	20609
814.268	20530
814.41	20533
814.551	20484
814.692	20545
814.833	20339
814.974	20396
815.115	20606
815.256	20355
815.397	20240
815.539	20324
815.68	20199
815.821	20100
815.962	20180
816.103	20119
816.244	20005
816.385	19940
816.526	19970
816.666	19822
816.807	19578
816.948	19559
817.089	19628
817.23	19647
817.371	19727
817.512	19510
817.653	19533
817.793	19514
817.934	19525
818.075	19616
818.216	19422
818.356	19525
818.497	19403
818.638	19324
818.778	19285
818.919	19301
819.06	19426
819.2	19343
819.341	19476
819.481	19453
819.622	19628
819.762	19708
819.903	19674
820.043	19639
820.184	19464
820.324	19544
820.465	19670
820.605	19548
820.746	19533
820.886	19384
821.026	19480
821.167	19559
821.307	19567
821.447	19575
821.588	19381
821.728	19270
821.868	19213
822.008	19031
822.149	18913
822.289	18977
822.429	18661
822.569	18620
822.709	18536
822.849	18471
822.99	18479
823.13	18456
823.27	18429
823.41	18239
823.55	18194
823.69	18254
823.83	18247
823.97	18171
824.11	17946
824.25	18030
824.389	17931
824.529	18125
824.669	18144
824.809	18114
824.949	18072
825.089	18144
825.228	18057
825.368	17783
825.508	17878
825.648	17802
825.787	17969
825.927	17840
826.067	17745
826.206	17665
826.346	17870
826.485	17764
826.625	17707
826.765	17901
826.904	17741
827.044	17611
827.183	17539
827.323	17528
827.462	17497
827.601	17585
827.741	17509
827.88	17459
828.02	17368
828.159	17585
828.298	17551
828.437	17566
828.577	17436
828.716	17634
828.855	17429
828.994	17178
829.134	17170
829.273	17299
829.412	17113
829.551	17166
829.69	17250
829.829	17326
829.968	17322
830.107	17288
830.246	17307
830.385	17197
830.524	17174
830.663	17140
830.802	17022
830.941	16930
831.08	16923
831.219	16991
831.357	17018
831.496	17181
831.635	16866
831.774	16778
831.913	16763
832.051	16786
832.19	16706
832.329	16774
832.467	16611
832.606	16653
832.744	16554
832.883	16500
833.022	16599
833.16	16660
833.299	16668
833.437	16622
833.576	16618
833.714	16592
833.852	16717
833.991	16729
834.129	16725
834.267	16569
834.406	16721
834.544	16679
834.682	16668
834.821	16687
834.959	16755
835.097	16573
835.235	16672
835.373	16573
835.511	16664
835.65	16565
835.788	16580
835.926	16341
836.064	16204
836.202	16424
836.34	16516
836.478	16588
836.615	16432
836.753	16573
836.891	16694
837.029	16546
837.167	16588
837.305	16428
837.443	16451
837.58	16409
837.718	16523
837.856	16554
837.993	16424
838.131	16451
838.269	16348
838.406	16272
838.544	16295
838.681	16086
838.819	16078
838.956	15972
839.094	16002
839.231	15915
839.369	16101
839.506	16314
839.643	16154
839.781	16048
839.918	15861
840.055	16021
840.193	16002
840.33	15956
840.467	15888
840.604	15949
840.742	16200
840.879	15892
841.016	15895
841.153	15865
841.29	16082
841.427	16044
841.564	16082
841.701	15987
841.838	16013
841.975	15804
842.112	15899
842.249	15781
842.385	15625
842.522	15876
842.659	15701
842.796	15682
842.933	15804
843.069	15709
843.206	15690
843.343	15838
843.479	15720
843.616	15770
843.752	15538
843.889	15526
844.025	15660
844.162	15504
844.298	15671
844.435	15542
844.571	15469
844.708	15629
844.844	15622
844.98	15743
845.117	15690
845.253	15523
845.389	15447
845.525	15488
845.661	15367
845.798	15329
845.934	15412
846.07	15389
846.206	15428
846.342	15466
846.478	15298
846.614	15211
846.75	15032
846.886	15108
847.022	15203
847.158	15245
847.294	15176
847.429	15131
847.565	15074
847.701	15370
847.837	14872
847.972	14834
848.108	14971
848.244	14971
848.379	14792
848.515	14788
848.65	14670
848.786	14724
848.921	14777
849.057	14819
849.192	14857
849.328	14754
849.463	14800
849.598	14629
849.734	14682
849.869	14492
850.004	14473
850.14	14533
850.275	14412
850.41	14431
850.545	14415
850.68	14408
850.815	14522
850.95	14393
851.085	14678
851.22	14537
851.355	14503
851.49	14442
851.625	14473
851.76	14495
851.895	14393
852.03	14358
852.165	14419
852.299	14507
852.434	14587
852.569	14530
852.703	14454
852.838	14575
852.973	14552
853.107	14659
853.242	14541
853.376	14370
853.511	14282
853.645	14252
853.78	14442
853.914	14336
854.048	14339
854.183	14214
854.317	14377
854.451	14533
854.585	14442
854.72	14320
854.854	14389
854.988	14172
855.122	14404
855.256	14183
855.39	14320
855.524	14351
855.658	14336
855.792	14423
855.926	14438
856.06	14400
856.194	14476
856.327	14275
856.461	14328
856.595	14252
856.729	14332
856.862	14507
856.996	14434
857.13	14511
857.263	14446
857.397	14454
857.53	14408
857.664	14427
857.797	14511
857.931	14415
858.064	14358
858.197	14446
858.331	14320
858.464	14381
858.597	14237
858.731	14339
858.864	14271
858.997	14294
859.13	14328
859.263	14309
859.396	14457
859.529	14305
859.662	14389
859.795	14347
859.928	14408
860.061	14549
860.194	14511
860.327	14396
860.46	14278
860.592	14454
860.725	14446
860.858	14415
860.99	14271
861.123	14328
861.256	14305
861.388	14339
861.521	14895
861.653	14191
861.786	14096
861.918	14229
862.05	14252
862.183	14396
862.315	14358
862.447	14351
862.58	14252
862.712	14187
862.844	13997
862.976	14168
863.108	14138
863.24	14503
863.372	14069
863.504	14206
863.636	14126
863.768	14187
863.9	14233
864.032	14001
864.164	14168
864.296	14149
864.428	14153
864.559	14142
864.691	14259
864.823	14191
864.954	14134
865.086	14161
865.217	14107
865.349	14024
865.48	14103
865.612	14142
865.743	14206
865.875	14142
866.006	14126
866.137	14149
866.269	14115
866.4	14168
866.531	14123
866.662	14058
866.793	14126
866.924	14111
867.055	14157
867.186	14073
867.317	14058
867.448	14035
867.579	14005
867.71	14058
867.841	14054
867.972	14172
868.103	14027
868.233	14153
868.364	14039
868.495	14221
868.625	14381
868.756	14377
868.886	14290
869.017	14218
869.147	14434
869.278	14450
869.408	14370
869.539	14347
869.669	14336
869.799	14393
869.929	14492
870.06	14400
870.19	14606
870.32	14579
870.45	14754
870.58	14796
870.71	14849
870.84	14785
870.97	14758
871.1	14686
871.23	14967
871.36	15005
871.489	14838
871.619	14872
871.749	14910
871.879	15001
872.008	15089
872.138	15058
872.267	14925
872.397	14834
872.526	14796
872.656	14819
872.785	14807
872.915	15005
873.044	15093
873.173	14956
873.303	15055
873.432	14975
873.561	15020
873.69	15062
873.819	14982
873.948	15112
874.077	15108
874.206	14918
874.335	15085
874.464	15249
874.593	15405
874.722	15173
874.851	15367
874.979	15252
875.108	15332
875.237	15370
875.365	15233
875.494	15245
875.623	15405
875.751	15249
875.88	15340
876.008	15462
876.136	15511
876.265	15694
876.393	15941
876.521	15800
876.65	15876
876.778	15812
876.906	15713
877.034	15644
877.162	15690
877.29	15728
877.418	15785
877.546	15720
877.674	15656
877.802	15797
877.93	15637
878.058	15743
878.185	15637
878.313	15644
878.441	15835
878.568	15526
878.696	15736
878.824	15797
878.951	15778
879.079	15899
879.206	15991
879.333	15899
879.461	15804
879.588	15800
879.715	15964
879.842	15983
879.97	15892
880.097	15599
880.224	15568
880.351	15656
880.478	15584
880.605	15553
880.732	15568
880.859	15778
880.986	15618
881.112	15641
881.239	15367
881.366	15325
881.493	15283
881.619	15138
881.746	15233
881.872	15302
881.999	15188
882.125	15146
882.252	15329
882.378	15211
882.505	15424
882.631	15294
882.757	15024
882.883	15127
883.01	15127
883.136	14979
883.262	14891
883.388	14899
883.514	15127
883.64	15062
883.766	15017
883.892	14906
884.018	14956
884.143	14998
884.269	15135
884.395	14720
884.52	14785
884.646	14724
884.772	14731
884.897	14689
885.023	14773
885.148	14914
885.274	14918
885.399	14899
885.524	14811
885.65	14678
885.775	14777
885.9	14781
886.025	14921
886.15	14765
886.275	14735
886.4	14625
886.525	14739
886.65	14716
886.775	14750
886.9	14902
887.025	15051
887.149	14754
887.274	14594
887.399	14549
887.523	14552
887.648	14545
887.773	14450
887.897	14777
888.021	14644
888.146	14492
888.27	14621
888.395	14716
888.519	14625
888.643	14686
888.767	14693
888.891	14602
889.015	14389
889.139	14484
889.263	14305
889.387	14507
889.511	14663
889.635	14644
889.759	14423
889.883	14446
890.006	14461
890.13	14476
890.254	14362
890.377	14457
890.501	14256
890.624	14221
890.748	14290
890.871	14240
890.995	14092
891.118	14039
891.241	14115
891.364	14191
891.488	14298
891.611	14229
891.734	14119
891.857	14256
891.98	14183
892.103	14267
892.226	14252
892.349	14210
892.471	14157
892.594	14077
892.717	14153
892.839	14199
892.962	14145
893.085	14202
893.207	14153
893.33	14107
893.452	14107
893.575	14259
893.697	14142
893.819	14252
893.941	14415
894.064	14309
894.186	14115
894.308	14096
894.43	14240
894.552	14355
894.674	14355
894.796	14077
894.918	14206
895.04	14149
895.161	14305
895.283	14305
895.405	14244
895.526	14290
895.648	14259
895.769	14210
895.891	14332
896.012	14324
896.134	14324
896.255	14355
896.376	14252
896.498	14393
896.619	14332
896.74	14328
896.861	14400
896.982	14663
897.103	14838
897.224	14701
897.345	14636
897.466	14564
897.587	14629
897.708	14781
897.828	14606
897.949	14625
898.07	14396
898.19	14533
898.311	14781
898.431	14625
898.552	14682
898.672	14724
898.792	14834
898.913	14678
899.033	14697
899.153	14488
899.273	14374
899.393	14533
899.513	14606
899.633	14461
899.753	14549
899.873	14575
899.993	14579
900.113	14514
900.232	14530
900.352	14560
900.472	14374
900.591	14339
900.711	14408
900.83	14396
900.95	14476
901.069	14575
901.189	14358
901.308	14134
901.427	14138
901.546	14149
901.665	14119
901.784	14069
901.904	13917
902.023	13837
902.141	13693
902.26	13632
902.379	13814
902.498	13674
902.617	13525
902.735	13677
902.854	13628
902.973	13658
903.091	13434
903.21	13320
903.328	13358
903.446	13377
903.565	13190
903.683	13198
903.801	13072
903.919	13175
904.038	13145
904.156	12993
904.274	13156
904.392	12996
904.51	13034
904.627	12962
904.745	13031
904.863	13126
904.981	12798
905.098	12707
905.216	12711
905.334	12719
905.451	12738
905.569	12749
905.686	12768
905.803	12745
905.921	12498
906.038	12642
906.155	12623
906.272	12418
906.389	12517
906.506	12285
906.623	12247
906.74	12285
906.857	12197
906.974	12194
907.091	12319
907.208	12483
907.324	12372
907.441	12273
907.557	12057
907.674	12057
907.79	11950
907.907	12007
908.023	12007
908.139	12030
908.256	11973
908.372	11950
908.488	12011
908.604	11813
908.72	11756
908.836	11813
908.952	11790
909.068	11863
909.184	11939
909.3	11775
909.415	11817
909.531	11866
909.647	11627
909.762	11528
909.878	11490
909.993	11562
910.108	11509
910.224	11486
910.339	11573
910.454	11611
910.57	11436
910.685	11379
910.8	11657
910.915	11589
911.03	11349
911.145	11337
911.259	11216
911.374	11216
911.489	11212
911.604	11155
911.718	11045
911.833	11014
911.947	10927
912.062	10858
912.176	11014
912.291	10995
912.405	11083
912.519	11254
912.633	11273
912.748	11083
912.862	11064
912.976	10919
913.09	10771
913.204	10877
913.318	10904
913.431	11014
913.545	10972
913.659	10934
913.772	10896
913.886	10782
914	10809
914.113	10831
914.226	10961
914.34	10930
914.453	10767
914.566	10858
914.68	10748
914.793	10835
914.906	10626
915.019	10508
915.132	10398
915.245	10569
915.358	10516
915.47	10508
915.583	10618
915.696	10535
915.809	10649
915.921	10580
916.034	10527
916.146	10443
916.259	10421
916.371	10546
916.483	10569
916.595	10493
916.708	10402
916.82	10485
916.932	10493
917.044	10470
917.156	10459
917.268	10265
917.38	10287
917.491	10371
917.603	10402
917.715	10466
917.826	10462
917.938	10352
918.049	10306
918.161	10348
918.272	10451
918.384	10523
918.495	10371
918.606	10379
918.717	10116
918.828	10246
918.939	10284
919.05	10128
919.161	10234
919.272	10017
919.383	10051
919.494	10325
919.604	10512
919.715	10287
919.826	10196
919.936	10238
920.047	10318
920.157	10246
920.267	10447
920.378	10341
920.488	10234
920.598	10443
920.708	10611
920.818	10356
920.928	10424
921.038	10630
921.148	10573
921.258	10257
921.368	10230
921.477	10109
921.587	10071
921.697	10006
921.806	10219
921.916	9964
922.025	9850
922.134	9740
922.244	9743
922.353	9869
922.462	9724
922.571	9629
922.68	9504
922.789	9454
922.898	9526
923.007	9424
923.116	9515
923.224	9488
923.333	9435
923.442	9401
923.55	9332
923.659	9401
923.767	9466
923.876	9325
923.984	9454
924.092	9241
924.201	9325
924.309	9291
924.417	9351
924.525	9245
924.633	9283
924.741	10287
924.849	9195
924.956	9306
925.064	9214
925.172	9081
925.279	9123
925.387	9188
925.494	9146
925.602	9298
925.709	9218
925.816	9077
925.924	9085
926.031	9214
926.138	9150
926.245	9218
926.352	9093
926.459	9199
926.566	9268
926.673	9093
926.779	9001
926.886	9017
926.993	8857
927.099	8834
927.206	8792
927.312	8921
927.419	8906
927.525	8899
927.631	8971
927.737	8823
927.843	8746
927.95	8689
928.056	8758
928.162	8758
928.267	8735
928.373	9408
928.479	8918
928.585	8659
928.69	8758
928.796	8845
928.901	8670
929.007	8541
929.112	8613
929.218	8625
929.323	8545
929.428	8617
929.533	8739
929.638	8526
929.743	8590
929.848	8636
929.953	8571
930.058	8518
930.163	8309
930.267	8320
930.372	8461
930.477	8370
930.581	8606
930.685	8507
930.79	8343
930.894	8381
930.998	8233
931.103	8366
931.207	8096
931.311	8046
931.415	8012
931.519	7795
931.623	7833
