Data from test_V78500241_1361.txt Node
Date: Fri Mar 25 14:43:11 CST 2022
User: usil
Spectrometer: V785-0024
Trigger mode: 0
Integration Time (sec): 4.000000E-1
Scans to average: 1
Nonlinearity correction enabled: false
Boxcar width: 0
Storing dark spectrum: false
XAxis mode: Wavelengths
Number of Pixels in Spectrum: 1024
>>>>>Begin Spectral Data<<<<<
801.071	22508
801.214	22337
801.356	22249
801.499	21998
801.641	21953
801.783	21755
801.926	21854
802.068	21724
802.211	21808
802.353	21622
802.496	21325
802.638	21321
802.78	21340
802.923	21150
803.065	21058
803.208	21119
803.35	21108
803.492	21222
803.635	21245
803.777	21123
803.919	21195
804.061	21568
804.204	21184
804.346	21157
804.488	21055
804.63	21074
804.773	21009
804.915	21100
805.057	21169
805.199	21043
805.341	21055
805.483	21313
805.626	21237
805.768	21005
805.91	21081
806.052	21039
806.194	21039
806.336	21165
806.478	20998
806.62	21036
806.762	21108
806.904	21321
807.046	21523
807.188	21485
807.33	21462
807.472	21549
807.614	21348
807.756	21428
807.898	21336
808.04	21214
808.182	21222
808.324	21211
808.465	21447
808.607	21660
808.749	21751
808.891	21743
809.033	21854
809.174	21831
809.316	21644
809.458	21660
809.6	21564
809.741	21694
809.883	21641
810.025	21599
810.166	21774
810.308	21656
810.45	21549
810.591	21568
810.733	21447
810.875	21165
811.016	21252
811.158	21070
811.299	21313
811.441	21454
811.582	21374
811.724	21302
811.865	21279
812.007	21264
812.148	21226
812.29	21279
812.431	21473
812.573	21568
812.714	21610
812.855	21808
812.997	21759
813.138	21884
813.279	21789
813.421	21823
813.562	21644
813.703	21405
813.845	21420
813.986	21066
814.127	20861
814.268	20842
814.41	20899
814.551	20781
814.692	20925
814.833	20731
814.974	20655
815.115	20708
815.256	20625
815.397	20568
815.539	20594
815.68	20552
815.821	20560
815.962	20617
816.103	20556
816.244	20347
816.385	20336
816.526	20275
816.666	20214
816.807	19963
816.948	20046
817.089	20050
817.23	19947
817.371	19978
817.512	19898
817.653	19963
817.793	19852
817.934	19944
818.075	19951
818.216	20077
818.356	19898
818.497	19833
818.638	19537
818.778	19738
818.919	19624
819.06	19677
819.2	19765
819.341	19860
819.481	19852
819.622	19967
819.762	20145
819.903	20027
820.043	19955
820.184	19871
820.324	19963
820.465	19890
820.605	19978
820.746	19913
820.886	19871
821.026	19947
821.167	19913
821.307	19902
821.447	19868
821.588	19772
821.728	19518
821.868	19445
822.008	19460
822.149	19274
822.289	19148
822.429	19046
822.569	18970
822.709	18954
822.849	18844
822.99	18856
823.13	18738
823.27	18757
823.41	18764
823.55	18608
823.69	18608
823.83	18757
823.97	18700
824.11	18330
824.25	18418
824.389	18365
824.529	18407
824.669	18353
824.809	18509
824.949	18448
825.089	18517
825.228	18395
825.368	18273
825.508	18251
825.648	18197
825.787	18213
825.927	18289
826.067	18190
826.206	18098
826.346	18216
826.485	18201
826.625	18140
826.765	18243
826.904	18136
827.044	18045
827.183	17874
827.323	17889
827.462	17866
827.601	17863
827.741	17840
827.88	17889
828.02	17741
828.159	17923
828.298	17866
828.437	17988
828.577	17775
828.716	17958
828.855	17863
828.994	17623
829.134	17676
829.273	17646
829.412	17562
829.551	17589
829.69	17566
829.829	17585
829.968	17741
830.107	17764
830.246	17634
830.385	17608
830.524	17573
830.663	17497
830.802	17330
830.941	17258
831.08	17292
831.219	17356
831.357	17242
831.496	17440
831.635	17223
831.774	17162
831.913	17098
832.051	16961
832.19	16930
832.329	17094
832.467	16873
832.606	17003
832.744	16965
832.883	16953
833.022	16919
833.16	16927
833.299	17113
833.437	16976
833.576	17033
833.714	17006
833.852	16961
833.991	17048
834.129	16957
834.267	17037
834.406	16972
834.544	16991
834.682	17029
834.821	17003
834.959	17109
835.097	16904
835.235	17018
835.373	17079
835.511	17048
835.65	16869
835.788	16900
835.926	16755
836.064	16755
836.202	16805
836.34	16873
836.478	16927
836.615	16869
836.753	16961
836.891	17037
837.029	16949
837.167	16869
837.305	16831
837.443	16885
837.58	16774
837.718	16713
837.856	16702
837.993	16755
838.131	16748
838.269	16588
838.406	16630
838.544	16622
838.681	16500
838.819	16409
838.956	16272
839.094	16268
839.231	16390
839.369	16402
839.506	16630
839.643	16592
839.781	16318
839.918	16280
840.055	16314
840.193	16291
840.33	16257
840.467	16287
840.604	16249
840.742	16630
840.879	16200
841.016	16200
841.153	16109
841.29	16348
841.427	16348
841.564	16314
841.701	16348
841.838	16265
841.975	16154
842.112	16166
842.249	16059
842.385	16101
842.522	16223
842.659	16154
842.796	16074
842.933	16135
843.069	15960
843.206	16150
843.343	16196
843.479	16071
843.616	16021
843.752	15850
843.889	15865
844.025	16055
844.162	15804
844.298	15934
844.435	15884
844.571	15755
844.708	15865
844.844	16071
844.98	16025
845.117	15922
845.253	15873
845.389	15732
845.525	15808
845.661	15953
845.798	15827
845.934	16013
846.07	16090
846.206	16059
846.342	15949
846.478	15808
846.614	15519
846.75	15450
846.886	15496
847.022	15564
847.158	15477
847.294	15481
847.429	15439
847.565	15351
847.701	15679
847.837	15203
847.972	15131
848.108	15283
848.244	15184
848.379	15119
848.515	14979
848.65	15058
848.786	15055
848.921	14990
849.057	15097
849.192	15112
849.328	14998
849.463	14975
849.598	14960
849.734	14925
849.869	14788
850.004	14705
850.14	14819
850.275	14796
850.41	14750
850.545	14739
850.68	14724
850.815	14762
850.95	14720
851.085	14929
851.22	14880
851.355	14743
851.49	14804
851.625	14754
851.76	14750
851.895	14621
852.03	14655
852.165	14659
852.299	14792
852.434	14880
852.569	14765
852.703	14796
852.838	14834
852.973	14819
853.107	14887
853.242	14682
853.376	14724
853.511	14530
853.645	14621
853.78	14758
853.914	14701
854.048	14731
854.183	14602
854.317	14682
854.451	14800
854.585	14644
854.72	14663
854.854	14765
854.988	14568
855.122	14613
855.256	14484
855.39	14541
855.524	14708
855.658	14670
855.792	14667
855.926	14712
856.06	14697
856.194	14762
856.327	14689
856.461	14522
856.595	14625
856.729	14655
856.862	14807
856.996	14716
857.13	14712
857.263	14788
857.397	14686
857.53	14705
857.664	14735
857.797	14746
857.931	14819
858.064	14697
858.197	14769
858.331	14632
858.464	14701
858.597	14469
858.731	14594
858.864	14705
858.997	14530
859.13	14571
859.263	14613
859.396	14667
859.529	14518
859.662	14674
859.795	14545
859.928	14716
860.061	14785
860.194	14864
860.327	14571
860.46	14644
860.592	14712
860.725	14739
860.858	14773
860.99	14739
861.123	14560
861.256	14552
861.388	14632
861.521	15340
861.653	14541
861.786	14457
861.918	14469
862.05	14518
862.183	14476
862.315	14617
862.447	14739
862.58	14617
862.712	14374
862.844	14339
862.976	14423
863.108	14442
863.24	14826
863.372	14419
863.504	14355
863.636	14454
863.768	14511
863.9	14415
864.032	14366
864.164	14336
864.296	14408
864.428	14484
864.559	14503
864.691	14537
864.823	14351
864.954	14530
865.086	14495
865.217	14412
865.349	14370
865.48	14427
865.612	14393
865.743	14552
865.875	14427
866.006	14419
866.137	14415
866.269	14362
866.4	14396
866.531	14301
866.662	14358
866.793	14263
866.924	14332
867.055	14450
867.186	14332
867.317	14374
867.448	14317
867.579	14305
867.71	14290
867.841	14176
867.972	14465
868.103	14400
868.233	14385
868.364	14355
868.495	14511
868.625	14552
868.756	14667
868.886	14518
869.017	14560
869.147	14743
869.278	14750
869.408	14708
869.539	14678
869.669	14697
869.799	14625
869.929	14804
870.06	14781
870.19	14956
870.32	14967
870.45	14975
870.58	15039
870.71	15161
870.84	15100
870.97	14979
871.1	14994
871.23	15165
871.36	15294
871.489	15135
871.619	15233
871.749	15150
871.879	15291
872.008	15321
872.138	15176
872.267	15165
872.397	15005
872.526	15028
872.656	15150
872.785	14986
872.915	15252
873.044	15283
873.173	15264
873.303	15207
873.432	15374
873.561	15412
873.69	15173
873.819	15317
873.948	15359
874.077	15325
874.206	15222
874.335	15298
874.464	15447
874.593	15549
874.722	15511
874.851	15644
874.979	15553
875.108	15584
875.237	15462
875.365	15511
875.494	15545
875.623	15606
875.751	15606
875.88	15644
876.008	15816
876.136	15816
876.265	15979
876.393	16139
876.521	16013
876.65	16090
876.778	16071
876.906	15972
877.034	15956
877.162	15956
877.29	15911
877.418	16048
877.546	16063
877.674	15945
877.802	16082
877.93	16032
878.058	15899
878.185	15869
878.313	16025
878.441	15975
878.568	15880
878.696	15930
878.824	16097
878.951	16131
879.079	16215
879.206	16382
879.333	16261
879.461	16265
879.588	16265
879.715	16375
879.842	16352
879.97	16226
880.097	15937
880.224	15842
880.351	15979
880.478	15972
880.605	15987
880.732	15895
880.859	16071
880.986	15926
881.112	15907
881.239	15709
881.366	15652
881.493	15610
881.619	15599
881.746	15557
881.872	15591
881.999	15542
882.125	15534
882.252	15614
882.378	15572
882.505	15717
882.631	15538
882.757	15412
882.883	15363
883.01	15466
883.136	15279
883.262	15260
883.388	15214
883.514	15363
883.64	15386
883.766	15325
883.892	15256
884.018	15226
884.143	15329
884.269	15443
884.395	15097
884.52	14998
884.646	15089
884.772	14872
884.897	15055
885.023	15131
885.148	15157
885.274	15252
885.399	15150
885.524	15165
885.65	15093
885.775	15058
885.9	15028
886.025	15195
886.15	15058
886.275	14998
886.4	14944
886.525	15028
886.65	15009
886.775	14921
886.9	15230
887.025	15256
887.149	15104
887.274	14834
887.399	14765
887.523	14864
887.648	14735
887.773	14785
887.897	14971
888.021	14830
888.146	14857
888.27	15077
888.395	14982
888.519	14990
888.643	14842
888.767	14925
888.891	14853
889.015	14610
889.139	14693
889.263	14674
889.387	14838
889.511	14921
889.635	14921
889.759	14678
889.883	14727
890.006	14720
890.13	14769
890.254	14712
890.377	14708
890.501	14438
890.624	14507
890.748	14590
890.871	14442
890.995	14389
891.118	14423
891.241	14389
891.364	14484
891.488	14495
891.611	14362
891.734	14412
891.857	14541
891.98	14461
892.103	14442
892.226	14427
892.349	14389
892.471	14172
892.594	14374
892.717	14332
892.839	14339
892.962	14381
893.085	14396
893.207	14503
893.33	14210
893.452	14339
893.575	14450
893.697	14412
893.819	14587
893.941	14625
894.064	14556
894.186	14370
894.308	14450
894.43	14476
894.552	14522
894.674	14518
894.796	14400
894.918	14412
895.04	14389
895.161	14606
895.283	14541
895.405	14522
895.526	14476
895.648	14454
895.769	14549
895.891	14610
896.012	14579
896.134	14564
896.255	14503
896.376	14488
896.498	14545
896.619	14575
896.74	14598
896.861	14461
896.982	14910
897.103	15062
897.224	14891
897.345	14792
897.466	14720
897.587	14743
897.708	14971
897.828	14887
897.949	14788
898.07	14716
898.19	14838
898.311	14899
898.431	14796
898.552	14986
898.672	14941
898.792	14902
898.913	14914
899.033	14963
899.153	14823
899.273	14606
899.393	14796
899.513	14762
899.633	14636
899.753	14769
899.873	14781
899.993	14769
900.113	14705
900.232	14788
900.352	14773
900.472	14670
900.591	14560
900.711	14651
900.83	14575
900.95	14758
901.069	14716
901.189	14606
901.308	14324
901.427	14275
901.546	14195
901.665	14324
901.784	14229
901.904	14206
902.023	14115
902.141	13955
902.26	13811
902.379	14035
902.498	13852
902.617	13803
902.735	13989
902.854	13909
902.973	13822
903.091	13613
903.21	13518
903.328	13628
903.446	13571
903.565	13510
903.683	13457
903.801	13228
903.919	13392
904.038	13316
904.156	13190
904.274	13331
904.392	13145
904.51	13206
904.627	13221
904.745	13274
904.863	13297
904.981	13015
905.098	12890
905.216	12871
905.334	13008
905.451	12966
905.569	12882
905.686	12882
905.803	12905
905.921	12734
906.038	12833
906.155	12711
906.272	12669
906.389	12726
906.506	12578
906.623	12551
906.74	12460
906.857	12361
906.974	12403
907.091	12563
907.208	12620
907.324	12540
907.441	12433
907.557	12342
907.674	12232
907.79	12213
907.907	12201
908.023	12281
908.139	12243
908.256	12167
908.372	12125
908.488	12136
908.604	12106
908.72	11988
908.836	12011
908.952	11988
909.068	12079
909.184	12175
909.3	12026
909.415	12011
909.531	12026
909.647	11809
909.762	11832
909.878	11756
909.993	11813
910.108	11783
910.224	11767
910.339	11824
910.454	11745
910.57	11665
910.685	11596
910.8	11836
910.915	11847
911.03	11775
911.145	11436
911.259	11486
911.374	11493
911.489	11524
911.604	11398
911.718	11273
911.833	11231
911.947	11124
912.062	11124
912.176	11299
912.291	11227
912.405	11208
912.519	11478
912.633	11493
912.748	11311
912.862	11277
912.976	11147
913.09	11003
913.204	11056
913.318	11140
913.431	11204
913.545	11235
913.659	11223
913.772	11159
913.886	11033
914	10953
914.113	11105
914.226	11151
914.34	11071
914.453	10949
914.566	11136
914.68	10965
914.793	10961
914.906	10824
915.019	10755
915.132	10714
915.245	10759
915.358	10759
915.47	10793
915.583	10816
915.696	10835
915.809	10938
915.921	10896
916.034	10656
916.146	10771
916.259	10641
916.371	10748
916.483	10816
916.595	10630
916.708	10675
916.82	10691
916.932	10664
917.044	10607
917.156	10630
917.268	10516
917.38	10580
917.491	10470
917.603	10519
917.715	10645
917.826	10679
917.938	10603
918.049	10436
918.161	10599
918.272	10706
918.384	10702
918.495	10622
918.606	10417
918.717	10405
918.828	10417
918.939	10398
919.05	10424
919.161	10424
919.272	10253
919.383	10261
919.494	10519
919.604	10649
919.715	10440
919.826	10375
919.936	10367
920.047	10455
920.157	10512
920.267	10694
920.378	10485
920.488	10455
920.598	10691
920.708	10809
920.818	10790
920.928	10637
921.038	10759
921.148	10694
921.258	10504
921.368	10352
921.477	10333
921.587	10318
921.697	10200
921.806	10314
921.916	10147
922.025	10067
922.134	10025
922.244	10013
922.353	9991
922.462	9854
922.571	9816
922.68	9686
922.789	9618
922.898	9793
923.007	9667
923.116	9728
923.224	9686
923.333	9648
923.442	9576
923.55	9549
923.659	9572
923.767	9618
923.876	9568
923.984	9648
924.092	9530
924.201	9542
924.309	9553
924.417	9511
924.525	9443
924.633	9507
924.741	10405
924.849	9386
924.956	9542
925.064	9363
925.172	9233
925.279	9344
925.387	9340
925.494	9321
925.602	9458
925.709	9386
925.816	9298
925.924	9321
926.031	9359
926.138	9310
926.245	9386
926.352	9249
926.459	9447
926.566	9454
926.673	9249
926.779	9169
926.886	9184
926.993	9085
927.099	9081
927.206	9013
927.312	8956
927.419	8994
927.525	9131
927.631	9123
927.737	8929
927.843	9005
927.95	8868
928.056	8902
928.162	9017
928.267	8967
928.373	9564
928.479	8994
928.585	8857
928.69	8960
928.796	8944
928.901	8857
929.007	8815
929.112	8899
929.218	8788
929.323	8693
929.428	8758
929.533	8880
929.638	8758
929.743	8731
929.848	8849
929.953	8792
930.058	8655
930.163	8427
930.267	8530
930.372	8613
930.477	8507
930.581	8735
930.685	8617
930.79	8366
930.894	8423
930.998	8457
931.103	8564
931.207	8191
931.311	8195
931.415	8153
931.519	7986
931.623	7875
