Data from test_V78500241_2882.txt Node
Date: Fri Mar 25 14:53:46 CST 2022
User: usil
Spectrometer: V785-0024
Trigger mode: 0
Integration Time (sec): 4.000000E-1
Scans to average: 1
Nonlinearity correction enabled: false
Boxcar width: 0
Storing dark spectrum: false
XAxis mode: Wavelengths
Number of Pixels in Spectrum: 1024
>>>>>Begin Spectral Data<<<<<
801.071	22101
801.214	22109
801.356	21835
801.499	21576
801.641	21504
801.783	21443
801.926	21420
802.068	21370
802.211	21298
802.353	21173
802.496	21085
802.638	20941
802.78	20887
802.923	20864
803.065	20777
803.208	20735
803.35	20918
803.492	20914
803.635	20971
803.777	20781
803.919	20788
804.061	21024
804.204	20933
804.346	20708
804.488	20625
804.63	20754
804.773	20686
804.915	20785
805.057	20868
805.199	20670
805.341	20746
805.483	20720
805.626	20731
805.768	20629
805.91	20701
806.052	20762
806.194	20590
806.336	20906
806.478	20708
806.62	20537
806.762	20678
806.904	20876
807.046	21013
807.188	21096
807.33	21001
807.472	21108
807.614	21024
807.756	20823
807.898	20800
808.04	20689
808.182	20838
808.324	20735
808.465	20769
808.607	20910
808.749	21077
808.891	21260
809.033	21211
809.174	21066
809.316	21047
809.458	20994
809.6	20963
809.741	20971
809.883	21104
810.025	21298
810.166	21275
810.308	21264
810.45	21020
810.591	21062
810.733	20914
810.875	20845
811.016	20735
811.158	20750
811.299	21005
811.441	21024
811.582	20967
811.724	20693
811.865	20659
812.007	20845
812.148	20720
812.29	20982
812.431	21024
812.573	21104
812.714	21329
812.855	21310
812.997	21454
813.138	21595
813.279	21439
813.421	21386
813.562	21374
813.703	21024
813.845	21077
813.986	20708
814.127	20434
814.268	20454
814.41	20351
814.551	20351
814.692	20450
814.833	20389
814.974	20313
815.115	20362
815.256	20199
815.397	20142
815.539	20176
815.68	20180
815.821	20062
815.962	20126
816.103	20107
816.244	19944
816.385	19871
816.526	19814
816.666	19639
816.807	19620
816.948	19632
817.089	19491
817.23	19605
817.371	19567
817.512	19521
817.653	19430
817.793	19457
817.934	19480
818.075	19540
818.216	19495
818.356	19396
818.497	19354
818.638	19198
818.778	19164
818.919	19168
819.06	19179
819.2	19251
819.341	19343
819.481	19339
819.622	19468
819.762	19807
819.903	19582
820.043	19609
820.184	19540
820.324	19510
820.465	19578
820.605	19571
820.746	19388
820.886	19278
821.026	19518
821.167	19457
821.307	19597
821.447	19354
821.588	19312
821.728	19255
821.868	19122
822.008	18905
822.149	18939
822.289	18886
822.429	18650
822.569	18654
822.709	18650
822.849	18452
822.99	18369
823.13	18296
823.27	18292
823.41	18220
823.55	18182
823.69	18220
823.83	18251
823.97	18136
824.11	18003
824.25	18041
824.389	17942
824.529	18022
824.669	17958
824.809	18079
824.949	18049
825.089	17942
825.228	17999
825.368	17767
825.508	17817
825.648	17821
825.787	17870
825.927	17847
826.067	17657
826.206	17748
826.346	17672
826.485	17851
826.625	17729
826.765	17874
826.904	17794
827.044	17474
827.183	17623
827.323	17478
827.462	17516
827.601	17330
827.741	17383
827.88	17455
828.02	17303
828.159	17383
828.298	17425
828.437	17493
828.577	17429
828.716	17512
828.855	17322
828.994	17155
829.134	17292
829.273	17288
829.412	17143
829.551	17193
829.69	17105
829.829	17231
829.968	17315
830.107	17216
830.246	17254
830.385	17185
830.524	17094
830.663	16980
830.802	16790
830.941	16885
831.08	16721
831.219	16812
831.357	16949
831.496	17117
831.635	16816
831.774	16736
831.913	16809
832.051	16634
832.19	16531
832.329	16649
832.467	16535
832.606	16466
832.744	16462
832.883	16447
833.022	16440
833.16	16523
833.299	16565
833.437	16580
833.576	16527
833.714	16554
833.852	16615
833.991	16580
834.129	16664
834.267	16615
834.406	16588
834.544	16592
834.682	16618
834.821	16569
834.959	16672
835.097	16618
835.235	16626
835.373	16618
835.511	16508
835.65	16531
835.788	16443
835.926	16405
836.064	16261
836.202	16211
836.34	16500
836.478	16531
836.615	16409
836.753	16451
836.891	16516
837.029	16447
837.167	16432
837.305	16428
837.443	16299
837.58	16299
837.718	16409
837.856	16402
837.993	16272
838.131	16375
838.269	16249
838.406	16249
838.544	16116
838.681	16078
838.819	16032
838.956	15934
839.094	15876
839.231	16006
839.369	15922
839.506	16249
839.643	16200
839.781	15945
839.918	15812
840.055	15926
840.193	15728
840.33	15857
840.467	15873
840.604	15854
840.742	16040
840.879	15720
841.016	15789
841.153	15846
841.29	15998
841.427	15850
841.564	15888
841.701	15857
841.838	15774
841.975	15793
842.112	15781
842.249	15690
842.385	15576
842.522	15835
842.659	15591
842.796	15606
842.933	15610
843.069	15694
843.206	15648
843.343	15755
843.479	15641
843.616	15743
843.752	15378
843.889	15367
844.025	15610
844.162	15412
844.298	15564
844.435	15526
844.571	15454
844.708	15443
844.844	15523
844.98	15534
845.117	15606
845.253	15378
845.389	15336
845.525	15275
845.661	15291
845.798	15135
845.934	15157
846.07	15195
846.206	15268
846.342	15367
846.478	15173
846.614	15066
846.75	14967
846.886	14918
847.022	15062
847.158	14986
847.294	15051
847.429	15116
847.565	15070
847.701	15249
847.837	14712
847.972	14667
848.108	14849
848.244	14811
848.379	14754
848.515	14583
848.65	14579
848.786	14651
848.921	14598
849.057	14724
849.192	14610
849.328	14606
849.463	14640
849.598	14610
849.734	14514
849.869	14511
850.004	14450
850.14	14495
850.275	14473
850.41	14229
850.545	14362
850.68	14362
850.815	14336
850.95	14408
851.085	14549
851.22	14431
851.355	14332
851.49	14465
851.625	14415
851.76	14347
851.895	14313
852.03	14294
852.165	14305
852.299	14362
852.434	14423
852.569	14237
852.703	14389
852.838	14438
852.973	14587
853.107	14442
853.242	14286
853.376	14221
853.511	14164
853.645	14202
853.78	14305
853.914	14313
854.048	14187
854.183	14153
854.317	14206
854.451	14393
854.585	14168
854.72	14183
854.854	14275
854.988	14218
855.122	14130
855.256	14103
855.39	14183
855.524	14317
855.658	14305
855.792	14138
855.926	14210
856.06	14301
856.194	14298
856.327	14294
856.461	14161
856.595	14172
856.729	14199
856.862	14332
856.996	14332
857.13	14400
857.263	14294
857.397	14275
857.53	14313
857.664	14298
857.797	14263
857.931	14366
858.064	14252
858.197	14355
858.331	14259
858.464	14161
858.597	14119
858.731	14233
858.864	14206
858.997	14225
859.13	14301
859.263	14358
859.396	14309
859.529	14221
859.662	14183
859.795	14145
859.928	14252
860.061	14305
860.194	14301
860.327	14328
860.46	14202
860.592	14282
860.725	14362
860.858	14377
860.99	14180
861.123	14145
861.256	14183
861.388	14199
861.521	14868
861.653	14043
861.786	13967
861.918	14069
862.05	14168
862.183	14176
862.315	14218
862.447	14180
862.58	14180
862.712	14058
862.844	13936
862.976	14134
863.108	14126
863.24	14492
863.372	13974
863.504	13970
863.636	14027
863.768	14092
863.9	14084
864.032	13799
864.164	13989
864.296	14027
864.428	14126
864.559	14180
864.691	14081
864.823	13967
864.954	14046
865.086	14123
865.217	14039
865.349	13951
865.48	14020
865.612	13951
865.743	14161
865.875	13993
866.006	13875
866.137	14008
866.269	14107
866.4	14024
866.531	13955
866.662	13909
866.793	13955
866.924	13970
867.055	14016
867.186	13993
867.317	13898
867.448	13875
867.579	13959
867.71	13917
867.841	13898
867.972	14096
868.103	14005
868.233	14035
868.364	14039
868.495	14001
868.625	14119
868.756	14305
868.886	14138
869.017	14218
869.147	14389
869.278	14355
869.408	14324
869.539	14157
869.669	14278
869.799	14393
869.929	14358
870.06	14404
870.19	14636
870.32	14495
870.45	14610
870.58	14636
870.71	14819
870.84	14743
870.97	14598
871.1	14511
871.23	14918
871.36	14861
871.489	14815
871.619	14864
871.749	14876
871.879	14921
872.008	14952
872.138	14845
872.267	14887
872.397	14701
872.526	14621
872.656	14743
872.785	14758
872.915	14849
873.044	15013
873.173	14910
873.303	14933
873.432	14967
873.561	15009
873.69	14933
873.819	14891
873.948	14921
874.077	14967
874.206	14864
874.335	14929
874.464	15085
874.593	15169
874.722	14982
874.851	15226
874.979	15260
875.108	15241
875.237	15165
875.365	15138
875.494	15161
875.623	15378
875.751	15169
875.88	15192
876.008	15485
876.136	15412
876.265	15614
876.393	15739
876.521	15618
876.65	15762
876.778	15591
876.906	15561
877.034	15587
877.162	15709
877.29	15538
877.418	15679
877.546	15587
877.674	15606
877.802	15599
877.93	15644
878.058	15557
878.185	15496
878.313	15671
878.441	15515
878.568	15488
878.696	15545
878.824	15641
878.951	15709
879.079	15808
879.206	15991
879.333	15732
879.461	15610
879.588	15739
879.715	15800
879.842	15876
879.97	15660
880.097	15523
880.224	15458
880.351	15515
880.478	15431
880.605	15420
880.732	15454
880.859	15694
880.986	15587
881.112	15382
881.239	15367
881.366	15325
881.493	15157
881.619	15203
881.746	15100
881.872	15131
881.999	15131
882.125	15036
882.252	15207
882.378	15184
882.505	15317
882.631	15116
882.757	14918
882.883	14998
883.01	14910
883.136	14864
883.262	14807
883.388	14834
883.514	14990
883.64	14960
883.766	14880
883.892	14773
884.018	14815
884.143	14906
884.269	15039
884.395	14773
884.52	14686
884.646	14621
884.772	14598
884.897	14602
885.023	14621
885.148	14731
885.274	14777
885.399	14765
885.524	14663
885.65	14590
885.775	14651
885.9	14636
886.025	14800
886.15	14773
886.275	14579
886.4	14568
886.525	14670
886.65	14545
886.775	14537
886.9	14743
887.025	14872
887.149	14739
887.274	14427
887.399	14503
887.523	14457
887.648	14446
887.773	14423
887.897	14492
888.021	14526
888.146	14324
888.27	14568
888.395	14583
888.519	14431
888.643	14507
888.767	14613
888.891	14488
889.015	14309
889.139	14419
889.263	14282
889.387	14415
889.511	14476
889.635	14480
889.759	14286
889.883	14362
890.006	14389
890.13	14438
890.254	14157
890.377	14191
890.501	14096
890.624	14149
890.748	14202
890.871	14115
890.995	14081
891.118	13997
891.241	14039
891.364	14016
891.488	14149
891.611	14039
891.734	14058
891.857	14103
891.98	14058
892.103	14134
892.226	14084
892.349	13909
892.471	13963
892.594	14062
892.717	14016
892.839	14111
892.962	14039
893.085	14107
893.207	14035
893.33	13883
893.452	13982
893.575	14058
893.697	14035
893.819	14229
893.941	14320
894.064	14263
894.186	13989
894.308	13974
894.43	14172
894.552	14252
894.674	14172
894.796	14027
894.918	14149
895.04	14180
895.161	14252
895.283	14244
895.405	14054
895.526	14149
895.648	14168
895.769	14130
895.891	14244
896.012	14187
896.134	14259
896.255	14199
896.376	14206
896.498	14298
896.619	14199
896.74	14183
896.861	14237
896.982	14541
897.103	14731
897.224	14533
897.345	14450
897.466	14347
897.587	14434
897.708	14545
897.828	14518
897.949	14518
898.07	14454
898.19	14526
898.311	14667
898.431	14518
898.552	14625
898.672	14686
898.792	14678
898.913	14568
899.033	14518
899.153	14438
899.273	14343
899.393	14396
899.513	14488
899.633	14408
899.753	14465
899.873	14358
899.993	14366
900.113	14351
900.232	14412
900.352	14400
900.472	14309
900.591	14172
900.711	14324
900.83	14271
900.95	14355
901.069	14366
901.189	14187
901.308	14062
901.427	14020
901.546	14046
901.665	14069
901.784	14027
901.904	13902
902.023	13719
902.141	13601
902.26	13499
902.379	13677
902.498	13578
902.617	13487
902.735	13632
902.854	13510
902.973	13476
903.091	13270
903.21	13339
903.328	13217
903.446	13236
903.565	13126
903.683	13103
903.801	13042
903.919	13114
904.038	13088
904.156	12989
904.274	13042
904.392	12856
904.51	12890
904.627	12958
904.745	12958
904.863	12935
904.981	12810
905.098	12612
905.216	12631
905.334	12722
905.451	12631
905.569	12574
905.686	12650
905.803	12612
905.921	12479
906.038	12528
906.155	12498
906.272	12334
906.389	12296
906.506	12239
906.623	12194
906.74	12243
906.857	12152
906.974	12171
907.091	12213
907.208	12334
907.324	12247
907.441	12171
907.557	11958
907.674	11942
907.79	11942
907.907	11939
908.023	11942
908.139	11939
908.256	11901
908.372	11878
908.488	11828
908.604	11798
908.72	11623
908.836	11760
908.952	11657
909.068	11790
909.184	11748
909.3	11688
909.415	11752
909.531	11745
909.647	11493
909.762	11535
909.878	11463
909.993	11387
910.108	11490
910.224	11505
910.339	11585
910.454	11421
910.57	11318
910.685	11296
910.8	11558
910.915	11463
911.03	11368
911.145	11231
911.259	11090
911.374	11189
911.489	11029
911.604	10991
911.718	10980
911.833	10961
911.947	10843
912.062	10755
912.176	10927
912.291	10972
912.405	10904
912.519	11109
912.633	11151
912.748	11006
912.862	10942
912.976	10767
913.09	10611
913.204	10736
913.318	10839
913.431	10942
913.545	10881
913.659	10892
913.772	10782
913.886	10653
914	10733
914.113	10805
914.226	10831
914.34	10771
914.453	10596
914.566	10774
914.68	10653
914.793	10588
914.906	10443
915.019	10447
915.132	10405
915.245	10348
915.358	10432
915.47	10462
915.583	10500
915.696	10481
915.809	10588
915.921	10630
916.034	10493
916.146	10417
916.259	10371
916.371	10523
916.483	10451
916.595	10344
916.708	10424
916.82	10432
916.932	10379
917.044	10390
917.156	10352
917.268	10295
917.38	10306
917.491	10272
917.603	10261
917.715	10318
917.826	10386
917.938	10230
918.049	10139
918.161	10276
918.272	10398
918.384	10409
918.495	10322
918.606	10207
918.717	10109
918.828	10109
918.939	10188
919.05	10032
919.161	10139
919.272	9922
919.383	9968
919.494	10249
919.604	10295
919.715	10139
919.826	10105
919.936	10204
920.047	10284
920.157	10265
920.267	10386
920.378	10204
920.488	10196
920.598	10379
920.708	10546
920.818	10417
920.928	10379
921.038	10550
921.148	10470
921.258	10169
921.368	10101
921.477	10093
921.587	10025
921.697	9953
921.806	10078
921.916	9956
922.025	9819
922.134	9759
922.244	9644
922.353	9789
922.462	9625
922.571	9625
922.68	9439
922.789	9428
922.898	9504
923.007	9393
923.116	9496
923.224	9439
923.333	9431
923.442	9298
923.55	9268
923.659	9367
923.767	9389
923.876	9264
923.984	9397
924.092	9237
924.201	9245
924.309	9268
924.417	9310
924.525	9241
924.633	9329
924.741	10185
924.849	9085
924.956	9264
925.064	9112
925.172	9024
925.279	9055
925.387	9081
925.494	9131
925.602	9173
925.709	9176
925.816	9104
925.924	9085
926.031	9131
926.138	9138
926.245	9066
926.352	9036
926.459	9116
926.566	9222
926.673	9081
926.779	8937
926.886	8941
926.993	8842
927.099	8766
927.206	8773
927.312	8716
927.419	8819
927.525	8762
927.631	8921
927.737	8701
927.843	8701
927.95	8571
928.056	8674
928.162	8598
928.267	8746
928.373	9351
928.479	8800
928.585	8514
928.69	8651
928.796	8674
928.901	8705
929.007	8438
929.112	8659
929.218	8655
929.323	8522
929.428	8469
929.533	8613
929.638	8442
929.743	8514
929.848	8560
929.953	8560
930.058	8396
930.163	8282
930.267	8336
930.372	8450
930.477	8240
930.581	8480
930.685	8362
930.79	8244
930.894	8256
930.998	8240
931.103	8320
931.207	8039
931.311	8008
931.415	7940
931.519	7757
931.623	7727
