Data from test_V78500241_2972.txt Node
Date: Fri Mar 25 14:54:24 CST 2022
User: usil
Spectrometer: V785-0024
Trigger mode: 0
Integration Time (sec): 4.000000E-1
Scans to average: 1
Nonlinearity correction enabled: false
Boxcar width: 0
Storing dark spectrum: false
XAxis mode: Wavelengths
Number of Pixels in Spectrum: 1024
>>>>>Begin Spectral Data<<<<<
801.071	22051
801.214	22013
801.356	21652
801.499	21545
801.641	21519
801.783	21450
801.926	21477
802.068	21431
802.211	21359
802.353	21230
802.496	21024
802.638	20971
802.78	20842
802.923	20883
803.065	20693
803.208	20769
803.35	20925
803.492	20876
803.635	20872
803.777	20796
803.919	20941
804.061	21226
804.204	20815
804.346	20701
804.488	20571
804.63	20834
804.773	20629
804.915	20712
805.057	20830
805.199	20492
805.341	20811
805.483	20868
805.626	20781
805.768	20674
805.91	20617
806.052	20746
806.194	20609
806.336	20845
806.478	20670
806.62	20746
806.762	20773
806.904	20823
807.046	21146
807.188	21028
807.33	20868
807.472	21058
807.614	20960
807.756	20944
807.898	20826
808.04	20788
808.182	20693
808.324	20796
808.465	20823
808.607	21020
808.749	21070
808.891	21184
809.033	21283
809.174	21169
809.316	21013
809.458	21173
809.6	21089
809.741	21157
809.883	21233
810.025	21176
810.166	21249
810.308	21249
810.45	21176
810.591	21028
810.733	20975
810.875	20914
811.016	20735
811.158	20781
811.299	20861
811.441	20963
811.582	20941
811.724	20765
811.865	20735
812.007	20804
812.148	20826
812.29	20727
812.431	21062
812.573	21138
812.714	21203
812.855	21321
812.997	21469
813.138	21652
813.279	21511
813.421	21405
813.562	21287
813.703	21108
813.845	21032
813.986	20781
814.127	20518
814.268	20355
814.41	20434
814.551	20381
814.692	20377
814.833	20282
814.974	20366
815.115	20469
815.256	20214
815.397	20180
815.539	20275
815.68	20252
815.821	20164
815.962	20149
816.103	20142
816.244	19989
816.385	19784
816.526	19841
816.666	19700
816.807	19415
816.948	19616
817.089	19674
817.23	19586
817.371	19563
817.512	19578
817.653	19521
817.793	19506
817.934	19426
818.075	19468
818.216	19502
818.356	19480
818.497	19278
818.638	19164
818.778	19145
818.919	19175
819.06	19168
819.2	19343
819.341	19373
819.481	19419
819.622	19487
819.762	19639
819.903	19590
820.043	19582
820.184	19514
820.324	19472
820.465	19533
820.605	19453
820.746	19445
820.886	19362
821.026	19544
821.167	19438
821.307	19419
821.447	19441
821.588	19293
821.728	19213
821.868	18977
822.008	18840
822.149	18848
822.289	18954
822.429	18601
822.569	18544
822.709	18589
822.849	18502
822.99	18277
823.13	18361
823.27	18346
823.41	18228
823.55	18121
823.69	18163
823.83	18209
823.97	18102
824.11	17931
824.25	17969
824.389	17950
824.529	17996
824.669	18022
824.809	18079
824.949	18049
825.089	18015
825.228	18007
825.368	17767
825.508	17710
825.648	17695
825.787	17771
825.927	17783
826.067	17710
826.206	17695
826.346	17733
826.485	17840
826.625	17760
826.765	17718
826.904	17767
827.044	17592
827.183	17493
827.323	17421
827.462	17455
827.601	17383
827.741	17429
827.88	17406
828.02	17242
828.159	17353
828.298	17520
828.437	17520
828.577	17269
828.716	17509
828.855	17334
828.994	17159
829.134	17200
829.273	17181
829.412	17102
829.551	17003
829.69	17113
829.829	17277
829.968	17239
830.107	17220
830.246	17181
830.385	17124
830.524	17018
830.663	16999
830.802	16847
830.941	16908
831.08	16763
831.219	16839
831.357	16740
831.496	17003
831.635	16790
831.774	16713
831.913	16649
832.051	16615
832.19	16489
832.329	16592
832.467	16508
832.606	16344
832.744	16421
832.883	16531
833.022	16409
833.16	16466
833.299	16348
833.437	16500
833.576	16405
833.714	16398
833.852	16565
833.991	16474
834.129	16577
834.267	16519
834.406	16512
834.544	16523
834.682	16622
834.821	16470
834.959	16641
835.097	16497
835.235	16588
835.373	16535
835.511	16485
835.65	16409
835.788	16344
835.926	16325
836.064	16177
836.202	16238
836.34	16390
836.478	16413
836.615	16375
836.753	16466
836.891	16474
837.029	16390
837.167	16371
837.305	16318
837.443	16352
837.58	16234
837.718	16272
837.856	16295
837.993	16249
838.131	16265
838.269	16166
838.406	16158
838.544	16112
838.681	15941
838.819	16044
838.956	15838
839.094	15835
839.231	15819
839.369	16006
839.506	16128
839.643	16051
839.781	15869
839.918	15739
840.055	15934
840.193	15835
840.33	15835
840.467	15892
840.604	15762
840.742	15934
840.879	15778
841.016	15717
841.153	15724
841.29	15953
841.427	15892
841.564	15800
841.701	15945
841.838	15770
841.975	15641
842.112	15728
842.249	15641
842.385	15515
842.522	15797
842.659	15679
842.796	15648
842.933	15648
843.069	15553
843.206	15564
843.343	15720
843.479	15633
843.616	15587
843.752	15367
843.889	15374
844.025	15492
844.162	15424
844.298	15420
844.435	15317
844.571	15416
844.708	15454
844.844	15511
844.98	15530
845.117	15534
845.253	15340
845.389	15275
845.525	15336
845.661	15264
845.798	15233
845.934	15135
846.07	15047
846.206	15154
846.342	15332
846.478	15112
846.614	14998
846.75	14891
846.886	14883
847.022	15062
847.158	14929
847.294	14918
847.429	14986
847.565	14979
847.701	15222
847.837	14712
847.972	14682
848.108	14716
848.244	14796
848.379	14640
848.515	14545
848.65	14400
848.786	14511
848.921	14610
849.057	14606
849.192	14594
849.328	14568
849.463	14552
849.598	14518
849.734	14511
849.869	14374
850.004	14298
850.14	14396
850.275	14290
850.41	14172
850.545	14210
850.68	14229
850.815	14259
850.95	14328
851.085	14480
851.22	14358
851.355	14336
851.49	14282
851.625	14366
851.76	14278
851.895	14180
852.03	14240
852.165	14332
852.299	14301
852.434	14305
852.569	14309
852.703	14377
852.838	14320
852.973	14442
853.107	14454
853.242	14286
853.376	14183
853.511	14046
853.645	14123
853.78	14351
853.914	14218
854.048	14073
854.183	14130
854.317	14191
854.451	14332
854.585	14301
854.72	14126
854.854	14221
854.988	14134
855.122	14107
855.256	14088
855.39	14130
855.524	14252
855.658	14206
855.792	14069
855.926	14248
856.06	14237
856.194	14298
856.327	14138
856.461	14187
856.595	14100
856.729	14138
856.862	14275
856.996	14225
857.13	14358
857.263	14275
857.397	14244
857.53	14225
857.664	14233
857.797	14248
857.931	14290
858.064	14229
858.197	14248
858.331	14176
858.464	14172
858.597	14096
858.731	14278
858.864	14195
858.997	14050
859.13	14214
859.263	14164
859.396	14267
859.529	14084
859.662	14221
859.795	14134
859.928	14301
860.061	14248
860.194	14309
860.327	14225
860.46	14199
860.592	14309
860.725	14278
860.858	14351
860.99	14153
861.123	14145
861.256	14130
861.388	14237
861.521	14815
861.653	14092
861.786	14065
861.918	14111
862.05	14012
862.183	14142
862.315	14183
862.447	14267
862.58	14107
862.712	13913
862.844	13837
862.976	13989
863.108	14088
863.24	14507
863.372	13906
863.504	13917
863.636	13993
863.768	14035
863.9	14008
864.032	13898
864.164	13906
864.296	13925
864.428	14073
864.559	14046
864.691	14058
864.823	13959
864.954	14043
865.086	13947
865.217	13902
865.349	13925
865.48	13868
865.612	14005
865.743	14164
865.875	13974
866.006	13909
866.137	14062
866.269	13982
866.4	13940
866.531	13970
866.662	13833
866.793	13917
866.924	13898
867.055	13928
867.186	13974
867.317	13928
867.448	13811
867.579	13909
867.71	13753
867.841	13814
867.972	13940
868.103	13940
868.233	13963
868.364	13917
868.495	13978
868.625	14092
868.756	14252
868.886	14073
869.017	14176
869.147	14161
869.278	14313
869.408	14164
869.539	14252
869.669	14252
869.799	14282
869.929	14374
870.06	14263
870.19	14530
870.32	14438
870.45	14343
870.58	14541
870.71	14727
870.84	14689
870.97	14530
871.1	14598
871.23	14788
871.36	14792
871.489	14746
871.619	14777
871.749	14815
871.879	14891
872.008	14925
872.138	14800
872.267	14796
872.397	14640
872.526	14655
872.656	14556
872.785	14598
872.915	14773
873.044	14845
873.173	14872
873.303	14785
873.432	14906
873.561	14895
873.69	14845
873.819	14792
873.948	14929
874.077	14895
874.206	14621
874.335	14925
874.464	14899
874.593	15112
874.722	15100
874.851	15180
874.979	15146
875.108	15104
875.237	15127
875.365	15039
875.494	15051
875.623	15211
875.751	15100
875.88	15230
876.008	15313
876.136	15443
876.265	15675
876.393	15747
876.521	15614
876.65	15701
876.778	15644
876.906	15534
877.034	15496
877.162	15580
877.29	15545
877.418	15564
877.546	15553
877.674	15534
877.802	15599
877.93	15526
878.058	15492
878.185	15393
878.313	15538
878.441	15629
878.568	15469
878.696	15526
878.824	15618
878.951	15618
879.079	15774
879.206	15797
879.333	15717
879.461	15568
879.588	15751
879.715	15732
879.842	15751
879.97	15610
880.097	15428
880.224	15416
880.351	15454
880.478	15469
880.605	15492
880.732	15412
880.859	15682
880.986	15557
881.112	15530
881.239	15336
881.366	15173
881.493	15180
881.619	15142
881.746	15058
881.872	15062
881.999	15001
882.125	15066
882.252	15123
882.378	15066
882.505	15245
882.631	15043
882.757	14933
882.883	14910
883.01	14891
883.136	14842
883.262	14731
883.388	14762
883.514	14979
883.64	14883
883.766	14864
883.892	14720
884.018	14857
884.143	14899
884.269	14975
884.395	14629
884.52	14552
884.646	14579
884.772	14522
884.897	14552
885.023	14629
885.148	14716
885.274	14842
885.399	14716
885.524	14610
885.65	14575
885.775	14693
885.9	14533
886.025	14686
886.15	14659
886.275	14583
886.4	14518
886.525	14495
886.65	14583
886.775	14495
886.9	14693
887.025	14758
887.149	14606
887.274	14568
887.399	14328
887.523	14446
887.648	14358
887.773	14351
887.897	14488
888.021	14511
888.146	14408
888.27	14465
888.395	14522
888.519	14545
888.643	14389
888.767	14465
888.891	14385
889.015	14328
889.139	14355
889.263	14218
889.387	14332
889.511	14476
889.635	14419
889.759	14233
889.883	14248
890.006	14290
890.13	14389
890.254	14244
890.377	14298
890.501	14073
890.624	14024
890.748	14218
890.871	14115
890.995	13974
891.118	13917
891.241	13963
891.364	14039
891.488	14065
891.611	14012
891.734	14020
891.857	14069
891.98	14043
892.103	14096
892.226	14065
892.349	13909
892.471	13860
892.594	13951
892.717	14027
892.839	13906
892.962	14012
893.085	14119
893.207	14096
893.33	13898
893.452	13959
893.575	14024
893.697	14027
893.819	14172
893.941	14248
894.064	14115
894.186	13974
894.308	13875
894.43	14100
894.552	14233
894.674	14214
894.796	13982
894.918	14027
895.04	14001
895.161	14195
895.283	14153
895.405	13997
895.526	14111
895.648	14065
895.769	14119
895.891	14172
896.012	14294
896.134	14282
896.255	14183
896.376	14123
896.498	14206
896.619	14248
896.74	14229
896.861	14252
896.982	14530
897.103	14701
897.224	14511
897.345	14351
897.466	14393
897.587	14434
897.708	14594
897.828	14457
897.949	14434
898.07	14313
898.19	14381
898.311	14655
898.431	14446
898.552	14511
898.672	14602
898.792	14636
898.913	14594
899.033	14476
899.153	14400
899.273	14343
899.393	14419
899.513	14438
899.633	14332
899.753	14457
899.873	14385
899.993	14457
900.113	14400
900.232	14415
900.352	14385
900.472	14377
900.591	14294
900.711	14309
900.83	14115
900.95	14317
901.069	14419
901.189	14130
901.308	14020
901.427	13864
901.546	13898
901.665	14035
901.784	13906
901.904	13761
902.023	13826
902.141	13632
902.26	13548
902.379	13674
902.498	13468
902.617	13449
902.735	13594
902.854	13464
902.973	13521
903.091	13274
903.21	13228
903.328	13221
903.446	13141
903.565	13080
903.683	13149
903.801	12985
903.919	13015
904.038	12981
904.156	12875
904.274	12973
904.392	12928
904.51	12871
904.627	12951
904.745	12916
904.863	12970
904.981	12757
905.098	12620
905.216	12608
905.334	12642
905.451	12608
905.569	12547
905.686	12707
905.803	12563
905.921	12395
906.038	12528
906.155	12380
906.272	12258
906.389	12300
906.506	12155
906.623	12186
906.74	12117
906.857	12125
906.974	12102
907.091	12220
907.208	12327
907.324	12194
907.441	12136
907.557	11942
907.674	12041
907.79	11843
907.907	11882
908.023	11988
908.139	11904
908.256	11882
908.372	11878
908.488	11832
908.604	11684
908.72	11714
908.836	11771
908.952	11638
909.068	11688
909.184	11760
909.3	11638
909.415	11661
909.531	11646
909.647	11524
909.762	11501
909.878	11471
909.993	11414
910.108	11459
910.224	11376
910.339	11436
910.454	11345
910.57	11307
910.685	11220
910.8	11482
910.915	11429
911.03	11372
911.145	11227
911.259	11143
911.374	11193
911.489	11113
911.604	11022
911.718	10889
911.833	10892
911.947	10755
912.062	10721
912.176	10877
912.291	10900
912.405	10934
912.519	11098
912.633	11045
912.748	11022
912.862	10953
912.976	10797
913.09	10672
913.204	10653
913.318	10793
913.431	10915
913.545	11010
913.659	10961
913.772	10797
913.886	10664
914	10691
914.113	10744
914.226	10805
914.34	10729
914.453	10660
914.566	10740
914.68	10573
914.793	10615
914.906	10455
915.019	10417
915.132	10333
915.245	10447
915.358	10402
915.47	10481
915.583	10497
915.696	10474
915.809	10516
915.921	10580
916.034	10379
916.146	10360
916.259	10272
916.371	10504
916.483	10443
916.595	10363
916.708	10367
916.82	10352
916.932	10344
917.044	10280
917.156	10276
917.268	10227
917.38	10253
917.491	10306
917.603	10276
917.715	10436
917.826	10417
917.938	10261
918.049	10154
918.161	10215
918.272	10371
918.384	10348
918.495	10299
918.606	10093
918.717	10074
918.828	10109
918.939	10105
919.05	10040
919.161	10131
919.272	9922
919.383	9949
919.494	10173
919.604	10375
919.715	10135
919.826	10082
919.936	10131
920.047	10306
920.157	10147
920.267	10341
920.378	10215
920.488	10169
920.598	10398
920.708	10508
920.818	10287
920.928	10303
921.038	10558
921.148	10523
921.258	10204
921.368	10162
921.477	10090
921.587	9888
921.697	9895
921.806	10067
921.916	9911
922.025	9717
922.134	9629
922.244	9644
922.353	9747
922.462	9648
922.571	9576
922.68	9389
922.789	9359
922.898	9420
923.007	9367
923.116	9386
923.224	9416
923.333	9386
923.442	9363
923.55	9268
923.659	9306
923.767	9447
923.876	9283
923.984	9359
924.092	9230
924.201	9268
924.309	9313
924.417	9237
924.525	9199
924.633	9272
924.741	10139
924.849	9039
924.956	9195
925.064	9039
925.172	9005
925.279	9085
925.387	9119
925.494	9081
925.602	9199
925.709	9116
925.816	8990
925.924	9070
926.031	9161
926.138	9135
926.245	9161
926.352	9032
926.459	9112
926.566	9138
926.673	8982
926.779	8941
926.886	8941
926.993	8750
927.099	8746
927.206	8826
927.312	8743
927.419	8781
927.525	8800
927.631	8800
927.737	8682
927.843	8693
927.95	8556
928.056	8697
928.162	8697
928.267	8712
928.373	9348
928.479	8796
928.585	8594
928.69	8682
928.796	8648
928.901	8613
929.007	8488
929.112	8606
929.218	8587
929.323	8556
929.428	8575
929.533	8655
929.638	8450
929.743	8492
929.848	8552
929.953	8594
930.058	8377
930.163	8244
930.267	8248
930.372	8396
930.477	8282
930.581	8511
930.685	8339
930.79	8164
930.894	8202
930.998	8187
931.103	8377
931.207	7993
931.311	7989
931.415	7864
931.519	7788
931.623	7708
