Data from test_V78500241_1004.txt Node
Date: Fri Mar 25 14:40:42 CST 2022
User: usil
Spectrometer: V785-0024
Trigger mode: 0
Integration Time (sec): 4.000000E-1
Scans to average: 1
Nonlinearity correction enabled: false
Boxcar width: 0
Storing dark spectrum: false
XAxis mode: Wavelengths
Number of Pixels in Spectrum: 1024
>>>>>Begin Spectral Data<<<<<
801.071	23261
801.214	23041
801.356	22763
801.499	22561
801.641	22428
801.783	22440
801.926	22470
802.068	22344
802.211	22265
802.353	22253
802.496	21930
802.638	21945
802.78	21979
802.923	21865
803.065	21732
803.208	21694
803.35	21629
803.492	21903
803.635	21876
803.777	21709
803.919	21945
804.061	22055
804.204	21850
804.346	21701
804.488	21523
804.63	21694
804.773	21614
804.915	21751
805.057	21842
805.199	21591
805.341	21724
805.483	21800
805.626	21861
805.768	21682
805.91	21629
806.052	21835
806.194	21648
806.336	21991
806.478	21743
806.62	21720
806.762	21895
806.904	22051
807.046	22268
807.188	22265
807.33	22234
807.472	22390
807.614	22322
807.756	22341
807.898	22147
808.04	22299
808.182	22280
808.324	22531
808.465	22660
808.607	23006
808.749	23132
808.891	23296
809.033	23436
809.174	23265
809.316	23003
809.458	22877
809.6	22588
809.741	22687
809.883	22550
810.025	22698
810.166	22527
810.308	22561
810.45	22424
810.591	22253
810.733	22139
810.875	21979
811.016	21975
811.158	21968
811.299	22055
811.441	22185
811.582	22162
811.724	22040
811.865	21949
812.007	21926
812.148	21945
812.29	21953
812.431	22177
812.573	22188
812.714	22390
812.855	22485
812.997	22580
813.138	22500
813.279	22573
813.421	22295
813.562	22371
813.703	22265
813.845	22063
813.986	21846
814.127	21644
814.268	21568
814.41	21564
814.551	21412
814.692	21454
814.833	21443
814.974	21367
815.115	21549
815.256	21329
815.397	21355
815.539	21458
815.68	21260
815.821	21104
815.962	21249
816.103	21176
816.244	21131
816.385	20941
816.526	20963
816.666	20788
816.807	20716
816.948	20735
817.089	20838
817.23	20849
817.371	20644
817.512	20686
817.653	20629
817.793	20617
817.934	20701
818.075	20625
818.216	20693
818.356	20537
818.497	20393
818.638	20412
818.778	20415
818.919	20244
819.06	20370
819.2	20419
819.341	20427
819.481	20560
819.622	20575
819.762	20807
819.903	20788
820.043	20708
820.184	20556
820.324	20602
820.465	20629
820.605	20636
820.746	20579
820.886	20454
821.026	20568
821.167	20507
821.307	20670
821.447	20526
821.588	20431
821.728	20290
821.868	20096
822.008	20073
822.149	20005
822.289	19947
822.429	19795
822.569	19670
822.709	19662
822.849	19453
822.99	19529
823.13	19430
823.27	19411
823.41	19308
823.55	19308
823.69	19335
823.83	19297
823.97	19168
824.11	19057
824.25	19019
824.389	19084
824.529	19145
824.669	19046
824.809	19171
824.949	19069
825.089	19148
825.228	19084
825.368	18981
825.508	18871
825.648	18943
825.787	18882
825.927	18951
826.067	18856
826.206	18795
826.346	18878
826.485	18924
826.625	18817
826.765	18924
826.904	18833
827.044	18627
827.183	18555
827.323	18570
827.462	18631
827.601	18570
827.741	18540
827.88	18456
828.02	18464
828.159	18506
828.298	18460
828.437	18646
828.577	18532
828.716	18726
828.855	18486
828.994	18380
829.134	18327
829.273	18285
829.412	18247
829.551	18148
829.69	18281
829.829	18346
829.968	18391
830.107	18319
830.246	18258
830.385	18251
830.524	18133
830.663	18083
830.802	17927
830.941	17866
831.08	17752
831.219	17931
831.357	17980
831.496	18133
831.635	17908
831.774	17775
831.913	17786
832.051	17665
832.19	17726
832.329	17672
832.467	17653
832.606	17589
832.744	17471
832.883	17535
833.022	17581
833.16	17596
833.299	17619
833.437	17615
833.576	17695
833.714	17634
833.852	17668
833.991	17687
834.129	17779
834.267	17775
834.406	17687
834.544	17714
834.682	17661
834.821	17577
834.959	17764
835.097	17592
835.235	17695
835.373	17703
835.511	17558
835.65	17471
835.788	17509
835.926	17353
836.064	17425
836.202	17414
836.34	17463
836.478	17554
836.615	17467
836.753	17497
836.891	17665
837.029	17410
837.167	17433
837.305	17398
837.443	17341
837.58	17284
837.718	17440
837.856	17322
837.993	17288
838.131	17376
838.269	17292
838.406	17372
838.544	17197
838.681	17003
838.819	17014
838.956	16938
839.094	16850
839.231	16938
839.369	17079
839.506	17356
839.643	17151
839.781	16919
839.918	16911
840.055	16961
840.193	16961
840.33	16911
840.467	16892
840.604	16927
840.742	17242
840.879	16820
841.016	16805
841.153	16843
841.29	16938
841.427	16953
841.564	16896
841.701	16942
841.838	16755
841.975	16782
842.112	16828
842.249	16607
842.385	16599
842.522	16881
842.659	16649
842.796	16615
842.933	16656
843.069	16599
843.206	16596
843.343	16679
843.479	16675
843.616	16668
843.752	16558
843.889	16455
844.025	16622
844.162	16485
844.298	16603
844.435	16516
844.571	16493
844.708	16462
844.844	16645
844.98	16675
845.117	16615
845.253	16580
845.389	16535
845.525	16702
845.661	16896
845.798	17250
845.934	17554
846.07	17642
846.206	17657
846.342	17577
846.478	17045
846.614	16603
846.75	16310
846.886	16181
847.022	16238
847.158	16078
847.294	16067
847.429	16063
847.565	16090
847.701	16261
847.837	15720
847.972	15720
848.108	15899
848.244	15835
848.379	15679
848.515	15595
848.65	15591
848.786	15549
848.921	15648
849.057	15656
849.192	15675
849.328	15618
849.463	15599
849.598	15462
849.734	15462
849.869	15469
850.004	15340
850.14	15428
850.275	15454
850.41	15325
850.545	15256
850.68	15310
850.815	15268
850.95	15332
851.085	15496
851.22	15439
851.355	15428
851.49	15355
851.625	15313
851.76	15405
851.895	15287
852.03	15249
852.165	15268
852.299	15340
852.434	15481
852.569	15496
852.703	15291
852.838	15443
852.973	15545
853.107	15542
853.242	15363
853.376	15211
853.511	15165
853.645	15207
853.78	15317
853.914	15199
854.048	15192
854.183	15199
854.317	15214
854.451	15416
854.585	15138
854.72	15146
854.854	15336
854.988	15062
855.122	15188
855.256	15017
855.39	15199
855.524	15298
855.658	15195
855.792	15245
855.926	15302
856.06	15275
856.194	15268
856.327	15287
856.461	15161
856.595	15150
856.729	15119
856.862	15363
856.996	15161
857.13	15291
857.263	15336
857.397	15348
857.53	15192
857.664	15306
857.797	15340
857.931	15310
858.064	15230
858.197	15287
858.331	15188
858.464	15119
858.597	15142
858.731	15188
858.864	15108
858.997	15176
859.13	15192
859.263	15138
859.396	15302
859.529	15218
859.662	15192
859.795	15104
859.928	15279
860.061	15370
860.194	15351
860.327	15222
860.46	15173
860.592	15294
860.725	15283
860.858	15268
860.99	15165
861.123	15230
861.256	15127
861.388	15256
861.521	15800
861.653	15062
861.786	15036
861.918	15123
862.05	15245
862.183	15173
862.315	15157
862.447	15180
862.58	15138
862.712	14921
862.844	14960
862.976	15013
863.108	14994
863.24	15450
863.372	14941
863.504	15028
863.636	14937
863.768	15097
863.9	14982
864.032	14963
864.164	14880
864.296	15055
864.428	15077
864.559	15039
864.691	15055
864.823	15036
864.954	15039
865.086	15032
865.217	14868
865.349	14952
865.48	14921
865.612	14971
865.743	15077
865.875	14883
866.006	14933
866.137	14895
866.269	15051
866.4	14944
866.531	14853
866.662	14853
866.793	14872
866.924	14960
867.055	14849
867.186	14990
867.317	14853
867.448	14773
867.579	14823
867.71	14944
867.841	14815
867.972	14929
868.103	14883
868.233	14982
868.364	14777
868.495	15039
868.625	15142
868.756	15218
868.886	15001
869.017	15211
869.147	15249
869.278	15302
869.408	15207
869.539	15218
869.669	15237
869.799	15294
869.929	15306
870.06	15214
870.19	15492
870.32	15389
870.45	15473
870.58	15603
870.71	15698
870.84	15633
870.97	15610
871.1	15618
871.23	15842
871.36	15800
871.489	15701
871.619	15709
871.749	15861
871.879	15755
872.008	15804
872.138	15766
872.267	15819
872.397	15660
872.526	15591
872.656	15507
872.785	15557
872.915	15911
873.044	15827
873.173	15827
873.303	15816
873.432	15846
873.561	15922
873.69	15759
873.819	15857
873.948	15953
874.077	15892
874.206	15785
874.335	15876
874.464	15994
874.593	16109
874.722	16093
874.851	16268
874.979	16181
875.108	16249
875.237	16154
875.365	15979
875.494	16124
875.623	16280
875.751	16226
875.88	16086
876.008	16333
876.136	16348
876.265	16584
876.393	16782
876.521	16721
876.65	16744
876.778	16561
876.906	16497
877.034	16527
877.162	16603
877.29	16451
877.418	16599
877.546	16474
877.674	16573
877.802	16668
877.93	16717
878.058	16649
878.185	16527
878.313	16607
878.441	16687
878.568	16455
878.696	16675
878.824	16812
878.951	16831
879.079	17010
879.206	17235
879.333	17288
879.461	17303
879.588	17318
879.715	17474
879.842	17516
879.97	17136
880.097	16908
880.224	16782
880.351	16672
880.478	16672
880.605	16554
880.732	16569
880.859	16763
880.986	16592
881.112	16573
881.239	16405
881.366	16367
881.493	16322
881.619	16177
881.746	16234
881.872	16276
881.999	16139
882.125	16150
882.252	16261
882.378	16211
882.505	16432
882.631	16131
882.757	15941
882.883	16116
883.01	16067
883.136	16006
883.262	15956
883.388	15915
883.514	16116
883.64	16021
883.766	15915
883.892	15876
884.018	15846
884.143	16128
884.269	16238
884.395	15793
884.52	15671
884.646	15736
884.772	15728
884.897	15637
885.023	15770
885.148	15888
885.274	15964
885.399	15831
885.524	15785
885.65	15770
885.775	15751
885.9	15766
886.025	15838
886.15	15724
886.275	15663
886.4	15572
886.525	15660
886.65	15519
886.775	15614
886.9	15755
887.025	15842
887.149	15629
887.274	15447
887.399	15469
887.523	15431
887.648	15351
887.773	15378
887.897	15534
888.021	15530
888.146	15443
888.27	15545
888.395	15618
888.519	15481
888.643	15500
888.767	15534
888.891	15424
889.015	15291
889.139	15447
889.263	15275
889.387	15450
889.511	15435
889.635	15386
889.759	15268
889.883	15393
890.006	15291
890.13	15370
890.254	15211
890.377	15184
890.501	15039
890.624	15039
890.748	15150
890.871	15020
890.995	14918
891.118	14895
891.241	14910
891.364	14895
891.488	15058
891.611	14925
891.734	14914
891.857	14979
891.98	14956
892.103	14975
892.226	14998
892.349	15001
892.471	14762
892.594	14918
892.717	14876
892.839	14864
892.962	14925
893.085	14956
893.207	14933
893.33	14830
893.452	14872
893.575	15024
893.697	14834
893.819	15116
893.941	15112
894.064	15135
894.186	14834
894.308	14887
894.43	15001
894.552	15127
894.674	15013
894.796	14830
894.918	14929
895.04	14895
895.161	15043
895.283	15005
895.405	14853
895.526	14880
895.648	14994
895.769	15047
895.891	15055
896.012	15093
896.134	15116
896.255	15032
896.376	15051
896.498	15032
896.619	15066
896.74	15154
896.861	15165
896.982	15321
897.103	15500
897.224	15283
897.345	15348
897.466	15161
897.587	15272
897.708	15428
897.828	15348
897.949	15169
898.07	15203
898.19	15230
898.311	15294
898.431	15275
898.552	15405
898.672	15386
898.792	15530
898.913	15397
899.033	15351
899.153	15195
899.273	15169
899.393	15214
899.513	15302
899.633	15237
899.753	15260
899.873	15252
899.993	15252
900.113	15176
900.232	15275
900.352	15260
900.472	15264
900.591	15093
900.711	15135
900.83	15119
900.95	15142
901.069	15214
901.189	14986
901.308	14906
901.427	14788
901.546	14701
901.665	14758
901.784	14724
901.904	14720
902.023	14526
902.141	14328
902.26	14275
902.379	14313
902.498	14301
902.617	14248
902.735	14343
902.854	14256
902.973	14275
903.091	14008
903.21	14001
903.328	13993
903.446	13940
903.565	13879
903.683	13780
903.801	13746
903.919	13837
904.038	13791
904.156	13666
904.274	13757
904.392	13609
904.51	13601
904.627	13670
904.745	13704
904.863	13696
904.981	13521
905.098	13346
905.216	13293
905.334	13335
905.451	13358
905.569	13278
905.686	13339
905.803	13308
905.921	13129
906.038	13285
906.155	13061
906.272	13114
906.389	13088
906.506	12913
906.623	12947
906.74	12890
906.857	12749
906.974	12867
907.091	12848
907.208	13042
907.324	12871
907.441	12821
907.557	12601
907.674	12646
907.79	12547
907.907	12684
908.023	12559
908.139	12700
908.256	12623
908.372	12563
908.488	12513
908.604	12445
908.72	12452
908.836	12433
908.952	12422
909.068	12407
909.184	12574
909.3	12471
909.415	12494
909.531	12353
909.647	12140
909.762	12201
909.878	12095
909.993	12277
910.108	12186
910.224	12201
910.339	12262
910.454	12076
910.57	12072
910.685	11984
910.8	12235
910.915	12133
911.03	12007
911.145	11783
911.259	11859
911.374	11866
911.489	11783
911.604	11790
911.718	11653
911.833	11604
911.947	11474
912.062	11387
912.176	11573
912.291	11611
912.405	11573
912.519	11752
912.633	11748
912.748	11672
912.862	11630
912.976	11493
913.09	11315
913.204	11429
913.318	11444
913.431	11589
913.545	11551
913.659	11600
913.772	11455
913.886	11387
914	11341
914.113	11478
914.226	11509
914.34	11379
914.453	11326
914.566	11448
914.68	11307
914.793	11212
914.906	11098
915.019	11105
915.132	10953
915.245	11022
915.358	11064
915.47	11113
915.583	11045
915.696	11094
915.809	11242
915.921	11178
916.034	10972
916.146	10980
916.259	11014
916.371	11086
916.483	11045
916.595	11041
916.708	11018
916.82	10999
916.932	10965
917.044	10946
917.156	10980
917.268	10881
917.38	10923
917.491	10850
917.603	10892
917.715	10957
917.826	10873
917.938	10938
918.049	10809
918.161	10843
918.272	11029
918.384	11022
918.495	10854
918.606	10771
918.717	10694
918.828	10782
918.939	10683
919.05	10641
919.161	10740
919.272	10531
919.383	10618
919.494	10763
919.604	11003
919.715	10820
919.826	10607
919.936	10740
920.047	10820
920.157	10755
920.267	10862
920.378	10805
920.488	10774
920.598	10927
920.708	11025
920.818	10889
920.928	10934
921.038	11136
921.148	11098
921.258	10729
921.368	10733
921.477	10630
921.587	10634
921.697	10489
921.806	10660
921.916	10523
922.025	10303
922.134	10280
922.244	10196
922.353	10303
922.462	10131
922.571	10158
922.68	9987
922.789	9930
922.898	9987
923.007	9880
923.116	9979
923.224	10036
923.333	9857
923.442	9819
923.55	9816
923.659	9869
923.767	9991
923.876	9736
923.984	9918
924.092	9770
924.201	9869
924.309	9778
924.417	9835
924.525	9709
924.633	9816
924.741	10683
924.849	9618
924.956	9713
925.064	9580
925.172	9530
925.279	9564
925.387	9618
925.494	9633
925.602	9751
925.709	9709
925.816	9538
925.924	9568
926.031	9667
926.138	9515
926.245	9663
926.352	9576
926.459	9633
926.566	9660
926.673	9568
926.779	9450
926.886	9435
926.993	9389
927.099	9287
927.206	9306
927.312	9188
927.419	9378
927.525	9298
927.631	9287
927.737	9157
927.843	9150
927.95	9093
928.056	9188
928.162	9233
928.267	9260
928.373	9766
928.479	9329
928.585	9062
928.69	9142
928.796	9176
928.901	9138
929.007	8948
929.112	9097
929.218	8998
929.323	9013
929.428	8986
929.533	9112
929.638	8891
929.743	8937
929.848	9001
929.953	8971
930.058	8960
930.163	8758
930.267	8739
930.372	8853
930.477	8754
930.581	8902
930.685	8800
930.79	8636
930.894	8689
930.998	8697
931.103	8864
931.207	8434
931.311	8404
931.415	8328
931.519	8202
931.623	8202
