Data from test_V78500241_1513.txt Node
Date: Fri Mar 25 14:44:15 CST 2022
User: usil
Spectrometer: V785-0024
Trigger mode: 0
Integration Time (sec): 4.000000E-1
Scans to average: 1
Nonlinearity correction enabled: false
Boxcar width: 0
Storing dark spectrum: false
XAxis mode: Wavelengths
Number of Pixels in Spectrum: 1024
>>>>>Begin Spectral Data<<<<<
801.071	22348
801.214	22394
801.356	22036
801.499	21831
801.641	21823
801.783	21709
801.926	21797
802.068	21747
802.211	21778
802.353	21641
802.496	21310
802.638	21370
802.78	21272
802.923	21131
803.065	21066
803.208	21104
803.35	21157
803.492	21355
803.635	21336
803.777	21104
803.919	21245
804.061	21591
804.204	21226
804.346	21005
804.488	21028
804.63	21100
804.773	21051
804.915	21093
805.057	21260
805.199	21131
805.341	21154
805.483	21272
805.626	21211
805.768	20998
805.91	21096
806.052	21119
806.194	21013
806.336	21184
806.478	21051
806.62	21127
806.762	21214
806.904	21180
807.046	21397
807.188	21306
807.33	21302
807.472	21549
807.614	21348
807.756	21317
807.898	21317
808.04	21283
808.182	21302
808.324	21401
808.465	21332
808.607	21545
808.749	21751
808.891	21751
809.033	21762
809.174	21728
809.316	21618
809.458	21526
809.6	21534
809.741	21557
809.883	21690
810.025	21671
810.166	21671
810.308	21762
810.45	21523
810.591	21622
810.733	21317
810.875	21317
811.016	21249
811.158	21150
811.299	21317
811.441	21492
811.582	21466
811.724	21218
811.865	21336
812.007	21157
812.148	21332
812.29	21378
812.431	21526
812.573	21595
812.714	21705
812.855	21705
812.997	21934
813.138	21998
813.279	21918
813.421	21751
813.562	21644
813.703	21469
813.845	21302
813.986	21062
814.127	21017
814.268	20861
814.41	20929
814.551	20708
814.692	20982
814.833	20785
814.974	20746
815.115	20682
815.256	20621
815.397	20530
815.539	20629
815.68	20556
815.821	20514
815.962	20568
816.103	20446
816.244	20484
816.385	20278
816.526	20229
816.666	20103
816.807	19997
816.948	20172
817.089	20107
817.23	20084
817.371	19986
817.512	19887
817.653	19822
817.793	19879
817.934	19879
818.075	20001
818.216	19875
818.356	19871
818.497	19814
818.638	19643
818.778	19594
818.919	19639
819.06	19658
819.2	19807
819.341	19883
819.481	19791
819.622	19955
819.762	20168
819.903	20073
820.043	20039
820.184	19902
820.324	19898
820.465	19974
820.605	19837
820.746	20005
820.886	19795
821.026	19879
821.167	19940
821.307	20005
821.447	19849
821.588	19761
821.728	19578
821.868	19392
822.008	19251
822.149	19270
822.289	19221
822.429	19107
822.569	18996
822.709	18977
822.849	18772
822.99	18757
823.13	18821
823.27	18837
823.41	18525
823.55	18582
823.69	18623
823.83	18589
823.97	18525
824.11	18353
824.25	18388
824.389	18395
824.529	18456
824.669	18517
824.809	18429
824.949	18506
825.089	18330
825.228	18384
825.368	18163
825.508	18095
825.648	18171
825.787	18201
825.927	18186
826.067	18053
826.206	18136
826.346	18064
826.485	18163
826.625	18144
826.765	18251
826.904	18213
827.044	17870
827.183	17859
827.323	17851
827.462	17832
827.601	17813
827.741	17802
827.88	17783
828.02	17676
828.159	17847
828.298	17847
828.437	17863
828.577	17843
828.716	17893
828.855	17767
828.994	17581
829.134	17558
829.273	17623
829.412	17528
829.551	17486
829.69	17566
829.829	17672
829.968	17767
830.107	17661
830.246	17668
830.385	17596
830.524	17379
830.663	17402
830.802	17288
830.941	17174
831.08	17060
831.219	17269
831.357	17261
831.496	17379
831.635	17277
831.774	17136
831.913	17022
832.051	17006
832.19	16999
832.329	16953
832.467	16843
832.606	16763
832.744	16900
832.883	16953
833.022	16923
833.16	16877
833.299	16900
833.437	16927
833.576	16930
833.714	16919
833.852	16847
833.991	16991
834.129	17052
834.267	16942
834.406	16927
834.544	16915
834.682	16915
834.821	16938
834.959	17140
835.097	16968
835.235	17090
835.373	17056
835.511	16942
835.65	16805
835.788	16687
835.926	16713
836.064	16630
836.202	16698
836.34	16869
836.478	16873
836.615	16805
836.753	16904
836.891	16900
837.029	16972
837.167	16767
837.305	16664
837.443	16816
837.58	16653
837.718	16713
837.856	16763
837.993	16691
838.131	16668
838.269	16645
838.406	16637
838.544	16565
838.681	16360
838.819	16421
838.956	16329
839.094	16249
839.231	16314
839.369	16455
839.506	16561
839.643	16382
839.781	16249
839.918	16207
840.055	16261
840.193	16177
840.33	16204
840.467	16318
840.604	16276
840.742	16481
840.879	16082
841.016	16139
841.153	16090
841.29	16356
841.427	16242
841.564	16223
841.701	16306
841.838	16276
841.975	16013
842.112	16128
842.249	16044
842.385	15937
842.522	16135
842.659	16063
842.796	15945
842.933	15949
843.069	15892
843.206	16059
843.343	16040
843.479	15953
843.616	15956
843.752	15774
843.889	15739
844.025	16017
844.162	15690
844.298	15884
844.435	15743
844.571	15679
844.708	15903
844.844	15960
844.98	15945
845.117	15899
845.253	15739
845.389	15739
845.525	15720
845.661	15823
845.798	15743
845.934	15857
846.07	15800
846.206	15918
846.342	15987
846.478	15736
846.614	15485
846.75	15218
846.886	15393
847.022	15420
847.158	15481
847.294	15382
847.429	15313
847.565	15370
847.701	15671
847.837	15104
847.972	15047
848.108	15195
848.244	15176
848.379	15001
848.515	14929
848.65	14963
848.786	14994
848.921	14979
849.057	15013
849.192	15066
849.328	14975
849.463	15024
849.598	14918
849.734	14899
849.869	14868
850.004	14712
850.14	14708
850.275	14712
850.41	14651
850.545	14693
850.68	14617
850.815	14693
850.95	14754
851.085	14845
851.22	14804
851.355	14823
851.49	14705
851.625	14724
851.76	14678
851.895	14655
852.03	14640
852.165	14689
852.299	14762
852.434	14800
852.569	14811
852.703	14834
852.838	14826
852.973	14899
853.107	14823
853.242	14697
853.376	14617
853.511	14575
853.645	14499
853.78	14762
853.914	14533
854.048	14560
854.183	14533
854.317	14632
854.451	14762
854.585	14537
854.72	14594
854.854	14678
854.988	14533
855.122	14530
855.256	14427
855.39	14583
855.524	14670
855.658	14659
855.792	14716
855.926	14632
856.06	14617
856.194	14754
856.327	14655
856.461	14648
856.595	14613
856.729	14667
856.862	14712
856.996	14720
857.13	14606
857.263	14724
857.397	14785
857.53	14686
857.664	14678
857.797	14708
857.931	14716
858.064	14712
858.197	14667
858.331	14613
858.464	14522
858.597	14533
858.731	14590
858.864	14621
858.997	14655
859.13	14621
859.263	14674
859.396	14610
859.529	14564
859.662	14587
859.795	14545
859.928	14613
860.061	14781
860.194	14712
860.327	14674
860.46	14678
860.592	14701
860.725	14796
860.858	14670
860.99	14564
861.123	14610
861.256	14533
861.388	14590
861.521	15211
861.653	14419
861.786	14336
861.918	14434
862.05	14621
862.183	14587
862.315	14621
862.447	14583
862.58	14575
862.712	14381
862.844	14362
862.976	14507
863.108	14438
863.24	14697
863.372	14324
863.504	14396
863.636	14282
863.768	14423
863.9	14412
864.032	14343
864.164	14351
864.296	14415
864.428	14533
864.559	14393
864.691	14442
864.823	14393
864.954	14393
865.086	14415
865.217	14446
865.349	14221
865.48	14214
865.612	14336
865.743	14499
865.875	14438
866.006	14336
866.137	14362
866.269	14381
866.4	14396
866.531	14320
866.662	14275
866.793	14370
866.924	14305
867.055	14412
867.186	14320
867.317	14324
867.448	14210
867.579	14278
867.71	14267
867.841	14248
867.972	14366
868.103	14370
868.233	14263
868.364	14358
868.495	14438
868.625	14568
868.756	14689
868.886	14461
869.017	14549
869.147	14640
869.278	14785
869.408	14686
869.539	14602
869.669	14651
869.799	14720
869.929	14712
870.06	14773
870.19	14895
870.32	14845
870.45	14986
870.58	15036
870.71	15157
870.84	15093
870.97	15097
871.1	14941
871.23	15131
871.36	15207
871.489	15093
871.619	15176
871.749	15226
871.879	15264
872.008	15283
872.138	15104
872.267	15104
872.397	14998
872.526	15032
872.656	15043
872.785	15074
872.915	15222
873.044	15359
873.173	15245
873.303	15336
873.432	15306
873.561	15363
873.69	15230
873.819	15146
873.948	15291
874.077	15226
874.206	15203
874.335	15233
874.464	15340
874.593	15477
874.722	15500
874.851	15526
874.979	15618
875.108	15637
875.237	15629
875.365	15485
875.494	15500
875.623	15644
875.751	15538
875.88	15637
876.008	15652
876.136	15785
876.265	15945
876.393	16120
876.521	16051
876.65	16029
876.778	16025
876.906	15903
877.034	15922
877.162	15922
877.29	15945
877.418	16006
877.546	16002
877.674	15960
877.802	16051
877.93	16006
878.058	15823
878.185	15895
878.313	15983
878.441	15964
878.568	15903
878.696	15953
878.824	16021
878.951	16078
879.079	16249
879.206	16337
879.333	16135
879.461	16181
879.588	16147
879.715	16299
879.842	16284
879.97	16090
880.097	15903
880.224	15854
880.351	15888
880.478	15922
880.605	15728
880.732	15937
880.859	16139
880.986	15850
881.112	15918
881.239	15686
881.366	15656
881.493	15610
881.619	15416
881.746	15515
881.872	15462
881.999	15428
882.125	15485
882.252	15610
882.378	15450
882.505	15603
882.631	15454
882.757	15367
882.883	15351
883.01	15302
883.136	15298
883.262	15241
883.388	15188
883.514	15370
883.64	15363
883.766	15272
883.892	15077
884.018	15264
884.143	15317
884.269	15283
884.395	15119
884.52	14952
884.646	15093
884.772	14994
884.897	14887
885.023	15047
885.148	15169
885.274	15176
885.399	15138
885.524	15001
885.65	15009
885.775	15051
885.9	15028
886.025	15108
886.15	15093
886.275	14944
886.4	14895
886.525	15005
886.65	14948
886.775	14948
886.9	15135
887.025	15165
887.149	14979
887.274	14864
887.399	14724
887.523	14804
887.648	14705
887.773	14804
887.897	14807
888.021	14864
888.146	14845
888.27	14910
888.395	14872
888.519	14773
888.643	14781
888.767	14815
888.891	14735
889.015	14648
889.139	14762
889.263	14689
889.387	14872
889.511	14883
889.635	14792
889.759	14667
889.883	14712
890.006	14743
890.13	14754
890.254	14602
890.377	14625
890.501	14454
890.624	14408
890.748	14495
890.871	14427
890.995	14256
891.118	14218
891.241	14385
891.364	14374
891.488	14469
891.611	14385
891.734	14393
891.857	14434
891.98	14419
892.103	14461
892.226	14454
892.349	14286
892.471	14164
892.594	14336
892.717	14385
892.839	14351
892.962	14324
893.085	14381
893.207	14362
893.33	14298
893.452	14317
893.575	14389
893.697	14408
893.819	14590
893.941	14564
894.064	14511
894.186	14275
894.308	14313
894.43	14385
894.552	14583
894.674	14465
894.796	14343
894.918	14408
895.04	14434
895.161	14465
895.283	14484
895.405	14336
895.526	14492
895.648	14377
895.769	14545
895.891	14457
896.012	14564
896.134	14473
896.255	14556
896.376	14396
896.498	14507
896.619	14575
896.74	14461
896.861	14617
896.982	14921
897.103	14979
897.224	14750
897.345	14773
897.466	14667
897.587	14697
897.708	14944
897.828	14868
897.949	14648
898.07	14674
898.19	14842
898.311	14960
898.431	14750
898.552	14918
898.672	14880
898.792	14990
898.913	14925
899.033	14731
899.153	14743
899.273	14602
899.393	14708
899.513	14621
899.633	14735
899.753	14777
899.873	14712
899.993	14743
900.113	14746
900.232	14659
900.352	14674
900.472	14632
900.591	14587
900.711	14629
900.83	14590
900.95	14613
901.069	14682
901.189	14541
901.308	14351
901.427	14305
901.546	14298
901.665	14240
901.784	14282
901.904	14256
902.023	14149
902.141	13856
902.26	13875
902.379	13917
902.498	13818
902.617	13856
902.735	13799
902.854	13784
902.973	13746
903.091	13605
903.21	13495
903.328	13628
903.446	13499
903.565	13343
903.683	13449
903.801	13225
903.919	13354
904.038	13350
904.156	13232
904.274	13228
904.392	13091
904.51	13171
904.627	13156
904.745	13259
904.863	13255
904.981	12966
905.098	12791
905.216	12856
905.334	12962
905.451	12947
905.569	12894
905.686	12894
905.803	12882
905.921	12757
906.038	12707
906.155	12677
906.272	12665
906.389	12631
906.506	12509
906.623	12437
906.74	12464
906.857	12334
906.974	12403
907.091	12540
907.208	12616
907.324	12509
907.441	12467
907.557	12277
907.674	12194
907.79	12038
907.907	12175
908.023	12270
908.139	12254
908.256	12152
908.372	12091
908.488	12057
908.604	12072
908.72	11999
908.836	11942
908.952	11992
909.068	11904
909.184	12019
909.3	12041
909.415	12060
909.531	11927
909.647	11748
909.762	11840
909.878	11756
909.993	11691
910.108	11661
910.224	11657
910.339	11748
910.454	11703
910.57	11707
910.685	11604
910.8	11794
910.915	11710
911.03	11589
911.145	11425
911.259	11356
911.374	11421
911.489	11334
911.604	11242
911.718	11174
911.833	11216
911.947	11052
912.062	11018
912.176	11189
912.291	11204
912.405	11147
912.519	11246
912.633	11356
912.748	11261
912.862	11147
912.976	11086
913.09	10946
913.204	11025
913.318	10995
913.431	11128
913.545	11212
913.659	11212
913.772	11018
913.886	10999
914	10927
914.113	10976
914.226	11083
914.34	11010
914.453	10892
914.566	11029
914.68	10839
914.793	10869
914.906	10729
915.019	10694
915.132	10596
915.245	10698
915.358	10714
915.47	10668
915.583	10721
915.696	10790
915.809	10782
915.921	10919
916.034	10664
916.146	10546
916.259	10573
916.371	10656
916.483	10656
916.595	10558
916.708	10641
916.82	10580
916.932	10561
917.044	10573
917.156	10618
917.268	10455
917.38	10554
917.491	10424
917.603	10527
917.715	10546
917.826	10698
917.938	10459
918.049	10402
918.161	10531
918.272	10546
918.384	10584
918.495	10618
918.606	10337
918.717	10322
918.828	10402
918.939	10356
919.05	10299
919.161	10268
919.272	10207
919.383	10188
919.494	10356
919.604	10592
919.715	10417
919.826	10303
919.936	10360
920.047	10474
920.157	10382
920.267	10641
920.378	10485
920.488	10379
920.598	10622
920.708	10698
920.818	10626
920.928	10607
921.038	10656
921.148	10691
921.258	10432
921.368	10325
921.477	10318
921.587	10147
921.697	10101
921.806	10253
921.916	10105
922.025	9956
922.134	9949
922.244	9991
922.353	9911
922.462	9892
922.571	9800
922.68	9625
922.789	9660
922.898	9603
923.007	9595
923.116	9679
923.224	9641
923.333	9515
923.442	9568
923.55	9477
923.659	9542
923.767	9568
923.876	9485
923.984	9580
924.092	9424
924.201	9542
924.309	9477
924.417	9519
924.525	9439
924.633	9416
924.741	10348
924.849	9203
924.956	9443
925.064	9245
925.172	9195
925.279	9275
925.387	9336
925.494	9363
925.602	9416
925.709	9488
925.816	9230
925.924	9310
926.031	9340
926.138	9336
926.245	9313
926.352	9199
926.459	9359
926.566	9378
926.673	9233
926.779	9154
926.886	9146
926.993	8986
927.099	8925
927.206	9009
927.312	8975
927.419	9108
927.525	8990
927.631	9089
927.737	8937
927.843	8963
927.95	8849
928.056	8872
928.162	8891
928.267	8960
928.373	9454
928.479	8941
928.585	8735
928.69	8861
928.796	8986
928.901	8842
929.007	8686
929.112	8845
929.218	8796
929.323	8743
929.428	8644
929.533	8918
929.638	8686
929.743	8644
929.848	8693
929.953	8663
930.058	8571
930.163	8492
930.267	8469
930.372	8587
930.477	8427
930.581	8629
930.685	8651
930.79	8351
930.894	8446
930.998	8347
931.103	8564
931.207	8214
931.311	8149
931.415	8149
931.519	7944
931.623	7902
