Data from test_V78500241_548.txt Node
Date: Fri Mar 25 14:37:32 CST 2022
User: usil
Spectrometer: V785-0024
Trigger mode: 0
Integration Time (sec): 4.000000E-1
Scans to average: 1
Nonlinearity correction enabled: false
Boxcar width: 0
Storing dark spectrum: false
XAxis mode: Wavelengths
Number of Pixels in Spectrum: 1024
>>>>>Begin Spectral Data<<<<<
801.071	27603
801.214	27469
801.356	27211
801.499	27218
801.641	26899
801.783	26971
801.926	27028
802.068	26861
802.211	26750
802.353	26701
802.496	26670
802.638	26537
802.78	26427
802.923	26465
803.065	26453
803.208	26412
803.35	26412
803.492	26613
803.635	26564
803.777	26465
803.919	26606
804.061	26864
804.204	26503
804.346	26476
804.488	26355
804.63	26351
804.773	26518
804.915	26587
805.057	26826
805.199	26518
805.341	26712
805.483	26781
805.626	26842
805.768	26606
805.91	26781
806.052	26788
806.194	26830
806.336	27070
806.478	26975
806.62	27047
806.762	27332
806.904	27675
807.046	27964
807.188	27926
807.33	28265
807.472	28375
807.614	28535
807.756	29025
807.898	29345
808.04	29946
808.182	31027
808.324	31940
808.465	33230
808.607	34596
808.749	35771
808.891	36604
809.033	36608
809.174	35764
809.316	34596
809.458	33066
809.6	31818
809.741	30696
809.883	29973
810.025	29410
810.166	28862
810.308	28634
810.45	28344
810.591	28116
810.733	27869
810.875	27564
811.016	27458
811.158	27211
811.299	27458
811.441	27405
811.582	27488
811.724	27226
811.865	27138
812.007	27211
812.148	27066
812.29	27036
812.431	27138
812.573	27157
812.714	27374
812.855	27310
812.997	27408
813.138	27564
813.279	27450
813.421	27359
813.562	27192
813.703	27199
813.845	26929
813.986	26765
814.127	26385
814.268	26309
814.41	26434
814.551	26393
814.692	26339
814.833	26180
814.974	26183
815.115	26191
815.256	26103
815.397	26035
815.539	26103
815.68	25974
815.821	25849
815.962	25955
816.103	25902
816.244	25715
816.385	25772
816.526	25590
816.666	25407
816.807	25274
816.948	25244
817.089	25362
817.23	25327
817.371	25255
817.512	25164
817.653	25141
817.793	25206
817.934	25263
818.075	25190
818.216	25107
818.356	25145
818.497	25019
818.638	24837
818.778	24886
818.919	24989
819.06	24958
819.2	24939
819.341	25266
819.481	25126
819.622	25301
819.762	25400
819.903	25354
820.043	25358
820.184	25251
820.324	25259
820.465	25362
820.605	25103
820.746	25107
820.886	24985
821.026	25114
821.167	25099
821.307	25072
821.447	25012
821.588	25031
821.728	24734
821.868	24486
822.008	24452
822.149	24540
822.289	24407
822.429	24167
822.569	24197
822.709	24155
822.849	23996
822.99	23973
823.13	23847
823.27	23817
823.41	23638
823.55	23577
823.69	23581
823.83	23627
823.97	23668
824.11	23509
824.25	23379
824.389	23490
824.529	23585
824.669	23356
824.809	23535
824.949	23547
825.089	23493
825.228	23425
825.368	23288
825.508	23170
825.648	23318
825.787	23303
825.927	23299
826.067	23159
826.206	23155
826.346	23273
826.485	23162
826.625	23204
826.765	23391
826.904	23204
827.044	22908
827.183	22915
827.323	22858
827.462	22877
827.601	22847
827.741	22900
827.88	22866
828.02	22713
828.159	22866
828.298	22793
828.437	22774
828.577	22702
828.716	22972
828.855	22740
828.994	22607
829.134	22599
829.273	22592
829.412	22424
829.551	22443
829.69	22557
829.829	22546
829.968	22527
830.107	22691
830.246	22561
830.385	22535
830.524	22489
830.663	22215
830.802	22303
830.941	22078
831.08	22067
831.219	22185
831.357	22162
831.496	22413
831.635	22139
831.774	22074
831.913	22032
832.051	21991
832.19	21937
832.329	22036
832.467	21915
832.606	21804
832.744	21835
832.883	21861
833.022	21892
833.16	21899
833.299	21926
833.437	22105
833.576	22051
833.714	22131
833.852	22242
833.991	22344
834.129	22306
834.267	22352
834.406	22082
834.544	22280
834.682	22166
834.821	22074
834.959	22215
835.097	22002
835.235	22067
835.373	21949
835.511	21873
835.65	21633
835.788	21717
835.926	21496
836.064	21473
836.202	21469
836.34	21656
836.478	21747
836.615	21576
836.753	21606
836.891	21690
837.029	21549
837.167	21405
837.305	21515
837.443	21466
837.58	21507
837.718	21515
837.856	21504
837.993	21424
838.131	21431
838.269	21283
838.406	21412
838.544	21214
838.681	21009
838.819	21058
838.956	20891
839.094	20937
839.231	20868
839.369	20990
839.506	21195
839.643	21119
839.781	20857
839.918	20872
840.055	20819
840.193	20864
840.33	20625
840.467	20857
840.604	20845
840.742	21146
840.879	20629
841.016	20663
841.153	20705
841.29	20842
841.427	20655
841.564	20899
841.701	20861
841.838	20720
841.975	20613
842.112	20727
842.249	20560
842.385	20644
842.522	20754
842.659	20686
842.796	20526
842.933	20488
843.069	20549
843.206	20533
843.343	20689
843.479	20651
843.616	20602
843.752	20454
843.889	20351
844.025	20556
844.162	20385
844.298	20598
844.435	20564
844.571	20621
844.708	20842
844.844	21017
844.98	21142
845.117	21389
845.253	21717
845.389	22226
845.525	23710
845.661	26020
845.798	28626
845.934	31023
846.07	31852
846.206	31548
846.342	29794
846.478	26918
846.614	24273
846.75	22573
846.886	21747
847.022	21058
847.158	20735
847.294	20419
847.429	20305
847.565	20122
847.701	20355
847.837	19822
847.972	19700
848.108	19811
848.244	19734
848.379	19502
848.515	19449
848.65	19403
848.786	19495
848.921	19350
849.057	19468
849.192	19502
849.328	19369
849.463	19415
849.598	19346
849.734	19236
849.869	19141
850.004	19065
850.14	19069
850.275	19095
850.41	19084
850.545	19168
850.68	19145
850.815	19012
850.95	19080
851.085	19206
851.22	19145
851.355	19008
851.49	18985
851.625	19031
851.76	18920
851.895	18935
852.03	18939
852.165	18981
852.299	19027
852.434	19122
852.569	19148
852.703	19069
852.838	19152
852.973	19274
853.107	19308
853.242	19050
853.376	19038
853.511	18897
853.645	18939
853.78	19084
853.914	19000
854.048	18951
854.183	18977
854.317	19133
854.451	19266
854.585	19019
854.72	19000
854.854	19031
854.988	18928
855.122	18814
855.256	18825
855.39	18837
855.524	19080
855.658	18905
855.792	19008
855.926	18844
856.06	18973
856.194	19061
856.327	18882
856.461	18875
856.595	18897
856.729	18833
856.862	18951
856.996	18844
857.13	18924
857.263	18897
857.397	18981
857.53	18859
857.664	18825
857.797	18863
857.931	18928
858.064	18814
858.197	18970
858.331	18787
858.464	18726
858.597	18722
858.731	18700
858.864	18738
858.997	18753
859.13	18730
859.263	18806
859.396	18909
859.529	18806
859.662	18741
859.795	18707
859.928	18719
860.061	18840
860.194	18909
860.327	18779
860.46	18707
860.592	18783
860.725	18951
860.858	18817
860.99	18772
861.123	18589
861.256	18738
861.388	18817
861.521	19476
861.653	18623
861.786	18551
861.918	18635
862.05	18730
862.183	18688
862.315	18901
862.447	18806
862.58	18646
862.712	18544
862.844	18574
862.976	18551
863.108	18528
863.24	18802
863.372	18486
863.504	18532
863.636	18502
863.768	18429
863.9	18502
864.032	18391
864.164	18399
864.296	18475
864.428	18490
864.559	18490
864.691	18418
864.823	18445
864.954	18407
865.086	18471
865.217	18311
865.349	18361
865.48	18410
865.612	18388
865.743	18521
865.875	18323
866.006	18308
866.137	18308
866.269	18369
866.4	18372
866.531	18323
866.662	18330
866.793	18323
866.924	18372
867.055	18342
867.186	18315
867.317	18296
867.448	18315
867.579	18270
867.71	18216
867.841	18232
867.972	18372
868.103	18376
868.233	18353
868.364	18334
868.495	18376
868.625	18540
868.756	18711
868.886	18513
869.017	18684
869.147	18719
869.278	18681
869.408	18540
869.539	18517
869.669	18631
869.799	18612
869.929	18711
870.06	18764
870.19	18878
870.32	18947
870.45	18939
870.58	19046
870.71	19122
870.84	19122
870.97	18958
871.1	18833
871.23	19137
871.36	19209
871.489	19069
871.619	19236
871.749	19217
871.879	19293
872.008	19297
872.138	19244
872.267	19095
872.397	19088
872.526	19065
872.656	18932
872.785	19061
872.915	19259
873.044	19293
873.173	19270
873.303	19403
873.432	19445
873.561	19403
873.69	19419
873.819	19312
873.948	19430
874.077	19419
874.206	19373
874.335	19388
874.464	19491
874.593	19685
874.722	19635
874.851	19742
874.979	19757
875.108	19700
875.237	19734
875.365	19776
875.494	19822
875.623	19887
875.751	19822
875.88	19799
876.008	19940
876.136	19868
876.265	20252
876.393	20415
876.521	20278
876.65	20427
876.778	20355
876.906	20347
877.034	20476
877.162	20389
877.29	20469
877.418	20625
877.546	20514
877.674	20571
877.802	20708
877.93	20598
878.058	20750
878.185	20651
878.313	20895
878.441	21032
878.568	21009
878.696	21477
878.824	21713
878.951	22230
879.079	22946
879.206	23843
879.333	24738
879.461	25365
879.588	25951
879.715	25925
879.842	25670
879.97	24764
880.097	23707
880.224	22946
880.351	22554
880.478	22139
880.605	21880
880.732	21797
880.859	21880
880.986	21641
881.112	21507
881.239	21283
881.366	21173
881.493	21230
881.619	21116
881.746	21195
881.872	21176
881.999	21173
882.125	21070
882.252	21154
882.378	21184
882.505	21256
882.631	21100
882.757	21062
882.883	21017
883.01	21028
883.136	20906
883.262	20838
883.388	20811
883.514	21017
883.64	20986
883.766	20746
883.892	20686
884.018	20617
884.143	20956
884.269	21032
884.395	20716
884.52	20659
884.646	20606
884.772	20579
884.897	20541
885.023	20693
885.148	20758
885.274	20739
885.399	20609
885.524	20507
885.65	20454
885.775	20461
885.9	20324
886.025	20343
886.15	20370
886.275	20107
886.4	20153
886.525	20084
886.65	19978
886.775	19841
886.9	19955
887.025	20111
887.149	19871
887.274	19605
887.399	19723
887.523	19491
887.648	19373
887.773	19449
887.897	19575
888.021	19525
888.146	19316
888.27	19464
888.395	19556
888.519	19396
888.643	19426
888.767	19327
888.891	19240
889.015	19027
889.139	19107
889.263	19031
889.387	19145
889.511	19190
889.635	19126
889.759	19088
889.883	19042
890.006	18977
890.13	19057
890.254	18894
890.377	18970
890.501	18608
890.624	18658
890.748	18734
890.871	18574
890.995	18506
891.118	18433
891.241	18486
891.364	18536
891.488	18536
891.611	18456
891.734	18388
891.857	18464
891.98	18414
892.103	18346
892.226	18361
892.349	18376
892.471	18114
892.594	18235
892.717	18239
892.839	18243
892.962	18136
893.085	18346
893.207	18277
893.33	18064
893.452	18159
893.575	18281
893.697	18239
893.819	18353
893.941	18399
894.064	18315
894.186	18076
894.308	17893
894.43	18277
894.552	18235
894.674	18277
894.796	18076
894.918	18121
895.04	18057
895.161	18155
895.283	18026
895.405	18015
895.526	17999
895.648	18076
895.769	18110
895.891	18136
896.012	18159
896.134	18155
896.255	18159
896.376	18102
896.498	18140
896.619	18194
896.74	18068
896.861	18266
896.982	18388
897.103	18627
897.224	18448
897.345	18289
897.466	18262
897.587	18266
897.708	18448
897.828	18308
897.949	18270
898.07	18095
898.19	18350
898.311	18342
898.431	18273
898.552	18205
898.672	18467
898.792	18315
898.913	18315
899.033	18258
899.153	18133
899.273	18129
899.393	18125
899.513	18083
899.633	17996
899.753	18182
899.873	18041
899.993	18011
900.113	18079
900.232	18136
900.352	18106
900.472	17950
900.591	17843
900.711	17897
900.83	17851
900.95	18079
901.069	17984
901.189	17908
901.308	17665
901.427	17543
901.546	17455
901.665	17516
901.784	17562
901.904	17337
902.023	17239
902.141	17094
902.26	16980
902.379	17086
902.498	16953
902.617	16968
902.735	17018
902.854	17064
902.973	16885
903.091	16839
903.21	16599
903.328	16645
903.446	16645
903.565	16561
903.683	16516
903.801	16405
903.919	16455
904.038	16405
904.156	16166
904.274	16303
904.392	16215
904.51	16223
904.627	16291
904.745	16295
904.863	16215
904.981	16048
905.098	15903
905.216	15854
905.334	15888
905.451	15842
905.569	15819
905.686	15975
905.803	15827
905.921	15641
906.038	15804
906.155	15690
906.272	15610
906.389	15580
906.506	15386
906.623	15447
906.74	15348
906.857	15310
906.974	15294
907.091	15306
907.208	15454
907.324	15386
907.441	15291
907.557	15116
907.674	15157
907.79	15032
907.907	15051
908.023	15100
908.139	15070
908.256	15017
908.372	14941
908.488	15013
908.604	14842
908.72	14727
908.836	14868
908.952	14788
909.068	14765
909.184	14796
909.3	14697
909.415	14899
909.531	14724
909.647	14499
909.762	14488
909.878	14488
909.993	14571
910.108	14457
910.224	14476
910.339	14469
910.454	14366
910.57	14351
910.685	14229
910.8	14613
910.915	14530
911.03	14385
911.145	14225
911.259	14202
911.374	14164
911.489	13986
911.604	14077
911.718	13890
911.833	13947
911.947	13784
912.062	13803
912.176	13894
912.291	13909
912.405	13868
912.519	14020
912.633	14092
912.748	13936
912.862	13822
912.976	13685
913.09	13529
913.204	13719
913.318	13708
913.431	13795
913.545	13799
913.659	13871
913.772	13613
913.886	13597
914	13518
914.113	13628
914.226	13582
914.34	13681
914.453	13430
914.566	13613
914.68	13529
914.793	13480
914.906	13266
915.019	13259
915.132	13282
915.245	13244
915.358	13255
915.47	13293
915.583	13285
915.696	13274
915.809	13369
915.921	13449
916.034	13110
916.146	13103
916.259	13187
916.371	13217
916.483	13217
916.595	13091
916.708	13149
916.82	13057
916.932	13114
917.044	13099
917.156	13065
917.268	13072
917.38	12966
917.491	12894
917.603	12935
917.715	12970
917.826	13008
917.938	12966
918.049	12852
918.161	13000
918.272	13008
918.384	13072
918.495	12837
918.606	12825
918.717	12646
918.828	12768
918.939	12738
919.05	12559
919.161	12753
919.272	12521
919.383	12544
919.494	12696
919.604	12924
919.715	12738
919.826	12692
919.936	12642
920.047	12833
920.157	12681
920.267	12901
920.378	12741
920.488	12692
920.598	12825
920.708	12954
920.818	12821
920.928	12905
921.038	12973
921.148	13000
921.258	12665
921.368	12639
921.477	12418
921.587	12486
921.697	12304
921.806	12502
921.916	12296
922.025	12114
922.134	12072
922.244	12076
922.353	12140
922.462	11996
922.571	11999
922.68	11813
922.789	11786
922.898	11809
923.007	11794
923.116	11786
923.224	11726
923.333	11653
923.442	11592
923.55	11615
923.659	11729
923.767	11680
923.876	11566
923.984	11661
924.092	11505
924.201	11592
924.309	11532
924.417	11528
924.525	11474
924.633	11471
924.741	12254
924.849	11341
924.956	11448
925.064	11421
925.172	11193
925.279	11303
925.387	11368
925.494	11296
925.602	11425
925.709	11410
925.816	11235
925.924	11326
926.031	11250
926.138	11227
926.245	11280
926.352	11212
926.459	11246
926.566	11341
926.673	11193
926.779	11064
926.886	11105
926.993	10900
927.099	10911
927.206	10930
927.312	10896
927.419	11006
927.525	10869
927.631	10968
927.737	10793
927.843	10721
927.95	10717
928.056	10828
928.162	10816
928.267	10835
928.373	11296
928.479	10877
928.585	10630
928.69	10721
928.796	10714
928.901	10698
929.007	10508
929.112	10725
929.218	10645
929.323	10592
929.428	10558
929.533	10626
929.638	10428
929.743	10550
929.848	10554
929.953	10470
930.058	10390
930.163	10219
930.267	10360
930.372	10314
930.477	10223
930.581	10481
930.685	10329
930.79	10120
930.894	10139
930.998	10128
931.103	10265
931.207	9835
931.311	9865
931.415	9785
931.519	9641
931.623	9587
