Data from test_V78500241_157.txt Node
Date: Fri Mar 25 14:34:49 CST 2022
User: usil
Spectrometer: V785-0024
Trigger mode: 0
Integration Time (sec): 4.000000E-1
Scans to average: 1
Nonlinearity correction enabled: false
Boxcar width: 0
Storing dark spectrum: false
XAxis mode: Wavelengths
Number of Pixels in Spectrum: 1024
>>>>>Begin Spectral Data<<<<<
801.071	29341
801.214	29391
801.356	29060
801.499	28999
801.641	28927
801.783	28862
801.926	28965
802.068	28771
802.211	28923
802.353	28656
802.496	28497
802.638	28371
802.78	28451
802.923	28417
803.065	28367
803.208	28276
803.35	28405
803.492	28508
803.635	28580
803.777	28428
803.919	28542
804.061	28919
804.204	28508
804.346	28417
804.488	28485
804.63	28599
804.773	28447
804.915	28489
805.057	28645
805.199	28497
805.341	28592
805.483	28839
805.626	28691
805.768	28664
805.91	28698
806.052	28755
806.194	28748
806.336	28930
806.478	28869
806.62	28915
806.762	28999
806.904	29277
807.046	29531
807.188	29516
807.33	29752
807.472	29939
807.614	30114
807.756	30216
807.898	30460
808.04	30696
808.182	31396
808.324	31845
808.465	32552
808.607	33534
808.749	34382
808.891	34786
809.033	34820
809.174	34196
809.316	33679
809.458	32720
809.6	31837
809.741	31381
809.883	30916
810.025	30661
810.166	30323
810.308	30133
810.45	29992
810.591	29745
810.733	29722
810.875	29615
811.016	29105
811.158	29162
811.299	29337
811.441	29227
811.582	29379
811.724	29090
811.865	29052
812.007	29113
812.148	29003
812.29	29124
812.431	29159
812.573	29315
812.714	29406
812.855	29410
812.997	29433
813.138	29680
813.279	29505
813.421	29375
813.562	29440
813.703	29273
813.845	29083
813.986	28790
814.127	28565
814.268	28672
814.41	28615
814.551	28455
814.692	28500
814.833	28493
814.974	28375
815.115	28474
815.256	28344
815.397	28478
815.539	28192
815.68	28112
815.821	27941
815.962	28226
816.103	28109
816.244	28040
816.385	27930
816.526	27911
816.666	27534
816.807	27686
816.948	27629
817.089	27538
817.23	27515
817.371	27507
817.512	27412
817.653	27416
817.793	27302
817.934	27401
818.075	27431
818.216	27397
818.356	27374
818.497	27252
818.638	27199
818.778	27211
818.919	27264
819.06	27230
819.2	27233
819.341	27412
819.481	27462
819.622	27515
819.762	27599
819.903	27538
820.043	27606
820.184	27405
820.324	27351
820.465	27401
820.605	27454
820.746	27519
820.886	27306
821.026	27298
821.167	27310
821.307	27427
821.447	27348
821.588	27218
821.728	27032
821.868	26842
822.008	26762
822.149	26678
822.289	26648
822.429	26328
822.569	26404
822.709	26336
822.849	26115
822.99	26153
823.13	26107
823.27	26024
823.41	25982
823.55	25868
823.69	26031
823.83	25944
823.97	25868
824.11	25871
824.25	25715
824.389	25757
824.529	25902
824.669	25639
824.809	25830
824.949	25799
825.089	25879
825.228	25826
825.368	25472
825.508	25548
825.648	25506
825.787	25548
825.927	25510
826.067	25529
826.206	25518
826.346	25556
826.485	25483
826.625	25575
826.765	25704
826.904	25491
827.044	25259
827.183	25217
827.323	25202
827.462	25228
827.601	25217
827.741	25175
827.88	25217
828.02	25110
828.159	25148
828.298	25228
828.437	25247
828.577	25114
828.716	25225
828.855	25103
828.994	25046
829.134	24875
829.273	24867
829.412	24779
829.551	24692
829.69	24760
829.829	24863
829.968	24958
830.107	24932
830.246	24817
830.385	24844
830.524	24570
830.663	24658
830.802	24517
830.941	24395
831.08	24410
831.219	24441
831.357	24452
831.496	24570
831.635	24483
831.774	24403
831.913	24350
832.051	24178
832.19	24178
832.329	24163
832.467	24182
832.606	24015
832.744	24079
832.883	24148
833.022	24174
833.16	24007
833.299	24281
833.437	24015
833.576	24247
833.714	24327
833.852	24388
833.991	24384
834.129	24376
834.267	24429
834.406	24361
834.544	24456
834.682	24239
834.821	24224
834.959	24330
835.097	24095
835.235	24296
835.373	24133
835.511	24129
835.65	24015
835.788	23908
835.926	23817
836.064	23672
836.202	23767
836.34	23851
836.478	23988
836.615	23866
836.753	23851
836.891	23950
837.029	23935
837.167	23775
837.305	23741
837.443	23733
837.58	23691
837.718	23687
837.856	23714
837.993	23649
838.131	23531
838.269	23516
838.406	23539
838.544	23455
838.681	23326
838.819	23273
838.956	23052
839.094	23105
839.231	23113
839.369	23143
839.506	23471
839.643	23303
839.781	22995
839.918	22949
840.055	22930
840.193	23048
840.33	22927
840.467	22820
840.604	22953
840.742	23162
840.879	22801
841.016	22778
841.153	22790
841.29	22911
841.427	22793
841.564	22915
841.701	22949
841.838	22919
841.975	22835
842.112	22869
842.249	22748
842.385	22603
842.522	22831
842.659	22679
842.796	22584
842.933	22660
843.069	22554
843.206	22656
843.343	22801
843.479	22706
843.616	22565
843.752	22436
843.889	22481
844.025	22691
844.162	22440
844.298	22645
844.435	22527
844.571	22447
844.708	22481
844.844	22881
844.98	22934
845.117	23071
845.253	23071
845.389	23570
845.525	24350
845.661	25681
845.798	27150
845.934	28615
846.07	29193
846.206	28911
846.342	28128
846.478	26305
846.614	24639
846.75	23615
846.886	22889
847.022	22618
847.158	22242
847.294	22268
847.429	21979
847.565	21827
847.701	22188
847.837	21759
847.972	21572
848.108	21679
848.244	21530
848.379	21325
848.515	21344
848.65	21317
848.786	21389
848.921	21420
849.057	21477
849.192	21466
849.328	21454
849.463	21317
849.598	21405
849.734	21298
849.869	21256
850.004	21146
850.14	21142
850.275	21138
850.41	21047
850.545	21020
850.68	20982
850.815	21214
850.95	21100
851.085	21230
851.22	21176
851.355	21085
851.49	21001
851.625	21039
851.76	21005
851.895	20990
852.03	20986
852.165	21077
852.299	21154
852.434	21260
852.569	21108
852.703	21036
852.838	21169
852.973	21252
853.107	21188
853.242	21146
853.376	21028
853.511	20868
853.645	20929
853.78	21104
853.914	20967
854.048	20910
854.183	20899
854.317	20948
854.451	21085
854.585	20902
854.72	20941
854.854	21077
854.988	20929
855.122	20944
855.256	20781
855.39	20971
855.524	20994
855.658	20883
855.792	20941
855.926	20941
856.06	20902
856.194	20960
856.327	20876
856.461	20853
856.595	20861
856.729	20845
856.862	20925
856.996	20857
857.13	20864
857.263	21001
857.397	20921
857.53	20845
857.664	20807
857.797	20887
857.931	20941
858.064	20921
858.197	20910
858.331	20883
858.464	20697
858.597	20648
858.731	20804
858.864	20785
858.997	20746
859.13	20883
859.263	20861
859.396	20800
859.529	20796
859.662	20705
859.795	20640
859.928	20724
860.061	20853
860.194	20948
860.327	20910
860.46	20739
860.592	20849
860.725	20891
860.858	20887
860.99	20686
861.123	20678
861.256	20735
861.388	20739
861.521	21450
861.653	20571
861.786	20461
861.918	20617
862.05	20754
862.183	20956
862.315	20804
862.447	20861
862.58	20777
862.712	20541
862.844	20400
862.976	20556
863.108	20530
863.24	20899
863.372	20465
863.504	20389
863.636	20278
863.768	20457
863.9	20473
864.032	20385
864.164	20396
864.296	20480
864.428	20617
864.559	20511
864.691	20450
864.823	20313
864.954	20396
865.086	20476
865.217	20400
865.349	20358
865.48	20366
865.612	20324
865.743	20571
865.875	20355
866.006	20343
866.137	20317
866.269	20294
866.4	20286
866.531	20278
866.662	20195
866.793	20221
866.924	20282
867.055	20396
867.186	20415
867.317	20202
867.448	20199
867.579	20317
867.71	20115
867.841	20240
867.972	20267
868.103	20256
868.233	20259
868.364	20290
868.495	20370
868.625	20545
868.756	20594
868.886	20419
869.017	20530
869.147	20530
869.278	20598
869.408	20549
869.539	20442
869.669	20575
869.799	20530
869.929	20716
870.06	20625
870.19	20880
870.32	20807
870.45	20796
870.58	20963
870.71	21024
870.84	20921
870.97	20891
871.1	20830
871.23	20967
871.36	21085
871.489	20933
871.619	21116
871.749	21146
871.879	21108
872.008	21317
872.138	21169
872.267	21165
872.397	21005
872.526	21020
872.656	21024
872.785	20921
872.915	21112
873.044	21317
873.173	21199
873.303	21157
873.432	21226
873.561	21268
873.69	21222
873.819	21218
873.948	21393
874.077	21268
874.206	21317
874.335	21165
874.464	21378
874.593	21561
874.722	21488
874.851	21466
874.979	21534
875.108	21507
875.237	21397
875.365	21469
875.494	21599
875.623	21724
875.751	21549
875.88	21606
876.008	21850
876.136	21743
876.265	21983
876.393	22147
876.521	22120
876.65	22040
876.778	22166
876.906	22147
877.034	21907
877.162	22059
877.29	22158
877.418	22120
877.546	22356
877.674	22211
877.802	22200
877.93	22150
878.058	22215
878.185	22158
878.313	22394
878.441	22440
878.568	22276
878.696	22672
878.824	22869
878.951	23185
879.079	23573
879.206	24258
879.333	24688
879.461	24973
879.588	25453
879.715	25460
879.842	25320
879.97	24741
880.097	23999
880.224	23531
880.351	23326
880.478	22968
880.605	22877
880.732	22812
880.859	22927
880.986	22698
881.112	22630
881.239	22573
881.366	22382
881.493	22261
881.619	22211
881.746	22253
881.872	22200
881.999	22188
882.125	22101
882.252	22291
882.378	22238
882.505	22306
882.631	22112
882.757	22070
882.883	22082
883.01	22090
883.136	21930
883.262	22029
883.388	21800
883.514	22063
883.64	21972
883.766	21926
883.892	21846
884.018	21873
884.143	21930
884.269	21968
884.395	21701
884.52	21644
884.646	21583
884.772	21576
884.897	21637
885.023	21629
885.148	21732
885.274	21812
885.399	21603
885.524	21610
885.65	21599
885.775	21530
885.9	21561
886.025	21507
886.15	21458
886.275	21310
886.4	21275
886.525	21351
886.65	21192
886.775	21188
886.9	21355
887.025	21511
887.149	21119
887.274	20971
887.399	20925
887.523	20845
887.648	20807
887.773	20781
887.897	20906
888.021	20864
888.146	20746
888.27	20948
888.395	20849
888.519	20754
888.643	20887
888.767	20796
888.891	20693
889.015	20613
889.139	20533
889.263	20412
889.387	20659
889.511	20644
889.635	20568
889.759	20480
889.883	20442
890.006	20408
890.13	20461
890.254	20317
890.377	20362
890.501	20149
890.624	20119
890.748	20142
890.871	20122
890.995	19986
891.118	19928
891.241	20054
891.364	19928
891.488	20027
891.611	19902
891.734	19936
891.857	20069
891.98	20088
892.103	20043
892.226	19879
892.349	19852
892.471	19715
892.594	19765
892.717	19780
892.839	19811
892.962	19822
893.085	19795
893.207	19776
893.33	19734
893.452	19738
893.575	19742
893.697	19693
893.819	19799
893.941	19868
894.064	19738
894.186	19685
894.308	19651
894.43	19738
894.552	19719
894.674	19811
894.796	19563
894.918	19620
895.04	19540
895.161	19746
895.283	19769
895.405	19655
895.526	19635
895.648	19529
895.769	19666
895.891	19662
896.012	19696
896.134	19655
896.255	19689
896.376	19594
896.498	19772
896.619	19715
896.74	19655
896.861	19746
896.982	20001
897.103	20145
897.224	20058
897.345	19967
897.466	19928
897.587	19875
897.708	20012
897.828	19928
897.949	19902
898.07	19708
898.19	19769
898.311	19898
898.431	19925
898.552	19845
898.672	19974
898.792	20005
898.913	19807
899.033	19712
899.153	19651
899.273	19605
899.393	19624
899.513	19624
899.633	19624
899.753	19674
899.873	19483
899.993	19609
900.113	19628
900.232	19594
900.352	19582
900.472	19365
900.591	19415
900.711	19400
900.83	19312
900.95	19483
901.069	19594
901.189	19289
901.308	19050
901.427	19012
901.546	18901
901.665	19057
901.784	19034
901.904	18760
902.023	18688
902.141	18559
902.26	18585
902.379	18623
902.498	18479
902.617	18452
902.735	18494
902.854	18304
902.973	18437
903.091	18114
903.21	18117
903.328	18152
903.446	18019
903.565	17984
903.683	18007
903.801	17817
903.919	17897
904.038	17980
904.156	17779
904.274	17672
904.392	17611
904.51	17707
904.627	17577
904.745	17661
904.863	17733
904.981	17433
905.098	17353
905.216	17239
905.334	17303
905.451	17261
905.569	17265
905.686	17280
905.803	17246
905.921	17090
906.038	17151
906.155	17174
906.272	17033
906.389	16965
906.506	16877
906.623	16908
906.74	16748
906.857	16653
906.974	16740
907.091	16786
907.208	16930
907.324	16812
907.441	16713
907.557	16577
907.674	16538
907.79	16485
907.907	16356
908.023	16538
908.139	16421
908.256	16413
908.372	16303
908.488	16405
908.604	16158
908.72	16154
908.836	16154
908.952	16143
909.068	16226
909.184	16249
909.3	16139
909.415	16192
909.531	16120
909.647	15876
909.762	15861
909.878	15785
909.993	15899
910.108	15827
910.224	15816
910.339	15816
910.454	15789
910.57	15732
910.685	15576
910.8	15949
910.915	15838
911.03	15610
911.145	15511
911.259	15397
911.374	15500
911.489	15469
911.604	15389
911.718	15264
911.833	15218
911.947	15116
912.062	15058
912.176	15180
912.291	15245
912.405	15199
912.519	15344
912.633	15363
912.748	15233
912.862	15093
912.976	15062
913.09	14887
913.204	14994
913.318	14948
913.431	15055
913.545	15047
913.659	15051
913.772	15005
913.886	14880
914	14811
914.113	14918
914.226	14960
914.34	14868
914.453	14659
914.566	14876
914.68	14785
914.793	14693
914.906	14499
915.019	14434
915.132	14366
915.245	14503
915.358	14571
915.47	14419
915.583	14450
915.696	14427
915.809	14610
915.921	14549
916.034	14511
916.146	14332
916.259	14358
916.371	14438
916.483	14442
916.595	14374
916.708	14332
916.82	14301
916.932	14358
917.044	14294
917.156	14347
917.268	14240
917.38	14176
917.491	14145
917.603	14142
917.715	14221
917.826	14149
917.938	14088
918.049	13921
918.161	13986
918.272	14172
918.384	14168
918.495	14069
918.606	14050
918.717	13898
918.828	13826
918.939	13959
919.05	13658
919.161	13807
919.272	13616
919.383	13723
919.494	13875
919.604	14001
919.715	13860
919.826	13780
919.936	13811
920.047	13898
920.157	13791
920.267	14046
920.378	13788
920.488	13757
920.598	13951
920.708	14062
920.818	13936
920.928	13887
921.038	14164
921.148	14016
921.258	13712
921.368	13670
921.477	13559
921.587	13525
921.697	13495
921.806	13540
921.916	13411
922.025	13232
922.134	13183
922.244	13149
922.353	13255
922.462	13114
922.571	13053
922.68	12951
922.789	12817
922.898	12878
923.007	12825
923.116	12791
923.224	12848
923.333	12760
923.442	12696
923.55	12566
923.659	12703
923.767	12753
923.876	12646
923.984	12646
924.092	12639
924.201	12555
924.309	12642
924.417	12608
924.525	12620
924.633	12570
924.741	13449
924.849	12445
924.956	12456
925.064	12350
925.172	12235
925.279	12308
925.387	12258
925.494	12395
925.602	12422
925.709	12384
925.816	12171
925.924	12251
926.031	12342
926.138	12163
926.245	12300
926.352	12178
926.459	12273
926.566	12304
926.673	12114
926.779	12087
926.886	12087
926.993	11954
927.099	11870
927.206	11863
927.312	11912
927.419	11863
927.525	11817
927.631	11882
927.737	11794
927.843	11771
927.95	11707
928.056	11657
928.162	11729
928.267	11840
928.373	12209
928.479	11783
928.585	11547
928.69	11714
928.796	11649
928.901	11596
929.007	11444
929.112	11630
929.218	11539
929.323	11558
929.428	11471
929.533	11482
929.638	11398
929.743	11493
929.848	11471
929.953	11433
930.058	11315
930.163	11170
930.267	11204
930.372	11201
930.477	11159
930.581	11406
930.685	11220
930.79	11018
930.894	11010
930.998	11083
931.103	11090
931.207	10797
931.311	10664
931.415	10592
931.519	10443
931.623	10459
