Data from test_V78500241_3034.txt Node
Date: Fri Mar 25 14:54:50 CST 2022
User: usil
Spectrometer: V785-0024
Trigger mode: 0
Integration Time (sec): 4.000000E-1
Scans to average: 1
Nonlinearity correction enabled: false
Boxcar width: 0
Storing dark spectrum: false
XAxis mode: Wavelengths
Number of Pixels in Spectrum: 1024
>>>>>Begin Spectral Data<<<<<
801.071	22169
801.214	22112
801.356	21819
801.499	21595
801.641	21542
801.783	21458
801.926	21507
802.068	21397
802.211	21336
802.353	21279
802.496	21020
802.638	21055
802.78	20861
802.923	20815
803.065	20838
803.208	20609
803.35	20819
803.492	20895
803.635	20769
803.777	20967
803.919	20830
804.061	21180
804.204	20823
804.346	20750
804.488	20648
804.63	20750
804.773	20674
804.915	20773
805.057	20777
805.199	20792
805.341	20796
805.483	20933
805.626	20659
805.768	20785
805.91	20629
806.052	20739
806.194	20724
806.336	20902
806.478	20697
806.62	20697
806.762	20762
806.904	20925
807.046	21184
807.188	21150
807.33	21154
807.472	21203
807.614	21013
807.756	21058
807.898	20952
808.04	20853
808.182	20727
808.324	20785
808.465	20842
808.607	21017
808.749	21230
808.891	21199
809.033	21233
809.174	21100
809.316	21127
809.458	21123
809.6	21077
809.741	21157
809.883	21013
810.025	21302
810.166	21344
810.308	21302
810.45	21249
810.591	21135
810.733	20956
810.875	20918
811.016	20796
811.158	20823
811.299	20906
811.441	20933
811.582	20941
811.724	20906
811.865	20883
812.007	20838
812.148	20807
812.29	20849
812.431	21017
812.573	21218
812.714	21268
812.855	21378
812.997	21420
813.138	21572
813.279	21561
813.421	21291
813.562	21279
813.703	21165
813.845	20979
813.986	20796
814.127	20686
814.268	20461
814.41	20446
814.551	20446
814.692	20415
814.833	20396
814.974	20400
815.115	20454
815.256	20256
815.397	20343
815.539	20305
815.68	20259
815.821	20001
815.962	20225
816.103	20138
816.244	19967
816.385	19814
816.526	19871
816.666	19674
816.807	19624
816.948	19594
817.089	19719
817.23	19655
817.371	19525
817.512	19506
817.653	19499
817.793	19411
817.934	19567
818.075	19563
818.216	19624
818.356	19346
818.497	19369
818.638	19194
818.778	19274
818.919	19247
819.06	19198
819.2	19362
819.341	19392
819.481	19392
819.622	19609
819.762	19670
819.903	19746
820.043	19575
820.184	19480
820.324	19518
820.465	19620
820.605	19502
820.746	19392
820.886	19422
821.026	19525
821.167	19457
821.307	19548
821.447	19434
821.588	19354
821.728	19206
821.868	19168
822.008	18966
822.149	19004
822.289	18920
822.429	18726
822.569	18703
822.709	18563
822.849	18429
822.99	18422
823.13	18308
823.27	18319
823.41	18182
823.55	18140
823.69	18136
823.83	18258
823.97	18232
824.11	18011
824.25	17920
824.389	18030
824.529	18015
824.669	18045
824.809	18125
824.949	18041
825.089	18060
825.228	17977
825.368	17878
825.508	17767
825.648	17726
825.787	17908
825.927	17760
826.067	17661
826.206	17779
826.346	17775
826.485	17775
826.625	17821
826.765	17882
826.904	17851
827.044	17665
827.183	17509
827.323	17402
827.462	17444
827.601	17566
827.741	17429
827.88	17376
828.02	17284
828.159	17258
828.298	17486
828.437	17463
828.577	17455
828.716	17490
828.855	17364
828.994	17181
829.134	17105
829.273	17242
829.412	17143
829.551	17178
829.69	17239
829.829	17113
829.968	17220
830.107	17178
830.246	17170
830.385	17140
830.524	17178
830.663	16896
830.802	16976
830.941	16782
831.08	16896
831.219	16873
831.357	16839
831.496	17006
831.635	16809
831.774	16706
831.913	16649
832.051	16622
832.19	16599
832.329	16565
832.467	16519
832.606	16409
832.744	16485
832.883	16508
833.022	16386
833.16	16554
833.299	16481
833.437	16679
833.576	16519
833.714	16440
833.852	16580
833.991	16508
834.129	16584
834.267	16679
834.406	16535
834.544	16622
834.682	16546
834.821	16470
834.959	16740
835.097	16500
835.235	16668
835.373	16432
835.511	16527
835.65	16413
835.788	16318
835.926	16306
836.064	16185
836.202	16246
836.34	16481
836.478	16519
836.615	16333
836.753	16481
836.891	16485
837.029	16478
837.167	16394
837.305	16382
837.443	16284
837.58	16154
837.718	16352
837.856	16295
837.993	16238
838.131	16344
838.269	16219
838.406	16253
838.544	16150
838.681	16055
838.819	15960
838.956	15819
839.094	15823
839.231	15918
839.369	16036
839.506	16348
839.643	16150
839.781	15911
839.918	15869
840.055	15876
840.193	15876
840.33	15865
840.467	15823
840.604	15880
840.742	16010
840.879	15739
841.016	15728
841.153	15675
841.29	15888
841.427	15907
841.564	15804
841.701	15884
841.838	15774
841.975	15686
842.112	15800
842.249	15534
842.385	15584
842.522	15705
842.659	15644
842.796	15652
842.933	15523
843.069	15584
843.206	15603
843.343	15800
843.479	15618
843.616	15618
843.752	15367
843.889	15344
844.025	15553
844.162	15359
844.298	15466
844.435	15408
844.571	15287
844.708	15481
844.844	15599
844.98	15511
845.117	15530
845.253	15310
845.389	15325
845.525	15367
845.661	15306
845.798	15207
845.934	15233
846.07	15104
846.206	15363
846.342	15287
846.478	15230
846.614	15066
846.75	14925
846.886	14952
847.022	15017
847.158	14921
847.294	15013
847.429	15097
847.565	14925
847.701	15161
847.837	14697
847.972	14735
848.108	14845
848.244	14762
848.379	14590
848.515	14537
848.65	14598
848.786	14484
848.921	14625
849.057	14636
849.192	14598
849.328	14636
849.463	14526
849.598	14488
849.734	14461
849.869	14396
850.004	14366
850.14	14343
850.275	14305
850.41	14290
850.545	14206
850.68	14218
850.815	14355
850.95	14408
851.085	14473
851.22	14461
851.355	14328
851.49	14294
851.625	14214
851.76	14351
851.895	14278
852.03	14126
852.165	14267
852.299	14271
852.434	14301
852.569	14282
852.703	14374
852.838	14320
852.973	14442
853.107	14419
853.242	14107
853.376	14199
853.511	14062
853.645	14119
853.78	14427
853.914	14134
854.048	14240
854.183	14134
854.317	14199
854.451	14339
854.585	14142
854.72	14180
854.854	14221
854.988	14058
855.122	14088
855.256	14020
855.39	14096
855.524	14237
855.658	14225
855.792	14240
855.926	14138
856.06	14225
856.194	14290
856.327	14142
856.461	14084
856.595	14149
856.729	14126
856.862	14351
856.996	14210
857.13	14244
857.263	14282
857.397	14370
857.53	14263
857.664	14168
857.797	14343
857.931	14351
858.064	14195
858.197	14290
858.331	14225
858.464	14161
858.597	14123
858.731	14145
858.864	14252
858.997	14142
859.13	14183
859.263	14214
859.396	14336
859.529	14142
859.662	14157
859.795	14088
859.928	14180
860.061	14339
860.194	14347
860.327	14225
860.46	14275
860.592	14328
860.725	14294
860.858	14320
860.99	14237
861.123	14020
861.256	14126
861.388	14157
861.521	14914
861.653	14016
861.786	14031
861.918	14149
862.05	14107
862.183	14107
862.315	14183
862.447	14256
862.58	14161
862.712	13890
862.844	13944
862.976	14031
863.108	14039
863.24	14503
863.372	13856
863.504	13967
863.636	14016
863.768	13993
863.9	13986
864.032	13856
864.164	13917
864.296	14020
864.428	14130
864.559	14096
864.691	14054
864.823	14046
864.954	14024
865.086	14039
865.217	13879
865.349	13902
865.48	13959
865.612	14054
865.743	14107
865.875	13970
866.006	13989
866.137	13909
866.269	13875
866.4	14016
866.531	13864
866.662	13837
866.793	13997
866.924	13902
867.055	13993
867.186	13902
867.317	13932
867.448	13864
867.579	13780
867.71	13890
867.841	13974
867.972	13947
868.103	13917
868.233	13906
868.364	14005
868.495	14005
868.625	14191
868.756	14225
868.886	13989
869.017	14202
869.147	14324
869.278	14252
869.408	14130
869.539	14180
869.669	14221
869.799	14210
869.929	14385
870.06	14271
870.19	14499
870.32	14473
870.45	14560
870.58	14568
870.71	14731
870.84	14750
870.97	14640
871.1	14511
871.23	14834
871.36	14758
871.489	14655
871.619	14663
871.749	14804
871.879	14883
872.008	14864
872.138	14868
872.267	14823
872.397	14644
872.526	14568
872.656	14602
872.785	14590
872.915	14929
873.044	14910
873.173	14891
873.303	14967
873.432	14750
873.561	14921
873.69	14834
873.819	14887
873.948	14887
874.077	14754
874.206	14788
874.335	14906
874.464	14998
874.593	15146
874.722	15062
874.851	15157
874.979	15203
875.108	15237
875.237	15081
875.365	15119
875.494	15207
875.623	15317
875.751	15146
875.88	15062
876.008	15382
876.136	15466
876.265	15553
876.393	15770
876.521	15701
876.65	15625
876.778	15599
876.906	15530
877.034	15549
877.162	15614
877.29	15488
877.418	15587
877.546	15682
877.674	15564
877.802	15641
877.93	15568
878.058	15591
878.185	15447
878.313	15580
878.441	15553
878.568	15435
878.696	15515
878.824	15595
878.951	15606
879.079	15743
879.206	15876
879.333	15736
879.461	15614
879.588	15606
879.715	15785
879.842	15778
879.97	15610
880.097	15431
880.224	15416
880.351	15389
880.478	15469
880.605	15370
880.732	15264
880.859	15690
880.986	15488
881.112	15412
881.239	15317
881.366	15294
881.493	15169
881.619	15001
881.746	15184
881.872	15112
881.999	15039
882.125	15013
882.252	15161
882.378	15180
882.505	15123
882.631	15081
882.757	15017
882.883	15039
883.01	14914
883.136	14861
883.262	14781
883.388	14678
883.514	15020
883.64	15009
883.766	14826
883.892	14678
884.018	14765
884.143	14899
884.269	15013
884.395	14739
884.52	14537
884.646	14670
884.772	14541
884.897	14556
885.023	14533
885.148	14712
885.274	14842
885.399	14739
885.524	14636
885.65	14670
885.775	14697
885.9	14629
886.025	14708
886.15	14750
886.275	14610
886.4	14560
886.525	14495
886.65	14511
886.775	14583
886.9	14686
887.025	14876
887.149	14613
887.274	14476
887.399	14366
887.523	14377
887.648	14374
887.773	14347
887.897	14454
888.021	14537
888.146	14366
888.27	14541
888.395	14556
888.519	14503
888.643	14476
888.767	14492
888.891	14457
889.015	14229
889.139	14355
889.263	14229
889.387	14503
889.511	14484
889.635	14454
889.759	14343
889.883	14290
890.006	14339
890.13	14332
890.254	14168
890.377	14248
890.501	14123
890.624	14115
890.748	14088
890.871	14126
890.995	14001
891.118	13909
891.241	13944
891.364	13986
891.488	14183
891.611	13940
891.734	14069
891.857	14092
891.98	14050
892.103	14111
892.226	14084
892.349	13944
892.471	13807
892.594	14050
892.717	14043
892.839	14005
892.962	14062
893.085	14069
893.207	14005
893.33	13833
893.452	13928
893.575	14073
893.697	14016
893.819	14115
893.941	14320
894.064	14100
894.186	14020
894.308	13906
894.43	14123
894.552	14202
894.674	14088
894.796	13967
894.918	14081
895.04	14069
895.161	14187
895.283	14096
895.405	14046
895.526	14130
895.648	14134
895.769	14225
895.891	14111
896.012	14195
896.134	14233
896.255	14191
896.376	14225
896.498	14180
896.619	14248
896.74	14221
896.861	14252
896.982	14518
897.103	14689
897.224	14484
897.345	14362
897.466	14404
897.587	14442
897.708	14590
897.828	14575
897.949	14541
898.07	14298
898.19	14473
898.311	14568
898.431	14450
898.552	14556
898.672	14678
898.792	14651
898.913	14587
899.033	14434
899.153	14427
899.273	14343
899.393	14381
899.513	14400
899.633	14385
899.753	14385
899.873	14396
899.993	14461
900.113	14427
900.232	14514
900.352	14434
900.472	14313
900.591	14233
900.711	14263
900.83	14221
900.95	14362
901.069	14313
901.189	14145
901.308	14058
901.427	13879
901.546	14039
901.665	13963
901.784	14001
901.904	13864
902.023	13750
902.141	13540
902.26	13506
902.379	13552
902.498	13537
902.617	13495
902.735	13556
902.854	13544
902.973	13540
903.091	13263
903.21	13221
903.328	13289
903.446	13221
903.565	13019
903.683	13175
903.801	13034
903.919	13046
904.038	13042
904.156	12985
904.274	13023
904.392	12859
904.51	12886
904.627	12970
904.745	12890
904.863	12878
904.981	12703
905.098	12646
905.216	12631
905.334	12650
905.451	12677
905.569	12631
905.686	12669
905.803	12563
905.921	12445
906.038	12616
906.155	12403
906.272	12391
906.389	12296
906.506	12205
906.623	12163
906.74	12125
906.857	12053
906.974	12076
907.091	12266
907.208	12315
907.324	12186
907.441	12091
907.557	11961
907.674	11885
907.79	11908
907.907	11904
908.023	12038
908.139	11931
908.256	11912
908.372	11828
908.488	11859
908.604	11779
908.72	11688
908.836	11764
908.952	11630
909.068	11695
909.184	11748
909.3	11794
909.415	11714
909.531	11760
909.647	11570
909.762	11467
909.878	11410
909.993	11410
910.108	11459
910.224	11356
910.339	11505
910.454	11448
910.57	11345
910.685	11288
910.8	11524
910.915	11387
911.03	11376
911.145	11220
911.259	11128
911.374	11143
911.489	11041
911.604	10949
911.718	10946
911.833	10881
911.947	10771
912.062	10710
912.176	10885
912.291	10923
912.405	10923
912.519	11090
912.633	11212
912.748	10999
912.862	10968
912.976	10786
913.09	10645
913.204	10778
913.318	10797
913.431	10965
913.545	10892
913.659	10987
913.772	10812
913.886	10679
914	10535
914.113	10748
914.226	10793
914.34	10733
914.453	10584
914.566	10774
914.68	10694
914.793	10603
914.906	10443
915.019	10493
915.132	10363
915.245	10413
915.358	10428
915.47	10481
915.583	10493
915.696	10462
915.809	10569
915.921	10554
916.034	10443
916.146	10390
916.259	10333
916.371	10470
916.483	10500
916.595	10310
916.708	10360
916.82	10443
916.932	10329
917.044	10299
917.156	10280
917.268	10192
917.38	10230
917.491	10207
917.603	10318
917.715	10314
917.826	10398
917.938	10234
918.049	10097
918.161	10284
918.272	10398
918.384	10386
918.495	10249
918.606	10124
918.717	10131
918.828	10204
918.939	10128
919.05	10162
919.161	10177
919.272	10025
919.383	10044
919.494	10158
919.604	10402
919.715	10128
919.826	10086
919.936	10082
920.047	10249
920.157	10124
920.267	10386
920.378	10169
920.488	10101
920.598	10379
920.708	10535
920.818	10413
920.928	10303
921.038	10504
921.148	10531
921.258	10196
921.368	10124
921.477	9945
921.587	10017
921.697	9991
921.806	10048
921.916	9842
922.025	9884
922.134	9698
922.244	9686
922.353	9720
922.462	9587
922.571	9553
922.68	9458
922.789	9435
922.898	9447
923.007	9302
923.116	9462
923.224	9363
923.333	9389
923.442	9344
923.55	9226
923.659	9340
923.767	9344
923.876	9256
923.984	9348
924.092	9260
924.201	9340
924.309	9306
924.417	9420
924.525	9260
924.633	9249
924.741	10166
924.849	9077
924.956	9192
925.064	9097
925.172	9001
925.279	9017
925.387	9062
925.494	9013
925.602	9173
925.709	9199
925.816	8994
925.924	9116
926.031	9085
926.138	9112
926.245	9036
926.352	9036
926.459	9180
926.566	9241
926.673	9013
926.779	8857
926.886	8952
926.993	8872
927.099	8796
927.206	8697
927.312	8731
927.419	8857
927.525	8758
927.631	8864
927.737	8758
927.843	8693
927.95	8606
928.056	8674
928.162	8754
928.267	8689
928.373	9317
928.479	8777
928.585	8530
928.69	8648
928.796	8720
928.901	8613
929.007	8476
929.112	8598
929.218	8552
929.323	8549
929.428	8450
929.533	8697
929.638	8492
929.743	8492
929.848	8549
929.953	8465
930.058	8450
930.163	8191
930.267	8305
930.372	8404
930.477	8301
930.581	8507
930.685	8419
930.79	8221
930.894	8221
930.998	8210
931.103	8370
931.207	8058
931.311	8008
931.415	7898
931.519	7769
931.623	7700
