Data from test_V78500241_940.txt Node
Date: Fri Mar 25 14:40:15 CST 2022
User: usil
Spectrometer: V785-0024
Trigger mode: 0
Integration Time (sec): 4.000000E-1
Scans to average: 1
Nonlinearity correction enabled: false
Boxcar width: 0
Storing dark spectrum: false
XAxis mode: Wavelengths
Number of Pixels in Spectrum: 1024
>>>>>Begin Spectral Data<<<<<
801.071	24235
801.214	24266
801.356	23950
801.499	23965
801.641	23672
801.783	23687
801.926	23718
802.068	23722
802.211	23433
802.353	23490
802.496	23143
802.638	23136
802.78	23212
802.923	23094
803.065	23075
803.208	22999
803.35	23132
803.492	23090
803.635	23223
803.777	23117
803.919	23174
804.061	23414
804.204	23147
804.346	23140
804.488	22961
804.63	23048
804.773	22953
804.915	22915
805.057	23178
805.199	23143
805.341	23029
805.483	23250
805.626	23204
805.768	22919
805.91	23189
806.052	23124
806.194	23094
806.336	23280
806.478	23288
806.62	23094
806.762	23345
806.904	23566
807.046	23676
807.188	23687
807.33	23680
807.472	23847
807.614	23950
807.756	23958
807.898	24007
808.04	24087
808.182	24467
808.324	24631
808.465	25057
808.607	25453
808.749	25989
808.891	26229
809.033	26248
809.174	25932
809.316	25449
809.458	25046
809.6	24844
809.741	24540
809.883	24338
810.025	24342
810.166	24178
810.308	24034
810.45	23950
810.591	23771
810.733	23638
810.875	23402
811.016	23478
811.158	23364
811.299	23535
811.441	23611
811.582	23497
811.724	23220
811.865	23318
812.007	23307
812.148	23391
812.29	23448
812.431	23486
812.573	23634
812.714	23707
812.855	23859
812.997	23923
813.138	23996
813.279	23984
813.421	23817
813.562	23741
813.703	23539
813.845	23402
813.986	23200
814.127	23060
814.268	23010
814.41	22930
814.551	22843
814.692	22987
814.833	22835
814.974	22717
815.115	22790
815.256	22622
815.397	22759
815.539	22660
815.68	22645
815.821	22512
815.962	22500
816.103	22649
816.244	22485
816.385	22318
816.526	22261
816.666	22105
816.807	21979
816.948	22055
817.089	22253
817.23	22105
817.371	22051
817.512	21907
817.653	21918
817.793	21892
817.934	21846
818.075	21968
818.216	21956
818.356	21785
818.497	21675
818.638	21747
818.778	21564
818.919	21625
819.06	21637
819.2	21686
819.341	21835
819.481	21804
819.622	21819
819.762	22082
819.903	22139
820.043	21934
820.184	21903
820.324	21960
820.465	21903
820.605	21911
820.746	21915
820.886	21762
821.026	21926
821.167	21850
821.307	21880
821.447	21759
821.588	21686
821.728	21587
821.868	21454
822.008	21245
822.149	21252
822.289	21138
822.429	20994
822.569	20880
822.709	20979
822.849	20724
822.99	20686
823.13	20708
823.27	20701
823.41	20537
823.55	20446
823.69	20518
823.83	20530
823.97	20393
824.11	20305
824.25	20355
824.389	20259
824.529	20457
824.669	20301
824.809	20389
824.949	20408
825.089	20305
825.228	20252
825.368	20153
825.508	20096
825.648	20081
825.787	20119
825.927	20130
826.067	20187
826.206	20020
826.346	20058
826.485	20107
826.625	19932
826.765	20214
826.904	20103
827.044	19826
827.183	19856
827.323	19731
827.462	19700
827.601	19788
827.741	19772
827.88	19830
828.02	19601
828.159	19689
828.298	19799
828.437	19780
828.577	19750
828.716	19814
828.855	19715
828.994	19525
829.134	19381
829.273	19510
829.412	19499
829.551	19407
829.69	19460
829.829	19525
829.968	19601
830.107	19441
830.246	19407
830.385	19358
830.524	19407
830.663	19236
830.802	19179
830.941	19091
831.08	19050
831.219	19072
831.357	19148
831.496	19369
831.635	19069
831.774	19061
831.913	18958
832.051	18848
832.19	18867
832.329	18863
832.467	18772
832.606	18616
832.744	18772
832.883	18760
833.022	18806
833.16	18848
833.299	18829
833.437	18897
833.576	18848
833.714	18837
833.852	18867
833.991	18977
834.129	19084
834.267	18928
834.406	18947
834.544	18825
834.682	18901
834.821	18871
834.959	18947
835.097	18779
835.235	18859
835.373	18886
835.511	18878
835.65	18608
835.788	18696
835.926	18597
836.064	18414
836.202	18555
836.34	18806
836.478	18692
836.615	18646
836.753	18623
836.891	18661
837.029	18776
837.167	18547
837.305	18528
837.443	18445
837.58	18483
837.718	18612
837.856	18452
837.993	18551
838.131	18445
838.269	18498
838.406	18357
838.544	18460
838.681	18247
838.819	18098
838.956	17984
839.094	17977
839.231	17950
839.369	18098
839.506	18376
839.643	18194
839.781	17946
839.918	17908
840.055	18007
840.193	18076
840.33	17916
840.467	17996
840.604	17893
840.742	18243
840.879	17885
841.016	17786
841.153	17824
841.29	18041
841.427	17935
841.564	17961
841.701	18003
841.838	17893
841.975	17889
842.112	17802
842.249	17809
842.385	17623
842.522	17923
842.659	17691
842.796	17699
842.933	17733
843.069	17729
843.206	17615
843.343	17790
843.479	17581
843.616	17710
843.752	17562
843.889	17547
844.025	17646
844.162	17478
844.298	17680
844.435	17573
844.571	17486
844.708	17539
844.844	17733
844.98	17790
845.117	17832
845.253	17843
845.389	17965
845.525	18247
845.661	18871
845.798	19514
845.934	20164
846.07	20503
846.206	20339
846.342	19955
846.478	19069
846.614	18281
846.75	17661
846.886	17547
847.022	17345
847.158	17242
847.294	17223
847.429	17079
847.565	17094
847.701	17353
847.837	16835
847.972	16759
848.108	16835
848.244	16854
848.379	16626
848.515	16706
848.65	16497
848.786	16706
848.921	16710
849.057	16611
849.192	16622
849.328	16588
849.463	16634
849.598	16550
849.734	16493
849.869	16386
850.004	16394
850.14	16394
850.275	16306
850.41	16246
850.545	16344
850.68	16363
850.815	16386
850.95	16306
851.085	16519
851.22	16405
851.355	16375
851.49	16314
851.625	16223
851.76	16386
851.895	16265
852.03	16143
852.165	16394
852.299	16371
852.434	16363
852.569	16356
852.703	16386
852.838	16451
852.973	16348
853.107	16512
853.242	16386
853.376	16242
853.511	16044
853.645	16120
853.78	16352
853.914	16116
854.048	16162
854.183	16226
854.317	16291
854.451	16455
854.585	16261
854.72	16188
854.854	16268
854.988	16109
855.122	16188
855.256	16135
855.39	16169
855.524	16375
855.658	16188
855.792	16265
855.926	16284
856.06	16261
856.194	16265
856.327	16219
856.461	16055
856.595	16185
856.729	16177
856.862	16268
856.996	16253
857.13	16287
857.263	16261
857.397	16382
857.53	16223
857.664	16097
857.797	16310
857.931	16249
858.064	16143
858.197	16306
858.331	16272
858.464	16093
858.597	16040
858.731	16177
858.864	16109
858.997	16071
859.13	16249
859.263	16200
859.396	16314
859.529	16139
859.662	16112
859.795	16063
859.928	16131
860.061	16276
860.194	16306
860.327	16226
860.46	16112
860.592	16223
860.725	16363
860.858	16253
860.99	16196
861.123	16090
861.256	16055
861.388	16124
861.521	16767
861.653	16063
861.786	15968
861.918	15994
862.05	15937
862.183	16154
862.315	16044
862.447	16238
862.58	16090
862.712	15926
862.844	15854
862.976	15953
863.108	15895
863.24	16337
863.372	15861
863.504	15823
863.636	15998
863.768	15922
863.9	16010
864.032	15873
864.164	15876
864.296	15892
864.428	15907
864.559	15911
864.691	15975
864.823	15926
864.954	15899
865.086	15827
865.217	15846
865.349	15838
865.48	15869
865.612	15838
865.743	15903
865.875	15934
866.006	15876
866.137	15808
866.269	15949
866.4	15835
866.531	15789
866.662	15816
866.793	15835
866.924	15819
867.055	15827
867.186	15812
867.317	15812
867.448	15724
867.579	15633
867.71	15732
867.841	15747
867.972	15831
868.103	15812
868.233	15865
868.364	15770
868.495	15819
868.625	15903
868.756	16124
868.886	16051
869.017	16086
869.147	16112
869.278	16185
869.408	16025
869.539	16082
869.669	16116
869.799	16154
869.929	16158
870.06	16223
870.19	16394
870.32	16272
870.45	16443
870.58	16436
870.71	16592
870.84	16577
870.97	16508
871.1	16413
871.23	16577
871.36	16706
871.489	16607
871.619	16546
871.749	16641
871.879	16759
872.008	16691
872.138	16717
872.267	16630
872.397	16641
872.526	16500
872.656	16558
872.785	16485
872.915	16687
873.044	16782
873.173	16729
873.303	16763
873.432	16694
873.561	16812
873.69	16824
873.819	16725
873.948	16839
874.077	16752
874.206	16649
874.335	16691
874.464	16972
874.593	17140
874.722	17003
874.851	17041
874.979	17075
875.108	17064
875.237	16942
875.365	17060
875.494	17094
875.623	17162
875.751	17014
875.88	17079
876.008	17098
876.136	17265
876.265	17581
876.393	17608
876.521	17516
876.65	17619
876.778	17516
876.906	17638
877.034	17455
877.162	17573
877.29	17448
877.418	17524
877.546	17581
877.674	17566
877.802	17619
877.93	17535
878.058	17600
878.185	17649
878.313	17649
878.441	17676
878.568	17577
878.696	17767
878.824	18007
878.951	18072
879.079	18315
879.206	18730
879.333	18897
879.461	18856
879.588	19065
879.715	19270
879.842	19103
879.97	18650
880.097	18369
880.224	18121
880.351	18049
880.478	17863
880.605	17767
880.732	17786
880.859	18003
880.986	17752
881.112	17699
881.239	17661
881.366	17497
881.493	17383
881.619	17292
881.746	17311
881.872	17269
881.999	17356
882.125	17345
882.252	17364
882.378	17433
882.505	17448
882.631	17288
882.757	17140
882.883	17299
883.01	17277
883.136	16999
883.262	17151
883.388	17086
883.514	17140
883.64	17197
883.766	17025
883.892	16961
884.018	16980
884.143	17102
884.269	17143
884.395	16965
884.52	16839
884.646	16938
884.772	16744
884.897	16668
885.023	16873
885.148	16995
885.274	16908
885.399	16900
885.524	16904
885.65	16809
885.775	16763
885.9	16744
886.025	16946
886.15	16801
886.275	16668
886.4	16538
886.525	16748
886.65	16645
886.775	16615
886.9	16908
887.025	16915
887.149	16618
887.274	16523
887.399	16481
887.523	16474
887.648	16325
887.773	16287
887.897	16402
888.021	16367
888.146	16379
888.27	16489
888.395	16466
888.519	16356
888.643	16390
888.767	16485
888.891	16295
889.015	16226
889.139	16135
889.263	16116
889.387	16314
889.511	16344
889.635	16314
889.759	16124
889.883	16071
890.006	16120
890.13	16234
890.254	16055
890.377	16177
890.501	15880
890.624	15941
890.748	16101
890.871	15930
890.995	15842
891.118	15720
891.241	15884
891.364	15869
891.488	15953
891.611	15743
891.734	15865
891.857	16025
891.98	15842
892.103	15926
892.226	15774
892.349	15720
892.471	15519
892.594	15831
892.717	15762
892.839	15701
892.962	15838
893.085	15846
893.207	15766
893.33	15633
893.452	15686
893.575	15892
893.697	15724
893.819	15945
893.941	15869
894.064	15892
894.186	15690
894.308	15762
894.43	15949
894.552	15907
894.674	15880
894.796	15759
894.918	15736
895.04	15770
895.161	15842
895.283	15797
895.405	15797
895.526	15717
895.648	15675
895.769	15770
895.891	15793
896.012	15934
896.134	15884
896.255	15888
896.376	15823
896.498	15899
896.619	15869
896.74	15911
896.861	15869
896.982	16135
897.103	16367
897.224	16158
897.345	16017
897.466	16002
897.587	16147
897.708	16337
897.828	16078
897.949	16131
898.07	15880
898.19	16013
898.311	16166
898.431	16036
898.552	16211
898.672	16310
898.792	16295
898.913	16253
899.033	16013
899.153	16032
899.273	16029
899.393	15926
899.513	16029
899.633	16044
899.753	15956
899.873	16040
899.993	16048
900.113	15983
900.232	16139
900.352	16002
900.472	15869
900.591	15865
900.711	15907
900.83	15770
900.95	15899
901.069	15987
901.189	15854
901.308	15698
901.427	15481
901.546	15450
901.665	15591
901.784	15580
901.904	15370
902.023	15241
902.141	15077
902.26	15036
902.379	15127
902.498	15024
902.617	15077
902.735	15116
902.854	15047
902.973	14979
903.091	14712
903.21	14754
903.328	14777
903.446	14674
903.565	14640
903.683	14621
903.801	14537
903.919	14583
904.038	14393
904.156	14328
904.274	14469
904.392	14267
904.51	14298
904.627	14290
904.745	14400
904.863	14431
904.981	14073
905.098	13974
905.216	14100
905.334	14130
905.451	13986
905.569	13986
905.686	13986
905.803	13970
905.921	13925
906.038	13967
906.155	13890
906.272	13696
906.389	13780
906.506	13563
906.623	13609
906.74	13620
906.857	13434
906.974	13441
907.091	13647
907.208	13620
907.324	13567
907.441	13426
907.557	13308
907.674	13266
907.79	13232
907.907	13263
908.023	13213
908.139	13312
908.256	13236
908.372	13221
908.488	13160
908.604	13050
908.72	13031
908.836	13065
908.952	13015
909.068	13110
909.184	13080
909.3	13046
909.415	13118
909.531	13004
909.647	12825
909.762	12665
909.878	12741
909.993	12757
910.108	12757
910.224	12726
910.339	12810
910.454	12726
910.57	12631
910.685	12574
910.8	12749
910.915	12745
911.03	12559
911.145	12490
911.259	12483
911.374	12399
911.489	12296
911.604	12338
911.718	12178
911.833	12289
911.947	12049
912.062	11988
912.176	12182
912.291	12228
912.405	12140
912.519	12376
912.633	12391
912.748	12273
912.862	12129
912.976	12038
913.09	11984
913.204	11999
913.318	12087
913.431	12125
913.545	12095
913.659	12152
913.772	12038
913.886	11984
914	11828
914.113	11961
914.226	12034
914.34	12034
914.453	11893
914.566	11923
914.68	11809
914.793	11847
914.906	11630
915.019	11668
915.132	11592
915.245	11570
915.358	11703
915.47	11608
915.583	11638
915.696	11646
915.809	11729
915.921	11722
916.034	11551
916.146	11630
916.259	11524
916.371	11661
916.483	11638
916.595	11570
916.708	11516
916.82	11551
916.932	11570
917.044	11501
917.156	11444
917.268	11360
917.38	11459
917.491	11467
917.603	11398
917.715	11520
917.826	11512
917.938	11360
918.049	11303
918.161	11421
918.272	11558
918.384	11429
918.495	11364
918.606	11239
918.717	11223
918.828	11258
918.939	11311
919.05	11204
919.161	11212
919.272	10984
919.383	11151
919.494	11284
919.604	11433
919.715	11204
919.826	11235
919.936	11220
920.047	11334
920.157	11284
920.267	11410
920.378	11288
920.488	11220
920.598	11436
920.708	11539
920.818	11387
920.928	11414
921.038	11547
921.148	11524
921.258	11258
921.368	11193
921.477	11067
921.587	11075
921.697	11029
921.806	11086
921.916	10938
922.025	10778
922.134	10774
922.244	10752
922.353	10755
922.462	10618
922.571	10588
922.68	10497
922.789	10443
922.898	10474
923.007	10428
923.116	10470
923.224	10333
923.333	10382
923.442	10287
923.55	10280
923.659	10272
923.767	10379
923.876	10303
923.984	10371
924.092	10177
924.201	10341
924.309	10356
924.417	10303
924.525	10139
924.633	10242
924.741	11022
924.849	10010
924.956	10181
925.064	9994
925.172	9972
925.279	9960
925.387	10032
925.494	10002
925.602	10101
925.709	10097
925.816	9941
925.924	9960
926.031	10078
926.138	10017
926.245	9979
926.352	9907
926.459	10048
926.566	10074
926.673	9960
926.779	9865
926.886	9857
926.993	9774
927.099	9698
927.206	9705
927.312	9663
927.419	9785
927.525	9743
927.631	9671
927.737	9614
927.843	9644
927.95	9481
928.056	9561
928.162	9625
928.267	9637
928.373	10204
928.479	9675
928.585	9435
928.69	9568
928.796	9591
928.901	9420
929.007	9367
929.112	9568
929.218	9477
929.323	9462
929.428	9317
929.533	9603
929.638	9306
929.743	9321
929.848	9485
929.953	9336
930.058	9264
930.163	9142
930.267	9100
930.372	9367
930.477	9180
930.581	9405
930.685	9138
930.79	9055
930.894	8998
930.998	9066
931.103	9127
931.207	8792
931.311	8777
931.415	8746
931.519	8590
931.623	8537
