Data from test_V78500241_223.txt Node
Date: Fri Mar 25 14:35:16 CST 2022
User: usil
Spectrometer: V785-0024
Trigger mode: 0
Integration Time (sec): 4.000000E-1
Scans to average: 1
Nonlinearity correction enabled: false
Boxcar width: 0
Storing dark spectrum: false
XAxis mode: Wavelengths
Number of Pixels in Spectrum: 1024
>>>>>Begin Spectral Data<<<<<
801.071	27816
801.214	27732
801.356	27614
801.499	27401
801.641	27283
801.783	27100
801.926	27203
802.068	27222
802.211	27081
802.353	27100
802.496	26925
802.638	26705
802.78	26792
802.923	26693
803.065	26693
803.208	26663
803.35	26705
803.492	26823
803.635	26891
803.777	26823
803.919	26906
804.061	27096
804.204	26754
804.346	26549
804.488	26651
804.63	26697
804.773	26579
804.915	26613
805.057	26830
805.199	26636
805.341	26739
805.483	26819
805.626	26800
805.768	26731
805.91	26883
806.052	26853
806.194	26697
806.336	26925
806.478	26861
806.62	26739
806.762	26785
806.904	26952
807.046	27184
807.188	27142
807.33	27142
807.472	27302
807.614	27165
807.756	27165
807.898	27112
808.04	27081
808.182	27074
808.324	27176
808.465	27165
808.607	27500
808.749	27610
808.891	27728
809.033	27838
809.174	27770
809.316	27564
809.458	27603
809.6	27389
809.741	27447
809.883	27526
810.025	27466
810.166	27545
810.308	27397
810.45	27496
810.591	27473
810.733	27100
810.875	27154
811.016	27062
811.158	27047
811.299	27142
811.441	27256
811.582	27173
811.724	27089
811.865	27074
812.007	27195
812.148	27077
812.29	27131
812.431	27313
812.573	27344
812.714	27564
812.855	27568
812.997	27606
813.138	27793
813.279	27808
813.421	27751
813.562	27633
813.703	27306
813.845	27313
813.986	27032
814.127	26758
814.268	26743
814.41	26918
814.551	26758
814.692	26735
814.833	26587
814.974	26705
815.115	26617
815.256	26427
815.397	26461
815.539	26499
815.68	26271
815.821	26282
815.962	26385
816.103	26305
816.244	26142
816.385	26115
816.526	26206
816.666	25845
816.807	25795
816.948	25780
817.089	26020
817.23	25708
817.371	25712
817.512	25906
817.653	25666
817.793	25666
817.934	25753
818.075	25723
818.216	25845
818.356	25772
818.497	25548
818.638	25556
818.778	25499
818.919	25540
819.06	25460
819.2	25441
819.341	25750
819.481	25620
819.622	25712
819.762	25940
819.903	25947
820.043	25791
820.184	25765
820.324	25677
820.465	25772
820.605	25780
820.746	25894
820.886	25613
821.026	25738
821.167	25811
821.307	25902
821.447	25677
821.588	25575
821.728	25453
821.868	25266
822.008	25152
822.149	25145
822.289	25095
822.429	24844
822.569	24916
822.709	24821
822.849	24563
822.99	24601
823.13	24597
823.27	24414
823.41	24338
823.55	24315
823.69	24441
823.83	24285
823.97	24296
824.11	24155
824.25	24114
824.389	24140
824.529	24045
824.669	24125
824.809	24213
824.949	24106
825.089	24338
825.228	24171
825.368	23870
825.508	23965
825.648	23863
825.787	24034
825.927	23878
826.067	23775
826.206	23889
826.346	23904
826.485	23988
826.625	23927
826.765	23996
826.904	23999
827.044	23817
827.183	23657
827.323	23630
827.462	23832
827.601	23695
827.741	23573
827.88	23577
828.02	23478
828.159	23539
828.298	23619
828.437	23570
828.577	23524
828.716	23718
828.855	23657
828.994	23216
829.134	23265
829.273	23292
829.412	23315
829.551	23231
829.69	23303
829.829	23258
829.968	23364
830.107	23292
830.246	23387
830.385	23208
830.524	23178
830.663	23086
830.802	23003
830.941	22911
831.08	22820
831.219	22862
831.357	23025
831.496	23003
831.635	22839
831.774	22839
831.913	22702
832.051	22660
832.19	22618
832.329	22607
832.467	22630
832.606	22519
832.744	22497
832.883	22527
833.022	22455
833.16	22569
833.299	22618
833.437	22455
833.576	22459
833.714	22542
833.852	22489
833.991	22645
834.129	22561
834.267	22645
834.406	22459
834.544	22470
834.682	22462
834.821	22462
834.959	22649
835.097	22455
835.235	22500
835.373	22394
835.511	22428
835.65	22329
835.788	22284
835.926	22169
836.064	22139
836.202	22090
836.34	22390
836.478	22466
836.615	22314
836.753	22367
836.891	22375
837.029	22261
837.167	22162
837.305	22131
837.443	22215
837.58	22230
837.718	22200
837.856	22181
837.993	22040
838.131	22143
838.269	22086
838.406	22029
838.544	22036
838.681	21819
838.819	21747
838.956	21694
839.094	21667
839.231	21679
839.369	21781
839.506	21941
839.643	21861
839.781	21580
839.918	21583
840.055	21580
840.193	21622
840.33	21393
840.467	21363
840.604	21511
840.742	21827
840.879	21260
841.016	21321
841.153	21336
841.29	21564
841.427	21648
841.564	21542
841.701	21397
841.838	21359
841.975	21367
842.112	21302
842.249	21291
842.385	21211
842.522	21355
842.659	21279
842.796	21214
842.933	21268
843.069	21138
843.206	21104
843.343	21325
843.479	21294
843.616	21214
843.752	21043
843.889	20941
844.025	20998
844.162	20925
844.298	21051
844.435	20880
844.571	20887
844.708	20944
844.844	21138
844.98	21104
845.117	21062
845.253	20868
845.389	20902
845.525	20891
845.661	20967
845.798	20998
845.934	21249
846.07	21199
846.206	21317
846.342	21245
846.478	20956
846.614	20663
846.75	20583
846.886	20450
847.022	20537
847.158	20404
847.294	20450
847.429	20442
847.565	20404
847.701	20560
847.837	20077
847.972	19989
848.108	20096
848.244	20126
848.379	20065
848.515	19909
848.65	19890
848.786	19970
848.921	19913
849.057	20046
849.192	20062
849.328	19986
849.463	19909
849.598	19856
849.734	19947
849.869	19864
850.004	19746
850.14	19742
850.275	19719
850.41	19605
850.545	19601
850.68	19658
850.815	19658
850.95	19613
851.085	19818
851.22	19761
851.355	19605
851.49	19693
851.625	19655
851.76	19590
851.895	19529
852.03	19552
852.165	19594
852.299	19624
852.434	19761
852.569	19647
852.703	19689
852.838	19639
852.973	19837
853.107	19818
853.242	19533
853.376	19480
853.511	19464
853.645	19464
853.78	19544
853.914	19495
854.048	19529
854.183	19476
854.317	19533
854.451	19601
854.585	19411
854.72	19327
854.854	19575
854.988	19502
855.122	19381
855.256	19384
855.39	19346
855.524	19510
855.658	19411
855.792	19457
855.926	19449
856.06	19434
856.194	19624
856.327	19499
856.461	19449
856.595	19457
856.729	19460
856.862	19434
856.996	19384
857.13	19502
857.263	19567
857.397	19601
857.53	19464
857.664	19556
857.797	19514
857.931	19460
858.064	19445
858.197	19422
858.331	19396
858.464	19335
858.597	19266
858.731	19335
858.864	19392
858.997	19422
859.13	19362
859.263	19365
859.396	19495
859.529	19495
859.662	19304
859.795	19411
859.928	19316
860.061	19495
860.194	19556
860.327	19396
860.46	19396
860.592	19335
860.725	19556
860.858	19510
860.99	19460
861.123	19362
861.256	19289
861.388	19540
861.521	19913
861.653	19244
861.786	19213
861.918	19316
862.05	19278
862.183	19483
862.315	19403
862.447	19556
862.58	19354
862.712	19099
862.844	19080
862.976	19244
863.108	19164
863.24	19422
863.372	19076
863.504	19103
863.636	19160
863.768	19171
863.9	19133
864.032	19046
864.164	18905
864.296	19004
864.428	19164
864.559	19114
864.691	19217
864.823	19145
864.954	19129
865.086	19152
865.217	19122
865.349	18966
865.48	19046
865.612	19034
865.743	19171
865.875	19038
866.006	19015
866.137	19015
866.269	18989
866.4	18943
866.531	18905
866.662	18878
866.793	19061
866.924	18913
867.055	19053
867.186	18939
867.317	19061
867.448	18882
867.579	18985
867.71	18886
867.841	18833
867.972	18962
868.103	18901
868.233	19000
868.364	18875
868.495	18993
868.625	19160
868.756	19244
868.886	19072
869.017	19148
869.147	19285
869.278	19221
869.408	19129
869.539	19327
869.669	19293
869.799	19171
869.929	19225
870.06	19183
870.19	19445
870.32	19441
870.45	19495
870.58	19552
870.71	19624
870.84	19635
870.97	19582
871.1	19635
871.23	19712
871.36	19712
871.489	19632
871.619	19639
871.749	19791
871.879	19791
872.008	19746
872.138	19833
872.267	19674
872.397	19639
872.526	19597
872.656	19666
872.785	19643
872.915	19727
873.044	19822
873.173	19803
873.303	19921
873.432	19826
873.561	19932
873.69	19826
873.819	19742
873.948	19887
874.077	19906
874.206	19868
874.335	19746
874.464	19860
874.593	20069
874.722	19974
874.851	20103
874.979	20069
875.108	20172
875.237	19951
875.365	19989
875.494	20092
875.623	20134
875.751	19944
875.88	20096
876.008	20305
876.136	20233
876.265	20339
876.393	20552
876.521	20549
876.65	20526
876.778	20427
876.906	20446
877.034	20419
877.162	20533
877.29	20450
877.418	20438
877.546	20412
877.674	20446
877.802	20419
877.93	20431
878.058	20431
878.185	20347
878.313	20442
878.441	20514
878.568	20446
878.696	20434
878.824	20476
878.951	20632
879.079	20735
879.206	20944
879.333	20659
879.461	20613
879.588	20762
879.715	20849
879.842	20941
879.97	20739
880.097	20446
880.224	20324
880.351	20347
880.478	20248
880.605	20263
880.732	20374
880.859	20587
880.986	20377
881.112	20324
881.239	20252
881.366	20054
881.493	20020
881.619	19993
881.746	19963
881.872	19944
881.999	20020
882.125	19776
882.252	19959
882.378	19955
882.505	20176
882.631	19856
882.757	19814
882.883	19742
883.01	19727
883.136	19765
883.262	19605
883.388	19681
883.514	19723
883.64	19750
883.766	19616
883.892	19358
884.018	19525
884.143	19605
884.269	19761
884.395	19476
884.52	19495
884.646	19430
884.772	19377
884.897	19270
885.023	19419
885.148	19377
885.274	19346
885.399	19415
885.524	19441
885.65	19392
885.775	19217
885.9	19274
886.025	19426
886.15	19396
886.275	19339
886.4	19278
886.525	19335
886.65	19247
886.775	19369
886.9	19373
887.025	19487
887.149	19297
887.274	19148
887.399	19137
887.523	19012
887.648	19080
887.773	18943
887.897	19133
888.021	19065
888.146	19008
888.27	19168
888.395	19175
888.519	19179
888.643	19145
888.767	18973
888.891	18935
889.015	18833
889.139	19000
889.263	18859
889.387	19034
889.511	19000
889.635	18935
889.759	18863
889.883	18886
890.006	18840
890.13	18966
890.254	18753
890.377	18776
890.501	18589
890.624	18532
890.748	18646
890.871	18544
890.995	18380
891.118	18376
891.241	18471
891.364	18528
891.488	18570
891.611	18540
891.734	18540
891.857	18467
891.98	18513
892.103	18646
892.226	18429
892.349	18376
892.471	18296
892.594	18426
892.717	18506
892.839	18315
892.962	18403
893.085	18437
893.207	18361
893.33	18365
893.452	18376
893.575	18445
893.697	18300
893.819	18570
893.941	18585
894.064	18490
894.186	18407
894.308	18372
894.43	18452
894.552	18589
894.674	18578
894.796	18289
894.918	18357
895.04	18266
895.161	18475
895.283	18376
895.405	18384
895.526	18353
895.648	18350
895.769	18452
895.891	18441
896.012	18563
896.134	18532
896.255	18346
896.376	18479
896.498	18448
896.619	18525
896.74	18448
896.861	18502
896.982	18829
897.103	18905
897.224	18738
897.345	18722
897.466	18700
897.587	18635
897.708	18829
897.828	18631
897.949	18726
898.07	18494
898.19	18692
898.311	18684
898.431	18616
898.552	18722
898.672	18772
898.792	18795
898.913	18776
899.033	18681
899.153	18483
899.273	18300
899.393	18433
899.513	18456
899.633	18399
899.753	18570
899.873	18334
899.993	18475
900.113	18395
900.232	18388
900.352	18342
900.472	18292
900.591	18178
900.711	18296
900.83	18209
900.95	18353
901.069	18414
901.189	18239
901.308	17996
901.427	17809
901.546	17954
901.665	18038
901.784	17954
901.904	17859
902.023	17703
902.141	17433
902.26	17391
902.379	17414
902.498	17433
902.617	17368
902.735	17444
902.854	17341
902.973	17227
903.091	17041
903.21	17090
903.328	16991
903.446	16961
903.565	16877
903.683	16877
903.801	16725
903.919	16805
904.038	16801
904.156	16694
904.274	16630
904.392	16626
904.51	16626
904.627	16725
904.745	16672
904.863	16637
904.981	16523
905.098	16291
905.216	16265
905.334	16367
905.451	16303
905.569	16337
905.686	16367
905.803	16287
905.921	16120
906.038	16223
906.155	16120
906.272	16025
906.389	15983
906.506	15838
906.623	15808
906.74	15816
906.857	15705
906.974	15671
907.091	15846
907.208	15895
907.324	15816
907.441	15732
907.557	15633
907.674	15473
907.79	15500
907.907	15450
908.023	15606
908.139	15545
908.256	15397
908.372	15439
908.488	15428
908.604	15393
908.72	15085
908.836	15207
908.952	15184
909.068	15241
909.184	15302
909.3	15241
909.415	15207
909.531	15237
909.647	14872
909.762	14895
909.878	14910
909.993	14899
910.108	14914
910.224	14880
910.339	14933
910.454	14800
910.57	14667
910.685	14712
910.8	14914
910.915	14902
911.03	14762
911.145	14663
911.259	14644
911.374	14552
911.489	14480
911.604	14503
911.718	14267
911.833	14267
911.947	14183
912.062	14142
912.176	14218
912.291	14282
912.405	14263
912.519	14450
912.633	14484
912.748	14275
912.862	14252
912.976	14077
913.09	13963
913.204	14050
913.318	14172
913.431	14107
913.545	14123
913.659	14240
913.772	14058
913.886	13978
914	13879
914.113	13997
914.226	14008
914.34	13997
914.453	13837
914.566	13974
914.68	13887
914.793	13811
914.906	13674
915.019	13597
915.132	13559
915.245	13529
915.358	13636
915.47	13651
915.583	13571
915.696	13636
915.809	13674
915.921	13693
916.034	13571
916.146	13392
916.259	13476
916.371	13575
916.483	13502
916.595	13365
916.708	13480
916.82	13480
916.932	13301
917.044	13422
917.156	13377
917.268	13221
917.38	13396
917.491	13209
917.603	13392
917.715	13343
917.826	13426
917.938	13308
918.049	13114
918.161	13232
918.272	13274
918.384	13293
918.495	13255
918.606	13050
918.717	13031
918.828	13069
918.939	13137
919.05	12951
919.161	13050
919.272	12821
919.383	12958
919.494	13107
919.604	13225
919.715	13004
919.826	12878
919.936	12993
920.047	13122
920.157	12962
920.267	13164
920.378	13034
920.488	13004
920.598	13152
920.708	13331
920.818	13194
920.928	13122
921.038	13304
921.148	13240
921.258	12973
921.368	12875
921.477	12764
921.587	12745
921.697	12684
921.806	12703
921.916	12715
922.025	12422
922.134	12414
922.244	12426
922.353	12486
922.462	12361
922.571	12213
922.68	12163
922.789	12106
922.898	12155
923.007	12098
923.116	12110
923.224	11999
923.333	12041
923.442	11958
923.55	11885
923.659	11916
923.767	12057
923.876	11920
923.984	12026
924.092	11802
924.201	12015
924.309	11832
924.417	11832
924.525	11813
924.633	11840
924.741	12810
924.849	11600
924.956	11775
925.064	11611
925.172	11520
925.279	11589
925.387	11611
925.494	11642
925.602	11802
925.709	11695
925.816	11448
925.924	11543
926.031	11615
926.138	11562
926.245	11551
926.352	11433
926.459	11573
926.566	11657
926.673	11429
926.779	11379
926.886	11436
926.993	11261
927.099	11254
927.206	11216
927.312	11212
927.419	11197
927.525	11239
927.631	11273
927.737	11067
927.843	11018
927.95	10972
928.056	11086
928.162	11071
928.267	11079
928.373	11554
928.479	11140
928.585	10831
928.69	10957
928.796	11060
928.901	10995
929.007	10771
929.112	10965
929.218	10896
929.323	10862
929.428	10843
929.533	10904
929.638	10790
929.743	10679
929.848	10828
929.953	10763
930.058	10626
930.163	10516
930.267	10493
930.372	10603
930.477	10489
930.581	10645
930.685	10558
930.79	10413
930.894	10447
930.998	10398
931.103	10485
931.207	10177
931.311	10116
931.415	10051
931.519	9808
931.623	9762
