Data from test_V78500241_1320.txt Node
Date: Fri Mar 25 14:42:54 CST 2022
User: usil
Spectrometer: V785-0024
Trigger mode: 0
Integration Time (sec): 4.000000E-1
Scans to average: 1
Nonlinearity correction enabled: false
Boxcar width: 0
Storing dark spectrum: false
XAxis mode: Wavelengths
Number of Pixels in Spectrum: 1024
>>>>>Begin Spectral Data<<<<<
801.071	22474
801.214	22337
801.356	22154
801.499	21911
801.641	21797
801.783	21690
801.926	21797
802.068	21793
802.211	21625
802.353	21545
802.496	21317
802.638	21317
802.78	21279
802.923	21180
803.065	21116
803.208	21062
803.35	21089
803.492	21264
803.635	21203
803.777	21058
803.919	21241
804.061	21435
804.204	21135
804.346	21047
804.488	20899
804.63	21055
804.773	20952
804.915	21096
805.057	21093
805.199	20986
805.341	21009
805.483	21351
805.626	21093
805.768	20921
805.91	20937
806.052	20925
806.194	21066
806.336	21108
806.478	21024
806.62	21024
806.762	20986
806.904	21226
807.046	21439
807.188	21340
807.33	21230
807.472	21431
807.614	21287
807.756	21245
807.898	21332
808.04	21249
808.182	21226
808.324	21245
808.465	21214
808.607	21454
808.749	21477
808.891	21762
809.033	21732
809.174	21679
809.316	21496
809.458	21545
809.6	21477
809.741	21595
809.883	21534
810.025	21492
810.166	21504
810.308	21488
810.45	21629
810.591	21348
810.733	21378
810.875	21272
811.016	21070
811.158	21096
811.299	21207
811.441	21313
811.582	21462
811.724	21176
811.865	21165
812.007	21207
812.148	21173
812.29	21237
812.431	21450
812.573	21473
812.714	21625
812.855	21557
812.997	21842
813.138	21880
813.279	21816
813.421	21690
813.562	21705
813.703	21542
813.845	21310
813.986	21051
814.127	20971
814.268	20750
814.41	20788
814.551	20724
814.692	20773
814.833	20674
814.974	20663
815.115	20720
815.256	20590
815.397	20431
815.539	20579
815.68	20583
815.821	20313
815.962	20594
816.103	20461
816.244	20259
816.385	20256
816.526	20210
816.666	20050
816.807	19734
816.948	19951
817.089	20027
817.23	20065
817.371	19887
817.512	19947
817.653	20027
817.793	19871
817.934	19833
818.075	19890
818.216	19864
818.356	19871
818.497	19693
818.638	19563
818.778	19529
818.919	19578
819.06	19609
819.2	19628
819.341	19807
819.481	19734
819.622	19906
819.762	20202
819.903	20103
820.043	19959
820.184	19849
820.324	19776
820.465	19864
820.605	19925
820.746	19871
820.886	19753
821.026	19799
821.167	19727
821.307	19811
821.447	19814
821.588	19837
821.728	19487
821.868	19476
822.008	19377
822.149	19251
822.289	19244
822.429	18943
822.569	18985
822.709	18928
822.849	18791
822.99	18730
823.13	18848
823.27	18696
823.41	18563
823.55	18528
823.69	18639
823.83	18688
823.97	18445
824.11	18346
824.25	18300
824.389	18361
824.529	18380
824.669	18429
824.809	18574
824.949	18429
825.089	18467
825.228	18346
825.368	18155
825.508	18182
825.648	18159
825.787	18209
825.927	18270
826.067	18022
826.206	18133
826.346	18190
826.485	18205
826.625	18087
826.765	18148
826.904	18205
827.044	17893
827.183	17965
827.323	17885
827.462	17935
827.601	17836
827.741	17824
827.88	17885
828.02	17707
828.159	17775
828.298	17786
828.437	17904
828.577	17866
828.716	17958
828.855	17851
828.994	17539
829.134	17615
829.273	17619
829.412	17471
829.551	17497
829.69	17551
829.829	17653
829.968	17638
830.107	17661
830.246	17638
830.385	17528
830.524	17459
830.663	17395
830.802	17296
830.941	17239
831.08	17277
831.219	17212
831.357	17296
831.496	17398
831.635	17261
831.774	17174
831.913	17151
832.051	17056
832.19	16949
832.329	17022
832.467	16908
832.606	16869
832.744	16911
832.883	16831
833.022	16904
833.16	16892
833.299	16904
833.437	16938
833.576	17037
833.714	16991
833.852	16892
833.991	16968
834.129	17060
834.267	17025
834.406	17033
834.544	16980
834.682	17060
834.821	17018
834.959	17162
835.097	16824
835.235	16987
835.373	17045
835.511	16923
835.65	16793
835.788	16877
835.926	16801
836.064	16637
836.202	16774
836.34	16949
836.478	16877
836.615	16793
836.753	16847
836.891	16965
837.029	16927
837.167	16767
837.305	16733
837.443	16801
837.58	16645
837.718	16782
837.856	16782
837.993	16615
838.131	16702
838.269	16504
838.406	16618
838.544	16603
838.681	16474
838.819	16413
838.956	16253
839.094	16261
839.231	16318
839.369	16390
839.506	16752
839.643	16542
839.781	16303
839.918	16280
840.055	16276
840.193	16287
840.33	16215
840.467	16238
840.604	16223
840.742	16615
840.879	16059
841.016	16211
841.153	16177
841.29	16337
841.427	16249
841.564	16299
841.701	16337
841.838	16276
841.975	16173
842.112	16109
842.249	16147
842.385	16013
842.522	16287
842.659	16017
842.796	16010
842.933	16055
843.069	16082
843.206	16010
843.343	16139
843.479	16082
843.616	16093
843.752	15884
843.889	15846
844.025	15979
844.162	15762
844.298	15865
844.435	15808
844.571	15812
844.708	15968
844.844	15975
844.98	15953
845.117	15930
845.253	15812
845.389	15641
845.525	15831
845.661	15857
845.798	15861
845.934	15838
846.07	15861
846.206	15831
846.342	15998
846.478	15724
846.614	15530
846.75	15473
846.886	15401
847.022	15545
847.158	15435
847.294	15523
847.429	15462
847.565	15420
847.701	15545
847.837	15131
847.972	15123
848.108	15222
848.244	15252
848.379	15070
848.515	15020
848.65	14937
848.786	14906
848.921	15028
849.057	15150
849.192	15127
849.328	15074
849.463	14990
849.598	15036
849.734	14979
849.869	14750
850.004	14876
850.14	14880
850.275	14804
850.41	14743
850.545	14701
850.68	14781
850.815	14800
850.95	14777
851.085	14899
851.22	14845
851.355	14769
851.49	14743
851.625	14731
851.76	14708
851.895	14610
852.03	14689
852.165	14716
852.299	14788
852.434	14956
852.569	14834
852.703	14807
852.838	14777
852.973	14929
853.107	14929
853.242	14689
853.376	14686
853.511	14560
853.645	14457
853.78	14811
853.914	14674
854.048	14674
854.183	14606
854.317	14754
854.451	14872
854.585	14629
854.72	14514
854.854	14781
854.988	14583
855.122	14568
855.256	14583
855.39	14625
855.524	14716
855.658	14678
855.792	14663
855.926	14682
856.06	14731
856.194	14758
856.327	14594
856.461	14583
856.595	14632
856.729	14575
856.862	14735
856.996	14682
857.13	14739
857.263	14754
857.397	14758
857.53	14594
857.664	14640
857.797	14796
857.931	14724
858.064	14796
858.197	14727
858.331	14537
858.464	14689
858.597	14476
858.731	14667
858.864	14629
858.997	14670
859.13	14632
859.263	14644
859.396	14670
859.529	14594
859.662	14602
859.795	14606
859.928	14674
860.061	14857
860.194	14716
860.327	14587
860.46	14655
860.592	14765
860.725	14693
860.858	14693
860.99	14629
861.123	14594
861.256	14568
861.388	14629
861.521	15424
861.653	14446
861.786	14427
861.918	14503
862.05	14632
862.183	14602
862.315	14594
862.447	14625
862.58	14587
862.712	14396
862.844	14473
862.976	14476
863.108	14427
863.24	14967
863.372	14377
863.504	14412
863.636	14396
863.768	14393
863.9	14408
864.032	14278
864.164	14355
864.296	14408
864.428	14549
864.559	14507
864.691	14511
864.823	14480
864.954	14423
865.086	14454
865.217	14404
865.349	14343
865.48	14332
865.612	14366
865.743	14533
865.875	14450
866.006	14343
866.137	14450
866.269	14374
866.4	14355
866.531	14332
866.662	14381
866.793	14381
866.924	14423
867.055	14400
867.186	14492
867.317	14324
867.448	14240
867.579	14374
867.71	14343
867.841	14298
867.972	14343
868.103	14366
868.233	14393
868.364	14370
868.495	14530
868.625	14651
868.756	14651
868.886	14507
869.017	14518
869.147	14644
869.278	14667
869.408	14667
869.539	14663
869.669	14678
869.799	14644
869.929	14777
870.06	14788
870.19	14967
870.32	14910
870.45	14963
870.58	14979
870.71	15180
870.84	15074
870.97	15070
871.1	15112
871.23	15195
871.36	15180
871.489	15184
871.619	15203
871.749	15268
871.879	15207
872.008	15348
872.138	15260
872.267	15176
872.397	15077
872.526	15039
872.656	14982
872.785	15074
872.915	15199
873.044	15287
873.173	15203
873.303	15264
873.432	15306
873.561	15317
873.69	15351
873.819	15272
873.948	15348
874.077	15310
874.206	15222
874.335	15359
874.464	15340
874.593	15542
874.722	15553
874.851	15591
874.979	15622
875.108	15576
875.237	15511
875.365	15473
875.494	15530
875.623	15606
875.751	15530
875.88	15709
876.008	15827
876.136	15804
876.265	15956
876.393	16131
876.521	16067
876.65	16048
876.778	16109
876.906	15968
877.034	15842
877.162	15907
877.29	15945
877.418	16006
877.546	16025
877.674	16059
877.802	16067
877.93	15956
878.058	16021
878.185	15915
878.313	16029
878.441	15964
878.568	15922
878.696	15994
878.824	16013
878.951	16166
879.079	16249
879.206	16405
879.333	16344
879.461	16154
879.588	16265
879.715	16253
879.842	16329
879.97	16234
880.097	15903
880.224	15922
880.351	15922
880.478	15915
880.605	15835
880.732	15861
880.859	16192
880.986	15873
881.112	15937
881.239	15739
881.366	15553
881.493	15496
881.619	15439
881.746	15572
881.872	15481
881.999	15515
882.125	15435
882.252	15595
882.378	15553
882.505	15785
882.631	15386
882.757	15450
882.883	15462
883.01	15313
883.136	15272
883.262	15173
883.388	15252
883.514	15279
883.64	15428
883.766	15313
883.892	15165
884.018	15116
884.143	15268
884.269	15473
884.395	15127
884.52	15028
884.646	15089
884.772	14971
884.897	15017
885.023	15013
885.148	15100
885.274	15161
885.399	15230
885.524	15032
885.65	15001
885.775	15089
885.9	14982
886.025	15199
886.15	15104
886.275	15097
886.4	14956
886.525	15032
886.65	14994
886.775	15036
886.9	15192
887.025	15294
887.149	14990
887.274	14982
887.399	14823
887.523	14826
887.648	14739
887.773	14857
887.897	14967
888.021	15001
888.146	14845
888.27	14785
888.395	14960
888.519	14883
888.643	14876
888.767	15070
888.891	14857
889.015	14667
889.139	14785
889.263	14754
889.387	14823
889.511	14952
889.635	14887
889.759	14636
889.883	14777
890.006	14769
890.13	14788
890.254	14636
890.377	14750
890.501	14537
890.624	14495
890.748	14560
890.871	14377
890.995	14389
891.118	14423
891.241	14381
891.364	14393
891.488	14579
891.611	14339
891.734	14431
891.857	14454
891.98	14454
892.103	14522
892.226	14450
892.349	14499
892.471	14199
892.594	14393
892.717	14389
892.839	14347
892.962	14423
893.085	14579
893.207	14465
893.33	14317
893.452	14324
893.575	14457
893.697	14412
893.819	14545
893.941	14651
894.064	14552
894.186	14385
894.308	14419
894.43	14495
894.552	14640
894.674	14552
894.796	14305
894.918	14423
895.04	14461
895.161	14518
895.283	14495
895.405	14362
895.526	14537
895.648	14446
895.769	14545
895.891	14564
896.012	14651
896.134	14625
896.255	14492
896.376	14499
896.498	14488
896.619	14575
896.74	14522
896.861	14560
896.982	14861
897.103	15062
897.224	14880
897.345	14849
897.466	14777
897.587	14765
897.708	14960
897.828	14857
897.949	14758
898.07	14754
898.19	14781
898.311	14880
898.431	14868
898.552	14853
898.672	14998
898.792	14956
898.913	14956
899.033	14826
899.153	14777
899.273	14708
899.393	14686
899.513	14610
899.633	14754
899.753	14777
899.873	14663
899.993	14834
900.113	14872
900.232	14693
900.352	14663
900.472	14670
900.591	14549
900.711	14621
900.83	14583
900.95	14724
901.069	14724
901.189	14533
901.308	14362
901.427	14252
901.546	14355
901.665	14374
901.784	14362
901.904	14164
902.023	14073
902.141	13970
902.26	13830
902.379	13864
902.498	13803
902.617	13883
902.735	13883
902.854	13864
902.973	13807
903.091	13540
903.21	13571
903.328	13586
903.446	13544
903.565	13483
903.683	13369
903.801	13324
903.919	13312
904.038	13282
904.156	13175
904.274	13396
904.392	13194
904.51	13187
904.627	13213
904.745	13244
904.863	13285
904.981	13046
905.098	12882
905.216	12901
905.334	12939
905.451	12951
905.569	12909
905.686	12859
905.803	12890
905.921	12768
906.038	12783
906.155	12749
906.272	12566
906.389	12677
906.506	12464
906.623	12498
906.74	12498
906.857	12441
906.974	12399
907.091	12521
907.208	12673
907.324	12559
907.441	12414
907.557	12308
907.674	12194
907.79	12228
907.907	12281
908.023	12296
908.139	12224
908.256	12125
908.372	12121
908.488	12175
908.604	12049
908.72	11999
908.836	12026
908.952	12019
909.068	11996
909.184	12114
909.3	11973
909.415	12022
909.531	11973
909.647	11783
909.762	11786
909.878	11668
909.993	11775
910.108	11786
910.224	11824
910.339	11688
910.454	11710
910.57	11733
910.685	11490
910.8	11794
910.915	11729
911.03	11592
911.145	11486
911.259	11364
911.374	11539
911.489	11395
911.604	11391
911.718	11273
911.833	11208
911.947	11162
912.062	11010
912.176	11189
912.291	11239
912.405	11170
912.519	11410
912.633	11364
912.748	11284
912.862	11201
912.976	11109
913.09	11014
913.204	10995
913.318	11113
913.431	11128
913.545	11208
913.659	11185
913.772	11090
913.886	10976
914	10930
914.113	11045
914.226	11064
914.34	10987
914.453	10820
914.566	11045
914.68	10892
914.793	10889
914.906	10782
915.019	10611
915.132	10634
915.245	10721
915.358	10782
915.47	10710
915.583	10752
915.696	10782
915.809	10805
915.921	10816
916.034	10717
916.146	10645
916.259	10592
916.371	10801
916.483	10733
916.595	10596
916.708	10596
916.82	10622
916.932	10656
917.044	10573
917.156	10542
917.268	10573
917.38	10481
917.491	10527
917.603	10565
917.715	10561
917.826	10630
917.938	10485
918.049	10405
918.161	10470
918.272	10691
918.384	10672
918.495	10630
918.606	10402
918.717	10428
918.828	10481
918.939	10500
919.05	10348
919.161	10360
919.272	10211
919.383	10360
919.494	10497
919.604	10611
919.715	10478
919.826	10405
919.936	10405
920.047	10481
920.157	10413
920.267	10634
920.378	10447
920.488	10417
920.598	10561
920.708	10778
920.818	10607
920.928	10618
921.038	10748
921.148	10782
921.258	10432
921.368	10363
921.477	10295
921.587	10181
921.697	10139
921.806	10333
921.916	10181
922.025	9964
922.134	9975
922.244	9941
922.353	10029
922.462	9865
922.571	9797
922.68	9618
922.789	9675
922.898	9652
923.007	9564
923.116	9713
923.224	9644
923.333	9614
923.442	9561
923.55	9443
923.659	9526
923.767	9614
923.876	9488
923.984	9603
924.092	9386
924.201	9549
924.309	9469
924.417	9481
924.525	9458
924.633	9523
924.741	10379
924.849	9256
924.956	9469
925.064	9317
925.172	9233
925.279	9253
925.387	9313
925.494	9306
925.602	9431
925.709	9389
925.816	9294
925.924	9336
926.031	9321
926.138	9302
926.245	9378
926.352	9226
926.459	9348
926.566	9469
926.673	9298
926.779	9123
926.886	9131
926.993	9077
927.099	9013
927.206	8967
927.312	8948
927.419	9089
927.525	9119
927.631	9066
927.737	9009
927.843	8952
927.95	8781
928.056	8883
928.162	8944
928.267	8944
928.373	9625
928.479	9070
928.585	8766
928.69	8925
928.796	8990
928.901	8853
929.007	8720
929.112	8880
929.218	8815
929.323	8781
929.428	8720
929.533	8937
929.638	8697
929.743	8754
929.848	8716
929.953	8800
930.058	8682
930.163	8552
930.267	8545
930.372	8674
930.477	8480
930.581	8731
930.685	8598
930.79	8454
930.894	8499
930.998	8461
931.103	8587
931.207	8313
931.311	8149
931.415	8187
931.519	7970
931.623	7925
