Data from test_V78500241_629.txt Node
Date: Fri Mar 25 14:38:05 CST 2022
User: usil
Spectrometer: V785-0024
Trigger mode: 0
Integration Time (sec): 4.000000E-1
Scans to average: 1
Nonlinearity correction enabled: false
Boxcar width: 0
Storing dark spectrum: false
XAxis mode: Wavelengths
Number of Pixels in Spectrum: 1024
>>>>>Begin Spectral Data<<<<<
801.071	28006
801.214	27941
801.356	27622
801.499	27374
801.641	27363
801.783	27321
801.926	27302
802.068	27096
802.211	27222
802.353	26975
802.496	26887
802.638	26868
802.78	26735
802.923	26800
803.065	26678
803.208	26693
803.35	26883
803.492	26849
803.635	26933
803.777	26864
803.919	26861
804.061	27093
804.204	26963
804.346	27013
804.488	26895
804.63	27017
804.773	26868
804.915	27074
805.057	27169
805.199	27192
805.341	27252
805.483	27424
805.626	27344
805.768	27393
805.91	27462
806.052	27587
806.194	27568
806.336	27934
806.478	28097
806.62	28021
806.762	28360
806.904	28679
807.046	29105
807.188	29303
807.33	29604
807.472	30171
807.614	30661
807.756	31171
807.898	32157
808.04	33279
808.182	34953
808.324	36939
808.465	39317
808.607	41805
808.749	44153
808.891	45431
809.033	45564
809.174	44286
809.316	41893
809.458	39332
809.6	36650
809.741	34592
809.883	32811
810.025	31837
810.166	30909
810.308	30391
810.45	29935
810.591	29467
810.733	28976
810.875	28637
811.016	28409
811.158	28280
811.299	28131
811.441	28318
811.582	28006
811.724	27895
811.865	27637
812.007	27739
812.148	27648
812.29	27819
812.431	27675
812.573	27709
812.714	27819
812.855	27949
812.997	27907
813.138	27949
813.279	28032
813.421	27667
813.562	27842
813.703	27534
813.845	27492
813.986	26998
814.127	26765
814.268	26621
814.41	26670
814.551	26560
814.692	26697
814.833	26488
814.974	26552
815.115	26545
815.256	26347
815.397	26313
815.539	26317
815.68	26130
815.821	26122
815.962	26252
816.103	26191
816.244	26005
816.385	25887
816.526	25940
816.666	25772
816.807	25521
816.948	25502
817.089	25655
817.23	25518
817.371	25514
817.512	25491
817.653	25449
817.793	25407
817.934	25491
818.075	25350
818.216	25479
818.356	25453
818.497	25194
818.638	25057
818.778	25168
818.919	25148
819.06	25053
819.2	25308
819.341	25228
819.481	25331
819.622	25445
819.762	25643
819.903	25556
820.043	25476
820.184	25411
820.324	25285
820.465	25514
820.605	25362
820.746	25320
820.886	25042
821.026	25335
821.167	25266
821.307	25255
821.447	25206
821.588	25065
821.728	24920
821.868	24821
822.008	24479
822.149	24620
822.289	24528
822.429	24464
822.569	24228
822.709	24213
822.849	24030
822.99	24045
823.13	23897
823.27	23832
823.41	23855
823.55	23729
823.69	23771
823.83	23794
823.97	23790
824.11	23570
824.25	23611
824.389	23478
824.529	23623
824.669	23562
824.809	23695
824.949	23627
825.089	23551
825.228	23539
825.368	23402
825.508	23410
825.648	23360
825.787	23322
825.927	23326
826.067	23299
826.206	23395
826.346	23372
826.485	23307
826.625	23330
826.765	23398
826.904	23387
827.044	23231
827.183	22999
827.323	22896
827.462	23060
827.601	22949
827.741	23018
827.88	22999
828.02	22965
828.159	22995
828.298	23075
828.437	23128
828.577	22908
828.716	23113
828.855	23010
828.994	22748
829.134	22645
829.273	22717
829.412	22611
829.551	22675
829.69	22710
829.829	22755
829.968	22611
830.107	22748
830.246	22755
830.385	22596
830.524	22588
830.663	22455
830.802	22451
830.941	22344
831.08	22265
831.219	22325
831.357	22459
831.496	22485
831.635	22287
831.774	22219
831.913	22135
832.051	22150
832.19	22154
832.329	22219
832.467	22211
832.606	21895
832.744	22048
832.883	22143
833.022	22196
833.16	22268
833.299	22424
833.437	22481
833.576	22508
833.714	22759
833.852	22820
833.991	22892
834.129	23033
834.267	22965
834.406	23003
834.544	22976
834.682	22786
834.821	22554
834.959	22729
835.097	22325
835.235	22341
835.373	22284
835.511	22200
835.65	22097
835.788	22044
835.926	21728
836.064	21690
836.202	21781
836.34	21968
836.478	21953
836.615	21800
836.753	21884
836.891	21899
837.029	21713
837.167	21720
837.305	21755
837.443	21736
837.58	21682
837.718	21599
837.856	21675
837.993	21606
838.131	21644
838.269	21469
838.406	21462
838.544	21450
838.681	21237
838.819	21226
838.956	20933
839.094	21074
839.231	21032
839.369	21214
839.506	21408
839.643	21447
839.781	20986
839.918	20952
840.055	20975
840.193	20944
840.33	21024
840.467	20994
840.604	20994
840.742	21268
840.879	20765
841.016	20944
841.153	20849
841.29	21013
841.427	20868
841.564	20960
841.701	21017
841.838	20918
841.975	20975
842.112	20883
842.249	20845
842.385	20705
842.522	20823
842.659	20792
842.796	20735
842.933	20708
843.069	20758
843.206	20705
843.343	20906
843.479	20769
843.616	20880
843.752	20777
843.889	20712
844.025	20929
844.162	20853
844.298	21028
844.435	20952
844.571	21119
844.708	21321
844.844	21736
844.98	22101
845.117	22557
845.253	23227
845.389	24627
845.525	27469
845.661	31670
845.798	37015
845.934	41044
846.07	42661
846.206	41611
846.342	38111
846.478	32769
846.614	28234
846.75	25091
846.886	23326
847.022	22402
847.158	21549
847.294	21218
847.429	20815
847.565	20522
847.701	20708
847.837	20206
847.972	20024
848.108	20119
848.244	20088
848.379	19894
848.515	19814
848.65	19765
848.786	19772
848.921	19799
849.057	19753
849.192	19750
849.328	19670
849.463	19704
849.598	19662
849.734	19438
849.869	19472
850.004	19324
850.14	19362
850.275	19381
850.41	19289
850.545	19308
850.68	19244
850.815	19266
850.95	19354
851.085	19430
851.22	19419
851.355	19301
851.49	19346
851.625	19289
851.76	19377
851.895	19187
852.03	19217
852.165	19377
852.299	19244
852.434	19411
852.569	19396
852.703	19339
852.838	19552
852.973	19491
853.107	19529
853.242	19388
853.376	19266
853.511	19225
853.645	19247
853.78	19388
853.914	19441
854.048	19487
854.183	19552
854.317	19445
854.451	19590
854.585	19453
854.72	19499
854.854	19464
854.988	19259
855.122	19377
855.256	19183
855.39	19308
855.524	19495
855.658	19381
855.792	19160
855.926	19251
856.06	19179
856.194	19187
856.327	19194
856.461	19141
856.595	19129
856.729	19129
856.862	19217
856.996	19156
857.13	19099
857.263	19202
857.397	19232
857.53	19072
857.664	19088
857.797	19217
857.931	19118
858.064	19091
858.197	19122
858.331	19050
858.464	18920
858.597	18928
858.731	18981
858.864	18954
858.997	19023
859.13	19088
859.263	19057
859.396	19057
859.529	19012
859.662	19000
859.795	19072
859.928	19046
860.061	19091
860.194	19061
860.327	19023
860.46	19034
860.592	19129
860.725	19126
860.858	19034
860.99	18958
861.123	18829
861.256	18939
861.388	19046
861.521	19510
861.653	18795
861.786	18753
861.918	18821
862.05	18878
862.183	18848
862.315	19076
862.447	19053
862.58	18943
862.712	18787
862.844	18608
862.976	18768
863.108	18776
863.24	18977
863.372	18616
863.504	18650
863.636	18623
863.768	18696
863.9	18650
864.032	18551
864.164	18604
864.296	18722
864.428	18711
864.559	18734
864.691	18700
864.823	18593
864.954	18623
865.086	18654
865.217	18639
865.349	18429
865.48	18616
865.612	18646
865.743	18692
865.875	18665
866.006	18506
866.137	18563
866.269	18506
866.4	18528
866.531	18532
866.662	18509
866.793	18563
866.924	18517
867.055	18399
867.186	18684
867.317	18456
867.448	18486
867.579	18475
867.71	18456
867.841	18407
867.972	18513
868.103	18563
868.233	18502
868.364	18601
868.495	18650
868.625	18776
868.756	18848
868.886	18760
869.017	18741
869.147	18901
869.278	18787
869.408	18859
869.539	18772
869.669	18871
869.799	18798
869.929	18985
870.06	18909
870.19	19099
870.32	19168
870.45	19069
870.58	19225
870.71	19343
870.84	19316
870.97	19209
871.1	19247
871.23	19381
871.36	19358
871.489	19343
871.619	19384
871.749	19434
871.879	19491
872.008	19559
872.138	19434
872.267	19521
872.397	19422
872.526	19362
872.656	19373
872.785	19388
872.915	19540
873.044	19620
873.173	19571
873.303	19613
873.432	19727
873.561	19734
873.69	19727
873.819	19677
873.948	19944
874.077	19833
874.206	19696
874.335	19780
874.464	19837
874.593	20073
874.722	20020
874.851	20191
874.979	20237
875.108	20172
875.237	20229
875.365	20142
875.494	20214
875.623	20305
875.751	20229
875.88	20408
876.008	20571
876.136	20526
876.265	20826
876.393	20937
876.521	20899
876.65	21058
876.778	20948
876.906	20979
877.034	20944
877.162	21173
877.29	21066
877.418	21188
877.546	21237
877.674	21431
877.802	21382
877.93	21641
878.058	21728
878.185	21781
878.313	22067
878.441	22382
878.568	22474
878.696	22972
878.824	23695
878.951	24532
879.079	25780
879.206	27389
879.333	29159
879.461	30330
879.588	31266
879.715	31377
879.842	30692
879.97	29090
880.097	27416
880.224	26073
880.351	25072
880.478	24414
880.605	24083
880.732	23707
880.859	23714
880.986	23497
881.112	23212
881.239	23181
881.366	22930
881.493	23044
881.619	22927
881.746	22930
881.872	22923
881.999	22961
882.125	22896
882.252	23033
882.378	23006
882.505	23258
882.631	23022
882.757	22957
882.883	22877
883.01	22869
883.136	22713
883.262	22717
883.388	22717
883.514	22805
883.64	22801
883.766	22706
883.892	22622
884.018	22611
884.143	22862
884.269	22820
884.395	22596
884.52	22428
884.646	22489
884.772	22516
884.897	22405
885.023	22481
885.148	22531
885.274	22577
885.399	22493
885.524	22390
885.65	22207
885.775	22257
885.9	21991
886.025	21960
886.15	21739
886.275	21736
886.4	21435
886.525	21454
886.65	21393
886.775	21249
886.9	21355
887.025	21351
887.149	21104
887.274	20815
887.399	20716
887.523	20720
887.648	20568
887.773	20434
887.897	20526
888.021	20381
888.146	20408
888.27	20526
888.395	20446
888.519	20351
888.643	20278
888.767	20233
888.891	20050
889.015	19902
889.139	19989
889.263	19864
889.387	20005
889.511	20111
889.635	19936
889.759	19651
889.883	19753
890.006	19837
890.13	19700
890.254	19582
890.377	19601
890.501	19483
890.624	19327
890.748	19422
890.871	19255
890.995	19171
891.118	19095
891.241	19141
891.364	19042
891.488	19202
891.611	19019
891.734	19069
891.857	19069
891.98	18954
892.103	19057
892.226	18943
892.349	18905
892.471	18783
892.594	18863
892.717	18878
892.839	18738
892.962	18753
893.085	18749
893.207	18627
893.33	18631
893.452	18661
893.575	18829
893.697	18642
893.819	18776
893.941	18783
894.064	18646
894.186	18521
894.308	18418
894.43	18646
894.552	18631
894.674	18635
894.796	18388
894.918	18528
895.04	18521
895.161	18620
895.283	18429
895.405	18437
895.526	18418
895.648	18490
895.769	18464
895.891	18414
896.012	18490
896.134	18566
896.255	18460
896.376	18372
896.498	18361
896.619	18483
896.74	18395
896.861	18342
896.982	18757
897.103	18776
897.224	18593
897.345	18513
897.466	18479
897.587	18494
897.708	18661
897.828	18608
897.949	18532
898.07	18418
898.19	18490
898.311	18711
898.431	18540
898.552	18597
898.672	18627
898.792	18661
898.913	18559
899.033	18395
899.153	18350
899.273	18239
899.393	18300
899.513	18369
899.633	18346
899.753	18277
899.873	18350
899.993	18369
900.113	18342
900.232	18270
900.352	18266
900.472	18144
900.591	18232
900.711	18197
900.83	18174
900.95	18228
901.069	18155
901.189	17996
901.308	17809
901.427	17733
901.546	17729
901.665	17748
901.784	17786
901.904	17596
902.023	17440
902.141	17181
902.26	17277
902.379	17383
902.498	17098
902.617	17185
902.735	17277
902.854	17102
902.973	17029
903.091	16923
903.21	16824
903.328	16828
903.446	16664
903.565	16596
903.683	16630
903.801	16424
903.919	16588
904.038	16523
904.156	16451
904.274	16424
904.392	16352
904.51	16295
904.627	16268
904.745	16390
904.863	16474
904.981	16139
905.098	15968
905.216	16006
905.334	16078
905.451	15953
905.569	15975
905.686	15975
905.803	15911
905.921	15694
906.038	15854
906.155	15819
906.272	15690
906.389	15732
906.506	15576
906.623	15572
906.74	15408
906.857	15420
906.974	15363
907.091	15633
907.208	15557
907.324	15511
907.441	15272
907.557	15233
907.674	15256
907.79	15112
907.907	15131
908.023	15199
908.139	15230
908.256	15138
908.372	15077
908.488	15066
908.604	14994
908.72	14899
908.836	14826
908.952	14849
909.068	14963
909.184	14982
909.3	14868
909.415	14960
909.531	14914
909.647	14697
909.762	14651
909.878	14526
909.993	14590
910.108	14644
910.224	14598
910.339	14617
910.454	14571
910.57	14552
910.685	14339
910.8	14655
910.915	14541
911.03	14579
911.145	14332
911.259	14248
911.374	14278
911.489	14294
911.604	14119
911.718	14039
911.833	14058
911.947	13887
912.062	13822
912.176	13963
912.291	13993
912.405	14043
912.519	14282
912.633	14187
912.748	14073
912.862	13875
912.976	13822
913.09	13750
913.204	13791
913.318	13871
913.431	13906
913.545	13986
913.659	13940
913.772	13761
913.886	13704
914	13609
914.113	13753
914.226	13788
914.34	13734
914.453	13609
914.566	13693
914.68	13601
914.793	13582
914.906	13445
915.019	13407
915.132	13358
915.245	13415
915.358	13346
915.47	13358
915.583	13400
915.696	13457
915.809	13449
915.921	13544
916.034	13373
916.146	13270
916.259	13304
916.371	13396
916.483	13407
916.595	13221
916.708	13244
916.82	13369
916.932	13308
917.044	13263
917.156	13137
917.268	13107
917.38	13168
917.491	13179
917.603	13149
917.715	13190
917.826	13160
917.938	13057
918.049	12993
918.161	13027
918.272	13297
918.384	13175
918.495	13129
918.606	12920
918.717	12707
918.828	12909
918.939	12837
919.05	12825
919.161	12871
919.272	12703
919.383	12642
919.494	12909
919.604	13019
919.715	12798
919.826	12783
919.936	12856
920.047	12852
920.157	12760
920.267	12989
920.378	12897
920.488	12806
920.598	13038
920.708	13076
920.818	13023
920.928	12905
921.038	13050
921.148	13053
921.258	12814
921.368	12646
921.477	12639
921.587	12578
921.697	12475
921.806	12597
921.916	12426
922.025	12346
922.134	12292
922.244	12239
922.353	12254
922.462	12125
922.571	12076
922.68	11920
922.789	11999
922.898	11942
923.007	11843
923.116	11893
923.224	11817
923.333	11870
923.442	11748
923.55	11779
923.659	11756
923.767	11703
923.876	11691
923.984	11863
924.092	11577
924.201	11691
924.309	11676
924.417	11676
924.525	11592
924.633	11653
924.741	12365
924.849	11364
924.956	11554
925.064	11395
925.172	11288
925.279	11467
925.387	11497
925.494	11421
925.602	11474
925.709	11395
925.816	11303
925.924	11360
926.031	11444
926.138	11349
926.245	11406
926.352	11315
926.459	11459
926.566	11455
926.673	11254
926.779	11128
926.886	11242
926.993	11033
927.099	10980
927.206	10949
927.312	10980
927.419	11037
927.525	10961
927.631	11025
927.737	10927
927.843	10911
927.95	10816
928.056	10862
928.162	10900
928.267	10911
928.373	11410
928.479	10965
928.585	10626
928.69	10820
928.796	10873
928.901	10683
929.007	10618
929.112	10687
929.218	10744
929.323	10637
929.428	10630
929.533	10729
929.638	10531
929.743	10569
929.848	10675
929.953	10626
930.058	10519
930.163	10363
930.267	10413
930.372	10531
930.477	10360
930.581	10615
930.685	10337
930.79	10227
930.894	10242
930.998	10169
931.103	10421
931.207	10032
931.311	9934
931.415	9857
931.519	9724
931.623	9660
