Data from test_V78500241_1950.txt Node
Date: Fri Mar 25 14:47:17 CST 2022
User: usil
Spectrometer: V785-0024
Trigger mode: 0
Integration Time (sec): 4.000000E-1
Scans to average: 1
Nonlinearity correction enabled: false
Boxcar width: 0
Storing dark spectrum: false
XAxis mode: Wavelengths
Number of Pixels in Spectrum: 1024
>>>>>Begin Spectral Data<<<<<
801.071	22131
801.214	21903
801.356	21770
801.499	21599
801.641	21511
801.783	21485
801.926	21424
802.068	21393
802.211	21264
802.353	21348
802.496	21024
802.638	20982
802.78	20864
802.923	20876
803.065	20819
803.208	20743
803.35	20838
803.492	20925
803.635	20807
803.777	20769
803.919	20883
804.061	21146
804.204	20754
804.346	20750
804.488	20648
804.63	20811
804.773	20613
804.915	20781
805.057	20750
805.199	20602
805.341	20861
805.483	20785
805.626	20872
805.768	20667
805.91	20720
806.052	20655
806.194	20667
806.336	20785
806.478	20636
806.62	20659
806.762	20796
806.904	20906
807.046	21165
807.188	21081
807.33	21070
807.472	21081
807.614	20861
807.756	20967
807.898	20792
808.04	20804
808.182	20739
808.324	20743
808.465	20857
808.607	21001
808.749	20990
808.891	21256
809.033	21252
809.174	21081
809.316	21062
809.458	21085
809.6	21013
809.741	21142
809.883	21138
810.025	21222
810.166	21329
810.308	21176
810.45	21142
810.591	21039
810.733	20899
810.875	20899
811.016	20800
811.158	20686
811.299	20952
811.441	20929
811.582	20937
811.724	20872
811.865	20826
812.007	20800
812.148	20773
812.29	20952
812.431	21028
812.573	21055
812.714	21176
812.855	21374
812.997	21386
813.138	21557
813.279	21401
813.421	21325
813.562	21249
813.703	21192
813.845	21005
813.986	20712
814.127	20484
814.268	20423
814.41	20377
814.551	20305
814.692	20400
814.833	20252
814.974	20358
815.115	20309
815.256	20229
815.397	20221
815.539	20191
815.68	20138
815.821	20046
815.962	20126
816.103	20119
816.244	20065
816.385	19887
816.526	19826
816.666	19514
816.807	19578
816.948	19719
817.089	19639
817.23	19757
817.371	19502
817.512	19506
817.653	19639
817.793	19411
817.934	19476
818.075	19529
818.216	19582
818.356	19540
818.497	19377
818.638	19202
818.778	19103
818.919	19179
819.06	19346
819.2	19331
819.341	19472
819.481	19445
819.622	19552
819.762	19696
819.903	19552
820.043	19457
820.184	19590
820.324	19609
820.465	19537
820.605	19704
820.746	19434
820.886	19316
821.026	19506
821.167	19495
821.307	19677
821.447	19453
821.588	19346
821.728	19190
821.868	19126
822.008	18977
822.149	19061
822.289	18890
822.429	18776
822.569	18563
822.709	18635
822.849	18414
822.99	18506
823.13	18414
823.27	18426
823.41	18281
823.55	18178
823.69	18292
823.83	18380
823.97	18110
824.11	18114
824.25	18026
824.389	18072
824.529	18167
824.669	18117
824.809	18106
824.949	18019
825.089	18026
825.228	18076
825.368	17885
825.508	17878
825.648	17851
825.787	17885
825.927	17859
826.067	17756
826.206	17771
826.346	17999
826.485	17790
826.625	17741
826.765	17836
826.904	17840
827.044	17581
827.183	17524
827.323	17455
827.462	17505
827.601	17592
827.741	17452
827.88	17501
828.02	17417
828.159	17532
828.298	17478
828.437	17600
828.577	17486
828.716	17638
828.855	17440
828.994	17315
829.134	17261
829.273	17326
829.412	17288
829.551	17200
829.69	17273
829.829	17284
829.968	17425
830.107	17330
830.246	17265
830.385	17273
830.524	17254
830.663	17071
830.802	17006
830.941	16869
831.08	16816
831.219	17018
831.357	16999
831.496	17220
831.635	16972
831.774	16797
831.913	16778
832.051	16645
832.19	16630
832.329	16850
832.467	16565
832.606	16596
832.744	16569
832.883	16561
833.022	16573
833.16	16634
833.299	16611
833.437	16626
833.576	16599
833.714	16641
833.852	16668
833.991	16721
834.129	16717
834.267	16683
834.406	16573
834.544	16565
834.682	16706
834.821	16691
834.959	16763
835.097	16546
835.235	16691
835.373	16698
835.511	16713
835.65	16500
835.788	16519
835.926	16417
836.064	16348
836.202	16390
836.34	16573
836.478	16611
836.615	16641
836.753	16554
836.891	16668
837.029	16637
837.167	16489
837.305	16485
837.443	16455
837.58	16390
837.718	16538
837.856	16478
837.993	16485
838.131	16428
838.269	16303
838.406	16303
838.544	16329
838.681	16223
838.819	16154
838.956	16116
839.094	16006
839.231	15979
839.369	16093
839.506	16322
839.643	16192
839.781	16036
839.918	15960
840.055	16067
840.193	15998
840.33	15884
840.467	15994
840.604	15991
840.742	16204
840.879	15854
841.016	15857
841.153	15949
841.29	16025
841.427	15994
841.564	16078
841.701	15960
841.838	15850
841.975	15911
842.112	15915
842.249	15781
842.385	15739
842.522	16044
842.659	15785
842.796	15682
842.933	15732
843.069	15739
843.206	15713
843.343	15838
843.479	15739
843.616	15816
843.752	15538
843.889	15538
844.025	15781
844.162	15469
844.298	15667
844.435	15568
844.571	15511
844.708	15576
844.844	15739
844.98	15686
845.117	15584
845.253	15450
845.389	15511
845.525	15477
845.661	15458
845.798	15287
845.934	15397
846.07	15397
846.206	15294
846.342	15488
846.478	15367
846.614	15135
846.75	15192
846.886	15062
847.022	15169
847.158	15184
847.294	15188
847.429	15218
847.565	15066
847.701	15321
847.837	14872
847.972	14804
848.108	14868
848.244	14906
848.379	14735
848.515	14678
848.65	14636
848.786	14739
848.921	14708
849.057	14899
849.192	14800
849.328	14697
849.463	14754
849.598	14746
849.734	14785
849.869	14632
850.004	14476
850.14	14480
850.275	14480
850.41	14408
850.545	14446
850.68	14431
850.815	14537
850.95	14530
851.085	14636
851.22	14632
851.355	14457
851.49	14442
851.625	14423
851.76	14514
851.895	14438
852.03	14362
852.165	14454
852.299	14518
852.434	14537
852.569	14537
852.703	14514
852.838	14610
852.973	14693
853.107	14632
853.242	14450
853.376	14336
853.511	14336
853.645	14256
853.78	14423
853.914	14419
854.048	14370
854.183	14278
854.317	14400
854.451	14545
854.585	14313
854.72	14301
854.854	14347
854.988	14313
855.122	14252
855.256	14210
855.39	14415
855.524	14518
855.658	14366
855.792	14336
855.926	14427
856.06	14438
856.194	14514
856.327	14313
856.461	14259
856.595	14328
856.729	14313
856.862	14511
856.996	14301
857.13	14499
857.263	14537
857.397	14518
857.53	14305
857.664	14377
857.797	14427
857.931	14480
858.064	14427
858.197	14446
858.331	14332
858.464	14290
858.597	14237
858.731	14332
858.864	14370
858.997	14290
859.13	14400
859.263	14404
859.396	14404
859.529	14381
859.662	14309
859.795	14278
859.928	14347
860.061	14568
860.194	14552
860.327	14370
860.46	14328
860.592	14396
860.725	14457
860.858	14450
860.99	14339
861.123	14282
861.256	14347
861.388	14374
861.521	15199
861.653	14183
861.786	14225
861.918	14214
862.05	14202
862.183	14389
862.315	14248
862.447	14221
862.58	14355
862.712	14134
862.844	14054
862.976	14168
863.108	14149
863.24	14469
863.372	14062
863.504	14153
863.636	14115
863.768	14218
863.9	14096
864.032	14012
864.164	14206
864.296	14176
864.428	14294
864.559	14252
864.691	14244
864.823	14218
864.954	14233
865.086	14248
865.217	14168
865.349	14050
865.48	14153
865.612	14142
865.743	14225
865.875	14218
866.006	14153
866.137	14142
866.269	14107
866.4	14115
866.531	14092
866.662	14065
866.793	14027
866.924	14050
867.055	14100
867.186	14035
867.317	14065
867.448	14054
867.579	14077
867.71	13989
867.841	13967
867.972	14142
868.103	14134
868.233	14100
868.364	14145
868.495	14206
868.625	14396
868.756	14450
868.886	14309
869.017	14282
869.147	14408
869.278	14518
869.408	14415
869.539	14412
869.669	14503
869.799	14499
869.929	14423
870.06	14484
870.19	14754
870.32	14731
870.45	14644
870.58	14754
870.71	14842
870.84	14807
870.97	14716
871.1	14705
871.23	14876
871.36	14937
871.489	14921
871.619	14933
871.749	14864
871.879	14956
872.008	15009
872.138	15051
872.267	14937
872.397	14918
872.526	14762
872.656	14777
872.785	14781
872.915	14967
873.044	15123
873.173	15032
873.303	15039
873.432	14979
873.561	15131
873.69	14929
873.819	14933
873.948	15161
874.077	15032
874.206	15009
874.335	15131
874.464	15138
874.593	15332
874.722	15329
874.851	15378
874.979	15298
875.108	15412
875.237	15203
875.365	15260
875.494	15249
875.623	15370
875.751	15317
875.88	15294
876.008	15469
876.136	15595
876.265	15686
876.393	15926
876.521	15755
876.65	15743
876.778	15861
876.906	15667
877.034	15770
877.162	15656
877.29	15686
877.418	15846
877.546	15724
877.674	15603
877.802	15732
877.93	15835
878.058	15736
878.185	15538
878.313	15652
878.441	15759
878.568	15557
878.696	15781
878.824	15793
878.951	15884
879.079	15861
879.206	16097
879.333	15918
879.461	15800
879.588	15861
879.715	15941
879.842	15915
879.97	15793
880.097	15568
880.224	15682
880.351	15648
880.478	15606
880.605	15534
880.732	15587
880.859	15808
880.986	15625
881.112	15530
881.239	15492
881.366	15298
881.493	15374
881.619	15249
881.746	15291
881.872	15260
881.999	15192
882.125	15260
882.252	15340
882.378	15249
882.505	15515
882.631	15218
882.757	15013
882.883	15233
883.01	15039
883.136	14990
883.262	14941
883.388	14868
883.514	15104
883.64	15192
883.766	14990
883.892	14883
884.018	14967
884.143	15039
884.269	15146
884.395	14750
884.52	14796
884.646	14887
884.772	14739
884.897	14655
885.023	14712
885.148	14796
885.274	14979
885.399	14952
885.524	14864
885.65	14743
885.775	14823
885.9	14724
886.025	14842
886.15	14819
886.275	14788
886.4	14537
886.525	14727
886.65	14712
886.775	14682
886.9	14902
887.025	15005
887.149	14777
887.274	14659
887.399	14560
887.523	14533
887.648	14575
887.773	14560
887.897	14629
888.021	14686
888.146	14492
888.27	14708
888.395	14746
888.519	14678
888.643	14651
888.767	14686
888.891	14461
889.015	14442
889.139	14518
889.263	14434
889.387	14522
889.511	14659
889.635	14579
889.759	14434
889.883	14465
890.006	14484
890.13	14476
890.254	14385
890.377	14438
890.501	14305
890.624	14278
890.748	14412
890.871	14233
890.995	14142
891.118	13986
891.241	14252
891.364	14210
891.488	14271
891.611	14157
891.734	14244
891.857	14278
891.98	14153
892.103	14256
892.226	14221
892.349	14214
892.471	14020
892.594	14115
892.717	14157
892.839	14119
892.962	14126
893.085	14328
893.207	14176
893.33	14103
893.452	14115
893.575	14210
893.697	14100
893.819	14366
893.941	14309
894.064	14282
894.186	14180
894.308	14107
894.43	14366
894.552	14339
894.674	14336
894.796	14145
894.918	14278
895.04	14100
895.161	14301
895.283	14324
895.405	14084
895.526	14256
895.648	14278
895.769	14286
895.891	14400
896.012	14301
896.134	14347
896.255	14301
896.376	14248
896.498	14374
896.619	14381
896.74	14309
896.861	14454
896.982	14697
897.103	14845
897.224	14670
897.345	14640
897.466	14533
897.587	14587
897.708	14701
897.828	14636
897.949	14545
898.07	14328
898.19	14556
898.311	14594
898.431	14583
898.552	14667
898.672	14670
898.792	14765
898.913	14720
899.033	14571
899.153	14632
899.273	14442
899.393	14476
899.513	14522
899.633	14541
899.753	14590
899.873	14454
899.993	14495
900.113	14594
900.232	14514
900.352	14446
900.472	14412
900.591	14328
900.711	14400
900.83	14412
900.95	14492
901.069	14499
901.189	14351
901.308	14103
901.427	14073
901.546	14084
901.665	14073
901.784	14100
901.904	13955
902.023	13830
902.141	13613
902.26	13677
902.379	13662
902.498	13620
902.617	13537
902.735	13548
902.854	13689
902.973	13510
903.091	13381
903.21	13282
903.328	13282
903.446	13259
903.565	13149
903.683	13209
903.801	13103
903.919	13217
904.038	13190
904.156	12954
904.274	13019
904.392	13023
904.51	13084
904.627	13012
904.745	13019
904.863	13099
904.981	12890
905.098	12730
905.216	12700
905.334	12738
905.451	12810
905.569	12681
905.686	12711
905.803	12719
905.921	12593
906.038	12589
906.155	12639
906.272	12445
906.389	12426
906.506	12319
906.623	12319
906.74	12323
906.857	12205
906.974	12258
907.091	12330
907.208	12388
907.324	12308
907.441	12228
907.557	12068
907.674	12011
907.79	11996
907.907	11992
908.023	12091
908.139	11965
908.256	12045
908.372	11893
908.488	11969
908.604	11878
908.72	11809
908.836	11794
908.952	11726
909.068	11767
909.184	11882
909.3	11893
909.415	11855
909.531	11954
909.647	11615
909.762	11611
909.878	11543
909.993	11570
910.108	11497
910.224	11604
910.339	11634
910.454	11383
910.57	11398
910.685	11395
910.8	11680
910.915	11516
911.03	11493
911.145	11258
911.259	11216
911.374	11250
911.489	11212
911.604	11235
911.718	11121
911.833	11018
911.947	10877
912.062	10889
912.176	10961
912.291	10965
912.405	11006
912.519	11193
912.633	11254
912.748	11086
912.862	11052
912.976	10949
913.09	10778
913.204	10881
913.318	10904
913.431	11029
913.545	10927
913.659	11056
913.772	10930
913.886	10824
914	10752
914.113	10869
914.226	10972
914.34	10839
914.453	10653
914.566	10831
914.68	10710
914.793	10645
914.906	10542
915.019	10478
915.132	10421
915.245	10451
915.358	10573
915.47	10580
915.583	10531
915.696	10493
915.809	10615
915.921	10694
916.034	10531
916.146	10512
916.259	10504
916.371	10527
916.483	10523
916.595	10550
916.708	10519
916.82	10489
916.932	10462
917.044	10489
917.156	10436
917.268	10287
917.38	10379
917.491	10314
917.603	10424
917.715	10485
917.826	10405
917.938	10371
918.049	10207
918.161	10386
918.272	10516
918.384	10402
918.495	10413
918.606	10265
918.717	10246
918.828	10223
918.939	10360
919.05	10143
919.161	10154
919.272	9972
919.383	10093
919.494	10375
919.604	10409
919.715	10253
919.826	10188
919.936	10261
920.047	10413
920.157	10257
920.267	10565
920.378	10253
920.488	10238
920.598	10367
920.708	10626
920.818	10462
920.928	10402
921.038	10577
921.148	10504
921.258	10382
921.368	10185
921.477	10139
921.587	10101
921.697	9956
921.806	10082
921.916	10013
922.025	9835
922.134	9865
922.244	9808
922.353	9895
922.462	9709
922.571	9591
922.68	9488
922.789	9477
922.898	9553
923.007	9431
923.116	9580
923.224	9504
923.333	9454
923.442	9332
923.55	9401
923.659	9412
923.767	9443
923.876	9393
923.984	9389
924.092	9310
924.201	9355
924.309	9359
924.417	9424
924.525	9302
924.633	9272
924.741	10238
924.849	9146
924.956	9283
925.064	9222
925.172	9085
925.279	9112
925.387	9173
925.494	9142
925.602	9294
925.709	9230
925.816	9020
925.924	9161
926.031	9264
926.138	9207
926.245	9237
926.352	8982
926.459	9154
926.566	9241
926.673	9138
926.779	8994
926.886	8963
926.993	8883
927.099	8853
927.206	8864
927.312	8804
927.419	8899
927.525	8921
927.631	8906
927.737	8785
927.843	8705
927.95	8598
928.056	8689
928.162	8735
928.267	8861
928.373	9382
928.479	8929
928.585	8522
928.69	8766
928.796	8758
928.901	8708
929.007	8590
929.112	8693
929.218	8598
929.323	8613
929.428	8488
929.533	8708
929.638	8495
929.743	8503
929.848	8579
929.953	8522
930.058	8507
930.163	8317
930.267	8362
930.372	8579
930.477	8294
930.581	8541
930.685	8385
930.79	8290
930.894	8358
930.998	8214
931.103	8393
931.207	8123
931.311	8005
931.415	7936
931.519	7799
931.623	7788
