Data from test_V78500241_843.txt Node
Date: Fri Mar 25 14:39:35 CST 2022
User: usil
Spectrometer: V785-0024
Trigger mode: 0
Integration Time (sec): 4.000000E-1
Scans to average: 1
Nonlinearity correction enabled: false
Boxcar width: 0
Storing dark spectrum: false
XAxis mode: Wavelengths
Number of Pixels in Spectrum: 1024
>>>>>Begin Spectral Data<<<<<
801.071	25951
801.214	25784
801.356	25601
801.499	25605
801.641	25362
801.783	25270
801.926	25365
802.068	25228
802.211	25012
802.353	25145
802.496	24829
802.638	24810
802.78	24760
802.923	24642
803.065	24696
803.208	24654
803.35	24734
803.492	24791
803.635	24814
803.777	24738
803.919	24806
804.061	25221
804.204	24962
804.346	24882
804.488	24589
804.63	24875
804.773	24814
804.915	24920
805.057	25015
805.199	25031
805.341	25110
805.483	25194
805.626	25217
805.768	25080
805.91	25190
806.052	25343
806.194	25293
806.336	25594
806.478	25613
806.62	25582
806.762	25917
806.904	26206
807.046	26617
807.188	26575
807.33	26990
807.472	27416
807.614	27538
807.756	28188
807.898	28679
808.04	29638
808.182	30753
808.324	32309
808.465	34025
808.607	35904
808.749	37502
808.891	38495
809.033	38674
809.174	37578
809.316	35878
809.458	33953
809.6	31989
809.741	30646
809.883	29395
810.025	28561
810.166	27956
810.308	27466
810.45	27146
810.591	26746
810.733	26339
810.875	26267
811.016	25890
811.158	25864
811.299	25814
811.441	25909
811.582	25742
811.724	25571
811.865	25491
812.007	25495
812.148	25331
812.29	25282
812.431	25415
812.573	25525
812.714	25571
812.855	25795
812.997	25723
813.138	25883
813.279	25803
813.421	25677
813.562	25472
813.703	25316
813.845	25209
813.986	24837
814.127	24669
814.268	24684
814.41	24623
814.551	24540
814.692	24703
814.833	24384
814.974	24479
815.115	24601
815.256	24346
815.397	24311
815.539	24281
815.68	24209
815.821	24136
815.962	24148
816.103	24159
816.244	23969
816.385	23779
816.526	23843
816.666	23615
816.807	23478
816.948	23528
817.089	23703
817.23	23505
817.371	23486
817.512	23478
817.653	23414
817.793	23372
817.934	23330
818.075	23436
818.216	23246
818.356	23372
818.497	23277
818.638	23132
818.778	23064
818.919	23102
819.06	23121
819.2	23151
819.341	23322
819.481	23265
819.622	23509
819.762	23478
819.903	23520
820.043	23448
820.184	23284
820.324	23410
820.465	23311
820.605	23185
820.746	23330
820.886	23208
821.026	23204
821.167	23231
821.307	23292
821.447	23197
821.588	23083
821.728	22801
821.868	22771
822.008	22630
822.149	22687
822.289	22573
822.429	22333
822.569	22280
822.709	22192
822.849	22169
822.99	22120
823.13	22044
823.27	21903
823.41	21945
823.55	21720
823.69	21892
823.83	21941
823.97	21838
824.11	21633
824.25	21587
824.389	21587
824.529	21736
824.669	21580
824.809	21770
824.949	21701
825.089	21656
825.228	21667
825.368	21454
825.508	21473
825.648	21492
825.787	21386
825.927	21481
826.067	21332
826.206	21477
826.346	21340
826.485	21545
826.625	21222
826.765	21504
826.904	21321
827.044	21024
827.183	21100
827.323	21036
827.462	21070
827.601	20941
827.741	21047
827.88	21001
828.02	20910
828.159	20975
828.298	21001
828.437	21032
828.577	20963
828.716	21146
828.855	20979
828.994	20876
829.134	20758
829.273	20697
829.412	20811
829.551	20651
829.69	20682
829.829	20842
829.968	20864
830.107	20739
830.246	20769
830.385	20739
830.524	20632
830.663	20537
830.802	20374
830.941	20278
831.08	20351
831.219	20454
831.357	20476
831.496	20469
831.635	20377
831.774	20267
831.913	20252
832.051	20218
832.19	20240
832.329	20206
832.467	20103
832.606	20134
832.744	20096
832.883	20161
833.022	20305
833.16	20320
833.299	20336
833.437	20412
833.576	20533
833.714	20499
833.852	20640
833.991	20667
834.129	20906
834.267	20781
834.406	20739
834.544	20674
834.682	20568
834.821	20594
834.959	20579
835.097	20286
835.235	20259
835.373	20240
835.511	20271
835.65	20218
835.788	19936
835.926	19837
836.064	19738
836.202	19818
836.34	19974
836.478	20046
836.615	19970
836.753	19818
836.891	19959
837.029	19955
837.167	19909
837.305	19788
837.443	19674
837.58	19784
837.718	19898
837.856	19700
837.993	19658
838.131	19780
838.269	19499
838.406	19594
838.544	19670
838.681	19247
838.819	19365
838.956	19225
839.094	19217
839.231	19202
839.369	19343
839.506	19506
839.643	19430
839.781	19225
839.918	19122
840.055	19190
840.193	19110
840.33	19103
840.467	19084
840.604	19027
840.742	19384
840.879	19091
841.016	18993
841.153	19061
841.29	19148
841.427	19019
841.564	19221
841.701	19057
841.838	19057
841.975	18996
842.112	19019
842.249	18882
842.385	18814
842.522	18977
842.659	18909
842.796	18817
842.933	18958
843.069	18973
843.206	18954
843.343	18958
843.479	18958
843.616	18844
843.752	18856
843.889	18863
844.025	19038
844.162	18817
844.298	19012
844.435	18951
844.571	18989
844.708	19392
844.844	19693
844.98	19765
845.117	20122
845.253	20625
845.389	21519
845.525	23516
845.661	26495
845.798	30365
845.934	33500
846.07	34710
846.206	34234
846.342	31635
846.478	27816
846.614	24300
846.75	22017
846.886	20708
847.022	20081
847.158	19369
847.294	19072
847.429	18802
847.565	18639
847.701	18863
847.837	18296
847.972	18194
848.108	18186
848.244	18102
848.379	17954
848.515	17771
848.65	17870
848.786	17847
848.921	17923
849.057	17942
849.192	17950
849.328	17882
849.463	17745
849.598	17859
849.734	17752
849.869	17687
850.004	17505
850.14	17543
850.275	17657
850.41	17539
850.545	17421
850.68	17516
850.815	17532
850.95	17501
851.085	17699
851.22	17573
851.355	17490
851.49	17452
851.625	17429
851.76	17562
851.895	17486
852.03	17501
852.165	17493
852.299	17615
852.434	17585
852.569	17600
852.703	17623
852.838	17581
852.973	17695
853.107	17695
853.242	17596
853.376	17459
853.511	17452
853.645	17505
853.78	17699
853.914	17623
854.048	17474
854.183	17608
854.317	17649
854.451	17726
854.585	17589
854.72	17570
854.854	17672
854.988	17486
855.122	17547
855.256	17391
855.39	17364
855.524	17585
855.658	17448
855.792	17547
855.926	17520
856.06	17414
856.194	17440
856.327	17440
856.461	17341
856.595	17311
856.729	17311
856.862	17452
856.996	17433
857.13	17368
857.263	17398
857.397	17478
857.53	17353
857.664	17459
857.797	17444
857.931	17467
858.064	17277
858.197	17482
858.331	17269
858.464	17162
858.597	17136
858.731	17159
858.864	17216
858.997	17204
859.13	17299
859.263	17349
859.396	17288
859.529	17189
859.662	17269
859.795	17231
859.928	17299
860.061	17334
860.194	17471
860.327	17212
860.46	17212
860.592	17311
860.725	17448
860.858	17379
860.99	17303
861.123	17174
861.256	17189
861.388	17318
861.521	17908
861.653	17067
861.786	17105
861.918	17174
862.05	17102
862.183	17159
862.315	17231
862.447	17155
862.58	17265
862.712	17033
862.844	16927
862.976	17022
863.108	16987
863.24	17360
863.372	16847
863.504	16927
863.636	16938
863.768	16942
863.9	16942
864.032	16919
864.164	16961
864.296	17010
864.428	16927
864.559	16972
864.691	17052
864.823	17041
864.954	16999
865.086	16999
865.217	16946
865.349	16816
865.48	16900
865.612	16934
865.743	17006
865.875	16911
866.006	16847
866.137	16881
866.269	16835
866.4	16957
866.531	16923
866.662	16759
866.793	16797
866.924	16869
867.055	16946
867.186	16919
867.317	16866
867.448	16805
867.579	16790
867.71	16767
867.841	16759
867.972	16843
868.103	16828
868.233	16873
868.364	16946
868.495	16919
868.625	17102
868.756	17178
868.886	17003
869.017	17140
869.147	17220
869.278	17223
869.408	17162
869.539	17200
869.669	17140
869.799	17094
869.929	17277
870.06	17254
870.19	17459
870.32	17463
870.45	17486
870.58	17558
870.71	17615
870.84	17649
870.97	17581
871.1	17642
871.23	17627
871.36	17901
871.489	17642
871.619	17703
871.749	17870
871.879	17878
872.008	17901
872.138	17802
872.267	17821
872.397	17722
872.526	17619
872.656	17680
872.785	17703
872.915	17870
873.044	17939
873.173	17935
873.303	17980
873.432	17984
873.561	18003
873.69	17942
873.819	17969
873.948	18030
874.077	18064
874.206	17988
874.335	18038
874.464	18220
874.593	18289
874.722	18270
874.851	18437
874.979	18399
875.108	18506
875.237	18388
875.365	18414
875.494	18479
875.623	18612
875.751	18410
875.88	18593
876.008	18646
876.136	18806
876.265	19076
876.393	19175
876.521	19099
876.65	19324
876.778	19080
876.906	19164
877.034	19209
877.162	19038
877.29	19209
877.418	19274
877.546	19476
877.674	19365
877.802	19510
877.93	19582
878.058	19693
878.185	19689
878.313	19780
878.441	20065
878.568	20259
878.696	20484
878.824	21001
878.951	21781
879.079	22691
879.206	24041
879.333	25050
879.461	25993
879.588	26765
879.715	26781
879.842	26229
879.97	25202
880.097	23672
880.224	22664
880.351	22139
880.478	21625
880.605	21275
880.732	21017
880.859	21176
880.986	20792
881.112	20731
881.239	20667
881.366	20454
881.493	20317
881.619	20400
881.746	20533
881.872	20362
881.999	20495
882.125	20389
882.252	20324
882.378	20507
882.505	20640
882.631	20366
882.757	20294
882.883	20358
883.01	20347
883.136	20259
883.262	20172
883.388	20005
883.514	20244
883.64	20298
883.766	20256
883.892	20058
884.018	20138
884.143	20077
884.269	20267
884.395	20103
884.52	19970
884.646	20084
884.772	19970
884.897	19822
885.023	19970
885.148	20069
885.274	20088
885.399	19917
885.524	19803
885.65	19799
885.775	19666
885.9	19613
886.025	19651
886.15	19662
886.275	19400
886.4	19285
886.525	19304
886.65	19133
886.775	18996
886.9	19122
887.025	19171
887.149	18928
887.274	18661
887.399	18582
887.523	18597
887.648	18433
887.773	18448
887.897	18448
888.021	18426
888.146	18353
888.27	18414
888.395	18422
888.519	18464
888.643	18391
888.767	18323
888.891	18251
889.015	18038
889.139	18045
889.263	17996
889.387	18034
889.511	18152
889.635	18072
889.759	17882
889.883	17840
890.006	17863
890.13	17980
890.254	17680
890.377	17817
890.501	17596
890.624	17539
890.748	17619
890.871	17467
890.995	17410
891.118	17280
891.241	17379
891.364	17299
891.488	17436
891.611	17387
891.734	17284
891.857	17417
891.98	17273
892.103	17383
892.226	17349
892.349	17330
892.471	17025
892.594	17200
892.717	17181
892.839	17197
892.962	17086
893.085	17193
893.207	17136
893.33	16991
893.452	17098
893.575	17022
893.697	17014
893.819	17208
893.941	17185
894.064	17033
894.186	17014
894.308	16949
894.43	16980
894.552	17010
894.674	17045
894.796	16839
894.918	16866
895.04	16873
895.161	16892
895.283	16877
895.405	16850
895.526	16927
895.648	16812
895.769	16927
895.891	16900
896.012	17003
896.134	17006
896.255	16961
896.376	16900
896.498	16946
896.619	16915
896.74	16946
896.861	16987
896.982	17242
897.103	17277
897.224	17193
897.345	17227
897.466	17071
897.587	17147
897.708	17178
897.828	17174
897.949	17185
898.07	17029
898.19	17056
898.311	17277
898.431	17067
898.552	17345
898.672	17246
898.792	17239
898.913	17124
899.033	16980
899.153	17041
899.273	16839
899.393	16938
899.513	16923
899.633	17056
899.753	17029
899.873	16930
899.993	16961
900.113	16866
900.232	16961
900.352	16881
900.472	16953
900.591	16782
900.711	16820
900.83	16801
900.95	16869
901.069	16984
901.189	16717
901.308	16466
901.427	16508
901.546	16546
901.665	16390
901.784	16481
901.904	16367
902.023	16143
902.141	16040
902.26	15937
902.379	16040
902.498	15835
902.617	15850
902.735	15937
902.854	15842
902.973	15816
903.091	15492
903.21	15557
903.328	15511
903.446	15473
903.565	15443
903.683	15386
903.801	15336
903.919	15279
904.038	15203
904.156	15116
904.274	15119
904.392	15157
904.51	15169
904.627	15199
904.745	15169
904.863	15104
904.981	14971
905.098	14823
905.216	14701
905.334	14792
905.451	14712
905.569	14724
905.686	14731
905.803	14739
905.921	14636
906.038	14674
906.155	14579
906.272	14469
906.389	14389
906.506	14225
906.623	14400
906.74	14298
906.857	14278
906.974	14161
907.091	14271
907.208	14374
907.324	14362
907.441	14328
907.557	13955
907.674	13967
907.79	13917
907.907	13989
908.023	14062
908.139	14126
908.256	14031
908.372	13875
908.488	13947
908.604	13811
908.72	13719
908.836	13803
908.952	13719
909.068	13883
909.184	13818
909.3	13761
909.415	13738
909.531	13830
909.647	13575
909.762	13540
909.878	13514
909.993	13373
910.108	13533
910.224	13533
910.339	13472
910.454	13381
910.57	13289
910.685	13263
910.8	13578
910.915	13460
911.03	13228
911.145	13141
911.259	13221
911.374	13164
911.489	13053
911.604	13057
911.718	12981
911.833	12935
911.947	12734
912.062	12715
912.176	12795
912.291	12867
912.405	12768
912.519	13027
912.633	13164
912.748	12947
912.862	12848
912.976	12776
913.09	12711
913.204	12631
913.318	12673
913.431	12814
913.545	12726
913.659	12859
913.772	12738
913.886	12601
914	12642
914.113	12688
914.226	12696
914.34	12692
914.453	12532
914.566	12654
914.68	12521
914.793	12517
914.906	12273
915.019	12426
915.132	12213
915.245	12334
915.358	12346
915.47	12414
915.583	12334
915.696	12353
915.809	12536
915.921	12486
916.034	12350
916.146	12247
916.259	12258
916.371	12395
916.483	12205
916.595	12205
916.708	12277
916.82	12216
916.932	12258
917.044	12243
917.156	12292
917.268	12041
917.38	12148
917.491	12117
917.603	12072
917.715	12091
917.826	12262
917.938	12015
918.049	11935
918.161	11996
918.272	12098
918.384	12216
918.495	11950
918.606	11870
918.717	11771
918.828	11908
918.939	11946
919.05	11726
919.161	11916
919.272	11684
919.383	11756
919.494	11908
919.604	12095
919.715	11901
919.826	11847
919.936	11828
920.047	11958
920.157	11855
920.267	12091
920.378	11855
920.488	11821
920.598	11999
920.708	12171
920.818	12038
920.928	11969
921.038	12091
921.148	12175
921.258	11840
921.368	11771
921.477	11672
921.587	11623
921.697	11554
921.806	11688
921.916	11532
922.025	11395
922.134	11273
922.244	11265
922.353	11360
922.462	11227
922.571	11071
922.68	11014
922.789	10946
922.898	11025
923.007	10908
923.116	10991
923.224	10961
923.333	11045
923.442	10942
923.55	10793
923.659	10881
923.767	10938
923.876	10801
923.984	10976
924.092	10869
924.201	10828
924.309	10877
924.417	10847
924.525	10801
924.633	10824
924.741	11745
924.849	10554
924.956	10710
925.064	10618
925.172	10470
925.279	10535
925.387	10599
925.494	10580
925.602	10721
925.709	10668
925.816	10481
925.924	10500
926.031	10550
926.138	10558
926.245	10577
926.352	10455
926.459	10664
926.566	10577
926.673	10497
926.779	10409
926.886	10318
926.993	10219
927.099	10166
927.206	10158
927.312	10150
927.419	10200
927.525	10337
927.631	10272
927.737	10150
927.843	10082
927.95	9956
928.056	10097
928.162	10147
928.267	10150
928.373	10706
928.479	10234
928.585	9854
928.69	10013
928.796	10128
928.901	9998
929.007	9823
929.112	10044
929.218	9953
929.323	9876
929.428	9846
929.533	9964
929.638	9865
929.743	9770
929.848	9895
929.953	9895
930.058	9793
930.163	9530
930.267	9622
930.372	9850
930.477	9534
930.581	9759
930.685	9698
930.79	9557
930.894	9561
930.998	9504
931.103	9713
931.207	9310
931.311	9211
931.415	9203
931.519	8941
931.623	8998
