Data from test_V78500241_2433.txt Node
Date: Fri Mar 25 14:50:39 CST 2022
User: usil
Spectrometer: V785-0024
Trigger mode: 0
Integration Time (sec): 4.000000E-1
Scans to average: 1
Nonlinearity correction enabled: false
Boxcar width: 0
Storing dark spectrum: false
XAxis mode: Wavelengths
Number of Pixels in Spectrum: 1024
>>>>>Begin Spectral Data<<<<<
801.071	22200
801.214	21968
801.356	21728
801.499	21610
801.641	21439
801.783	21492
801.926	21504
802.068	21389
802.211	21199
802.353	21237
802.496	21077
802.638	21070
802.78	21017
802.923	20849
803.065	20750
803.208	20857
803.35	20807
803.492	20857
803.635	21039
803.777	20781
803.919	20849
804.061	21123
804.204	20914
804.346	20682
804.488	20705
804.63	20670
804.773	20552
804.915	20826
805.057	20735
805.199	20644
805.341	20708
805.483	20918
805.626	20792
805.768	20739
805.91	20701
806.052	20594
806.194	20663
806.336	20963
806.478	20644
806.62	20621
806.762	20678
806.904	20864
807.046	21199
807.188	21001
807.33	21180
807.472	21116
807.614	20918
807.756	20998
807.898	20796
808.04	20781
808.182	20826
808.324	20891
808.465	20956
808.607	21017
808.749	21233
808.891	21211
809.033	21386
809.174	21119
809.316	21001
809.458	21081
809.6	21039
809.741	21142
809.883	21173
810.025	21283
810.166	21272
810.308	21233
810.45	21233
810.591	21112
810.733	21020
810.875	21032
811.016	20777
811.158	20785
811.299	20933
811.441	20975
811.582	20925
811.724	20876
811.865	20952
812.007	20887
812.148	20906
812.29	21043
812.431	20967
812.573	21173
812.714	21252
812.855	21408
812.997	21408
813.138	21557
813.279	21443
813.421	21405
813.562	21157
813.703	21074
813.845	21062
813.986	20819
814.127	20537
814.268	20514
814.41	20556
814.551	20545
814.692	20575
814.833	20396
814.974	20400
815.115	20408
815.256	20317
815.397	20256
815.539	20286
815.68	20096
815.821	19982
815.962	20111
816.103	20218
816.244	19940
816.385	20008
816.526	19917
816.666	19738
816.807	19651
816.948	19681
817.089	19807
817.23	19609
817.371	19586
817.512	19605
817.653	19563
817.793	19472
817.934	19540
818.075	19499
818.216	19563
818.356	19548
818.497	19480
818.638	19247
818.778	19213
818.919	19179
819.06	19266
819.2	19346
819.341	19453
819.481	19403
819.622	19681
819.762	19826
819.903	19651
820.043	19601
820.184	19544
820.324	19559
820.465	19559
820.605	19556
820.746	19487
820.886	19411
821.026	19460
821.167	19552
821.307	19460
821.447	19537
821.588	19392
821.728	19244
821.868	19023
822.008	18867
822.149	18935
822.289	18833
822.429	18677
822.569	18585
822.709	18578
822.849	18338
822.99	18445
823.13	18369
823.27	18410
823.41	18254
823.55	18140
823.69	18178
823.83	18178
823.97	18216
824.11	18076
824.25	18053
824.389	18007
824.529	18110
824.669	17988
824.809	18140
824.949	18121
825.089	18041
825.228	17988
825.368	17916
825.508	17726
825.648	17798
825.787	17817
825.927	17863
826.067	17726
826.206	17741
826.346	17828
826.485	17824
826.625	17741
826.765	17843
826.904	17722
827.044	17539
827.183	17539
827.323	17383
827.462	17573
827.601	17376
827.741	17337
827.88	17474
828.02	17379
828.159	17417
828.298	17383
828.437	17516
828.577	17493
828.716	17493
828.855	17436
828.994	17204
829.134	17254
829.273	17208
829.412	17174
829.551	17045
829.69	17246
829.829	17231
829.968	17379
830.107	17239
830.246	17265
830.385	17056
830.524	17094
830.663	17117
830.802	16854
830.941	16869
831.08	16797
831.219	17006
831.357	16820
831.496	17056
831.635	16816
831.774	16694
831.913	16713
832.051	16546
832.19	16683
832.329	16687
832.467	16584
832.606	16451
832.744	16375
832.883	16519
833.022	16504
833.16	16497
833.299	16440
833.437	16599
833.576	16634
833.714	16592
833.852	16588
833.991	16626
834.129	16531
834.267	16607
834.406	16523
834.544	16660
834.682	16523
834.821	16538
834.959	16717
835.097	16531
835.235	16664
835.373	16611
835.511	16546
835.65	16527
835.788	16455
835.926	16352
836.064	16280
836.202	16188
836.34	16508
836.478	16546
836.615	16421
836.753	16489
836.891	16573
837.029	16508
837.167	16417
837.305	16455
837.443	16367
837.58	16318
837.718	16462
837.856	16344
837.993	16211
838.131	16329
838.269	16261
838.406	16306
838.544	16238
838.681	16010
838.819	15983
838.956	15930
839.094	15842
839.231	15953
839.369	15994
839.506	16284
839.643	16105
839.781	15918
839.918	15842
840.055	15865
840.193	15873
840.33	15842
840.467	15850
840.604	15899
840.742	16181
840.879	15751
841.016	15739
841.153	15838
841.29	15991
841.427	15895
841.564	15930
841.701	15873
841.838	15831
841.975	15774
842.112	15831
842.249	15694
842.385	15523
842.522	15812
842.659	15667
842.796	15717
842.933	15599
843.069	15572
843.206	15614
843.343	15797
843.479	15652
843.616	15781
843.752	15355
843.889	15549
844.025	15572
844.162	15454
844.298	15473
844.435	15466
844.571	15412
844.708	15481
844.844	15561
844.98	15595
845.117	15545
845.253	15363
845.389	15370
845.525	15424
845.661	15443
845.798	15302
845.934	15252
846.07	15211
846.206	15207
846.342	15382
846.478	15298
846.614	15116
846.75	14925
846.886	15036
847.022	15112
847.158	15081
847.294	15036
847.429	15062
847.565	14941
847.701	15203
847.837	14746
847.972	14659
848.108	14899
848.244	14804
848.379	14689
848.515	14476
848.65	14629
848.786	14564
848.921	14568
849.057	14796
849.192	14773
849.328	14579
849.463	14625
849.598	14549
849.734	14556
849.869	14480
850.004	14419
850.14	14419
850.275	14298
850.41	14301
850.545	14263
850.68	14431
850.815	14339
850.95	14328
851.085	14556
851.22	14450
851.355	14495
851.49	14442
851.625	14259
851.76	14381
851.895	14240
852.03	14176
852.165	14355
852.299	14427
852.434	14450
852.569	14450
852.703	14381
852.838	14545
852.973	14492
853.107	14594
853.242	14366
853.376	14187
853.511	14119
853.645	14195
853.78	14419
853.914	14252
854.048	14176
854.183	14248
854.317	14248
854.451	14400
854.585	14199
854.72	14153
854.854	14389
854.988	14058
855.122	14248
855.256	14183
855.39	14168
855.524	14267
855.658	14278
855.792	14252
855.926	14313
856.06	14385
856.194	14393
856.327	14210
856.461	14210
856.595	14176
856.729	14199
856.862	14278
856.996	14202
857.13	14366
857.263	14362
857.397	14313
857.53	14191
857.664	14343
857.797	14377
857.931	14431
858.064	14374
858.197	14400
858.331	14237
858.464	14233
858.597	14202
858.731	14271
858.864	14244
858.997	14313
859.13	14172
859.263	14244
859.396	14355
859.529	14202
859.662	14271
859.795	14233
859.928	14305
860.061	14370
860.194	14408
860.327	14320
860.46	14149
860.592	14385
860.725	14415
860.858	14347
860.99	14244
861.123	14195
861.256	14225
861.388	14271
861.521	14956
861.653	14145
861.786	13944
861.918	14168
862.05	14214
862.183	14149
862.315	14206
862.447	14301
862.58	14180
862.712	14024
862.844	13944
862.976	14096
863.108	13963
863.24	14473
863.372	14020
863.504	14054
863.636	13955
863.768	14126
863.9	14069
864.032	13997
864.164	13974
864.296	14024
864.428	14069
864.559	14058
864.691	14123
864.823	14199
864.954	14062
865.086	14001
865.217	13917
865.349	13898
865.48	14020
865.612	14035
865.743	14183
865.875	14115
866.006	14024
866.137	14024
866.269	14016
866.4	14050
866.531	13978
866.662	14005
866.793	13982
866.924	13989
867.055	13978
867.186	13997
867.317	13932
867.448	13940
867.579	13986
867.71	13898
867.841	13970
867.972	13993
868.103	14005
868.233	14046
868.364	14027
868.495	14058
868.625	14252
868.756	14275
868.886	14172
869.017	14252
869.147	14343
869.278	14374
869.408	14282
869.539	14358
869.669	14328
869.799	14309
869.929	14343
870.06	14358
870.19	14587
870.32	14598
870.45	14610
870.58	14625
870.71	14750
870.84	14788
870.97	14617
871.1	14667
871.23	14845
871.36	14857
871.489	14651
871.619	14834
871.749	14838
871.879	14834
872.008	14910
872.138	14933
872.267	14823
872.397	14632
872.526	14655
872.656	14632
872.785	14773
872.915	14880
873.044	14975
873.173	14849
873.303	14811
873.432	14921
873.561	15062
873.69	14887
873.819	14872
873.948	14948
874.077	14952
874.206	14880
874.335	14914
874.464	15104
874.593	15230
874.722	15173
874.851	15272
874.979	15226
875.108	15317
875.237	15180
875.365	15093
875.494	15131
875.623	15359
875.751	15180
875.88	15283
876.008	15428
876.136	15424
876.265	15603
876.393	15747
876.521	15637
876.65	15766
876.778	15728
876.906	15625
877.034	15542
877.162	15557
877.29	15523
877.418	15568
877.546	15690
877.674	15584
877.802	15679
877.93	15682
878.058	15599
878.185	15507
878.313	15542
878.441	15633
878.568	15538
878.696	15591
878.824	15728
878.951	15770
879.079	15808
879.206	16010
879.333	15812
879.461	15709
879.588	15717
879.715	15846
879.842	15926
879.97	15724
880.097	15477
880.224	15485
880.351	15504
880.478	15580
880.605	15504
880.732	15435
880.859	15686
880.986	15431
881.112	15500
881.239	15481
881.366	15275
881.493	15302
881.619	15108
881.746	15116
881.872	15093
881.999	15119
882.125	15112
882.252	15287
882.378	15237
882.505	15264
882.631	15199
882.757	15013
882.883	15085
883.01	14990
883.136	14910
883.262	14914
883.388	14815
883.514	14994
883.64	15085
883.766	14952
883.892	14838
884.018	14895
884.143	14952
884.269	15104
884.395	14743
884.52	14701
884.646	14792
884.772	14640
884.897	14636
885.023	14762
885.148	14788
885.274	14929
885.399	14807
885.524	14686
885.65	14777
885.775	14720
885.9	14610
886.025	14868
886.15	14849
886.275	14674
886.4	14598
886.525	14613
886.65	14708
886.775	14613
886.9	14777
887.025	14982
887.149	14807
887.274	14571
887.399	14621
887.523	14442
887.648	14533
887.773	14507
887.897	14571
888.021	14602
888.146	14518
888.27	14613
888.395	14621
888.519	14621
888.643	14644
888.767	14659
888.891	14419
889.015	14347
889.139	14442
889.263	14336
889.387	14579
889.511	14514
889.635	14651
889.759	14404
889.883	14476
890.006	14450
890.13	14476
890.254	14351
890.377	14347
890.501	14191
890.624	14248
890.748	14336
890.871	14088
890.995	14103
891.118	14062
891.241	14126
891.364	14069
891.488	14240
891.611	14054
891.734	14092
891.857	14202
891.98	14153
892.103	14221
892.226	14161
892.349	14012
892.471	14001
892.594	14077
892.717	14100
892.839	14077
892.962	14168
893.085	14214
893.207	14123
893.33	13909
893.452	13986
893.575	14031
893.697	14084
893.819	14298
893.941	14278
894.064	14237
894.186	14172
894.308	14077
894.43	14210
894.552	14400
894.674	14309
894.796	14035
894.918	14210
895.04	14202
895.161	14408
895.283	14199
895.405	14107
895.526	14237
895.648	14210
895.769	14172
895.891	14275
896.012	14347
896.134	14282
896.255	14336
896.376	14313
896.498	14271
896.619	14278
896.74	14339
896.861	14313
896.982	14655
897.103	14781
897.224	14651
897.345	14537
897.466	14454
897.587	14587
897.708	14636
897.828	14556
897.949	14568
898.07	14427
898.19	14495
898.311	14602
898.431	14560
898.552	14579
898.672	14724
898.792	14640
898.913	14640
899.033	14571
899.153	14511
899.273	14423
899.393	14503
899.513	14526
899.633	14495
899.753	14549
899.873	14484
899.993	14511
900.113	14419
900.232	14526
900.352	14469
900.472	14469
900.591	14294
900.711	14412
900.83	14298
900.95	14533
901.069	14488
901.189	14355
901.308	14054
901.427	14107
901.546	14103
901.665	14111
901.784	14096
901.904	13940
902.023	13856
902.141	13613
902.26	13643
902.379	13700
902.498	13525
902.617	13533
902.735	13734
902.854	13624
902.973	13506
903.091	13285
903.21	13308
903.328	13346
903.446	13187
903.565	13129
903.683	13187
903.801	13107
903.919	13065
904.038	13034
904.156	13012
904.274	13008
904.392	12951
904.51	12901
904.627	12909
904.745	13015
904.863	13080
904.981	12814
905.098	12627
905.216	12722
905.334	12700
905.451	12730
905.569	12696
905.686	12646
905.803	12654
905.921	12483
906.038	12616
906.155	12509
906.272	12334
906.389	12338
906.506	12281
906.623	12300
906.74	12296
906.857	12136
906.974	12136
907.091	12433
907.208	12391
907.324	12224
907.441	12133
907.557	11973
907.674	11939
907.79	11946
907.907	12053
908.023	12076
908.139	11950
908.256	12049
908.372	11912
908.488	11897
908.604	11718
908.72	11722
908.836	11726
908.952	11737
909.068	11748
909.184	11889
909.3	11737
909.415	11863
909.531	11847
909.647	11493
909.762	11524
909.878	11417
909.993	11535
910.108	11482
910.224	11520
910.339	11505
910.454	11455
910.57	11383
910.685	11277
910.8	11623
910.915	11516
911.03	11493
911.145	11220
911.259	11223
911.374	11197
911.489	11185
911.604	11124
911.718	11056
911.833	11003
911.947	10877
912.062	10885
912.176	10972
912.291	11048
912.405	10999
912.519	11174
912.633	11258
912.748	11056
912.862	11010
912.976	10923
913.09	10812
913.204	10839
913.318	10892
913.431	10866
913.545	10965
913.659	11018
913.772	10869
913.886	10824
914	10645
914.113	10793
914.226	10889
914.34	10873
914.453	10645
914.566	10824
914.68	10767
914.793	10714
914.906	10470
915.019	10440
915.132	10424
915.245	10466
915.358	10512
915.47	10527
915.583	10485
915.696	10497
915.809	10664
915.921	10558
916.034	10459
916.146	10508
916.259	10394
916.371	10455
916.483	10542
916.595	10382
916.708	10443
916.82	10402
916.932	10432
917.044	10405
917.156	10333
917.268	10318
917.38	10432
917.491	10265
917.603	10329
917.715	10390
917.826	10436
917.938	10227
918.049	10234
918.161	10356
918.272	10436
918.384	10356
918.495	10299
918.606	10185
918.717	10128
918.828	10257
918.939	10299
919.05	10112
919.161	10219
919.272	9987
919.383	10090
919.494	10238
919.604	10455
919.715	10177
919.826	10078
919.936	10154
920.047	10379
920.157	10284
920.267	10367
920.378	10211
920.488	10200
920.598	10428
920.708	10626
920.818	10382
920.928	10455
921.038	10599
921.148	10535
921.258	10219
921.368	10200
921.477	10105
921.587	10048
921.697	9907
921.806	10200
921.916	9968
922.025	9869
922.134	9793
922.244	9682
922.353	9808
922.462	9736
922.571	9576
922.68	9439
922.789	9397
922.898	9511
923.007	9450
923.116	9462
923.224	9591
923.333	9458
923.442	9401
923.55	9367
923.659	9405
923.767	9405
923.876	9386
923.984	9393
924.092	9287
924.201	9317
924.309	9332
924.417	9348
924.525	9233
924.633	9298
924.741	9956
924.849	9184
924.956	9291
925.064	9127
925.172	9062
925.279	9077
925.387	9150
925.494	9131
925.602	9214
925.709	9199
925.816	9066
925.924	9116
926.031	9192
926.138	9195
926.245	9203
926.352	9112
926.459	9180
926.566	9199
926.673	9131
926.779	8948
926.886	9005
926.993	8929
927.099	8792
927.206	8746
927.312	8792
927.419	8861
927.525	8853
927.631	8861
927.737	8857
927.843	8705
927.95	8621
928.056	8682
928.162	8792
928.267	8766
928.373	9408
928.479	8842
928.585	8613
928.69	8766
928.796	8785
928.901	8594
929.007	8495
929.112	8674
929.218	8659
929.323	8541
929.428	8530
929.533	8667
929.638	8457
929.743	8526
929.848	8564
929.953	8598
930.058	8465
930.163	8400
930.267	8362
930.372	8450
930.477	8282
930.581	8503
930.685	8404
930.79	8256
930.894	8313
930.998	8244
931.103	8393
931.207	8119
931.311	8043
931.415	7928
931.519	7849
931.623	7750
