Data from test_V78500241_398.txt Node
Date: Fri Mar 25 14:36:29 CST 2022
User: usil
Spectrometer: V785-0024
Trigger mode: 0
Integration Time (sec): 4.000000E-1
Scans to average: 1
Nonlinearity correction enabled: false
Boxcar width: 0
Storing dark spectrum: false
XAxis mode: Wavelengths
Number of Pixels in Spectrum: 1024
>>>>>Begin Spectral Data<<<<<
801.071	26823
801.214	26689
801.356	26370
801.499	26438
801.641	26218
801.783	26096
801.926	26084
802.068	26145
802.211	25883
802.353	25951
802.496	25936
802.638	25803
802.78	25708
802.923	25734
803.065	25613
803.208	25586
803.35	25674
803.492	25784
803.635	25864
803.777	25753
803.919	25712
804.061	26027
804.204	25765
804.346	25765
804.488	25468
804.63	25624
804.773	25575
804.915	25681
805.057	25837
805.199	25769
805.341	25719
805.483	25845
805.626	25746
805.768	25537
805.91	25776
806.052	25788
806.194	25639
806.336	25807
806.478	25837
806.62	25658
806.762	25776
806.904	25837
807.046	26206
807.188	26065
807.33	26046
807.472	26218
807.614	26161
807.756	26016
807.898	25856
808.04	25883
808.182	25940
808.324	25966
808.465	25868
808.607	26012
808.749	26149
808.891	26396
809.033	26438
809.174	26438
809.316	26183
809.458	26294
809.6	26111
809.741	26320
809.883	26145
810.025	26434
810.166	26385
810.308	26415
810.45	26355
810.591	26366
810.733	26008
810.875	26069
811.016	25947
811.158	25951
811.299	26107
811.441	26218
811.582	26153
811.724	26161
811.865	25982
812.007	26062
812.148	26088
812.29	26024
812.431	26225
812.573	26256
812.714	26427
812.855	26412
812.997	26678
813.138	26701
813.279	26663
813.421	26522
813.562	26393
813.703	26313
813.845	26218
813.986	25928
814.127	25753
814.268	25594
814.41	25578
814.551	25441
814.692	25556
814.833	25445
814.974	25620
815.115	25559
815.256	25419
815.397	25441
815.539	25339
815.68	25381
815.821	25156
815.962	25308
816.103	25194
816.244	25137
816.385	25141
816.526	25031
816.666	24928
816.807	24616
816.948	24776
817.089	24783
817.23	24806
817.371	24757
817.512	24703
817.653	24658
817.793	24692
817.934	24783
818.075	24814
818.216	24719
818.356	24593
818.497	24475
818.638	24380
818.778	24460
818.919	24467
819.06	24509
819.2	24456
819.341	24604
819.481	24502
819.622	24741
819.762	24901
819.903	24886
820.043	24814
820.184	24692
820.324	24696
820.465	24768
820.605	24692
820.746	24684
820.886	24578
821.026	24658
821.167	24616
821.307	24715
821.447	24547
821.588	24559
821.728	24315
821.868	24289
822.008	24114
822.149	24018
822.289	24053
822.429	23741
822.569	23710
822.709	23752
822.849	23478
822.99	23444
823.13	23414
823.27	23482
823.41	23368
823.55	23197
823.69	23280
823.83	23170
823.97	23254
824.11	23010
824.25	23022
824.389	22961
824.529	23052
824.669	23041
824.809	23071
824.949	23155
825.089	23208
825.228	23102
825.368	22930
825.508	22858
825.648	22892
825.787	22965
825.927	22908
826.067	22866
826.206	22850
826.346	22881
826.485	22938
826.625	22816
826.765	22930
826.904	22767
827.044	22645
827.183	22630
827.323	22512
827.462	22599
827.601	22466
827.741	22588
827.88	22504
828.02	22462
828.159	22504
828.298	22622
828.437	22451
828.577	22485
828.716	22603
828.855	22531
828.994	22257
829.134	22215
829.273	22322
829.412	22185
829.551	22192
829.69	22097
829.829	22158
829.968	22341
830.107	22246
830.246	22280
830.385	22249
830.524	22143
830.663	22029
830.802	21979
830.941	21747
831.08	21743
831.219	21956
831.357	21880
831.496	22048
831.635	21648
831.774	21667
831.913	21667
832.051	21561
832.19	21443
832.329	21568
832.467	21561
832.606	21439
832.744	21428
832.883	21496
833.022	21454
833.16	21526
833.299	21408
833.437	21519
833.576	21458
833.714	21416
833.852	21542
833.991	21557
834.129	21359
834.267	21583
834.406	21477
834.544	21374
834.682	21443
834.821	21408
834.959	21515
835.097	21401
835.235	21496
835.373	21435
835.511	21443
835.65	21283
835.788	21458
835.926	21119
836.064	21100
836.202	21077
836.34	21260
836.478	21287
836.615	21275
836.753	21245
836.891	21412
837.029	21405
837.167	21157
837.305	21157
837.443	21173
837.58	21112
837.718	21203
837.856	21154
837.993	21123
838.131	21089
838.269	21055
838.406	21112
838.544	20944
838.681	20727
838.819	20777
838.956	20625
839.094	20594
839.231	20731
839.369	20811
839.506	20956
839.643	20849
839.781	20568
839.918	20484
840.055	20568
840.193	20503
840.33	20461
840.467	20541
840.604	20438
840.742	20724
840.879	20263
841.016	20427
841.153	20385
841.29	20606
841.427	20495
841.564	20659
841.701	20427
841.838	20518
841.975	20377
842.112	20351
842.249	20313
842.385	20172
842.522	20400
842.659	20237
842.796	20130
842.933	20256
843.069	20332
843.206	20088
843.343	20240
843.479	20286
843.616	20237
843.752	19906
843.889	20054
844.025	20161
844.162	19982
844.298	20005
844.435	19955
844.571	19860
844.708	19978
844.844	20122
844.98	20096
845.117	20126
845.253	19913
845.389	19879
845.525	19906
845.661	19803
845.798	19894
845.934	19772
846.07	19784
846.206	19822
846.342	19822
846.478	19681
846.614	19575
846.75	19419
846.886	19556
847.022	19655
847.158	19548
847.294	19381
847.429	19487
847.565	19396
847.701	19689
847.837	19171
847.972	19114
848.108	19206
848.244	19282
848.379	19080
848.515	19008
848.65	19080
848.786	18981
848.921	19072
849.057	19122
849.192	19171
849.328	19126
849.463	19057
849.598	18951
849.734	18958
849.869	18897
850.004	18886
850.14	18772
850.275	18856
850.41	18715
850.545	18741
850.68	18700
850.815	18810
850.95	18791
851.085	18993
851.22	18859
851.355	18741
851.49	18722
851.625	18616
851.76	18623
851.895	18741
852.03	18616
852.165	18688
852.299	18840
852.434	18711
852.569	18810
852.703	18692
852.838	18802
852.973	18817
853.107	18837
853.242	18696
853.376	18601
853.511	18525
853.645	18585
853.78	18715
853.914	18677
854.048	18582
854.183	18456
854.317	18540
854.451	18700
854.585	18513
854.72	18547
854.854	18635
854.988	18422
855.122	18551
855.256	18475
855.39	18525
855.524	18593
855.658	18536
855.792	18547
855.926	18532
856.06	18612
856.194	18623
856.327	18547
856.461	18384
856.595	18509
856.729	18547
856.862	18517
856.996	18517
857.13	18642
857.263	18563
857.397	18604
857.53	18528
857.664	18528
857.797	18654
857.931	18722
858.064	18593
858.197	18707
858.331	18418
858.464	18509
858.597	18460
858.731	18464
858.864	18513
858.997	18350
859.13	18506
859.263	18589
859.396	18521
859.529	18429
859.662	18448
859.795	18376
859.928	18502
860.061	18696
860.194	18692
860.327	18506
860.46	18475
860.592	18578
860.725	18551
860.858	18513
860.99	18448
861.123	18559
861.256	18395
861.388	18441
861.521	19194
861.653	18296
861.786	18266
861.918	18486
862.05	18486
862.183	18536
862.315	18517
862.447	18604
862.58	18422
862.712	18338
862.844	18205
862.976	18350
863.108	18262
863.24	18627
863.372	18106
863.504	18148
863.636	18182
863.768	18311
863.9	18235
864.032	18167
864.164	18117
864.296	18228
864.428	18239
864.559	18254
864.691	18273
864.823	18285
864.954	18121
865.086	18186
865.217	18228
865.349	18053
865.48	18098
865.612	18091
865.743	18201
865.875	18140
866.006	18091
866.137	18125
866.269	18083
866.4	18129
866.531	18140
866.662	17992
866.793	18079
866.924	18045
867.055	17992
867.186	18030
867.317	17984
867.448	17965
867.579	18087
867.71	18007
867.841	18007
867.972	18072
868.103	18076
868.233	17935
868.364	18060
868.495	18186
868.625	18361
868.756	18471
868.886	18281
869.017	18289
869.147	18506
869.278	18395
869.408	18407
869.539	18372
869.669	18380
869.799	18338
869.929	18456
870.06	18433
870.19	18700
870.32	18608
870.45	18620
870.58	18760
870.71	18802
870.84	18806
870.97	18730
871.1	18711
871.23	18913
871.36	18817
871.489	18772
871.619	18878
871.749	18882
871.879	18954
872.008	18954
872.138	18886
872.267	18886
872.397	18749
872.526	18734
872.656	18734
872.785	18753
872.915	18871
873.044	19015
873.173	18779
873.303	18951
873.432	18905
873.561	18973
873.69	19034
873.819	18996
873.948	18985
874.077	18989
874.206	18920
874.335	19004
874.464	19152
874.593	19209
874.722	19122
874.851	19270
874.979	19126
875.108	19266
875.237	19118
875.365	19095
875.494	19183
875.623	19327
875.751	19141
875.88	19255
876.008	19445
876.136	19415
876.265	19544
876.393	19674
876.521	19738
876.65	19753
876.778	19651
876.906	19460
877.034	19506
877.162	19510
877.29	19525
877.418	19594
877.546	19597
877.674	19670
877.802	19506
877.93	19563
878.058	19575
878.185	19537
878.313	19635
878.441	19670
878.568	19476
878.696	19533
878.824	19655
878.951	19613
879.079	19799
879.206	19894
879.333	19750
879.461	19643
879.588	19818
879.715	19898
879.842	19989
879.97	19746
880.097	19449
880.224	19438
880.351	19354
880.478	19514
880.605	19476
880.732	19438
880.859	19556
880.986	19301
881.112	19449
881.239	19293
881.366	19278
881.493	19156
881.619	19148
881.746	19023
881.872	19126
881.999	19114
882.125	19015
882.252	19114
882.378	19012
882.505	19187
882.631	18844
882.757	18833
882.883	18913
883.01	18837
883.136	18745
883.262	18608
883.388	18715
883.514	18837
883.64	18840
883.766	18692
883.892	18665
884.018	18700
884.143	18802
884.269	18795
884.395	18559
884.52	18490
884.646	18445
884.772	18395
884.897	18471
885.023	18521
885.148	18661
885.274	18673
885.399	18616
885.524	18547
885.65	18528
885.775	18437
885.9	18422
886.025	18574
886.15	18513
886.275	18429
886.4	18262
886.525	18445
886.65	18433
886.775	18338
886.9	18631
887.025	18665
887.149	18460
887.274	18346
887.399	18209
887.523	18163
887.648	18167
887.773	18174
887.897	18152
888.021	18197
888.146	18129
888.27	18334
888.395	18433
888.519	18117
888.643	18235
888.767	18323
888.891	18095
889.015	18087
889.139	18019
889.263	18079
889.387	18125
889.511	18285
889.635	18167
889.759	18045
889.883	17935
890.006	18091
890.13	18133
890.254	17946
890.377	18087
890.501	17805
890.624	17813
890.748	17961
890.871	17790
890.995	17627
891.118	17589
891.241	17661
891.364	17684
891.488	17760
891.611	17729
891.734	17680
891.857	17619
891.98	17611
892.103	17809
892.226	17767
892.349	17722
892.471	17619
892.594	17581
892.717	17623
892.839	17623
892.962	17592
893.085	17630
893.207	17554
893.33	17554
893.452	17608
893.575	17718
893.697	17592
893.819	17703
893.941	17771
894.064	17718
894.186	17558
894.308	17623
894.43	17710
894.552	17699
894.674	17771
894.796	17611
894.918	17596
895.04	17665
895.161	17707
895.283	17661
895.405	17566
895.526	17592
895.648	17592
895.769	17642
895.891	17627
896.012	17783
896.134	17863
896.255	17771
896.376	17585
896.498	17893
896.619	17756
896.74	17600
896.861	17775
896.982	18060
897.103	18220
897.224	17935
897.345	17992
897.466	17889
897.587	17984
897.708	18045
897.828	17973
897.949	17878
898.07	17737
898.19	17885
898.311	18041
898.431	17855
898.552	17904
898.672	17904
898.792	18064
898.913	17946
899.033	17756
899.153	17737
899.273	17627
899.393	17695
899.513	17764
899.633	17699
899.753	17642
899.873	17687
899.993	17722
900.113	17684
900.232	17649
900.352	17684
900.472	17554
900.591	17467
900.711	17505
900.83	17417
900.95	17532
901.069	17680
901.189	17417
901.308	17341
901.427	17109
901.546	17185
901.665	17094
901.784	17223
901.904	16911
902.023	16991
902.141	16717
902.26	16839
902.379	16767
902.498	16713
902.617	16660
902.735	16740
902.854	16645
902.973	16611
903.091	16310
903.21	16306
903.328	16413
903.446	16352
903.565	16147
903.683	16211
903.801	16093
903.919	16166
904.038	16192
904.156	16013
904.274	16112
904.392	16071
904.51	16044
904.627	15949
904.745	16097
904.863	15972
904.981	15876
905.098	15667
905.216	15606
905.334	15610
905.451	15690
905.569	15637
905.686	15515
905.803	15698
905.921	15511
906.038	15561
906.155	15424
906.272	15397
906.389	15313
906.506	15165
906.623	15199
906.74	15180
906.857	15154
906.974	15062
907.091	15260
907.208	15294
907.324	15146
907.441	15131
907.557	14883
907.674	14971
907.79	14838
907.907	14895
908.023	14910
908.139	14868
908.256	14834
908.372	14838
908.488	14788
908.604	14773
908.72	14602
908.836	14617
908.952	14602
909.068	14663
909.184	14712
909.3	14617
909.415	14625
909.531	14667
909.647	14385
909.762	14419
909.878	14267
909.993	14324
910.108	14309
910.224	14195
910.339	14309
910.454	14233
910.57	14164
910.685	14035
910.8	14377
910.915	14294
911.03	14176
911.145	14035
911.259	13974
911.374	14065
911.489	13959
911.604	13795
911.718	13738
911.833	13719
911.947	13632
912.062	13521
912.176	13696
912.291	13738
912.405	13624
912.519	13879
912.633	13856
912.748	13734
912.862	13658
912.976	13518
913.09	13449
913.204	13453
913.318	13518
913.431	13567
913.545	13544
913.659	13605
913.772	13445
913.886	13384
914	13335
914.113	13419
914.226	13525
914.34	13575
914.453	13278
914.566	13491
914.68	13270
914.793	13289
914.906	13072
915.019	13076
915.132	12989
915.245	13126
915.358	13000
915.47	13050
915.583	13072
915.696	13061
915.809	13183
915.921	13164
916.034	12935
916.146	13095
916.259	12928
916.371	13133
916.483	13012
916.595	12844
916.708	12909
916.82	12905
916.932	12863
917.044	12837
917.156	12848
917.268	12795
917.38	12829
917.491	12772
917.603	12741
917.715	12871
917.826	12798
917.938	12825
918.049	12738
918.161	12726
918.272	12897
918.384	12962
918.495	12715
918.606	12593
918.717	12490
918.828	12639
918.939	12650
919.05	12467
919.161	12547
919.272	12357
919.383	12418
919.494	12669
919.604	12802
919.715	12646
919.826	12513
919.936	12403
920.047	12574
920.157	12506
920.267	12700
920.378	12460
920.488	12448
920.598	12703
920.708	12863
920.818	12764
920.928	12700
921.038	12798
921.148	12783
921.258	12528
921.368	12414
921.477	12239
921.587	12311
921.697	12247
921.806	12369
921.916	12175
922.025	12060
922.134	12003
922.244	11885
922.353	11977
922.462	11897
922.571	11741
922.68	11596
922.789	11741
922.898	11714
923.007	11680
923.116	11688
923.224	11665
923.333	11581
923.442	11505
923.55	11410
923.659	11524
923.767	11547
923.876	11383
923.984	11543
924.092	11448
924.201	11474
924.309	11387
924.417	11505
924.525	11307
924.633	11360
924.741	12311
924.849	11162
924.956	11337
925.064	11162
925.172	11102
925.279	11109
925.387	11193
925.494	11220
925.602	11235
925.709	11170
925.816	11052
925.924	11140
926.031	11242
926.138	11102
926.245	11174
926.352	11041
926.459	11162
926.566	11147
926.673	11170
926.779	10991
926.886	10889
926.993	10850
927.099	10809
927.206	10786
927.312	10733
927.419	10805
927.525	10828
927.631	10873
927.737	10717
927.843	10641
927.95	10516
928.056	10725
928.162	10717
928.267	10702
928.373	11258
928.479	10725
928.585	10508
928.69	10626
928.796	10725
928.901	10500
929.007	10371
929.112	10497
929.218	10508
929.323	10436
929.428	10390
929.533	10508
929.638	10306
929.743	10382
929.848	10398
929.953	10348
930.058	10276
930.163	9994
930.267	10109
930.372	10356
930.477	10173
930.581	10344
930.685	10150
930.79	9937
930.894	9998
930.998	10013
931.103	10246
931.207	9793
931.311	9781
931.415	9656
931.519	9530
931.623	9370
