Data from test_V78500241_209.txt Node
Date: Fri Mar 25 14:35:10 CST 2022
User: usil
Spectrometer: V785-0024
Trigger mode: 0
Integration Time (sec): 4.000000E-1
Scans to average: 1
Nonlinearity correction enabled: false
Boxcar width: 0
Storing dark spectrum: false
XAxis mode: Wavelengths
Number of Pixels in Spectrum: 1024
>>>>>Begin Spectral Data<<<<<
801.071	27987
801.214	27937
801.356	27625
801.499	27576
801.641	27256
801.783	27275
801.926	27447
802.068	27287
802.211	27100
802.353	27176
802.496	26971
802.638	26956
802.78	26944
802.923	26899
803.065	26883
803.208	26815
803.35	26971
803.492	27093
803.635	26925
803.777	26933
803.919	27062
804.061	27317
804.204	27096
804.346	26883
804.488	26819
804.63	26910
804.773	26708
804.915	26868
805.057	26918
805.199	26800
805.341	26937
805.483	26940
805.626	26967
805.768	26785
805.91	26940
806.052	26887
806.194	26857
806.336	27058
806.478	26940
806.62	26933
806.762	27123
806.904	27378
807.046	27469
807.188	27439
807.33	27283
807.472	27500
807.614	27344
807.756	27488
807.898	27321
808.04	27317
808.182	27405
808.324	27382
808.465	27454
808.607	27709
808.749	27937
808.891	27937
809.033	28436
809.174	28040
809.316	27972
809.458	27911
809.6	27770
809.741	27808
809.883	27759
810.025	27800
810.166	27766
810.308	27755
810.45	27538
810.591	27633
810.733	27496
810.875	27359
811.016	27268
811.158	27302
811.299	27351
811.441	27435
811.582	27557
811.724	27241
811.865	27237
812.007	27370
812.148	27283
812.29	27321
812.431	27492
812.573	27739
812.714	27720
812.855	27789
812.997	27865
813.138	27983
813.279	27865
813.421	27880
813.562	27728
813.703	27690
813.845	27405
813.986	27066
814.127	27062
814.268	26895
814.41	26872
814.551	26823
814.692	26933
814.833	26883
814.974	26785
815.115	26811
815.256	26773
815.397	26727
815.539	26667
815.68	26571
815.821	26503
815.962	26533
816.103	26609
816.244	26355
816.385	26400
816.526	26199
816.666	26240
816.807	25963
816.948	26024
817.089	26100
817.23	26088
817.371	25909
817.512	26001
817.653	25795
817.793	25913
817.934	25898
818.075	25944
818.216	25978
818.356	25860
818.497	25799
818.638	25620
818.778	25632
818.919	25738
819.06	25769
819.2	25860
819.341	25799
819.481	25883
819.622	25989
819.762	26073
819.903	26008
820.043	25966
820.184	25928
820.324	25928
820.465	26069
820.605	26005
820.746	25997
820.886	25715
821.026	25879
821.167	25841
821.307	25875
821.447	25826
821.588	25769
821.728	25575
821.868	25487
822.008	25346
822.149	25316
822.289	25160
822.429	24973
822.569	24920
822.709	24951
822.849	24757
822.99	24829
823.13	24779
823.27	24551
823.41	24559
823.55	24544
823.69	24631
823.83	24642
823.97	24338
824.11	24357
824.25	24289
824.389	24262
824.529	24380
824.669	24197
824.809	24308
824.949	24338
825.089	24311
825.228	24277
825.368	24144
825.508	24018
825.648	24129
825.787	24026
825.927	24129
826.067	23923
826.206	23931
826.346	24079
826.485	24144
826.625	24038
826.765	24194
826.904	24174
827.044	23904
827.183	23824
827.323	23714
827.462	23798
827.601	23756
827.741	23752
827.88	23832
828.02	23638
828.159	23691
828.298	23771
828.437	23771
828.577	23729
828.716	23836
828.855	23547
828.994	23577
829.134	23444
829.273	23512
829.412	23558
829.551	23318
829.69	23398
829.829	23364
829.968	23471
830.107	23326
830.246	23463
830.385	23322
830.524	23307
830.663	23261
830.802	23235
830.941	22938
831.08	23140
831.219	23075
831.357	23067
831.496	23231
831.635	23185
831.774	23037
831.913	22828
832.051	22801
832.19	22752
832.329	22748
832.467	22557
832.606	22577
832.744	22573
832.883	22710
833.022	22546
833.16	22618
833.299	22615
833.437	22736
833.576	22618
833.714	22622
833.852	22698
833.991	22691
834.129	22790
834.267	22843
834.406	22531
834.544	22588
834.682	22573
834.821	22607
834.959	22774
835.097	22561
835.235	22622
835.373	22702
835.511	22573
835.65	22428
835.788	22588
835.926	22276
836.064	22348
836.202	22348
836.34	22462
836.478	22504
836.615	22421
836.753	22432
836.891	22489
837.029	22561
837.167	22344
837.305	22443
837.443	22280
837.58	22295
837.718	22344
837.856	22261
837.993	22215
838.131	22173
838.269	22112
838.406	22200
838.544	22006
838.681	21960
838.819	21823
838.956	21751
839.094	21789
839.231	21762
839.369	21759
839.506	22048
839.643	22112
839.781	21793
839.918	21610
840.055	21603
840.193	21595
840.33	21637
840.467	21728
840.604	21622
840.742	21854
840.879	21424
841.016	21595
841.153	21488
841.29	21618
841.427	21576
841.564	21660
841.701	21545
841.838	21450
841.975	21359
842.112	21530
842.249	21374
842.385	21275
842.522	21519
842.659	21351
842.796	21203
842.933	21393
843.069	21386
843.206	21264
843.343	21412
843.479	21332
843.616	21249
843.752	21066
843.889	21066
844.025	21264
844.162	21138
844.298	21218
844.435	21028
844.571	21043
844.708	21154
844.844	21233
844.98	21302
845.117	21241
845.253	21108
845.389	21180
845.525	21279
845.661	21188
845.798	21393
845.934	21614
846.07	21629
846.206	21694
846.342	21568
846.478	21203
846.614	20933
846.75	20617
846.886	20648
847.022	20769
847.158	20655
847.294	20541
847.429	20514
847.565	20400
847.701	20594
847.837	20339
847.972	20153
848.108	20461
848.244	20225
848.379	20107
848.515	20130
848.65	20081
848.786	19955
848.921	20111
849.057	20168
849.192	20046
849.328	20119
849.463	20012
849.598	20081
849.734	19921
849.869	19868
850.004	19753
850.14	19841
850.275	19788
850.41	19731
850.545	19868
850.68	19856
850.815	19807
850.95	19746
851.085	19932
851.22	19936
851.355	19811
851.49	19791
851.625	19700
851.76	19594
851.895	19651
852.03	19685
852.165	19757
852.299	19712
852.434	19723
852.569	19784
852.703	19780
852.838	19894
852.973	19871
853.107	19849
853.242	19662
853.376	19658
853.511	19556
853.645	19537
853.78	19559
853.914	19613
854.048	19548
854.183	19499
854.317	19628
854.451	19727
854.585	19544
854.72	19548
854.854	19704
854.988	19510
855.122	19662
855.256	19441
855.39	19616
855.524	19685
855.658	19533
855.792	19533
855.926	19563
856.06	19548
856.194	19727
856.327	19601
856.461	19601
856.595	19529
856.729	19575
856.862	19712
856.996	19609
857.13	19655
857.263	19639
857.397	19647
857.53	19590
857.664	19578
857.797	19655
857.931	19616
858.064	19438
858.197	19696
858.331	19502
858.464	19487
858.597	19422
858.731	19487
858.864	19472
858.997	19407
859.13	19586
859.263	19434
859.396	19578
859.529	19502
859.662	19468
859.795	19350
859.928	19491
860.061	19658
860.194	19719
860.327	19552
860.46	19483
860.592	19506
860.725	19601
860.858	19590
860.99	19499
861.123	19403
861.256	19384
861.388	19434
861.521	20020
861.653	19392
861.786	19316
861.918	19373
862.05	19468
862.183	19514
862.315	19563
862.447	19651
862.58	19483
862.712	19339
862.844	19331
862.976	19304
863.108	19206
863.24	19556
863.372	19156
863.504	19285
863.636	19354
863.768	19270
863.9	19213
864.032	19145
864.164	19076
864.296	19206
864.428	19327
864.559	19308
864.691	19373
864.823	19308
864.954	19255
865.086	19065
865.217	19031
865.349	18958
865.48	19175
865.612	19145
865.743	19194
865.875	19122
866.006	19107
866.137	19141
866.269	19103
866.4	19076
866.531	19069
866.662	19065
866.793	19023
866.924	19080
867.055	18973
867.186	19095
867.317	19065
867.448	18962
867.579	19072
867.71	18996
867.841	19000
867.972	19042
868.103	19008
868.233	19126
868.364	19099
868.495	19152
868.625	19255
868.756	19343
868.886	19091
869.017	19308
869.147	19259
869.278	19388
869.408	19327
869.539	19259
869.669	19411
869.799	19346
869.929	19449
870.06	19255
870.19	19609
870.32	19666
870.45	19609
870.58	19719
870.71	19662
870.84	19708
870.97	19772
871.1	19613
871.23	19830
871.36	19909
871.489	19826
871.619	19814
871.749	19799
871.879	19776
872.008	19917
872.138	19849
872.267	19788
872.397	19795
872.526	19712
872.656	19693
872.785	19643
872.915	19879
873.044	19955
873.173	19959
873.303	20001
873.432	19906
873.561	19959
873.69	19997
873.819	19818
873.948	19917
874.077	19963
874.206	19928
874.335	19963
874.464	20046
874.593	20221
874.722	20073
874.851	20244
874.979	20259
875.108	20103
875.237	20317
875.365	20107
875.494	20153
875.623	20301
875.751	20161
875.88	20263
876.008	20309
876.136	20377
876.265	20549
876.393	20765
876.521	20746
876.65	20632
876.778	20568
876.906	20613
877.034	20393
877.162	20564
877.29	20492
877.418	20579
877.546	20522
877.674	20533
877.802	20549
877.93	20587
878.058	20499
878.185	20560
878.313	20621
878.441	20556
878.568	20465
878.696	20625
878.824	20773
878.951	20811
879.079	20792
879.206	21070
879.333	21116
879.461	20921
879.588	21036
879.715	21222
879.842	21093
879.97	20952
880.097	20727
880.224	20629
880.351	20575
880.478	20640
880.605	20518
880.732	20465
880.859	20743
880.986	20575
881.112	20507
881.239	20301
881.366	20244
881.493	20103
881.619	20164
881.746	20031
881.872	20145
881.999	20206
882.125	19997
882.252	20122
882.378	20157
882.505	20225
882.631	20046
882.757	19890
882.883	19982
883.01	19902
883.136	19753
883.262	19738
883.388	19856
883.514	19986
883.64	19925
883.766	19871
883.892	19605
884.018	19647
884.143	19845
884.269	19894
884.395	19700
884.52	19544
884.646	19449
884.772	19449
884.897	19445
885.023	19552
885.148	19525
885.274	19666
885.399	19616
885.524	19537
885.65	19544
885.775	19483
885.9	19529
886.025	19715
886.15	19582
886.275	19525
886.4	19392
886.525	19460
886.65	19343
886.775	19365
886.9	19514
887.025	19601
887.149	19476
887.274	19278
887.399	19194
887.523	19266
887.648	19034
887.773	19168
887.897	19270
888.021	19247
888.146	19206
888.27	19244
888.395	19331
888.519	19251
888.643	19270
888.767	19209
888.891	19152
889.015	18947
889.139	19095
889.263	18932
889.387	19175
889.511	19103
889.635	19126
889.759	18985
889.883	19004
890.006	18856
890.13	18996
890.254	18852
890.377	18856
890.501	18757
890.624	18833
890.748	18863
890.871	18741
890.995	18525
891.118	18593
891.241	18566
891.364	18730
891.488	18700
891.611	18589
891.734	18589
891.857	18802
891.98	18574
892.103	18642
892.226	18741
892.349	18559
892.471	18429
892.594	18433
892.717	18540
892.839	18433
892.962	18521
893.085	18490
893.207	18509
893.33	18414
893.452	18517
893.575	18597
893.697	18589
893.819	18772
893.941	18700
894.064	18654
894.186	18410
894.308	18399
894.43	18604
894.552	18669
894.674	18528
894.796	18433
894.918	18528
895.04	18521
895.161	18585
895.283	18525
895.405	18437
895.526	18399
895.648	18551
895.769	18585
895.891	18593
896.012	18597
896.134	18608
896.255	18544
896.376	18513
896.498	18547
896.619	18589
896.74	18532
896.861	18578
896.982	18996
897.103	18981
897.224	18920
897.345	18886
897.466	18715
897.587	18749
897.708	18901
897.828	18973
897.949	18837
898.07	18627
898.19	18779
898.311	18856
898.431	18787
898.552	18825
898.672	18802
898.792	18890
898.913	18924
899.033	18791
899.153	18566
899.273	18467
899.393	18525
899.513	18574
899.633	18528
899.753	18665
899.873	18563
899.993	18525
900.113	18608
900.232	18498
900.352	18525
900.472	18262
900.591	18266
900.711	18327
900.83	18273
900.95	18437
901.069	18513
901.189	18319
901.308	18190
901.427	17980
901.546	17973
901.665	17996
901.784	17999
901.904	17939
902.023	17786
902.141	17551
902.26	17570
902.379	17436
902.498	17528
902.617	17436
902.735	17539
902.854	17410
902.973	17349
903.091	17159
903.21	17121
903.328	17117
903.446	17056
903.565	16942
903.683	17025
903.801	16786
903.919	16995
904.038	16923
904.156	16752
904.274	16752
904.392	16744
904.51	16710
904.627	16717
904.745	16797
904.863	16748
904.981	16535
905.098	16459
905.216	16405
905.334	16382
905.451	16432
905.569	16382
905.686	16329
905.803	16306
905.921	16188
906.038	16257
906.155	16139
906.272	16010
906.389	16078
906.506	15994
906.623	15930
906.74	15812
906.857	15816
906.974	15911
907.091	16010
907.208	16029
907.324	15956
907.441	15827
907.557	15622
907.674	15576
907.79	15660
907.907	15656
908.023	15682
908.139	15622
908.256	15519
908.372	15603
908.488	15469
908.604	15367
908.72	15287
908.836	15351
908.952	15256
909.068	15370
909.184	15405
909.3	15317
909.415	15283
909.531	15279
909.647	14990
909.762	15085
909.878	15062
909.993	15055
910.108	14929
910.224	15024
910.339	14971
910.454	14937
910.57	14864
910.685	14712
910.8	14998
910.915	14975
911.03	14796
911.145	14716
911.259	14606
911.374	14655
911.489	14640
911.604	14495
911.718	14434
911.833	14389
911.947	14267
912.062	14263
912.176	14351
912.291	14454
912.405	14408
912.519	14526
912.633	14503
912.748	14347
912.862	14328
912.976	14221
913.09	14164
913.204	14005
913.318	14161
913.431	14282
913.545	14229
913.659	14278
913.772	14123
913.886	14073
914	13982
914.113	14027
914.226	14046
914.34	14149
914.453	13936
914.566	14161
914.68	13978
914.793	13906
914.906	13795
915.019	13662
915.132	13655
915.245	13731
915.358	13719
915.47	13742
915.583	13734
915.696	13666
915.809	13750
915.921	13868
916.034	13636
916.146	13578
916.259	13575
916.371	13681
916.483	13597
916.595	13525
916.708	13552
916.82	13483
916.932	13518
917.044	13594
917.156	13476
917.268	13441
917.38	13373
917.491	13339
917.603	13362
917.715	13514
917.826	13441
917.938	13293
918.049	13228
918.161	13320
918.272	13514
918.384	13445
918.495	13297
918.606	13179
918.717	13149
918.828	13152
918.939	13141
919.05	13050
919.161	13088
919.272	12977
919.383	13004
919.494	13198
919.604	13278
919.715	13088
919.826	13031
919.936	13057
920.047	13183
920.157	13187
920.267	13304
920.378	13122
920.488	13061
920.598	13259
920.708	13388
920.818	13213
920.928	13282
921.038	13301
921.148	13388
921.258	13122
921.368	12932
921.477	12829
921.587	12871
921.697	12642
921.806	12905
921.916	12711
922.025	12593
922.134	12536
922.244	12452
922.353	12464
922.462	12422
922.571	12311
922.68	12220
922.789	12190
922.898	12213
923.007	12110
923.116	12243
923.224	12178
923.333	12144
923.442	12060
923.55	12003
923.659	11996
923.767	12079
923.876	12007
923.984	12011
924.092	11935
924.201	11977
924.309	11954
924.417	11954
924.525	11927
924.633	11912
924.741	12768
924.849	11657
924.956	11912
925.064	11657
925.172	11646
925.279	11672
925.387	11623
925.494	11691
925.602	11729
925.709	11684
925.816	11558
925.924	11661
926.031	11752
926.138	11657
926.245	11710
926.352	11577
926.459	11691
926.566	11657
926.673	11532
926.779	11463
926.886	11406
926.993	11330
927.099	11360
927.206	11227
927.312	11265
927.419	11280
927.525	11265
927.631	11330
927.737	11143
927.843	11193
927.95	10995
928.056	11170
928.162	11159
928.267	11143
928.373	11779
928.479	11181
928.585	10984
928.69	11060
928.796	11037
928.901	10987
929.007	10881
929.112	11041
929.218	10991
929.323	10858
929.428	10805
929.533	10965
929.638	10706
929.743	10896
929.848	10831
929.953	10793
930.058	10691
930.163	10538
930.267	10611
930.372	10744
930.477	10523
930.581	10805
930.685	10573
930.79	10394
930.894	10455
930.998	10390
931.103	10668
931.207	10234
931.311	10185
931.415	10105
931.519	9895
931.623	9819
