Data from test_V78500241_354.txt Node
Date: Fri Mar 25 14:36:11 CST 2022
User: usil
Spectrometer: V785-0024
Trigger mode: 0
Integration Time (sec): 4.000000E-1
Scans to average: 1
Nonlinearity correction enabled: false
Boxcar width: 0
Storing dark spectrum: false
XAxis mode: Wavelengths
Number of Pixels in Spectrum: 1024
>>>>>Begin Spectral Data<<<<<
801.071	26785
801.214	26708
801.356	26461
801.499	26393
801.641	26221
801.783	26267
801.926	26290
802.068	26282
802.211	26111
802.353	26153
802.496	25963
802.638	25879
802.78	25765
802.923	25986
803.065	25887
803.208	25666
803.35	25689
803.492	25803
803.635	25841
803.777	25849
803.919	25906
804.061	26145
804.204	25898
804.346	25670
804.488	25757
804.63	25769
804.773	25643
804.915	25814
805.057	25875
805.199	25791
805.341	25894
805.483	25879
805.626	25700
805.768	25887
805.91	25860
806.052	25856
806.194	25799
806.336	25879
806.478	25757
806.62	25689
806.762	25978
806.904	26016
807.046	26294
807.188	26176
807.33	26134
807.472	26233
807.614	26050
807.756	26092
807.898	26077
808.04	25970
808.182	25902
808.324	26054
808.465	26107
808.607	26168
808.749	26278
808.891	26503
809.033	26484
809.174	26408
809.316	26385
809.458	26450
809.6	26301
809.741	26370
809.883	26336
810.025	26469
810.166	26530
810.308	26541
810.45	26366
810.591	26423
810.733	26248
810.875	26161
811.016	26088
811.158	26187
811.299	26278
811.441	26339
811.582	26218
811.724	26168
811.865	26096
812.007	26092
812.148	26153
812.29	26077
812.431	26282
812.573	26434
812.714	26522
812.855	26526
812.997	26727
813.138	26899
813.279	26743
813.421	26682
813.562	26632
813.703	26507
813.845	26267
813.986	26088
814.127	25959
814.268	25693
814.41	25746
814.551	25757
814.692	25719
814.833	25681
814.974	25807
815.115	25708
815.256	25567
815.397	25499
815.539	25445
815.68	25407
815.821	25346
815.962	25662
816.103	25567
816.244	25194
816.385	25331
816.526	25095
816.666	24947
816.807	24837
816.948	24958
817.089	24977
817.23	24939
817.371	24958
817.512	24814
817.653	24852
817.793	24814
817.934	24848
818.075	24867
818.216	24935
818.356	24753
818.497	24677
818.638	24631
818.778	24521
818.919	24525
819.06	24631
819.2	24734
819.341	24673
819.481	24612
819.622	24947
819.762	25175
819.903	24954
820.043	24909
820.184	24863
820.324	24730
820.465	24875
820.605	24897
820.746	24814
820.886	24768
821.026	24772
821.167	24859
821.307	24878
821.447	24684
821.588	24559
821.728	24566
821.868	24308
822.008	24129
822.149	24129
822.289	24091
822.429	23843
822.569	23912
822.709	23642
822.849	23608
822.99	23570
823.13	23585
823.27	23482
823.41	23520
823.55	23364
823.69	23360
823.83	23436
823.97	23353
824.11	23181
824.25	23239
824.389	23189
824.529	23174
824.669	23113
824.809	23318
824.949	23216
825.089	23261
825.228	23162
825.368	22976
825.508	23033
825.648	23041
825.787	22866
825.927	23083
826.067	22961
826.206	22938
826.346	22987
826.485	23071
826.625	23029
826.765	23174
826.904	23162
827.044	22759
827.183	22706
827.323	22668
827.462	22592
827.601	22645
827.741	22622
827.88	22668
828.02	22656
828.159	22630
828.298	22611
828.437	22733
828.577	22592
828.716	22713
828.855	22588
828.994	22386
829.134	22527
829.273	22352
829.412	22356
829.551	22234
829.69	22360
829.829	22356
829.968	22523
830.107	22447
830.246	22337
830.385	22344
830.524	22314
830.663	22215
830.802	22025
830.941	22006
831.08	21930
831.219	21998
831.357	21934
831.496	22112
831.635	21953
831.774	21789
831.913	21797
832.051	21846
832.19	21770
832.329	21747
832.467	21656
832.606	21595
832.744	21690
832.883	21637
833.022	21686
833.16	21542
833.299	21629
833.437	21671
833.576	21652
833.714	21580
833.852	21625
833.991	21694
834.129	21641
834.267	21747
834.406	21561
834.544	21675
834.682	21633
834.821	21610
834.959	21793
835.097	21587
835.235	21633
835.373	21549
835.511	21557
835.65	21530
835.788	21424
835.926	21374
836.064	21374
836.202	21386
836.34	21466
836.478	21553
836.615	21302
836.753	21420
836.891	21488
837.029	21557
837.167	21370
837.305	21348
837.443	21340
837.58	21218
837.718	21428
837.856	21272
837.993	21245
838.131	21291
838.269	21203
838.406	21081
838.544	21169
838.681	20990
838.819	20956
838.956	20777
839.094	20712
839.231	20883
839.369	20990
839.506	21100
839.643	21017
839.781	20693
839.918	20640
840.055	20686
840.193	20708
840.33	20682
840.467	20648
840.604	20750
840.742	20804
840.879	20484
841.016	20549
841.153	20526
841.29	20830
841.427	20511
841.564	20609
841.701	20720
841.838	20583
841.975	20571
842.112	20598
842.249	20457
842.385	20282
842.522	20617
842.659	20484
842.796	20339
842.933	20358
843.069	20317
843.206	20347
843.343	20381
843.479	20362
843.616	20400
843.752	20134
843.889	20142
844.025	20339
844.162	20153
844.298	20225
844.435	20187
844.571	20142
844.708	20157
844.844	20263
844.98	20180
845.117	20267
845.253	20062
845.389	19959
845.525	20073
845.661	19989
845.798	19814
845.934	19913
846.07	19955
846.206	20058
846.342	20031
846.478	20008
846.614	19719
846.75	19624
846.886	19624
847.022	19655
847.158	19594
847.294	19708
847.429	19651
847.565	19510
847.701	19898
847.837	19346
847.972	19297
848.108	19362
848.244	19457
848.379	19236
848.515	19190
848.65	19156
848.786	19171
848.921	19240
849.057	19289
849.192	19263
849.328	19217
849.463	19183
849.598	19168
849.734	18962
849.869	18882
850.004	19050
850.14	18951
850.275	18993
850.41	18798
850.545	18901
850.68	18810
850.815	18848
850.95	18928
851.085	19042
851.22	18909
851.355	18852
851.49	18833
851.625	18844
851.76	18871
851.895	18795
852.03	18677
852.165	18909
852.299	19015
852.434	18993
852.569	18890
852.703	18852
852.838	18890
852.973	18920
853.107	18916
853.242	18829
853.376	18760
853.511	18582
853.645	18646
853.78	18894
853.914	18768
854.048	18749
854.183	18707
854.317	18810
854.451	18958
854.585	18715
854.72	18673
854.854	18650
854.988	18620
855.122	18677
855.256	18631
855.39	18589
855.524	18802
855.658	18867
855.792	18681
855.926	18665
856.06	18700
856.194	18863
856.327	18604
856.461	18601
856.595	18730
856.729	18612
856.862	18726
856.996	18726
857.13	18726
857.263	18768
857.397	18772
857.53	18703
857.664	18772
857.797	18722
857.931	18772
858.064	18661
858.197	18757
858.331	18658
858.464	18650
858.597	18517
858.731	18620
858.864	18650
858.997	18574
859.13	18582
859.263	18661
859.396	18601
859.529	18616
859.662	18566
859.795	18715
859.928	18585
860.061	18608
860.194	18726
860.327	18665
860.46	18528
860.592	18661
860.725	18825
860.858	18787
860.99	18551
861.123	18399
861.256	18544
861.388	18570
861.521	19285
861.653	18525
861.786	18506
861.918	18551
862.05	18464
862.183	18574
862.315	18639
862.447	18703
862.58	18711
862.712	18410
862.844	18357
862.976	18471
863.108	18441
863.24	18623
863.372	18300
863.504	18365
863.636	18414
863.768	18327
863.9	18422
864.032	18270
864.164	18304
864.296	18346
864.428	18433
864.559	18407
864.691	18502
864.823	18464
864.954	18357
865.086	18353
865.217	18239
865.349	18213
865.48	18232
865.612	18239
865.743	18357
865.875	18353
866.006	18300
866.137	18152
866.269	18369
866.4	18186
866.531	18251
866.662	18110
866.793	18251
866.924	18220
867.055	18220
867.186	18201
867.317	18232
867.448	18072
867.579	18171
867.71	18117
867.841	18110
867.972	18247
868.103	18163
868.233	18220
868.364	18258
868.495	18178
868.625	18399
868.756	18486
868.886	18308
869.017	18445
869.147	18502
869.278	18665
869.408	18620
869.539	18342
869.669	18555
869.799	18517
869.929	18433
870.06	18559
870.19	18741
870.32	18585
870.45	18749
870.58	18768
870.71	18890
870.84	18947
870.97	18768
871.1	18837
871.23	19050
871.36	19065
871.489	19000
871.619	18981
871.749	19031
871.879	18981
872.008	19107
872.138	18989
872.267	19084
872.397	18897
872.526	18928
872.656	18913
872.785	18890
872.915	19061
873.044	19221
873.173	19061
873.303	19126
873.432	18996
873.561	19160
873.69	19069
873.819	19023
873.948	19103
874.077	19061
874.206	18924
874.335	19088
874.464	19156
874.593	19274
874.722	19270
874.851	19331
874.979	19346
875.108	19472
875.237	19331
875.365	19331
875.494	19369
875.623	19339
875.751	19251
875.88	19339
876.008	19521
876.136	19533
876.265	19803
876.393	19913
876.521	19837
876.65	19791
876.778	19662
876.906	19772
877.034	19696
877.162	19715
877.29	19597
877.418	19590
877.546	19670
877.674	19670
877.802	19765
877.93	19647
878.058	19655
878.185	19597
878.313	19769
878.441	19780
878.568	19677
878.696	19719
878.824	19826
878.951	19814
879.079	19951
879.206	20119
879.333	20031
879.461	19856
879.588	19837
879.715	20031
879.842	20149
879.97	19833
880.097	19533
880.224	19510
880.351	19590
880.478	19662
880.605	19533
880.732	19487
880.859	19765
880.986	19609
881.112	19441
881.239	19453
881.366	19354
881.493	19285
881.619	19198
881.746	19282
881.872	19156
881.999	19126
882.125	19072
882.252	19221
882.378	19156
882.505	19392
882.631	19084
882.757	18932
882.883	19042
883.01	19012
883.136	18867
883.262	18730
883.388	18913
883.514	18920
883.64	18890
883.766	18886
883.892	18776
884.018	18772
884.143	18916
884.269	18985
884.395	18806
884.52	18661
884.646	18585
884.772	18623
884.897	18369
885.023	18654
885.148	18650
885.274	18795
885.399	18593
885.524	18616
885.65	18582
885.775	18627
885.9	18661
886.025	18589
886.15	18639
886.275	18547
886.4	18460
886.525	18452
886.65	18525
886.775	18566
886.9	18650
887.025	18798
887.149	18521
887.274	18357
887.399	18407
887.523	18372
887.648	18372
887.773	18266
887.897	18369
888.021	18365
888.146	18391
888.27	18407
888.395	18448
888.519	18410
888.643	18254
888.767	18445
888.891	18304
889.015	18247
889.139	18171
889.263	18125
889.387	18285
889.511	18350
889.635	18300
889.759	18095
889.883	18167
890.006	18232
890.13	18311
890.254	18125
890.377	18125
890.501	17897
890.624	17813
890.748	17920
890.871	17817
890.995	17771
891.118	17733
891.241	17775
891.364	17882
891.488	17851
891.611	17817
891.734	17847
891.857	17893
891.98	17870
892.103	17805
892.226	17824
892.349	17790
892.471	17627
892.594	17714
892.717	17741
892.839	17703
892.962	17794
893.085	17813
893.207	17714
893.33	17634
893.452	17691
893.575	17710
893.697	17737
893.819	17855
893.941	17958
894.064	17817
894.186	17809
894.308	17611
894.43	17866
894.552	17897
894.674	17847
894.796	17649
894.918	17737
895.04	17828
895.161	17851
895.283	17779
895.405	17707
895.526	17668
895.648	17722
895.769	17786
895.891	17665
896.012	17893
896.134	17874
896.255	17809
896.376	17748
896.498	17794
896.619	17832
896.74	17752
896.861	17878
896.982	18148
897.103	18342
897.224	18121
897.345	18057
897.466	17996
897.587	18049
897.708	18190
897.828	18095
897.949	17999
898.07	17866
898.19	17980
898.311	18148
898.431	18034
898.552	18102
898.672	18049
898.792	17977
898.913	18076
899.033	17927
899.153	17828
899.273	17729
899.393	17783
899.513	17741
899.633	17756
899.753	17828
899.873	17775
899.993	17809
900.113	17790
900.232	17802
900.352	17817
900.472	17764
900.591	17737
900.711	17623
900.83	17524
900.95	17760
901.069	17668
901.189	17524
901.308	17349
901.427	17277
901.546	17330
901.665	17326
901.784	17307
901.904	17162
902.023	17090
902.141	16900
902.26	16858
902.379	16892
902.498	16843
902.617	16767
902.735	16824
902.854	16805
902.973	16569
903.091	16527
903.21	16478
903.328	16546
903.446	16363
903.565	16337
903.683	16291
903.801	16219
903.919	16230
904.038	16211
904.156	16051
904.274	16131
904.392	16010
904.51	16090
904.627	15975
904.745	16067
904.863	16173
904.981	15793
905.098	15759
905.216	15747
905.334	15705
905.451	15770
905.569	15766
905.686	15770
905.803	15675
905.921	15481
906.038	15584
906.155	15542
906.272	15515
906.389	15435
906.506	15298
906.623	15287
906.74	15214
906.857	15150
906.974	15161
907.091	15230
907.208	15408
907.324	15310
907.441	15176
907.557	15036
907.674	14979
907.79	14948
907.907	14956
908.023	14998
908.139	15047
908.256	14914
908.372	14823
908.488	14720
908.604	14769
908.72	14594
908.836	14621
908.952	14693
909.068	14716
909.184	14769
909.3	14663
909.415	14769
909.531	14670
909.647	14568
909.762	14381
909.878	14301
909.993	14427
910.108	14381
910.224	14412
910.339	14454
910.454	14343
910.57	14195
910.685	14199
910.8	14473
910.915	14427
911.03	14187
911.145	14069
911.259	14119
911.374	13986
911.489	13974
911.604	13890
911.718	13826
911.833	13826
911.947	13738
912.062	13632
912.176	13616
912.291	13731
912.405	13734
912.519	13993
912.633	13932
912.748	13803
912.862	13845
912.976	13605
913.09	13468
913.204	13578
913.318	13643
913.431	13662
913.545	13658
913.659	13742
913.772	13567
913.886	13453
914	13438
914.113	13613
914.226	13597
914.34	13533
914.453	13381
914.566	13548
914.68	13346
914.793	13377
914.906	13149
915.019	13080
915.132	13061
915.245	13145
915.358	13107
915.47	13084
915.583	13160
915.696	13183
915.809	13251
915.921	13278
916.034	13076
916.146	13012
916.259	12958
916.371	13149
916.483	13145
916.595	13012
916.708	12928
916.82	12981
916.932	12954
917.044	12993
917.156	13000
917.268	12878
917.38	12837
917.491	12833
917.603	12863
917.715	12901
917.826	12935
917.938	12764
918.049	12772
918.161	12814
918.272	12920
918.384	12939
918.495	12848
918.606	12700
918.717	12608
918.828	12654
918.939	12677
919.05	12540
919.161	12608
919.272	12452
919.383	12486
919.494	12604
919.604	12802
919.715	12726
919.826	12563
919.936	12551
920.047	12612
920.157	12642
920.267	12707
920.378	12528
920.488	12631
920.598	12821
920.708	12958
920.818	12768
920.928	12703
921.038	12951
921.148	12852
921.258	12570
921.368	12490
921.477	12380
921.587	12441
921.697	12262
921.806	12460
921.916	12262
922.025	12148
922.134	11984
922.244	12007
922.353	12117
922.462	11805
922.571	11840
922.68	11813
922.789	11680
922.898	11741
923.007	11596
923.116	11691
923.224	11733
923.333	11608
923.442	11581
923.55	11539
923.659	11478
923.767	11642
923.876	11520
923.984	11589
924.092	11463
924.201	11493
924.309	11497
924.417	11543
924.525	11398
924.633	11395
924.741	12148
924.849	11261
924.956	11364
925.064	11174
925.172	11147
925.279	11193
925.387	11288
925.494	11166
925.602	11349
925.709	11265
925.816	11105
925.924	11235
926.031	11292
926.138	11201
926.245	11220
926.352	11159
926.459	11178
926.566	11284
926.673	11105
926.779	10984
926.886	11025
926.993	10858
927.099	10896
927.206	10790
927.312	10847
927.419	10866
927.525	10946
927.631	10847
927.737	10668
927.843	10748
927.95	10584
928.056	10725
928.162	10687
928.267	10721
928.373	11387
928.479	10744
928.585	10565
928.69	10664
928.796	10698
928.901	10519
929.007	10542
929.112	10607
929.218	10493
929.323	10432
929.428	10489
929.533	10550
929.638	10398
929.743	10371
929.848	10375
929.953	10417
930.058	10318
930.163	10143
930.267	10158
930.372	10344
930.477	10192
930.581	10344
930.685	10272
930.79	10048
930.894	10116
930.998	10067
931.103	10234
931.207	9854
931.311	9762
931.415	9644
931.519	9507
931.623	9511
