Data from test_V78500241_2719.txt Node
Date: Fri Mar 25 14:52:38 CST 2022
User: usil
Spectrometer: V785-0024
Trigger mode: 0
Integration Time (sec): 4.000000E-1
Scans to average: 1
Nonlinearity correction enabled: false
Boxcar width: 0
Storing dark spectrum: false
XAxis mode: Wavelengths
Number of Pixels in Spectrum: 1024
>>>>>Begin Spectral Data<<<<<
801.071	22055
801.214	22013
801.356	21614
801.499	21644
801.641	21408
801.783	21416
801.926	21439
802.068	21386
802.211	21332
802.353	21116
802.496	20899
802.638	20944
802.78	20834
802.923	20712
803.065	20670
803.208	20503
803.35	20686
803.492	20701
803.635	20857
803.777	20800
803.919	20800
804.061	21039
804.204	20754
804.346	20674
804.488	20617
804.63	20663
804.773	20583
804.915	20606
805.057	20727
805.199	20488
805.341	20640
805.483	20693
805.626	20636
805.768	20457
805.91	20640
806.052	20720
806.194	20560
806.336	20735
806.478	20507
806.62	20625
806.762	20655
806.904	20785
807.046	20975
807.188	20925
807.33	20967
807.472	21043
807.614	20739
807.756	20849
807.898	20727
808.04	20678
808.182	20716
808.324	20724
808.465	20716
808.607	20883
808.749	20956
808.891	21055
809.033	21116
809.174	21039
809.316	20849
809.458	21013
809.6	20887
809.741	20986
809.883	20933
810.025	21131
810.166	21077
810.308	21161
810.45	21017
810.591	21138
810.733	21020
810.875	20815
811.016	20556
811.158	20659
811.299	20765
811.441	20811
811.582	20861
811.724	20743
811.865	20777
812.007	20716
812.148	20716
812.29	20788
812.431	20800
812.573	21005
812.714	21100
812.855	21161
812.997	21382
813.138	21458
813.279	21473
813.421	21218
813.562	21032
813.703	20960
813.845	21013
813.986	20495
814.127	20358
814.268	20377
814.41	20473
814.551	20336
814.692	20336
814.833	20126
814.974	20389
815.115	20199
815.256	20199
815.397	20134
815.539	20134
815.68	20069
815.821	19955
815.962	20046
816.103	20164
816.244	19894
816.385	19799
816.526	19704
816.666	19552
816.807	19320
816.948	19422
817.089	19540
817.23	19537
817.371	19422
817.512	19491
817.653	19430
817.793	19434
817.934	19362
818.075	19430
818.216	19449
818.356	19354
818.497	19293
818.638	19057
818.778	19053
818.919	19240
819.06	19107
819.2	19228
819.341	19293
819.481	19335
819.622	19449
819.762	19708
819.903	19502
820.043	19430
820.184	19369
820.324	19464
820.465	19400
820.605	19354
820.746	19350
820.886	19255
821.026	19384
821.167	19350
821.307	19510
821.447	19472
821.588	19107
821.728	19152
821.868	18905
822.008	18779
822.149	18810
822.289	18802
822.429	18513
822.569	18578
822.709	18490
822.849	18262
822.99	18262
823.13	18182
823.27	18224
823.41	18159
823.55	18045
823.69	18117
823.83	18190
823.97	18087
824.11	18015
824.25	17866
824.389	17824
824.529	17942
824.669	17870
824.809	18015
824.949	17916
825.089	17954
825.228	17870
825.368	17745
825.508	17638
825.648	17684
825.787	17760
825.927	17581
826.067	17589
826.206	17608
826.346	17691
826.485	17642
826.625	17779
826.765	17722
826.904	17676
827.044	17402
827.183	17452
827.323	17395
827.462	17497
827.601	17353
827.741	17379
827.88	17372
828.02	17269
828.159	17307
828.298	17467
828.437	17406
828.577	17330
828.716	17436
828.855	17265
828.994	17090
829.134	17124
829.273	17216
829.412	17098
829.551	16976
829.69	17041
829.829	17174
829.968	17280
830.107	17159
830.246	17155
830.385	17041
830.524	16991
830.663	16919
830.802	16831
830.941	16797
831.08	16706
831.219	16885
831.357	16885
831.496	17022
831.635	16725
831.774	16573
831.913	16626
832.051	16493
832.19	16462
832.329	16561
832.467	16451
832.606	16337
832.744	16455
832.883	16352
833.022	16447
833.16	16398
833.299	16436
833.437	16470
833.576	16546
833.714	16470
833.852	16508
833.991	16538
834.129	16470
834.267	16550
834.406	16432
834.544	16485
834.682	16440
834.821	16538
834.959	16618
835.097	16462
835.235	16710
835.373	16584
835.511	16493
835.65	16409
835.788	16440
835.926	16265
836.064	16257
836.202	16306
836.34	16413
836.478	16436
836.615	16394
836.753	16409
836.891	16424
837.029	16538
837.167	16363
837.305	16333
837.443	16234
837.58	16333
837.718	16363
837.856	16306
837.993	16154
838.131	16341
838.269	16211
838.406	16234
838.544	16143
838.681	16032
838.819	15979
838.956	15781
839.094	15797
839.231	15827
839.369	16109
839.506	16261
839.643	16112
839.781	15842
839.918	15819
840.055	15895
840.193	15842
840.33	15808
840.467	15797
840.604	15797
840.742	16048
840.879	15614
841.016	15675
841.153	15690
841.29	15899
841.427	15876
841.564	15785
841.701	15884
841.838	15876
841.975	15713
842.112	15774
842.249	15549
842.385	15538
842.522	15835
842.659	15759
842.796	15530
842.933	15629
843.069	15618
843.206	15538
843.343	15641
843.479	15591
843.616	15656
843.752	15397
843.889	15420
844.025	15622
844.162	15363
844.298	15538
844.435	15435
844.571	15336
844.708	15462
844.844	15488
844.98	15564
845.117	15606
845.253	15313
845.389	15272
845.525	15348
845.661	15355
845.798	15089
845.934	15268
846.07	15203
846.206	15325
846.342	15367
846.478	15252
846.614	15104
846.75	14887
846.886	14941
847.022	14979
847.158	15039
847.294	14925
847.429	14941
847.565	14986
847.701	15260
847.837	14750
847.972	14712
848.108	14864
848.244	14655
848.379	14594
848.515	14442
848.65	14655
848.786	14537
848.921	14636
849.057	14613
849.192	14727
849.328	14644
849.463	14590
849.598	14571
849.734	14533
849.869	14511
850.004	14355
850.14	14412
850.275	14320
850.41	14240
850.545	14290
850.68	14298
850.815	14317
850.95	14370
851.085	14533
851.22	14427
851.355	14309
851.49	14396
851.625	14431
851.76	14339
851.895	14199
852.03	14126
852.165	14324
852.299	14267
852.434	14389
852.569	14358
852.703	14313
852.838	14324
852.973	14526
853.107	14427
853.242	14351
853.376	14176
853.511	14103
853.645	14172
853.78	14351
853.914	14313
854.048	14153
854.183	14145
854.317	14218
854.451	14396
854.585	14218
854.72	14084
854.854	14176
854.988	14123
855.122	14240
855.256	14103
855.39	14206
855.524	14199
855.658	14267
855.792	14290
855.926	14298
856.06	14240
856.194	14461
856.327	14267
856.461	14244
856.595	14161
856.729	14233
856.862	14427
856.996	14278
857.13	14286
857.263	14339
857.397	14313
857.53	14263
857.664	14385
857.797	14324
857.931	14377
858.064	14187
858.197	14309
858.331	14248
858.464	14134
858.597	14115
858.731	14221
858.864	14187
858.997	14153
859.13	14282
859.263	14183
859.396	14290
859.529	14278
859.662	14252
859.795	14161
859.928	14290
860.061	14351
860.194	14492
860.327	14221
860.46	14256
860.592	14355
860.725	14324
860.858	14381
860.99	14229
861.123	14126
861.256	14237
861.388	14191
861.521	14880
861.653	14191
861.786	14096
861.918	14153
862.05	14115
862.183	14187
862.315	14248
862.447	14343
862.58	14050
862.712	14016
862.844	13909
862.976	14050
863.108	14081
863.24	14503
863.372	13982
863.504	13982
863.636	14020
863.768	14039
863.9	14012
864.032	14008
864.164	13989
864.296	14058
864.428	14100
864.559	14081
864.691	14012
864.823	14031
864.954	14107
865.086	14058
865.217	14062
865.349	13993
865.48	14058
865.612	14039
865.743	14176
865.875	13986
866.006	14092
866.137	14046
866.269	14008
866.4	14012
866.531	14058
866.662	13936
866.793	13898
866.924	13860
867.055	13959
867.186	14031
867.317	13925
867.448	13932
867.579	13989
867.71	13864
867.841	13883
867.972	14027
868.103	14088
868.233	14020
868.364	14016
868.495	14016
868.625	14199
868.756	14267
868.886	14134
869.017	14313
869.147	14488
869.278	14381
869.408	14256
869.539	14218
869.669	14301
869.799	14221
869.929	14362
870.06	14336
870.19	14613
870.32	14514
870.45	14629
870.58	14621
870.71	14792
870.84	14731
870.97	14644
871.1	14636
871.23	14800
871.36	14929
871.489	14724
871.619	14720
871.749	14853
871.879	14914
872.008	14921
872.138	14902
872.267	14826
872.397	14720
872.526	14712
872.656	14731
872.785	14663
872.915	14834
873.044	14941
873.173	14925
873.303	14918
873.432	14975
873.561	14990
873.69	14887
873.819	14925
873.948	14918
874.077	14948
874.206	14857
874.335	14849
874.464	15039
874.593	15135
874.722	15184
874.851	15306
874.979	15230
875.108	15348
875.237	15188
875.365	15119
875.494	15180
875.623	15230
875.751	15150
875.88	15256
876.008	15401
876.136	15435
876.265	15682
876.393	15713
876.521	15743
876.65	15667
876.778	15660
876.906	15523
877.034	15538
877.162	15614
877.29	15648
877.418	15743
877.546	15644
877.674	15717
877.802	15663
877.93	15667
878.058	15561
878.185	15549
878.313	15625
878.441	15709
878.568	15435
878.696	15637
878.824	15656
878.951	15728
879.079	15869
879.206	15949
879.333	15823
879.461	15629
879.588	15732
879.715	15759
879.842	15915
879.97	15774
880.097	15443
880.224	15458
880.351	15580
880.478	15622
880.605	15454
880.732	15416
880.859	15671
880.986	15542
881.112	15595
881.239	15348
881.366	15336
881.493	15199
881.619	15039
881.746	15097
881.872	15207
881.999	15123
882.125	15032
882.252	15180
882.378	15180
882.505	15214
882.631	15131
882.757	14891
882.883	15074
883.01	14960
883.136	14956
883.262	14800
883.388	14887
883.514	14975
883.64	14979
883.766	14921
883.892	14788
884.018	14754
884.143	14975
884.269	15051
884.395	14807
884.52	14640
884.646	14674
884.772	14746
884.897	14625
885.023	14636
885.148	14746
885.274	14861
885.399	14743
885.524	14705
885.65	14655
885.775	14678
885.9	14674
886.025	14777
886.15	14674
886.275	14587
886.4	14537
886.525	14587
886.65	14701
886.775	14533
886.9	14830
887.025	14891
887.149	14682
887.274	14564
887.399	14587
887.523	14499
887.648	14396
887.773	14446
887.897	14636
888.021	14541
888.146	14575
888.27	14610
888.395	14636
888.519	14629
888.643	14560
888.767	14598
888.891	14324
889.015	14438
889.139	14419
889.263	14488
889.387	14457
889.511	14549
889.635	14438
889.759	14244
889.883	14305
890.006	14400
890.13	14408
890.254	14248
890.377	14324
890.501	14149
890.624	14119
890.748	14240
890.871	14012
890.995	14054
891.118	13951
891.241	13936
891.364	13978
891.488	14168
891.611	14123
891.734	14157
891.857	14103
891.98	14084
892.103	14111
892.226	14115
892.349	14008
892.471	13894
892.594	14069
892.717	14111
892.839	14084
892.962	14043
893.085	14024
893.207	14027
893.33	13970
893.452	14088
893.575	14084
893.697	14043
893.819	14187
893.941	14343
894.064	14191
894.186	14058
894.308	14058
894.43	14119
894.552	14259
894.674	14248
894.796	14062
894.918	14027
895.04	14031
895.161	14214
895.283	14214
895.405	14103
895.526	14119
895.648	14134
895.769	14244
895.891	14153
896.012	14301
896.134	14328
896.255	14168
896.376	14157
896.498	14142
896.619	14294
896.74	14161
896.861	14305
896.982	14545
897.103	14720
897.224	14583
897.345	14412
897.466	14412
897.587	14480
897.708	14636
897.828	14606
897.949	14393
898.07	14412
898.19	14469
898.311	14617
898.431	14556
898.552	14465
898.672	14625
898.792	14594
898.913	14678
899.033	14598
899.153	14613
899.273	14347
899.393	14351
899.513	14393
899.633	14366
899.753	14362
899.873	14396
899.993	14385
900.113	14431
900.232	14434
900.352	14400
900.472	14377
900.591	14343
900.711	14332
900.83	14199
900.95	14427
901.069	14362
901.189	14145
901.308	14046
901.427	13932
901.546	13913
901.665	14046
901.784	13944
901.904	13852
902.023	13772
902.141	13651
902.26	13609
902.379	13700
902.498	13460
902.617	13510
902.735	13578
902.854	13468
902.973	13381
903.091	13308
903.21	13236
903.328	13339
903.446	13202
903.565	13053
903.683	13156
903.801	13065
903.919	13118
904.038	13019
904.156	12939
904.274	13031
904.392	12844
904.51	12973
904.627	12924
904.745	12981
904.863	12993
904.981	12795
905.098	12711
905.216	12623
905.334	12601
905.451	12570
905.569	12566
905.686	12749
905.803	12612
905.921	12483
906.038	12551
906.155	12456
906.272	12464
906.389	12319
906.506	12152
906.623	12163
906.74	12251
906.857	12068
906.974	12152
907.091	12247
907.208	12361
907.324	12266
907.441	12205
907.557	11992
907.674	11969
907.79	11882
907.907	11897
908.023	11984
908.139	12030
908.256	11988
908.372	11878
908.488	11901
908.604	11714
908.72	11794
908.836	11779
908.952	11680
909.068	11688
909.184	11836
909.3	11764
909.415	11794
909.531	11786
909.647	11566
909.762	11493
909.878	11471
909.993	11562
910.108	11398
910.224	11410
910.339	11486
910.454	11341
910.57	11307
910.685	11288
910.8	11535
910.915	11474
911.03	11440
911.145	11201
911.259	11143
911.374	11166
911.489	11090
911.604	11067
911.718	10980
911.833	10919
911.947	10900
912.062	10828
912.176	10949
912.291	10942
912.405	10968
912.519	11102
912.633	11105
912.748	11090
912.862	11018
912.976	10793
913.09	10717
913.204	10790
913.318	10824
913.431	10911
913.545	10930
913.659	11006
913.772	10839
913.886	10740
914	10691
914.113	10835
914.226	10835
914.34	10706
914.453	10664
914.566	10828
914.68	10687
914.793	10611
914.906	10493
915.019	10409
915.132	10306
915.245	10402
915.358	10478
915.47	10459
915.583	10474
915.696	10481
915.809	10577
915.921	10580
916.034	10474
916.146	10409
916.259	10413
916.371	10516
916.483	10462
916.595	10386
916.708	10371
916.82	10443
916.932	10352
917.044	10341
917.156	10413
917.268	10249
917.38	10306
917.491	10261
917.603	10272
917.715	10398
917.826	10390
917.938	10280
918.049	10188
918.161	10341
918.272	10398
918.384	10481
918.495	10344
918.606	10158
918.717	10017
918.828	10196
918.939	10253
919.05	10036
919.161	10147
919.272	9937
919.383	10071
919.494	10306
919.604	10413
919.715	10192
919.826	10071
919.936	10139
920.047	10268
920.157	10143
920.267	10379
920.378	10242
920.488	10173
920.598	10455
920.708	10489
920.818	10322
920.928	10417
921.038	10523
921.148	10516
921.258	10196
921.368	10120
921.477	10105
921.587	10090
921.697	9968
921.806	10105
921.916	9953
922.025	9747
922.134	9762
922.244	9762
922.353	9785
922.462	9599
922.571	9637
922.68	9466
922.789	9439
922.898	9458
923.007	9412
923.116	9477
923.224	9500
923.333	9370
923.442	9325
923.55	9336
923.659	9348
923.767	9386
923.876	9264
923.984	9397
924.092	9203
924.201	9294
924.309	9355
924.417	9355
924.525	9230
924.633	9253
924.741	9994
924.849	9066
924.956	9302
925.064	9135
925.172	9131
925.279	9024
925.387	9119
925.494	9119
925.602	9249
925.709	9199
925.816	9089
925.924	9058
926.031	9150
926.138	9154
926.245	9119
926.352	8990
926.459	9146
926.566	9195
926.673	9009
926.779	8975
926.886	8918
926.993	8864
927.099	8796
927.206	8785
927.312	8788
927.419	8895
927.525	8815
927.631	8845
927.737	8716
927.843	8655
927.95	8636
928.056	8708
928.162	8678
928.267	8811
928.373	9340
928.479	8807
928.585	8568
928.69	8720
928.796	8758
928.901	8610
929.007	8503
929.112	8659
929.218	8602
929.323	8533
929.428	8526
929.533	8644
929.638	8476
929.743	8469
929.848	8533
929.953	8511
930.058	8423
930.163	8263
930.267	8309
930.372	8461
930.477	8298
930.581	8522
930.685	8343
930.79	8202
930.894	8267
930.998	8294
931.103	8362
931.207	8012
931.311	7951
931.415	7894
931.519	7696
931.623	7696
