Data from test_V78500241_1594.txt Node
Date: Fri Mar 25 14:44:48 CST 2022
User: usil
Spectrometer: V785-0024
Trigger mode: 0
Integration Time (sec): 4.000000E-1
Scans to average: 1
Nonlinearity correction enabled: false
Boxcar width: 0
Storing dark spectrum: false
XAxis mode: Wavelengths
Number of Pixels in Spectrum: 1024
>>>>>Begin Spectral Data<<<<<
801.071	22428
801.214	22318
801.356	22048
801.499	21915
801.641	21701
801.783	21751
801.926	21831
802.068	21701
802.211	21595
802.353	21443
802.496	21363
802.638	21298
802.78	21142
802.923	21005
803.065	21093
803.208	21055
803.35	21043
803.492	21176
803.635	21211
803.777	21173
803.919	21165
804.061	21466
804.204	21157
804.346	21001
804.488	20925
804.63	21100
804.773	21047
804.915	21093
805.057	21135
805.199	20979
805.341	21096
805.483	21058
805.626	21077
805.768	20880
805.91	21032
806.052	21058
806.194	20906
806.336	21233
806.478	21009
806.62	20986
806.762	21081
806.904	21184
807.046	21447
807.188	21237
807.33	21363
807.472	21397
807.614	21218
807.756	21325
807.898	21085
808.04	20979
808.182	21173
808.324	21184
808.465	21233
808.607	21329
808.749	21530
808.891	21614
809.033	21679
809.174	21587
809.316	21416
809.458	21462
809.6	21397
809.741	21458
809.883	21549
810.025	21576
810.166	21629
810.308	21564
810.45	21477
810.591	21340
810.733	21275
810.875	21294
811.016	21298
811.158	21119
811.299	21332
811.441	21355
811.582	21306
811.724	21233
811.865	21142
812.007	21222
812.148	21306
812.29	21249
812.431	21450
812.573	21466
812.714	21663
812.855	21694
812.997	21812
813.138	21949
813.279	21705
813.421	21747
813.562	21591
813.703	21424
813.845	21291
813.986	21036
814.127	20883
814.268	20857
814.41	20834
814.551	20636
814.692	20781
814.833	20720
814.974	20629
815.115	20594
815.256	20434
815.397	20613
815.539	20617
815.68	20389
815.821	20419
815.962	20549
816.103	20408
816.244	20271
816.385	20256
816.526	20161
816.666	20046
816.807	19818
816.948	20024
817.089	19963
817.23	19890
817.371	19883
817.512	19753
817.653	19814
817.793	19852
817.934	19791
818.075	19921
818.216	19963
818.356	19772
818.497	19609
818.638	19559
818.778	19609
818.919	19521
819.06	19613
819.2	19643
819.341	19856
819.481	19731
819.622	19928
819.762	19928
819.903	20001
820.043	19986
820.184	19780
820.324	19868
820.465	20012
820.605	19769
820.746	19830
820.886	19670
821.026	19769
821.167	19712
821.307	19906
821.447	19822
821.588	19651
821.728	19491
821.868	19343
822.008	19255
822.149	19244
822.289	19190
822.429	18977
822.569	18901
822.709	18920
822.849	18745
822.99	18681
823.13	18749
823.27	18696
823.41	18589
823.55	18471
823.69	18551
823.83	18532
823.97	18502
824.11	18342
824.25	18327
824.389	18315
824.529	18346
824.669	18369
824.809	18384
824.949	18399
825.089	18304
825.228	18300
825.368	18095
825.508	18152
825.648	18072
825.787	18064
825.927	18110
826.067	18011
826.206	18083
826.346	18106
826.485	18117
826.625	18053
826.765	18163
826.904	18034
827.044	17767
827.183	17832
827.323	17729
827.462	17718
827.601	17786
827.741	17703
827.88	17703
828.02	17646
828.159	17729
828.298	17802
828.437	17779
828.577	17653
828.716	17863
828.855	17729
828.994	17619
829.134	17596
829.273	17562
829.412	17391
829.551	17406
829.69	17471
829.829	17509
829.968	17600
830.107	17486
830.246	17570
830.385	17406
830.524	17356
830.663	17353
830.802	17159
830.941	17090
831.08	17113
831.219	17124
831.357	17166
831.496	17284
831.635	17223
831.774	17098
831.913	17071
832.051	16927
832.19	16866
832.329	16919
832.467	16839
832.606	16706
832.744	16801
832.883	16847
833.022	16755
833.16	16717
833.299	16854
833.437	16869
833.576	16854
833.714	16847
833.852	16896
833.991	16968
834.129	16919
834.267	16877
834.406	16908
834.544	16850
834.682	16805
834.821	16797
834.959	17041
835.097	16835
835.235	16934
835.373	16904
835.511	16797
835.65	16725
835.788	16755
835.926	16596
836.064	16436
836.202	16527
836.34	16828
836.478	16858
836.615	16763
836.753	16782
836.891	16877
837.029	16744
837.167	16687
837.305	16725
837.443	16622
837.58	16592
837.718	16622
837.856	16626
837.993	16599
838.131	16698
838.269	16516
838.406	16535
838.544	16485
838.681	16284
838.819	16234
838.956	16162
839.094	16230
839.231	16204
839.369	16341
839.506	16542
839.643	16382
839.781	16211
839.918	16226
840.055	16120
840.193	16090
840.33	16196
840.467	16169
840.604	16287
840.742	16443
840.879	16078
841.016	16143
841.153	16116
841.29	16265
841.427	16226
841.564	16192
841.701	16139
841.838	16048
841.975	16105
842.112	16112
842.249	15941
842.385	15876
842.522	16139
842.659	15937
842.796	15915
842.933	15888
843.069	15899
843.206	15793
843.343	15915
843.479	15884
843.616	15979
843.752	15785
843.889	15720
844.025	15819
844.162	15724
844.298	15785
844.435	15747
844.571	15720
844.708	15797
844.844	15941
844.98	15903
845.117	15785
845.253	15717
845.389	15648
845.525	15751
845.661	15694
845.798	15606
845.934	15747
846.07	15580
846.206	15698
846.342	15736
846.478	15519
846.614	15351
846.75	15241
846.886	15351
847.022	15359
847.158	15344
847.294	15283
847.429	15310
847.565	15256
847.701	15481
847.837	15036
847.972	14975
848.108	15089
848.244	15013
848.379	14826
848.515	14883
848.65	14956
848.786	14910
848.921	14891
849.057	15047
849.192	14994
849.328	14883
849.463	14971
849.598	14834
849.734	14849
849.869	14613
850.004	14636
850.14	14773
850.275	14625
850.41	14594
850.545	14644
850.68	14625
850.815	14632
850.95	14636
851.085	14807
851.22	14743
851.355	14632
851.49	14583
851.625	14613
851.76	14568
851.895	14488
852.03	14537
852.165	14545
852.299	14594
852.434	14602
852.569	14613
852.703	14621
852.838	14674
852.973	14796
853.107	14765
853.242	14583
853.376	14469
853.511	14499
853.645	14465
853.78	14644
853.914	14480
854.048	14488
854.183	14518
854.317	14454
854.451	14701
854.585	14484
854.72	14484
854.854	14533
854.988	14511
855.122	14473
855.256	14370
855.39	14469
855.524	14530
855.658	14514
855.792	14533
855.926	14560
856.06	14583
856.194	14625
856.327	14484
856.461	14495
856.595	14526
856.729	14457
856.862	14568
856.996	14533
857.13	14610
857.263	14602
857.397	14663
857.53	14362
857.664	14545
857.797	14533
857.931	14594
858.064	14545
858.197	14667
858.331	14518
858.464	14446
858.597	14358
858.731	14427
858.864	14488
858.997	14446
859.13	14625
859.263	14514
859.396	14556
859.529	14469
859.662	14396
859.795	14450
859.928	14560
860.061	14655
860.194	14606
860.327	14556
860.46	14522
860.592	14629
860.725	14640
860.858	14644
860.99	14442
861.123	14446
861.256	14434
861.388	14507
861.521	15230
861.653	14434
861.786	14358
861.918	14393
862.05	14507
862.183	14514
862.315	14438
862.447	14590
862.58	14533
862.712	14343
862.844	14202
862.976	14423
863.108	14317
863.24	14853
863.372	14145
863.504	14256
863.636	14343
863.768	14290
863.9	14286
864.032	14214
864.164	14301
864.296	14351
864.428	14423
864.559	14393
864.691	14488
864.823	14374
864.954	14389
865.086	14393
865.217	14244
865.349	14225
865.48	14259
865.612	14286
865.743	14427
865.875	14278
866.006	14294
866.137	14252
866.269	14278
866.4	14218
866.531	14244
866.662	14240
866.793	14282
866.924	14301
867.055	14358
867.186	14267
867.317	14339
867.448	14123
867.579	14096
867.71	14187
867.841	14259
867.972	14278
868.103	14286
868.233	14366
868.364	14267
868.495	14324
868.625	14568
868.756	14625
868.886	14461
869.017	14454
869.147	14678
869.278	14651
869.408	14526
869.539	14537
869.669	14602
869.799	14617
869.929	14571
870.06	14613
870.19	14880
870.32	14792
870.45	14895
870.58	14899
870.71	14979
870.84	15077
870.97	15047
871.1	14937
871.23	15127
871.36	15070
871.489	15062
871.619	15135
871.749	15119
871.879	15176
872.008	15321
872.138	15146
872.267	15089
872.397	15051
872.526	14952
872.656	15013
872.785	14963
872.915	15203
873.044	15039
873.173	15184
873.303	15104
873.432	15249
873.561	15203
873.69	15199
873.819	15199
873.948	15264
874.077	15112
874.206	15104
874.335	15176
874.464	15340
874.593	15481
874.722	15454
874.851	15515
874.979	15580
875.108	15572
875.237	15507
875.365	15370
875.494	15447
875.623	15530
875.751	15401
875.88	15564
876.008	15682
876.136	15743
876.265	15857
876.393	16063
876.521	16013
876.65	16010
876.778	15915
876.906	15941
877.034	15857
877.162	15918
877.29	15850
877.418	15895
877.546	15918
877.674	15857
877.802	15876
877.93	15884
878.058	15854
878.185	15857
878.313	15857
878.441	15907
878.568	15762
878.696	15861
878.824	16006
878.951	16109
879.079	16112
879.206	16230
879.333	16093
879.461	16021
879.588	16040
879.715	16162
879.842	16291
879.97	15941
880.097	15713
880.224	15816
880.351	15804
880.478	15747
880.605	15759
880.732	15850
880.859	15926
880.986	15816
881.112	15770
881.239	15584
881.366	15488
881.493	15530
881.619	15492
881.746	15454
881.872	15443
881.999	15412
882.125	15389
882.252	15416
882.378	15424
882.505	15648
882.631	15367
882.757	15264
882.883	15294
883.01	15283
883.136	15173
883.262	15116
883.388	15081
883.514	15249
883.64	15355
883.766	15237
883.892	15036
884.018	15104
884.143	15237
884.269	15245
884.395	14963
884.52	15017
884.646	14921
884.772	14864
884.897	14845
885.023	15005
885.148	15001
885.274	14990
885.399	14979
885.524	14883
885.65	14929
885.775	14998
885.9	14963
886.025	15131
886.15	14998
886.275	14800
886.4	14777
886.525	14906
886.65	14834
886.775	14868
886.9	15093
887.025	15173
887.149	14902
887.274	14788
887.399	14712
887.523	14659
887.648	14720
887.773	14697
887.897	14762
888.021	14834
888.146	14617
888.27	14823
888.395	14845
888.519	14720
888.643	14788
888.767	14868
888.891	14746
889.015	14640
889.139	14655
889.263	14568
889.387	14682
889.511	14731
889.635	14682
889.759	14648
889.883	14480
890.006	14705
890.13	14686
890.254	14583
890.377	14495
890.501	14389
890.624	14427
890.748	14465
890.871	14370
890.995	14324
891.118	14259
891.241	14252
891.364	14351
891.488	14457
891.611	14275
891.734	14290
891.857	14275
891.98	14389
892.103	14355
892.226	14301
892.349	14225
892.471	14157
892.594	14259
892.717	14355
892.839	14256
892.962	14347
893.085	14404
893.207	14305
893.33	14275
893.452	14267
893.575	14454
893.697	14214
893.819	14450
893.941	14587
894.064	14495
894.186	14240
894.308	14233
894.43	14393
894.552	14499
894.674	14389
894.796	14317
894.918	14263
895.04	14317
895.161	14526
895.283	14404
895.405	14240
895.526	14408
895.648	14396
895.769	14499
895.891	14522
896.012	14545
896.134	14541
896.255	14465
896.376	14465
896.498	14495
896.619	14526
896.74	14469
896.861	14503
896.982	14731
897.103	14925
897.224	14750
897.345	14823
897.466	14705
897.587	14667
897.708	14823
897.828	14788
897.949	14746
898.07	14625
898.19	14788
898.311	14921
898.431	14701
898.552	14819
898.672	14883
898.792	15039
898.913	14819
899.033	14708
899.153	14693
899.273	14590
899.393	14648
899.513	14670
899.633	14765
899.753	14693
899.873	14636
899.993	14731
900.113	14587
900.232	14746
900.352	14541
900.472	14651
900.591	14541
900.711	14541
900.83	14476
900.95	14663
901.069	14651
901.189	14473
901.308	14202
901.427	14210
901.546	14210
901.665	14381
901.784	14267
901.904	14164
902.023	13947
902.141	13864
902.26	13887
902.379	13826
902.498	13780
902.617	13704
902.735	13898
902.854	13860
902.973	13704
903.091	13510
903.21	13533
903.328	13525
903.446	13434
903.565	13297
903.683	13460
903.801	13206
903.919	13403
904.038	13274
904.156	13160
904.274	13198
904.392	13156
904.51	13171
904.627	13179
904.745	13183
904.863	13251
904.981	12951
905.098	12856
905.216	12844
905.334	12859
905.451	12920
905.569	12840
905.686	12837
905.803	12814
905.921	12677
906.038	12745
906.155	12696
906.272	12604
906.389	12662
906.506	12407
906.623	12460
906.74	12391
906.857	12270
906.974	12327
907.091	12479
907.208	12441
907.324	12464
907.441	12304
907.557	12205
907.674	12163
907.79	12175
907.907	12110
908.023	12213
908.139	12178
908.256	12167
908.372	12060
908.488	12114
908.604	11885
908.72	11901
908.836	11897
908.952	11878
909.068	11920
909.184	11992
909.3	11984
909.415	11988
909.531	11939
909.647	11798
909.762	11764
909.878	11699
909.993	11707
910.108	11703
910.224	11707
910.339	11653
910.454	11535
910.57	11562
910.685	11478
910.8	11688
910.915	11726
911.03	11596
911.145	11490
911.259	11387
911.374	11341
911.489	11280
911.604	11280
911.718	11166
911.833	11201
911.947	11006
912.062	11045
912.176	11124
912.291	11083
912.405	11174
912.519	11254
912.633	11345
912.748	11242
912.862	11201
912.976	10957
913.09	10946
913.204	10946
913.318	10999
913.431	11102
913.545	11083
913.659	11197
913.772	10980
913.886	10896
914	10915
914.113	11025
914.226	11064
914.34	11006
914.453	10797
914.566	10972
914.68	10923
914.793	10850
914.906	10694
915.019	10637
915.132	10538
915.245	10645
915.358	10687
915.47	10687
915.583	10634
915.696	10679
915.809	10824
915.921	10729
916.034	10653
916.146	10660
916.259	10527
916.371	10634
916.483	10622
916.595	10599
916.708	10599
916.82	10584
916.932	10550
917.044	10588
917.156	10481
917.268	10409
917.38	10360
917.491	10443
917.603	10512
917.715	10531
917.826	10550
917.938	10447
918.049	10386
918.161	10508
918.272	10584
918.384	10626
918.495	10481
918.606	10341
918.717	10177
918.828	10276
918.939	10356
919.05	10242
919.161	10348
919.272	10120
919.383	10219
919.494	10363
919.604	10641
919.715	10356
919.826	10287
919.936	10318
920.047	10470
920.157	10352
920.267	10580
920.378	10417
920.488	10375
920.598	10512
920.708	10748
920.818	10577
920.928	10535
921.038	10710
921.148	10706
921.258	10421
921.368	10284
921.477	10227
921.587	10223
921.697	10074
921.806	10200
921.916	10086
922.025	9960
922.134	9934
922.244	9907
922.353	9850
922.462	9861
922.571	9720
922.68	9679
922.789	9557
922.898	9606
923.007	9549
923.116	9644
923.224	9606
923.333	9545
923.442	9439
923.55	9466
923.659	9469
923.767	9580
923.876	9481
923.984	9538
924.092	9329
924.201	9507
924.309	9511
924.417	9416
924.525	9370
924.633	9443
924.741	10314
924.849	9184
924.956	9416
925.064	9241
925.172	9077
925.279	9192
925.387	9199
925.494	9264
925.602	9351
925.709	9317
925.816	9260
925.924	9272
926.031	9306
926.138	9260
926.245	9310
926.352	9192
926.459	9321
926.566	9351
926.673	9264
926.779	9154
926.886	9066
926.993	9001
927.099	8918
927.206	8925
927.312	8868
927.419	9051
927.525	8925
927.631	8990
927.737	8979
927.843	8807
927.95	8754
928.056	8853
928.162	8918
928.267	8990
928.373	9507
928.479	8910
928.585	8788
928.69	8902
928.796	8941
928.901	8762
929.007	8674
929.112	8815
929.218	8807
929.323	8746
929.428	8720
929.533	8807
929.638	8693
929.743	8708
929.848	8716
929.953	8693
930.058	8594
930.163	8438
930.267	8457
930.372	8651
930.477	8469
930.581	8621
930.685	8678
930.79	8419
930.894	8412
930.998	8419
931.103	8583
931.207	8180
931.311	8111
931.415	8092
931.519	7959
931.623	7959
