Data from test_V78500241_1689.txt Node
Date: Fri Mar 25 14:45:28 CST 2022
User: usil
Spectrometer: V785-0024
Trigger mode: 0
Integration Time (sec): 4.000000E-1
Scans to average: 1
Nonlinearity correction enabled: false
Boxcar width: 0
Storing dark spectrum: false
XAxis mode: Wavelengths
Number of Pixels in Spectrum: 1024
>>>>>Begin Spectral Data<<<<<
801.071	22211
801.214	22185
801.356	21922
801.499	21876
801.641	21770
801.783	21652
801.926	21682
802.068	21481
802.211	21530
802.353	21488
802.496	21291
802.638	21165
802.78	21199
802.923	21028
803.065	20937
803.208	20914
803.35	20971
803.492	21131
803.635	21077
803.777	21051
803.919	21176
804.061	21252
804.204	21043
804.346	20925
804.488	20750
804.63	20823
804.773	20857
804.915	20845
805.057	20979
805.199	20952
805.341	21096
805.483	20990
805.626	20967
805.768	20887
805.91	20902
806.052	20823
806.194	20842
806.336	21089
806.478	20857
806.62	20815
806.762	20982
806.904	21096
807.046	21275
807.188	21370
807.33	21287
807.472	21306
807.614	21199
807.756	21173
807.898	21131
808.04	21116
808.182	20963
808.324	21058
808.465	21074
808.607	21214
808.749	21363
808.891	21545
809.033	21564
809.174	21469
809.316	21454
809.458	21340
809.6	21306
809.741	21389
809.883	21496
810.025	21542
810.166	21447
810.308	21454
810.45	21492
810.591	21359
810.733	21214
810.875	21195
811.016	21039
811.158	21047
811.299	21173
811.441	21291
811.582	21211
811.724	21024
811.865	21112
812.007	21157
812.148	21036
812.29	21077
812.431	21332
812.573	21416
812.714	21435
812.855	21606
812.997	21686
813.138	21762
813.279	21686
813.421	21542
813.562	21538
813.703	21275
813.845	21298
813.986	20921
814.127	20781
814.268	20735
814.41	20758
814.551	20659
814.692	20693
814.833	20594
814.974	20511
815.115	20602
815.256	20511
815.397	20503
815.539	20393
815.68	20366
815.821	20374
815.962	20438
816.103	20404
816.244	20225
816.385	20122
816.526	20043
816.666	19974
816.807	19845
816.948	19887
817.089	19906
817.23	19830
817.371	19845
817.512	19670
817.653	19746
817.793	19742
817.934	19746
818.075	19875
818.216	19856
818.356	19727
818.497	19567
818.638	19411
818.778	19422
818.919	19441
819.06	19415
819.2	19567
819.341	19643
819.481	19552
819.622	19719
819.762	19845
819.903	19871
820.043	19704
820.184	19780
820.324	19700
820.465	19723
820.605	19700
820.746	19708
820.886	19567
821.026	19757
821.167	19685
821.307	19833
821.447	19746
821.588	19613
821.728	19472
821.868	19396
822.008	19175
822.149	19141
822.289	19190
822.429	18878
822.569	18791
822.709	18760
822.849	18669
822.99	18677
823.13	18532
823.27	18650
823.41	18479
823.55	18350
823.69	18395
823.83	18506
823.97	18266
824.11	18163
824.25	18102
824.389	18266
824.529	18270
824.669	18311
824.809	18216
824.949	18247
825.089	18251
825.228	18220
825.368	18030
825.508	18136
825.648	18148
825.787	18117
825.927	18098
826.067	17969
826.206	17885
826.346	18083
826.485	18129
826.625	17946
826.765	18144
826.904	17969
827.044	17794
827.183	17695
827.323	17642
827.462	17665
827.601	17649
827.741	17604
827.88	17657
828.02	17532
828.159	17581
828.298	17684
828.437	17733
828.577	17642
828.716	17775
828.855	17608
828.994	17490
829.134	17474
829.273	17471
829.412	17391
829.551	17379
829.69	17356
829.829	17353
829.968	17570
830.107	17512
830.246	17471
830.385	17246
830.524	17337
830.663	17220
830.802	17121
830.941	17090
831.08	16995
831.219	17041
831.357	17204
831.496	17307
831.635	17090
831.774	16942
831.913	16923
832.051	16854
832.19	16782
832.329	16778
832.467	16740
832.606	16675
832.744	16748
832.883	16733
833.022	16763
833.16	16637
833.299	16797
833.437	16733
833.576	16801
833.714	16755
833.852	16816
833.991	16774
834.129	16824
834.267	16824
834.406	16767
834.544	16774
834.682	16850
834.821	16767
834.959	16968
835.097	16729
835.235	16790
835.373	16873
835.511	16873
835.65	16755
835.788	16812
835.926	16500
836.064	16607
836.202	16455
836.34	16687
836.478	16748
836.615	16660
836.753	16717
836.891	16763
837.029	16702
837.167	16736
837.305	16679
837.443	16504
837.58	16538
837.718	16694
837.856	16660
837.993	16424
838.131	16603
838.269	16538
838.406	16462
838.544	16440
838.681	16314
838.819	16143
838.956	16021
839.094	16162
839.231	16166
839.369	16162
839.506	16424
839.643	16432
839.781	16067
839.918	16097
840.055	16150
840.193	16120
840.33	16120
840.467	16063
840.604	16090
840.742	16253
840.879	16021
841.016	16006
841.153	16044
841.29	16272
841.427	16086
841.564	16078
841.701	16124
841.838	15937
841.975	15979
842.112	16002
842.249	15926
842.385	15926
842.522	16006
842.659	15876
842.796	15861
842.933	15861
843.069	15857
843.206	15838
843.343	15964
843.479	15873
843.616	15835
843.752	15690
843.889	15641
844.025	15850
844.162	15587
844.298	15747
844.435	15644
844.571	15549
844.708	15686
844.844	15823
844.98	15857
845.117	15774
845.253	15584
845.389	15614
845.525	15526
845.661	15606
845.798	15420
845.934	15599
846.07	15435
846.206	15622
846.342	15724
846.478	15462
846.614	15256
846.75	15085
846.886	15192
847.022	15351
847.158	15245
847.294	15256
847.429	15351
847.565	15245
847.701	15412
847.837	15089
847.972	15013
848.108	15135
848.244	15036
848.379	14830
848.515	14746
848.65	14781
848.786	14826
848.921	14925
849.057	14891
849.192	14880
849.328	14826
849.463	14842
849.598	14792
849.734	14720
849.869	14739
850.004	14682
850.14	14640
850.275	14583
850.41	14541
850.545	14575
850.68	14503
850.815	14587
850.95	14560
851.085	14720
851.22	14674
851.355	14564
851.49	14518
851.625	14518
851.76	14484
851.895	14461
852.03	14514
852.165	14606
852.299	14564
852.434	14644
852.569	14640
852.703	14571
852.838	14564
852.973	14720
853.107	14708
853.242	14571
853.376	14549
853.511	14358
853.645	14351
853.78	14636
853.914	14537
854.048	14454
854.183	14450
854.317	14427
854.451	14598
854.585	14423
854.72	14366
854.854	14545
854.988	14396
855.122	14495
855.256	14393
855.39	14412
855.524	14454
855.658	14469
855.792	14499
855.926	14465
856.06	14537
856.194	14465
856.327	14415
856.461	14328
856.595	14339
856.729	14374
856.862	14522
856.996	14533
857.13	14484
857.263	14530
857.397	14693
857.53	14492
857.664	14549
857.797	14579
857.931	14648
858.064	14549
858.197	14537
858.331	14301
858.464	14408
858.597	14256
858.731	14484
858.864	14396
858.997	14450
859.13	14492
859.263	14495
859.396	14438
859.529	14377
859.662	14412
859.795	14332
859.928	14518
860.061	14644
860.194	14655
860.327	14518
860.46	14461
860.592	14564
860.725	14518
860.858	14598
860.99	14469
861.123	14324
861.256	14362
861.388	14408
861.521	15039
861.653	14343
861.786	14294
861.918	14298
862.05	14362
862.183	14473
862.315	14438
862.447	14358
862.58	14434
862.712	14263
862.844	14233
862.976	14271
863.108	14210
863.24	14636
863.372	14077
863.504	14275
863.636	14172
863.768	14355
863.9	14161
864.032	14161
864.164	14214
864.296	14294
864.428	14313
864.559	14286
864.691	14431
864.823	14320
864.954	14240
865.086	14278
865.217	14187
865.349	14126
865.48	14229
865.612	14233
865.743	14377
865.875	14336
866.006	14126
866.137	14248
866.269	14320
866.4	14244
866.531	14092
866.662	14111
866.793	14134
866.924	14195
867.055	14263
867.186	14263
867.317	14187
867.448	14130
867.579	14134
867.71	14088
867.841	14107
867.972	14229
868.103	14221
868.233	14149
868.364	14161
868.495	14282
868.625	14366
868.756	14541
868.886	14240
869.017	14476
869.147	14511
869.278	14636
869.408	14552
869.539	14366
869.669	14450
869.799	14431
869.929	14469
870.06	14571
870.19	14724
870.32	14811
870.45	14746
870.58	14838
870.71	14906
870.84	14994
870.97	14910
871.1	14838
871.23	14925
871.36	15100
871.489	15051
871.619	15028
871.749	15097
871.879	15100
872.008	15192
872.138	15043
872.267	14967
872.397	14948
872.526	14891
872.656	14750
872.785	14914
872.915	15093
873.044	15150
873.173	15093
873.303	15176
873.432	15123
873.561	15116
873.69	15100
873.819	15138
873.948	15192
874.077	15097
874.206	15116
874.335	15043
874.464	15237
874.593	15416
874.722	15355
874.851	15526
874.979	15405
875.108	15439
875.237	15397
875.365	15233
875.494	15382
875.623	15504
875.751	15199
875.88	15504
876.008	15603
876.136	15686
876.265	15869
876.393	15968
876.521	15888
876.65	15949
876.778	15842
876.906	15743
877.034	15762
877.162	15846
877.29	15793
877.418	15804
877.546	15819
877.674	15823
877.802	15911
877.93	15819
878.058	15793
878.185	15766
878.313	15804
878.441	15838
878.568	15629
878.696	15766
878.824	15884
878.951	15854
879.079	16025
879.206	16158
879.333	16032
879.461	15930
879.588	15941
879.715	16025
879.842	16139
879.97	15762
880.097	15660
880.224	15663
880.351	15705
880.478	15698
880.605	15709
880.732	15610
880.859	15991
880.986	15717
881.112	15785
881.239	15610
881.366	15469
881.493	15279
881.619	15306
881.746	15397
881.872	15351
881.999	15367
882.125	15298
882.252	15287
882.378	15336
882.505	15420
882.631	15241
882.757	15264
882.883	15294
883.01	15241
883.136	15131
883.262	15024
883.388	15028
883.514	15138
883.64	15180
883.766	15085
883.892	15032
884.018	15024
884.143	15150
884.269	15230
884.395	14971
884.52	14777
884.646	14872
884.772	14788
884.897	14785
885.023	14804
885.148	14925
885.274	15024
885.399	14990
885.524	14899
885.65	14868
885.775	14925
885.9	14758
886.025	14986
886.15	14842
886.275	14891
886.4	14716
886.525	14754
886.65	14765
886.775	14743
886.9	15009
887.025	15085
887.149	14811
887.274	14746
887.399	14720
887.523	14621
887.648	14533
887.773	14632
887.897	14731
888.021	14746
888.146	14579
888.27	14773
888.395	14727
888.519	14739
888.643	14659
888.767	14800
888.891	14549
889.015	14522
889.139	14598
889.263	14434
889.387	14670
889.511	14746
889.635	14739
889.759	14522
889.883	14541
890.006	14613
890.13	14644
890.254	14503
890.377	14507
890.501	14286
890.624	14355
890.748	14465
890.871	14366
890.995	14161
891.118	14244
891.241	14362
891.364	14282
891.488	14271
891.611	14180
891.734	14278
891.857	14305
891.98	14301
892.103	14355
892.226	14202
892.349	14259
892.471	14130
892.594	14157
892.717	14324
892.839	14191
892.962	14275
893.085	14298
893.207	14313
893.33	14126
893.452	14187
893.575	14298
893.697	14320
893.819	14412
893.941	14434
894.064	14332
894.186	14176
894.308	14149
894.43	14381
894.552	14412
894.674	14377
894.796	14176
894.918	14275
895.04	14309
895.161	14336
895.283	14328
895.405	14275
895.526	14328
895.648	14366
895.769	14408
895.891	14389
896.012	14381
896.134	14358
896.255	14339
896.376	14332
896.498	14427
896.619	14423
896.74	14446
896.861	14556
896.982	14762
897.103	14845
897.224	14712
897.345	14689
897.466	14579
897.587	14598
897.708	14750
897.828	14678
897.949	14606
898.07	14602
898.19	14670
898.311	14830
898.431	14701
898.552	14743
898.672	14765
898.792	14838
898.913	14773
899.033	14625
899.153	14549
899.273	14541
899.393	14590
899.513	14606
899.633	14606
899.753	14598
899.873	14552
899.993	14617
900.113	14583
900.232	14644
900.352	14670
900.472	14488
900.591	14396
900.711	14446
900.83	14377
900.95	14560
901.069	14594
901.189	14347
901.308	14191
901.427	14138
901.546	14046
901.665	14058
901.784	14149
901.904	14050
902.023	13928
902.141	13719
902.26	13704
902.379	13784
902.498	13727
902.617	13559
902.735	13788
902.854	13742
902.973	13674
903.091	13400
903.21	13453
903.328	13453
903.446	13445
903.565	13183
903.683	13244
903.801	13206
903.919	13217
904.038	13297
904.156	13118
904.274	13164
904.392	13057
904.51	13095
904.627	13114
904.745	13110
904.863	13164
904.981	12897
905.098	12760
905.216	12817
905.334	12795
905.451	12783
905.569	12837
905.686	12753
905.803	12791
905.921	12639
906.038	12623
906.155	12597
906.272	12445
906.389	12460
906.506	12407
906.623	12384
906.74	12338
906.857	12194
906.974	12224
907.091	12380
907.208	12532
907.324	12410
907.441	12273
907.557	12129
907.674	12140
907.79	12076
907.907	11996
908.023	12171
908.139	12117
908.256	12019
908.372	12030
908.488	11923
908.604	11893
908.72	11817
908.836	11904
908.952	11885
909.068	11828
909.184	11939
909.3	11870
909.415	11961
909.531	11870
909.647	11589
909.762	11684
909.878	11611
909.993	11638
910.108	11509
910.224	11604
910.339	11638
910.454	11493
910.57	11463
910.685	11398
910.8	11638
910.915	11623
911.03	11501
911.145	11353
911.259	11288
911.374	11254
911.489	11242
911.604	11181
911.718	11086
911.833	11121
911.947	11056
912.062	10911
912.176	11025
912.291	11094
912.405	11098
912.519	11231
912.633	11315
912.748	11162
912.862	11086
912.976	10965
913.09	10809
913.204	10862
913.318	10938
913.431	11067
913.545	11041
913.659	11052
913.772	10892
913.886	10793
914	10805
914.113	10892
914.226	11079
914.34	10896
914.453	10835
914.566	10904
914.68	10839
914.793	10843
914.906	10622
915.019	10558
915.132	10413
915.245	10542
915.358	10592
915.47	10622
915.583	10580
915.696	10634
915.809	10801
915.921	10748
916.034	10641
916.146	10493
916.259	10596
916.371	10656
916.483	10649
916.595	10466
916.708	10538
916.82	10538
916.932	10561
917.044	10462
917.156	10455
917.268	10436
917.38	10459
917.491	10352
917.603	10432
917.715	10516
917.826	10478
917.938	10398
918.049	10227
918.161	10512
918.272	10504
918.384	10512
918.495	10451
918.606	10341
918.717	10200
918.828	10322
918.939	10371
919.05	10215
919.161	10352
919.272	10173
919.383	10139
919.494	10341
919.604	10569
919.715	10322
919.826	10242
919.936	10261
920.047	10375
920.157	10337
920.267	10489
920.378	10341
920.488	10299
920.598	10497
920.708	10683
920.818	10481
920.928	10356
921.038	10641
921.148	10622
921.258	10303
921.368	10303
921.477	10246
921.587	10158
921.697	10059
921.806	10211
921.916	10006
922.025	9953
922.134	9789
922.244	9808
922.353	9953
922.462	9740
922.571	9713
922.68	9606
922.789	9492
922.898	9553
923.007	9496
923.116	9530
923.224	9542
923.333	9462
923.442	9420
923.55	9386
923.659	9408
923.767	9538
923.876	9424
923.984	9412
924.092	9393
924.201	9435
924.309	9313
924.417	9450
924.525	9374
924.633	9401
924.741	10333
924.849	9184
924.956	9321
925.064	9203
925.172	9123
925.279	9142
925.387	9173
925.494	9279
925.602	9302
925.709	9294
925.816	9138
925.924	9176
926.031	9272
926.138	9146
926.245	9264
926.352	9135
926.459	9256
926.566	9283
926.673	9138
926.779	9032
926.886	9032
926.993	8967
927.099	8952
927.206	8895
927.312	8845
927.419	8986
927.525	8948
927.631	8998
927.737	8918
927.843	8746
927.95	8682
928.056	8796
928.162	8834
928.267	8842
928.373	9389
928.479	8948
928.585	8716
928.69	8819
928.796	8826
928.901	8659
929.007	8587
929.112	8724
929.218	8766
929.323	8708
929.428	8594
929.533	8743
929.638	8602
929.743	8594
929.848	8674
929.953	8625
930.058	8503
930.163	8438
930.267	8396
930.372	8514
930.477	8366
930.581	8621
930.685	8480
930.79	8377
930.894	8358
930.998	8343
931.103	8488
931.207	8111
931.311	8073
931.415	8039
931.519	7875
931.623	7792
