Data from test_V78500241_2212.txt Node
Date: Fri Mar 25 14:49:06 CST 2022
User: usil
Spectrometer: V785-0024
Trigger mode: 0
Integration Time (sec): 4.000000E-1
Scans to average: 1
Nonlinearity correction enabled: false
Boxcar width: 0
Storing dark spectrum: false
XAxis mode: Wavelengths
Number of Pixels in Spectrum: 1024
>>>>>Begin Spectral Data<<<<<
801.071	22211
801.214	22010
801.356	21785
801.499	21800
801.641	21561
801.783	21473
801.926	21618
802.068	21466
802.211	21488
802.353	21382
802.496	21085
802.638	20967
802.78	20975
802.923	20956
803.065	20880
803.208	20895
803.35	20845
803.492	21009
803.635	21146
803.777	20948
803.919	20990
804.061	21245
804.204	20941
804.346	20800
804.488	20750
804.63	20826
804.773	20777
804.915	20746
805.057	20834
805.199	20815
805.341	20781
805.483	20963
805.626	20960
805.768	20758
805.91	20754
806.052	20811
806.194	20796
806.336	20910
806.478	20773
806.62	20663
806.762	20956
806.904	21150
807.046	21218
807.188	21135
807.33	21176
807.472	21389
807.614	21043
807.756	21093
807.898	20902
808.04	20876
808.182	20914
808.324	20944
808.465	21005
808.607	21154
808.749	21302
808.891	21325
809.033	21462
809.174	21199
809.316	21291
809.458	21138
809.6	21226
809.741	21393
809.883	21199
810.025	21431
810.166	21504
810.308	21458
810.45	21237
810.591	21218
810.733	21085
810.875	20982
811.016	20887
811.158	20899
811.299	21058
811.441	21161
811.582	21085
811.724	21036
811.865	20902
812.007	20918
812.148	20963
812.29	20960
812.431	21203
812.573	21241
812.714	21329
812.855	21420
812.997	21591
813.138	21694
813.279	21606
813.421	21408
813.562	21374
813.703	21165
813.845	21135
813.986	20910
814.127	20731
814.268	20613
814.41	20609
814.551	20473
814.692	20556
814.833	20495
814.974	20495
815.115	20480
815.256	20301
815.397	20415
815.539	20324
815.68	20180
815.821	20218
815.962	20355
816.103	20237
816.244	20119
816.385	19951
816.526	20046
816.666	19856
816.807	19609
816.948	19742
817.089	19845
817.23	19795
817.371	19677
817.512	19708
817.653	19685
817.793	19624
817.934	19700
818.075	19708
818.216	19731
818.356	19647
818.497	19468
818.638	19400
818.778	19297
818.919	19369
819.06	19354
819.2	19537
819.341	19487
819.481	19563
819.622	19670
819.762	19902
819.903	19791
820.043	19769
820.184	19632
820.324	19693
820.465	19563
820.605	19548
820.746	19578
820.886	19620
821.026	19590
821.167	19635
821.307	19601
821.447	19666
821.588	19430
821.728	19327
821.868	19270
822.008	19050
822.149	19095
822.289	19015
822.429	18776
822.569	18810
822.709	18772
822.849	18589
822.99	18574
823.13	18601
823.27	18513
823.41	18391
823.55	18247
823.69	18346
823.83	18174
823.97	18224
824.11	18182
824.25	18152
824.389	18136
824.529	18159
824.669	18060
824.809	18220
824.949	18095
825.089	18110
825.228	18038
825.368	17863
825.508	17885
825.648	17958
825.787	17912
825.927	17866
826.067	17779
826.206	17737
826.346	17897
826.485	18041
826.625	17832
826.765	17950
826.904	17870
827.044	17615
827.183	17634
827.323	17471
827.462	17524
827.601	17604
827.741	17524
827.88	17619
828.02	17360
828.159	17535
828.298	17657
828.437	17585
828.577	17516
828.716	17649
828.855	17554
828.994	17433
829.134	17284
829.273	17322
829.412	17239
829.551	17303
829.69	17391
829.829	17425
829.968	17341
830.107	17296
830.246	17433
830.385	17356
830.524	17189
830.663	17197
830.802	17006
830.941	16877
831.08	17003
831.219	16923
831.357	16908
831.496	17159
831.635	16972
831.774	16889
831.913	16774
832.051	16786
832.19	16626
832.329	16786
832.467	16713
832.606	16523
832.744	16516
832.883	16561
833.022	16561
833.16	16634
833.299	16649
833.437	16637
833.576	16672
833.714	16725
833.852	16615
833.991	16721
834.129	16733
834.267	16721
834.406	16660
834.544	16660
834.682	16634
834.821	16626
834.959	16869
835.097	16599
835.235	16782
835.373	16645
835.511	16653
835.65	16550
835.788	16485
835.926	16409
836.064	16325
836.202	16337
836.34	16558
836.478	16554
836.615	16588
836.753	16512
836.891	16615
837.029	16519
837.167	16531
837.305	16538
837.443	16405
837.58	16451
837.718	16459
837.856	16398
837.993	16394
838.131	16409
838.269	16363
838.406	16337
838.544	16253
838.681	16185
838.819	16181
838.956	15994
839.094	15953
839.231	15991
839.369	16063
839.506	16386
839.643	16204
839.781	15941
839.918	15926
840.055	15934
840.193	16029
840.33	15835
840.467	16059
840.604	15983
840.742	16158
840.879	15808
841.016	15770
841.153	15846
841.29	16105
841.427	16006
841.564	16044
841.701	15937
841.838	15880
841.975	15873
842.112	15781
842.249	15739
842.385	15694
842.522	15838
842.659	15850
842.796	15724
842.933	15819
843.069	15728
843.206	15705
843.343	15838
843.479	15789
843.616	15781
843.752	15564
843.889	15435
844.025	15690
844.162	15504
844.298	15557
844.435	15386
844.571	15439
844.708	15568
844.844	15595
844.98	15705
845.117	15622
845.253	15515
845.389	15530
845.525	15553
845.661	15454
845.798	15351
845.934	15306
846.07	15363
846.206	15458
846.342	15370
846.478	15405
846.614	15138
846.75	15135
846.886	15112
847.022	15116
847.158	15039
847.294	15169
847.429	15131
847.565	15089
847.701	15291
847.837	14899
847.972	14853
848.108	14861
848.244	14872
848.379	14823
848.515	14663
848.65	14579
848.786	14705
848.921	14819
849.057	14807
849.192	14819
849.328	14629
849.463	14689
849.598	14674
849.734	14610
849.869	14590
850.004	14518
850.14	14560
850.275	14492
850.41	14381
850.545	14415
850.68	14450
850.815	14484
850.95	14465
851.085	14610
851.22	14644
851.355	14507
851.49	14393
851.625	14434
851.76	14473
851.895	14271
852.03	14278
852.165	14442
852.299	14575
852.434	14514
852.569	14419
852.703	14488
852.838	14518
852.973	14606
853.107	14693
853.242	14377
853.376	14362
853.511	14195
853.645	14240
853.78	14366
853.914	14332
854.048	14252
854.183	14301
854.317	14415
854.451	14408
854.585	14358
854.72	14294
854.854	14480
854.988	14301
855.122	14259
855.256	14187
855.39	14263
855.524	14412
855.658	14377
855.792	14389
855.926	14278
856.06	14434
856.194	14412
856.327	14286
856.461	14256
856.595	14248
856.729	14351
856.862	14377
856.996	14377
857.13	14423
857.263	14492
857.397	14419
857.53	14343
857.664	14438
857.797	14415
857.931	14473
858.064	14461
858.197	14408
858.331	14256
858.464	14313
858.597	14229
858.731	14290
858.864	14355
858.997	14282
859.13	14339
859.263	14419
859.396	14377
859.529	14362
859.662	14290
859.795	14290
859.928	14336
860.061	14446
860.194	14507
860.327	14355
860.46	14320
860.592	14495
860.725	14351
860.858	14389
860.99	14290
861.123	14199
861.256	14252
861.388	14294
861.521	14849
861.653	14142
861.786	14115
861.918	14100
862.05	14252
862.183	14324
862.315	14309
862.447	14381
862.58	14313
862.712	14134
862.844	14058
862.976	14138
863.108	14043
863.24	14423
863.372	14005
863.504	14096
863.636	14107
863.768	14092
863.9	14115
864.032	14058
864.164	14119
864.296	14084
864.428	14157
864.559	14130
864.691	14183
864.823	14157
864.954	14123
865.086	14168
865.217	14100
865.349	14077
865.48	14081
865.612	14043
865.743	14134
865.875	14199
866.006	14039
866.137	14126
866.269	14088
866.4	14039
866.531	14069
866.662	13932
866.793	14001
866.924	14096
867.055	14024
867.186	14043
867.317	14020
867.448	13925
867.579	14088
867.71	14016
867.841	13955
867.972	14103
868.103	14054
868.233	14039
868.364	14077
868.495	14176
868.625	14343
868.756	14400
868.886	14275
869.017	14267
869.147	14434
869.278	14541
869.408	14343
869.539	14271
869.669	14336
869.799	14366
869.929	14507
870.06	14408
870.19	14674
870.32	14670
870.45	14735
870.58	14708
870.71	14872
870.84	14800
870.97	14686
871.1	14701
871.23	14906
871.36	14998
871.489	14872
871.619	14842
871.749	14921
871.879	14864
872.008	15051
872.138	14925
872.267	15001
872.397	14716
872.526	14727
872.656	14693
872.785	14845
872.915	15051
873.044	14918
873.173	14925
873.303	14948
873.432	14975
873.561	15020
873.69	15013
873.819	14975
873.948	15051
874.077	15039
874.206	14963
874.335	15013
874.464	15146
874.593	15264
874.722	15256
874.851	15382
874.979	15344
875.108	15378
875.237	15249
875.365	15173
875.494	15184
875.623	15408
875.751	15218
875.88	15325
876.008	15382
876.136	15572
876.265	15736
876.393	15857
876.521	15652
876.65	15850
876.778	15732
876.906	15679
877.034	15713
877.162	15755
877.29	15523
877.418	15759
877.546	15739
877.674	15709
877.802	15724
877.93	15713
878.058	15641
878.185	15526
878.313	15606
878.441	15599
878.568	15572
878.696	15633
878.824	15644
878.951	15751
879.079	15892
879.206	15998
879.333	15884
879.461	15808
879.588	15759
879.715	15819
879.842	15930
879.97	15804
880.097	15606
880.224	15485
880.351	15515
880.478	15481
880.605	15397
880.732	15568
880.859	15774
880.986	15515
881.112	15530
881.239	15481
881.366	15447
881.493	15203
881.619	15180
881.746	15214
881.872	15108
881.999	15176
882.125	15176
882.252	15211
882.378	15302
882.505	15389
882.631	15146
882.757	15028
882.883	15089
883.01	15116
883.136	14994
883.262	14941
883.388	14861
883.514	15009
883.64	14990
883.766	14971
883.892	14861
884.018	14906
884.143	15009
884.269	15074
884.395	14773
884.52	14689
884.646	14727
884.772	14606
884.897	14625
885.023	14739
885.148	14804
885.274	14895
885.399	14902
885.524	14792
885.65	14743
885.775	14705
885.9	14708
886.025	14899
886.15	14868
886.275	14712
886.4	14705
886.525	14708
886.65	14720
886.775	14686
886.9	14895
887.025	14895
887.149	14720
887.274	14564
887.399	14507
887.523	14518
887.648	14499
887.773	14431
887.897	14621
888.021	14594
888.146	14454
888.27	14598
888.395	14617
888.519	14587
888.643	14648
888.767	14667
888.891	14530
889.015	14492
889.139	14393
889.263	14370
889.387	14476
889.511	14621
889.635	14473
889.759	14499
889.883	14374
890.006	14476
890.13	14552
890.254	14294
890.377	14374
890.501	14183
890.624	14168
890.748	14355
890.871	14119
890.995	13997
891.118	14062
891.241	14077
891.364	14119
891.488	14157
891.611	14077
891.734	14168
891.857	14191
891.98	14134
892.103	14187
892.226	14202
892.349	14054
892.471	13936
892.594	14103
892.717	14103
892.839	14115
892.962	14153
893.085	14183
893.207	14191
893.33	14008
893.452	14065
893.575	14138
893.697	14115
893.819	14278
893.941	14366
894.064	14298
894.186	14084
894.308	14081
894.43	14290
894.552	14332
894.674	14294
894.796	14092
894.918	14187
895.04	14084
895.161	14202
895.283	14244
895.405	14149
895.526	14206
895.648	14240
895.769	14244
895.891	14240
896.012	14366
896.134	14263
896.255	14218
896.376	14263
896.498	14271
896.619	14366
896.74	14305
896.861	14370
896.982	14655
897.103	14762
897.224	14575
897.345	14587
897.466	14526
897.587	14518
897.708	14655
897.828	14602
897.949	14469
898.07	14511
898.19	14518
898.311	14689
898.431	14625
898.552	14693
898.672	14804
898.792	14758
898.913	14667
899.033	14648
899.153	14423
899.273	14389
899.393	14549
899.513	14503
899.633	14495
899.753	14560
899.873	14438
899.993	14564
900.113	14450
900.232	14598
900.352	14511
900.472	14469
900.591	14366
900.711	14408
900.83	14298
900.95	14488
901.069	14480
901.189	14336
901.308	14199
901.427	14001
901.546	14073
901.665	14035
901.784	14024
901.904	13963
902.023	13894
902.141	13620
902.26	13674
902.379	13723
902.498	13636
902.617	13567
902.735	13655
902.854	13487
902.973	13457
903.091	13365
903.21	13346
903.328	13285
903.446	13289
903.565	13225
903.683	13285
903.801	13069
903.919	13145
904.038	13137
904.156	12989
904.274	13107
904.392	12985
904.51	12951
904.627	13034
904.745	13080
904.863	12962
904.981	12833
905.098	12753
905.216	12570
905.334	12662
905.451	12662
905.569	12623
905.686	12719
905.803	12650
905.921	12525
906.038	12589
906.155	12551
906.272	12399
906.389	12410
906.506	12190
906.623	12228
906.74	12258
906.857	12117
906.974	12220
907.091	12262
907.208	12429
907.324	12235
907.441	12243
907.557	12030
907.674	11920
907.79	11935
907.907	11980
908.023	12060
908.139	12038
908.256	11988
908.372	11996
908.488	11950
908.604	11786
908.72	11703
908.836	11764
908.952	11729
909.068	11771
909.184	11874
909.3	11703
909.415	11897
909.531	11760
909.647	11585
909.762	11558
909.878	11459
909.993	11566
910.108	11524
910.224	11505
910.339	11524
910.454	11410
910.57	11436
910.685	11292
910.8	11646
910.915	11539
911.03	11379
911.145	11181
911.259	11261
911.374	11258
911.489	11147
911.604	11064
911.718	10984
911.833	11045
911.947	10839
912.062	10790
912.176	10984
912.291	10881
912.405	11045
912.519	11181
912.633	11220
912.748	11109
912.862	11094
912.976	10824
913.09	10835
913.204	10763
913.318	10904
913.431	10968
913.545	10889
913.659	10972
913.772	10873
913.886	10790
914	10755
914.113	10862
914.226	10843
914.34	10801
914.453	10622
914.566	10828
914.68	10683
914.793	10683
914.906	10519
915.019	10447
915.132	10409
915.245	10531
915.358	10451
915.47	10561
915.583	10561
915.696	10588
915.809	10649
915.921	10653
916.034	10481
916.146	10455
916.259	10432
916.371	10584
916.483	10432
916.595	10363
916.708	10451
916.82	10455
916.932	10417
917.044	10341
917.156	10390
917.268	10284
917.38	10299
917.491	10291
917.603	10371
917.715	10371
917.826	10443
917.938	10390
918.049	10219
918.161	10356
918.272	10451
918.384	10440
918.495	10303
918.606	10215
918.717	10177
918.828	10234
918.939	10234
919.05	10166
919.161	10196
919.272	9915
919.383	10097
919.494	10306
919.604	10424
919.715	10276
919.826	10188
919.936	10276
920.047	10181
920.157	10219
920.267	10432
920.378	10265
920.488	10242
920.598	10481
920.708	10599
920.818	10428
920.928	10428
921.038	10519
921.148	10523
921.258	10287
921.368	10181
921.477	10154
921.587	10124
921.697	9972
921.806	10067
921.916	10006
922.025	9785
922.134	9823
922.244	9656
922.353	9884
922.462	9622
922.571	9618
922.68	9523
922.789	9507
922.898	9492
923.007	9374
923.116	9469
923.224	9450
923.333	9435
923.442	9336
923.55	9306
923.659	9393
923.767	9500
923.876	9313
923.984	9370
924.092	9264
924.201	9416
924.309	9428
924.417	9355
924.525	9348
924.633	9275
924.741	10204
924.849	9097
924.956	9279
925.064	9085
925.172	9066
925.279	9066
925.387	9142
925.494	9112
925.602	9214
925.709	9203
925.816	9104
925.924	9108
926.031	9245
926.138	9195
926.245	9188
926.352	9039
926.459	9184
926.566	9203
926.673	9085
926.779	9039
926.886	8967
926.993	8864
927.099	8834
927.206	8785
927.312	8819
927.419	8845
927.525	8883
927.631	8880
927.737	8861
927.843	8682
927.95	8659
928.056	8651
928.162	8766
928.267	8762
928.373	9389
928.479	8826
928.585	8549
928.69	8731
928.796	8731
928.901	8629
929.007	8526
929.112	8655
929.218	8674
929.323	8541
929.428	8499
929.533	8754
929.638	8488
929.743	8552
929.848	8617
929.953	8571
930.058	8533
930.163	8286
930.267	8374
930.372	8400
930.477	8305
930.581	8514
930.685	8434
930.79	8248
930.894	8294
930.998	8195
931.103	8415
931.207	8058
931.311	8088
931.415	7909
931.519	7727
931.623	7811
