Data from test_V78500241_2428.txt Node
Date: Fri Mar 25 14:50:37 CST 2022
User: usil
Spectrometer: V785-0024
Trigger mode: 0
Integration Time (sec): 4.000000E-1
Scans to average: 1
Nonlinearity correction enabled: false
Boxcar width: 0
Storing dark spectrum: false
XAxis mode: Wavelengths
Number of Pixels in Spectrum: 1024
>>>>>Begin Spectral Data<<<<<
801.071	22048
801.214	21823
801.356	21690
801.499	21686
801.641	21477
801.783	21466
801.926	21583
802.068	21374
802.211	21405
802.353	21279
802.496	21051
802.638	20937
802.78	20982
802.923	20929
803.065	20826
803.208	20834
803.35	20849
803.492	20948
803.635	20929
803.777	20743
803.919	20929
804.061	21085
804.204	20914
804.346	20617
804.488	20682
804.63	20864
804.773	20788
804.915	20716
805.057	20720
805.199	20769
805.341	20815
805.483	20845
805.626	20887
805.768	20629
805.91	20788
806.052	20697
806.194	20613
806.336	20807
806.478	20682
806.62	20686
806.762	20796
806.904	20967
807.046	21249
807.188	21051
807.33	20952
807.472	21112
807.614	20838
807.756	20986
807.898	20925
808.04	20705
808.182	20838
808.324	20792
808.465	21039
808.607	21005
808.749	21093
808.891	21207
809.033	21252
809.174	21195
809.316	21013
809.458	21119
809.6	21047
809.741	21188
809.883	21176
810.025	21302
810.166	21260
810.308	21188
810.45	21283
810.591	21093
810.733	20925
810.875	20925
811.016	20720
811.158	20788
811.299	21036
811.441	20933
811.582	20941
811.724	20838
811.865	20811
812.007	20853
812.148	20781
812.29	20933
812.431	20941
812.573	21226
812.714	21249
812.855	21408
812.997	21325
813.138	21553
813.279	21435
813.421	21435
813.562	21302
813.703	21150
813.845	21013
813.986	20705
814.127	20549
814.268	20434
814.41	20461
814.551	20389
814.692	20511
814.833	20263
814.974	20290
815.115	20434
815.256	20381
815.397	20256
815.539	20176
815.68	20164
815.821	20107
815.962	20062
816.103	20126
816.244	19978
816.385	19974
816.526	19898
816.666	19761
816.807	19639
816.948	19727
817.089	19719
817.23	19662
817.371	19620
817.512	19620
817.653	19658
817.793	19434
817.934	19495
818.075	19495
818.216	19620
818.356	19491
818.497	19343
818.638	19148
818.778	19202
818.919	19331
819.06	19278
819.2	19285
819.341	19483
819.481	19476
819.622	19635
819.762	19658
819.903	19609
820.043	19582
820.184	19575
820.324	19476
820.465	19613
820.605	19571
820.746	19571
820.886	19396
821.026	19407
821.167	19514
821.307	19540
821.447	19430
821.588	19335
821.728	19259
821.868	19095
822.008	19038
822.149	18951
822.289	18928
822.429	18692
822.569	18627
822.709	18574
822.849	18506
822.99	18357
823.13	18452
823.27	18346
823.41	18224
823.55	18186
823.69	18232
823.83	18167
823.97	18209
824.11	17942
824.25	17912
824.389	18003
824.529	18117
824.669	17996
824.809	18140
824.949	18136
825.089	17984
825.228	17988
825.368	17798
825.508	17790
825.648	17790
825.787	17767
825.927	17935
826.067	17752
826.206	17676
826.346	17824
826.485	17760
826.625	17737
826.765	17859
826.904	17718
827.044	17535
827.183	17368
827.323	17448
827.462	17535
827.601	17509
827.741	17372
827.88	17444
828.02	17356
828.159	17512
828.298	17501
828.437	17490
828.577	17440
828.716	17554
828.855	17467
828.994	17322
829.134	17235
829.273	17303
829.412	17147
829.551	17094
829.69	17216
829.829	17231
829.968	17273
830.107	17250
830.246	17277
830.385	17162
830.524	17124
830.663	17075
830.802	16923
830.941	16873
831.08	16809
831.219	16820
831.357	16995
831.496	17086
831.635	16748
831.774	16733
831.913	16706
832.051	16584
832.19	16542
832.329	16687
832.467	16596
832.606	16516
832.744	16519
832.883	16508
833.022	16485
833.16	16519
833.299	16626
833.437	16519
833.576	16611
833.714	16546
833.852	16535
833.991	16561
834.129	16588
834.267	16721
834.406	16538
834.544	16626
834.682	16679
834.821	16546
834.959	16694
835.097	16542
835.235	16717
835.373	16649
835.511	16538
835.65	16421
835.788	16478
835.926	16284
836.064	16257
836.202	16322
836.34	16466
836.478	16512
836.615	16390
836.753	16569
836.891	16554
837.029	16504
837.167	16451
837.305	16386
837.443	16344
837.58	16291
837.718	16356
837.856	16329
837.993	16291
838.131	16447
838.269	16261
838.406	16318
838.544	16246
838.681	16143
838.819	16002
838.956	15857
839.094	15819
839.231	15922
839.369	16044
839.506	16246
839.643	16185
839.781	15850
839.918	15793
840.055	15915
840.193	15911
840.33	15903
840.467	15888
840.604	15922
840.742	16147
840.879	15785
841.016	15884
841.153	15835
841.29	16063
841.427	15915
841.564	15987
841.701	15884
841.838	15823
841.975	15819
842.112	15831
842.249	15709
842.385	15747
842.522	15816
842.659	15732
842.796	15633
842.933	15705
843.069	15515
843.206	15675
843.343	15759
843.479	15717
843.616	15660
843.752	15492
843.889	15450
844.025	15629
844.162	15454
844.298	15473
844.435	15420
844.571	15420
844.708	15439
844.844	15622
844.98	15591
845.117	15492
845.253	15351
845.389	15420
845.525	15370
845.661	15344
845.798	15230
845.934	15370
846.07	15199
846.206	15298
846.342	15351
846.478	15306
846.614	15142
846.75	14960
846.886	14872
847.022	15112
847.158	15020
847.294	15066
847.429	15013
847.565	15077
847.701	15310
847.837	14762
847.972	14674
848.108	14823
848.244	14830
848.379	14629
848.515	14518
848.65	14549
848.786	14514
848.921	14689
849.057	14746
849.192	14686
849.328	14727
849.463	14701
849.598	14579
849.734	14568
849.869	14514
850.004	14469
850.14	14404
850.275	14427
850.41	14313
850.545	14355
850.68	14339
850.815	14438
850.95	14385
851.085	14473
851.22	14389
851.355	14362
851.49	14389
851.625	14290
851.76	14339
851.895	14263
852.03	14218
852.165	14313
852.299	14442
852.434	14545
852.569	14476
852.703	14374
852.838	14442
852.973	14587
853.107	14560
853.242	14518
853.376	14309
853.511	14218
853.645	14267
853.78	14404
853.914	14229
854.048	14199
854.183	14355
854.317	14263
854.451	14476
854.585	14180
854.72	14176
854.854	14351
854.988	14164
855.122	14199
855.256	14180
855.39	14229
855.524	14362
855.658	14229
855.792	14286
855.926	14259
856.06	14381
856.194	14412
856.327	14191
856.461	14248
856.595	14233
856.729	14256
856.862	14351
856.996	14290
857.13	14389
857.263	14324
857.397	14362
857.53	14206
857.664	14282
857.797	14324
857.931	14305
858.064	14225
858.197	14351
858.331	14191
858.464	14229
858.597	14176
858.731	14206
858.864	14286
858.997	14191
859.13	14244
859.263	14313
859.396	14244
859.529	14138
859.662	14244
859.795	14210
859.928	14233
860.061	14408
860.194	14579
860.327	14320
860.46	14263
860.592	14454
860.725	14427
860.858	14370
860.99	14275
861.123	14134
861.256	14157
861.388	14221
861.521	14933
861.653	14256
861.786	14046
861.918	14134
862.05	14176
862.183	14187
862.315	14252
862.447	14298
862.58	14244
862.712	14088
862.844	14005
862.976	14107
863.108	14142
863.24	14248
863.372	13909
863.504	14088
863.636	13932
863.768	14077
863.9	14039
864.032	13986
864.164	14065
864.296	14092
864.428	14153
864.559	14107
864.691	14065
864.823	14058
864.954	14024
865.086	13997
865.217	13997
865.349	13982
865.48	14073
865.612	13898
865.743	14084
865.875	13974
866.006	14054
866.137	13959
866.269	14008
866.4	13974
866.531	13947
866.662	13932
866.793	13932
866.924	14008
867.055	14084
867.186	14027
867.317	13982
867.448	13940
867.579	13997
867.71	13818
867.841	13978
867.972	13982
868.103	14096
868.233	14069
868.364	14027
868.495	14046
868.625	14278
868.756	14263
868.886	14149
869.017	14263
869.147	14431
869.278	14552
869.408	14286
869.539	14263
869.669	14294
869.799	14153
869.929	14324
870.06	14381
870.19	14629
870.32	14514
870.45	14640
870.58	14682
870.71	14727
870.84	14693
870.97	14678
871.1	14617
871.23	14838
871.36	14883
871.489	14815
871.619	14941
871.749	14807
871.879	14895
872.008	14944
872.138	14891
872.267	14762
872.397	14758
872.526	14640
872.656	14689
872.785	14701
872.915	14944
873.044	15013
873.173	14929
873.303	14971
873.432	14982
873.561	15013
873.69	14937
873.819	14842
873.948	15039
874.077	14941
874.206	14902
874.335	14929
874.464	15005
874.593	15127
874.722	15112
874.851	15332
874.979	15165
875.108	15279
875.237	15256
875.365	15119
875.494	15142
875.623	15226
875.751	15169
875.88	15317
876.008	15363
876.136	15466
876.265	15622
876.393	15816
876.521	15739
876.65	15770
876.778	15751
876.906	15652
877.034	15625
877.162	15553
877.29	15557
877.418	15564
877.546	15629
877.674	15656
877.802	15633
877.93	15720
878.058	15557
878.185	15545
878.313	15614
878.441	15564
878.568	15450
878.696	15606
878.824	15622
878.951	15701
879.079	15789
879.206	15907
879.333	15873
879.461	15778
879.588	15739
879.715	15816
879.842	15918
879.97	15667
880.097	15458
880.224	15534
880.351	15492
880.478	15439
880.605	15519
880.732	15481
880.859	15781
880.986	15538
881.112	15576
881.239	15378
881.366	15340
881.493	15146
881.619	15123
881.746	15275
881.872	15123
881.999	15173
882.125	15119
882.252	15184
882.378	15275
882.505	15340
882.631	15245
882.757	15017
882.883	15051
883.01	15020
883.136	14929
883.262	14838
883.388	14777
883.514	15089
883.64	14963
883.766	14918
883.892	14785
884.018	14823
884.143	14815
884.269	15013
884.395	14777
884.52	14727
884.646	14735
884.772	14579
884.897	14598
885.023	14693
885.148	14746
885.274	14853
885.399	14758
885.524	14632
885.65	14640
885.775	14693
885.9	14689
886.025	14804
886.15	14705
886.275	14697
886.4	14659
886.525	14632
886.65	14632
886.775	14560
886.9	14861
887.025	14963
887.149	14644
887.274	14511
887.399	14499
887.523	14450
887.648	14476
887.773	14400
887.897	14587
888.021	14621
888.146	14450
888.27	14568
888.395	14648
888.519	14571
888.643	14590
888.767	14579
888.891	14396
889.015	14305
889.139	14442
889.263	14396
889.387	14488
889.511	14488
889.635	14434
889.759	14374
889.883	14320
890.006	14408
890.13	14434
890.254	14278
890.377	14298
890.501	14092
890.624	14191
890.748	14237
890.871	14145
890.995	13944
891.118	13913
891.241	14046
891.364	14020
891.488	14157
891.611	14039
891.734	14058
891.857	14157
891.98	14123
892.103	14138
892.226	13986
892.349	13997
892.471	13955
892.594	14081
892.717	14062
892.839	14050
892.962	14077
893.085	14172
893.207	14046
893.33	14046
893.452	13921
893.575	14145
893.697	14054
893.819	14218
893.941	14301
894.064	14271
894.186	14058
894.308	14016
894.43	14244
894.552	14290
894.674	14138
894.796	14123
894.918	14142
895.04	14046
895.161	14199
895.283	14142
895.405	14100
895.526	14183
895.648	14218
895.769	14206
895.891	14366
896.012	14267
896.134	14210
896.255	14294
896.376	14244
896.498	14267
896.619	14343
896.74	14358
896.861	14317
896.982	14526
897.103	14663
897.224	14537
897.345	14431
897.466	14495
897.587	14495
897.708	14625
897.828	14632
897.949	14507
898.07	14355
898.19	14484
898.311	14686
898.431	14541
898.552	14644
898.672	14598
898.792	14686
898.913	14686
899.033	14560
899.153	14400
899.273	14389
899.393	14362
899.513	14484
899.633	14465
899.753	14415
899.873	14412
899.993	14473
900.113	14389
900.232	14434
900.352	14564
900.472	14415
900.591	14248
900.711	14381
900.83	14233
900.95	14385
901.069	14370
901.189	14267
901.308	14046
901.427	13986
901.546	13944
901.665	14035
901.784	13993
901.904	13845
902.023	13807
902.141	13605
902.26	13491
902.379	13586
902.498	13559
902.617	13540
902.735	13525
902.854	13487
902.973	13590
903.091	13183
903.21	13194
903.328	13312
903.446	13213
903.565	13152
903.683	13206
903.801	13122
903.919	13126
904.038	13152
904.156	13034
904.274	13004
904.392	12932
904.51	12844
904.627	12909
904.745	12928
904.863	12958
904.981	12810
905.098	12517
905.216	12684
905.334	12703
905.451	12662
905.569	12589
905.686	12787
905.803	12719
905.921	12483
906.038	12612
906.155	12452
906.272	12330
906.389	12361
906.506	12209
906.623	12262
906.74	12155
906.857	12083
906.974	12155
907.091	12285
907.208	12384
907.324	12277
907.441	12007
907.557	12026
907.674	11950
907.79	11927
907.907	11942
908.023	12015
908.139	12026
908.256	12019
908.372	11916
908.488	11798
908.604	11783
908.72	11771
908.836	11775
908.952	11665
909.068	11707
909.184	11802
909.3	11710
909.415	11764
909.531	11817
909.647	11501
909.762	11493
909.878	11509
909.993	11471
910.108	11474
910.224	11493
910.339	11562
910.454	11387
910.57	11326
910.685	11258
910.8	11524
910.915	11551
911.03	11440
911.145	11197
911.259	11159
911.374	11208
911.489	11128
911.604	11132
911.718	10972
911.833	10908
911.947	10896
912.062	10748
912.176	10873
912.291	10908
912.405	10953
912.519	11162
912.633	11174
912.748	11014
912.862	10980
912.976	10904
913.09	10748
913.204	10835
913.318	10831
913.431	11022
913.545	10904
913.659	10953
913.772	10869
913.886	10744
914	10710
914.113	10900
914.226	10835
914.34	10816
914.453	10733
914.566	10797
914.68	10664
914.793	10653
914.906	10523
915.019	10440
915.132	10402
915.245	10455
915.358	10504
915.47	10409
915.583	10481
915.696	10535
915.809	10653
915.921	10607
916.034	10489
916.146	10398
916.259	10417
916.371	10447
916.483	10497
916.595	10405
916.708	10417
916.82	10363
916.932	10424
917.044	10322
917.156	10276
917.268	10276
917.38	10287
917.491	10314
917.603	10299
917.715	10318
917.826	10402
917.938	10348
918.049	10135
918.161	10276
918.272	10565
918.384	10436
918.495	10386
918.606	10200
918.717	10078
918.828	10249
918.939	10188
919.05	10082
919.161	10120
919.272	9991
919.383	10002
919.494	10230
919.604	10413
919.715	10230
919.826	10131
919.936	10162
920.047	10238
920.157	10154
920.267	10379
920.378	10318
920.488	10223
920.598	10322
920.708	10523
920.818	10394
920.928	10470
921.038	10508
921.148	10535
921.258	10211
921.368	10204
921.477	10006
921.587	10048
921.697	9903
921.806	10082
921.916	9876
922.025	9762
922.134	9781
922.244	9743
922.353	9812
922.462	9656
922.571	9591
922.68	9504
922.789	9348
922.898	9443
923.007	9435
923.116	9492
923.224	9458
923.333	9389
923.442	9332
923.55	9310
923.659	9435
923.767	9428
923.876	9325
923.984	9450
924.092	9207
924.201	9302
924.309	9363
924.417	9294
924.525	9275
924.633	9291
924.741	9983
924.849	9074
924.956	9268
925.064	9047
925.172	9028
925.279	9039
925.387	9138
925.494	9104
925.602	9268
925.709	9173
925.816	9081
925.924	9089
926.031	9108
926.138	9173
926.245	9176
926.352	9020
926.459	9195
926.566	9214
926.673	9070
926.779	8937
926.886	8937
926.993	8834
927.099	8826
927.206	8762
927.312	8811
927.419	8906
927.525	8792
927.631	8857
927.737	8785
927.843	8678
927.95	8552
928.056	8678
928.162	8701
928.267	8731
928.373	9340
928.479	8792
928.585	8579
928.69	8686
928.796	8743
928.901	8621
929.007	8450
929.112	8655
929.218	8579
929.323	8560
929.428	8488
929.533	8705
929.638	8518
929.743	8526
929.848	8587
929.953	8610
930.058	8442
930.163	8271
930.267	8275
930.372	8423
930.477	8279
930.581	8533
930.685	8412
930.79	8164
930.894	8305
930.998	8210
931.103	8381
931.207	8069
931.311	7989
931.415	7936
931.519	7799
931.623	7708
