Data from test_V78500241_1871.txt Node
Date: Fri Mar 25 14:46:44 CST 2022
User: usil
Spectrometer: V785-0024
Trigger mode: 0
Integration Time (sec): 4.000000E-1
Scans to average: 1
Nonlinearity correction enabled: false
Boxcar width: 0
Storing dark spectrum: false
XAxis mode: Wavelengths
Number of Pixels in Spectrum: 1024
>>>>>Begin Spectral Data<<<<<
801.071	22177
801.214	22040
801.356	21831
801.499	21728
801.641	21538
801.783	21477
801.926	21568
802.068	21492
802.211	21382
802.353	21207
802.496	21043
802.638	21146
802.78	21062
802.923	20914
803.065	20796
803.208	20937
803.35	20910
803.492	21039
803.635	20941
803.777	20804
803.919	20895
804.061	21176
804.204	21070
804.346	20838
804.488	20773
804.63	20868
804.773	20777
804.915	20781
805.057	20842
805.199	20701
805.341	20788
805.483	20982
805.626	20933
805.768	20678
805.91	20883
806.052	20724
806.194	20716
806.336	20971
806.478	20811
806.62	20804
806.762	20910
806.904	20963
807.046	21112
807.188	21028
807.33	21081
807.472	21192
807.614	20948
807.756	21013
807.898	20754
808.04	20750
808.182	20815
808.324	20826
808.465	20944
808.607	21089
808.749	21192
808.891	21154
809.033	21367
809.174	21275
809.316	21169
809.458	21142
809.6	21051
809.741	21237
809.883	21192
810.025	21386
810.166	21393
810.308	21241
810.45	21275
810.591	21100
810.733	20960
810.875	20933
811.016	20902
811.158	20876
811.299	20960
811.441	20982
811.582	21055
811.724	20937
811.865	20944
812.007	20842
812.148	20895
812.29	20929
812.431	21017
812.573	21176
812.714	21298
812.855	21348
812.997	21496
813.138	21629
813.279	21469
813.421	21374
813.562	21416
813.703	21176
813.845	21127
813.986	20800
814.127	20598
814.268	20454
814.41	20587
814.551	20355
814.692	20674
814.833	20454
814.974	20412
815.115	20446
815.256	20351
815.397	20328
815.539	20320
815.68	20149
815.821	20259
815.962	20259
816.103	20206
816.244	20126
816.385	19970
816.526	19959
816.666	19685
816.807	19582
816.948	19803
817.089	19700
817.23	19704
817.371	19578
817.512	19609
817.653	19529
817.793	19476
817.934	19506
818.075	19616
818.216	19681
818.356	19594
818.497	19445
818.638	19308
818.778	19301
818.919	19331
819.06	19285
819.2	19392
819.341	19407
819.481	19422
819.622	19719
819.762	19807
819.903	19769
820.043	19696
820.184	19655
820.324	19666
820.465	19696
820.605	19620
820.746	19567
820.886	19430
821.026	19597
821.167	19472
821.307	19586
821.447	19552
821.588	19377
821.728	19244
821.868	19209
822.008	19129
822.149	19012
822.289	18958
822.429	18722
822.569	18703
822.709	18677
822.849	18464
822.99	18467
823.13	18494
823.27	18384
823.41	18270
823.55	18224
823.69	18270
823.83	18270
823.97	18171
824.11	18110
824.25	18022
824.389	18034
824.529	18098
824.669	18106
824.809	18178
824.949	18235
825.089	18167
825.228	18045
825.368	17809
825.508	17870
825.648	17817
825.787	17866
825.927	17969
826.067	17748
826.206	17695
826.346	17893
826.485	17893
826.625	17893
826.765	17920
826.904	17828
827.044	17627
827.183	17562
827.323	17516
827.462	17554
827.601	17509
827.741	17490
827.88	17596
828.02	17482
828.159	17459
828.298	17501
828.437	17604
828.577	17532
828.716	17707
828.855	17463
828.994	17330
829.134	17311
829.273	17391
829.412	17242
829.551	17200
829.69	17204
829.829	17311
829.968	17414
830.107	17326
830.246	17387
830.385	17174
830.524	17277
830.663	17079
830.802	17223
830.941	16847
831.08	16862
831.219	17006
831.357	16946
831.496	17052
831.635	16904
831.774	16771
831.913	16828
832.051	16675
832.19	16672
832.329	16725
832.467	16706
832.606	16550
832.744	16516
832.883	16683
833.022	16538
833.16	16736
833.299	16706
833.437	16630
833.576	16637
833.714	16641
833.852	16637
833.991	16729
834.129	16858
834.267	16641
834.406	16565
834.544	16763
834.682	16706
834.821	16618
834.959	16831
835.097	16656
835.235	16698
835.373	16679
835.511	16694
835.65	16535
835.788	16607
835.926	16409
836.064	16382
836.202	16367
836.34	16558
836.478	16645
836.615	16561
836.753	16546
836.891	16668
837.029	16618
837.167	16478
837.305	16379
837.443	16413
837.58	16466
837.718	16573
837.856	16489
837.993	16356
838.131	16478
838.269	16390
838.406	16428
838.544	16322
838.681	16154
838.819	16135
838.956	15907
839.094	16029
839.231	16044
839.369	16090
839.506	16402
839.643	16257
839.781	16017
839.918	16029
840.055	15972
840.193	15968
840.33	15975
840.467	16029
840.604	16120
840.742	16253
840.879	15873
841.016	15831
841.153	15907
841.29	16067
841.427	15960
841.564	16074
841.701	16002
841.838	16002
841.975	15861
842.112	15907
842.249	15797
842.385	15747
842.522	15876
842.659	15842
842.796	15800
842.933	15869
843.069	15819
843.206	15690
843.343	15915
843.479	15747
843.616	15812
843.752	15492
843.889	15599
844.025	15736
844.162	15622
844.298	15682
844.435	15652
844.571	15530
844.708	15622
844.844	15637
844.98	15667
845.117	15774
845.253	15526
845.389	15500
845.525	15538
845.661	15538
845.798	15351
845.934	15477
846.07	15302
846.206	15458
846.342	15507
846.478	15317
846.614	15214
846.75	15062
846.886	15157
847.022	15256
847.158	15146
847.294	15089
847.429	15100
847.565	15176
847.701	15329
847.837	14834
847.972	14975
848.108	15005
848.244	14944
848.379	14769
848.515	14788
848.65	14720
848.786	14708
848.921	14823
849.057	14785
849.192	14765
849.328	14754
849.463	14689
849.598	14655
849.734	14701
849.869	14590
850.004	14598
850.14	14587
850.275	14507
850.41	14442
850.545	14431
850.68	14423
850.815	14396
850.95	14450
851.085	14678
851.22	14590
851.355	14560
851.49	14556
851.625	14511
851.76	14518
851.895	14393
852.03	14278
852.165	14484
852.299	14526
852.434	14507
852.569	14629
852.703	14556
852.838	14667
852.973	14579
853.107	14674
853.242	14415
853.376	14454
853.511	14149
853.645	14412
853.78	14434
853.914	14400
854.048	14282
854.183	14358
854.317	14461
854.451	14499
854.585	14404
854.72	14343
854.854	14457
854.988	14374
855.122	14290
855.256	14233
855.39	14328
855.524	14427
855.658	14415
855.792	14438
855.926	14473
856.06	14484
856.194	14492
856.327	14355
856.461	14351
856.595	14396
856.729	14374
856.862	14469
856.996	14393
857.13	14465
857.263	14545
857.397	14457
857.53	14423
857.664	14514
857.797	14545
857.931	14526
858.064	14366
858.197	14552
858.331	14412
858.464	14454
858.597	14263
858.731	14404
858.864	14400
858.997	14434
859.13	14389
859.263	14419
859.396	14507
859.529	14328
859.662	14404
859.795	14358
859.928	14427
860.061	14499
860.194	14655
860.327	14412
860.46	14396
860.592	14446
860.725	14499
860.858	14415
860.99	14454
861.123	14317
861.256	14237
861.388	14347
861.521	14979
861.653	14309
861.786	14202
861.918	14355
862.05	14423
862.183	14309
862.315	14419
862.447	14427
862.58	14259
862.712	14210
862.844	14107
862.976	14248
863.108	14225
863.24	14503
863.372	14065
863.504	14062
863.636	14100
863.768	14180
863.9	14138
864.032	14123
864.164	14183
864.296	14157
864.428	14355
864.559	14233
864.691	14339
864.823	14298
864.954	14218
865.086	14229
865.217	14176
865.349	14134
865.48	14161
865.612	14107
865.743	14305
865.875	14103
866.006	14126
866.137	14168
866.269	14187
866.4	14176
866.531	14138
866.662	14119
866.793	14039
866.924	14202
867.055	14172
867.186	14126
867.317	14081
867.448	14069
867.579	14138
867.71	14172
867.841	14134
867.972	14100
868.103	14092
868.233	14130
868.364	14180
868.495	14275
868.625	14324
868.756	14446
868.886	14446
869.017	14358
869.147	14533
869.278	14537
869.408	14438
869.539	14461
869.669	14632
869.799	14469
869.929	14488
870.06	14556
870.19	14689
870.32	14663
870.45	14754
870.58	14765
870.71	14948
870.84	14872
870.97	14785
871.1	14796
871.23	14948
871.36	14918
871.489	14895
871.619	14967
871.749	15028
871.879	15085
872.008	15051
872.138	14998
872.267	14918
872.397	14815
872.526	14765
872.656	14765
872.785	14891
872.915	15009
873.044	15173
873.173	15062
873.303	15017
873.432	15119
873.561	15089
873.69	15017
873.819	15051
873.948	15104
874.077	15028
874.206	14971
874.335	15062
874.464	15161
874.593	15359
874.722	15260
874.851	15367
874.979	15336
875.108	15393
875.237	15378
875.365	15275
875.494	15283
875.623	15557
875.751	15317
875.88	15435
876.008	15519
876.136	15595
876.265	15709
876.393	15854
876.521	15956
876.65	15895
876.778	15835
876.906	15755
877.034	15663
877.162	15781
877.29	15603
877.418	15800
877.546	15812
877.674	15698
877.802	15835
877.93	15819
878.058	15644
878.185	15713
878.313	15762
878.441	15876
878.568	15534
878.696	15778
878.824	15819
878.951	15915
879.079	15895
879.206	16139
879.333	15998
879.461	15842
879.588	15979
879.715	15918
879.842	16097
879.97	15835
880.097	15652
880.224	15622
880.351	15599
880.478	15667
880.605	15591
880.732	15549
880.859	15953
880.986	15644
881.112	15656
881.239	15545
881.366	15454
881.493	15264
881.619	15272
881.746	15344
881.872	15218
881.999	15214
882.125	15275
882.252	15306
882.378	15256
882.505	15412
882.631	15256
882.757	15123
882.883	15116
883.01	15218
883.136	15020
883.262	15032
883.388	14971
883.514	15226
883.64	15173
883.766	15055
883.892	14796
884.018	14937
884.143	15093
884.269	15207
884.395	14830
884.52	14796
884.646	14857
884.772	14712
884.897	14708
885.023	14826
885.148	14956
885.274	14956
885.399	14933
885.524	14785
885.65	14811
885.775	14838
885.9	14750
886.025	14937
886.15	14899
886.275	14735
886.4	14594
886.525	14743
886.65	14743
886.775	14712
886.9	14861
887.025	15154
887.149	14788
887.274	14651
887.399	14560
887.523	14663
887.648	14617
887.773	14537
887.897	14644
888.021	14697
888.146	14625
888.27	14678
888.395	14830
888.519	14746
888.643	14648
888.767	14731
888.891	14610
889.015	14396
889.139	14507
889.263	14351
889.387	14648
889.511	14636
889.635	14621
889.759	14533
889.883	14495
890.006	14469
890.13	14613
890.254	14404
890.377	14461
890.501	14233
890.624	14221
890.748	14381
890.871	14225
890.995	14123
891.118	14107
891.241	14218
891.364	14225
891.488	14328
891.611	14206
891.734	14123
891.857	14225
891.98	14191
892.103	14290
892.226	14221
892.349	14145
892.471	14084
892.594	14126
892.717	14202
892.839	14161
892.962	14214
893.085	14229
893.207	14126
893.33	13986
893.452	14157
893.575	14309
893.697	14202
893.819	14366
893.941	14377
894.064	14317
894.186	14096
894.308	14225
894.43	14237
894.552	14320
894.674	14400
894.796	14142
894.918	14119
895.04	14248
895.161	14358
895.283	14294
895.405	14225
895.526	14305
895.648	14317
895.769	14362
895.891	14374
896.012	14415
896.134	14248
896.255	14427
896.376	14362
896.498	14396
896.619	14461
896.74	14358
896.861	14511
896.982	14686
897.103	14800
897.224	14667
897.345	14617
897.466	14507
897.587	14598
897.708	14781
897.828	14705
897.949	14617
898.07	14488
898.19	14492
898.311	14731
898.431	14625
898.552	14674
898.672	14754
898.792	14758
898.913	14792
899.033	14640
899.153	14533
899.273	14488
899.393	14537
899.513	14617
899.633	14503
899.753	14610
899.873	14629
899.993	14541
900.113	14461
900.232	14442
900.352	14469
900.472	14488
900.591	14434
900.711	14396
900.83	14366
900.95	14545
901.069	14495
901.189	14431
901.308	14077
901.427	14088
901.546	14096
901.665	14168
901.784	14145
901.904	13932
902.023	13940
902.141	13685
902.26	13677
902.379	13811
902.498	13738
902.617	13624
902.735	13727
902.854	13628
902.973	13540
903.091	13358
903.21	13335
903.328	13411
903.446	13354
903.565	13133
903.683	13266
903.801	13190
903.919	13145
904.038	13274
904.156	12962
904.274	13107
904.392	13008
904.51	13023
904.627	12951
904.745	13088
904.863	13042
904.981	12863
905.098	12719
905.216	12658
905.334	12768
905.451	12734
905.569	12665
905.686	12856
905.803	12837
905.921	12570
906.038	12650
906.155	12616
906.272	12422
906.389	12513
906.506	12369
906.623	12353
906.74	12327
906.857	12239
906.974	12186
907.091	12357
907.208	12490
907.324	12285
907.441	12224
907.557	12167
907.674	12019
907.79	11980
907.907	12011
908.023	12186
908.139	12015
908.256	12079
908.372	12038
908.488	11920
908.604	11889
908.72	11813
908.836	11851
908.952	11771
909.068	11817
909.184	11961
909.3	11859
909.415	11824
909.531	11870
909.647	11646
909.762	11623
909.878	11516
909.993	11623
910.108	11543
910.224	11566
910.339	11539
910.454	11497
910.57	11395
910.685	11433
910.8	11634
910.915	11558
911.03	11452
911.145	11254
911.259	11261
911.374	11265
911.489	11318
911.604	11216
911.718	11098
911.833	11086
911.947	10995
912.062	10831
912.176	11025
912.291	11041
912.405	11037
912.519	11261
912.633	11250
912.748	11128
912.862	11102
912.976	10995
913.09	10866
913.204	10946
913.318	10965
913.431	11006
913.545	11052
913.659	11041
913.772	10877
913.886	10809
914	10698
914.113	10911
914.226	10976
914.34	10828
914.453	10748
914.566	10957
914.68	10733
914.793	10698
914.906	10599
915.019	10546
915.132	10519
915.245	10538
915.358	10611
915.47	10554
915.583	10584
915.696	10622
915.809	10698
915.921	10752
916.034	10538
916.146	10500
916.259	10417
916.371	10558
916.483	10542
916.595	10478
916.708	10580
916.82	10440
916.932	10443
917.044	10402
917.156	10451
917.268	10363
917.38	10356
917.491	10329
917.603	10348
917.715	10527
917.826	10443
917.938	10280
918.049	10310
918.161	10405
918.272	10500
918.384	10485
918.495	10432
918.606	10253
918.717	10116
918.828	10272
918.939	10310
919.05	10162
919.161	10223
919.272	10036
919.383	10105
919.494	10337
919.604	10470
919.715	10295
919.826	10177
919.936	10253
920.047	10337
920.157	10348
920.267	10531
920.378	10325
920.488	10276
920.598	10485
920.708	10607
920.818	10394
920.928	10497
921.038	10626
921.148	10603
921.258	10379
921.368	10211
921.477	10063
921.587	10093
921.697	9987
921.806	10128
921.916	9960
922.025	9842
922.134	9800
922.244	9720
922.353	9915
922.462	9633
922.571	9690
922.68	9564
922.789	9473
922.898	9549
923.007	9485
923.116	9553
923.224	9572
923.333	9492
923.442	9416
923.55	9348
923.659	9439
923.767	9561
923.876	9340
923.984	9473
924.092	9348
924.201	9420
924.309	9439
924.417	9428
924.525	9291
924.633	9351
924.741	10341
924.849	9207
924.956	9310
925.064	9176
925.172	9127
925.279	9138
925.387	9245
925.494	9165
925.602	9287
925.709	9283
925.816	9081
925.924	9176
926.031	9294
926.138	9195
926.245	9226
926.352	9108
926.459	9203
926.566	9310
926.673	9074
926.779	9116
926.886	8975
926.993	8925
927.099	8838
927.206	8933
927.312	8845
927.419	8944
927.525	8876
927.631	8895
927.737	8785
927.843	8777
927.95	8693
928.056	8766
928.162	8739
928.267	8864
928.373	9393
928.479	8918
928.585	8701
928.69	8777
928.796	8750
928.901	8640
929.007	8552
929.112	8720
929.218	8693
929.323	8533
929.428	8541
929.533	8731
929.638	8644
929.743	8629
929.848	8629
929.953	8610
930.058	8461
930.163	8336
930.267	8408
930.372	8484
930.477	8317
930.581	8629
930.685	8457
930.79	8286
930.894	8324
930.998	8324
931.103	8431
931.207	8103
931.311	8073
931.415	7967
931.519	7780
931.623	7784
