Data from test_V78500241_1068.txt Node
Date: Fri Mar 25 14:41:09 CST 2022
User: usil
Spectrometer: V785-0024
Trigger mode: 0
Integration Time (sec): 4.000000E-1
Scans to average: 1
Nonlinearity correction enabled: false
Boxcar width: 0
Storing dark spectrum: false
XAxis mode: Wavelengths
Number of Pixels in Spectrum: 1024
>>>>>Begin Spectral Data<<<<<
801.071	22744
801.214	22725
801.356	22402
801.499	22356
801.641	22128
801.783	22120
801.926	22253
802.068	22051
802.211	21907
802.353	21998
802.496	21766
802.638	21648
802.78	21701
802.923	21587
803.065	21568
803.208	21485
803.35	21587
803.492	21610
803.635	21709
803.777	21507
803.919	21641
804.061	21781
804.204	21656
804.346	21462
804.488	21450
804.63	21389
804.773	21325
804.915	21428
805.057	21485
805.199	21447
805.341	21622
805.483	21523
805.626	21519
805.768	21367
805.91	21500
806.052	21450
806.194	21454
806.336	21580
806.478	21534
806.62	21454
806.762	21488
806.904	21774
807.046	21907
807.188	21854
807.33	21747
807.472	21880
807.614	21838
807.756	21949
807.898	21907
808.04	21709
808.182	21793
808.324	21945
808.465	21941
808.607	22257
808.749	22375
808.891	22500
809.033	22580
809.174	22390
809.316	22246
809.458	22223
809.6	22135
809.741	22048
809.883	22105
810.025	22177
810.166	22166
810.308	22177
810.45	21926
810.591	21964
810.733	21743
810.875	21671
811.016	21656
811.158	21656
811.299	21762
811.441	21797
811.582	21774
811.724	21652
811.865	21686
812.007	21724
812.148	21530
812.29	21762
812.431	21861
812.573	22017
812.714	22051
812.855	22101
812.997	22200
813.138	22493
813.279	22280
813.421	22215
813.562	22078
813.703	22017
813.845	21842
813.986	21488
814.127	21370
814.268	21279
814.41	21222
814.551	21355
814.692	21386
814.833	21100
814.974	21211
815.115	21188
815.256	20933
815.397	21104
815.539	21024
815.68	20918
815.821	20807
815.962	20910
816.103	20796
816.244	20910
816.385	20724
816.526	20629
816.666	20492
816.807	20355
816.948	20507
817.089	20507
817.23	20320
817.371	20248
817.512	20347
817.653	20347
817.793	20457
817.934	20366
818.075	20400
818.216	20442
818.356	20161
818.497	20107
818.638	19997
818.778	20100
818.919	20092
819.06	20096
819.2	20164
819.341	20218
819.481	20199
819.622	20328
819.762	20644
819.903	20514
820.043	20377
820.184	20305
820.324	20328
820.465	20427
820.605	20324
820.746	20381
820.886	20240
821.026	20332
821.167	20267
821.307	20374
821.447	20214
821.588	20149
821.728	20062
821.868	19830
822.008	19712
822.149	19742
822.289	19753
822.429	19453
822.569	19358
822.709	19434
822.849	19270
822.99	19282
823.13	19133
823.27	19179
823.41	19069
823.55	18913
823.69	18989
823.83	19057
823.97	18920
824.11	18814
824.25	18776
824.389	18897
824.529	18962
824.669	18711
824.809	18932
824.949	18837
825.089	18738
825.228	18802
825.368	18578
825.508	18654
825.648	18661
825.787	18669
825.927	18623
826.067	18544
826.206	18494
826.346	18642
826.485	18703
826.625	18604
826.765	18642
826.904	18597
827.044	18399
827.183	18376
827.323	18121
827.462	18403
827.601	18323
827.741	18285
827.88	18346
828.02	18057
828.159	18273
828.298	18281
828.437	18289
828.577	18178
828.716	18369
828.855	18152
828.994	18144
829.134	18110
829.273	18167
829.412	18011
829.551	17950
829.69	18041
829.829	17977
829.968	18091
830.107	18205
830.246	18060
830.385	18026
830.524	17882
830.663	17923
830.802	17714
830.941	17600
831.08	17608
831.219	17756
831.357	17707
831.496	17851
831.635	17611
831.774	17623
831.913	17509
832.051	17372
832.19	17444
832.329	17459
832.467	17402
832.606	17379
832.744	17311
832.883	17220
833.022	17284
833.16	17387
833.299	17345
833.437	17383
833.576	17452
833.714	17467
833.852	17474
833.991	17383
834.129	17524
834.267	17478
834.406	17459
834.544	17509
834.682	17429
834.821	17421
834.959	17535
835.097	17318
835.235	17539
835.373	17406
835.511	17383
835.65	17181
835.788	17315
835.926	17079
836.064	17208
836.202	17117
836.34	17269
836.478	17345
836.615	17261
836.753	17322
836.891	17387
837.029	17406
837.167	17242
837.305	17197
837.443	17189
837.58	17166
837.718	17223
837.856	17261
837.993	17102
838.131	17174
838.269	17052
838.406	17162
838.544	17083
838.681	16889
838.819	16911
838.956	16645
839.094	16683
839.231	16675
839.369	16854
839.506	17033
839.643	16942
839.781	16683
839.918	16641
840.055	16729
840.193	16706
840.33	16596
840.467	16546
840.604	16752
840.742	16953
840.879	16546
841.016	16603
841.153	16618
841.29	16801
841.427	16736
841.564	16713
841.701	16706
841.838	16596
841.975	16630
842.112	16615
842.249	16493
842.385	16428
842.522	16611
842.659	16519
842.796	16402
842.933	16443
843.069	16386
843.206	16318
843.343	16493
843.479	16485
843.616	16470
843.752	16147
843.889	16238
844.025	16356
844.162	16166
844.298	16398
844.435	16192
844.571	16234
844.708	16356
844.844	16455
844.98	16402
845.117	16356
845.253	16246
845.389	16280
845.525	16284
845.661	16580
845.798	16546
845.934	16763
846.07	16611
846.206	16694
846.342	16706
846.478	16512
846.614	16090
846.75	15907
846.886	15865
847.022	15934
847.158	15850
847.294	15747
847.429	15884
847.565	15770
847.701	16010
847.837	15606
847.972	15485
848.108	15667
848.244	15557
848.379	15504
848.515	15439
848.65	15363
848.786	15466
848.921	15481
849.057	15511
849.192	15511
849.328	15424
849.463	15447
849.598	15367
849.734	15306
849.869	15249
850.004	15138
850.14	15218
850.275	15116
850.41	15116
850.545	15173
850.68	15039
850.815	15150
850.95	15077
851.085	15298
851.22	15237
851.355	15222
851.49	15154
851.625	15100
851.76	15093
851.895	15039
852.03	15020
852.165	15142
852.299	15188
852.434	15218
852.569	15222
852.703	15252
852.838	15291
852.973	15348
853.107	15306
853.242	15119
853.376	15051
853.511	14910
853.645	15062
853.78	15116
853.914	15142
854.048	15043
854.183	14990
854.317	15017
854.451	15123
854.585	15017
854.72	15013
854.854	15085
854.988	14948
855.122	14960
855.256	14838
855.39	14960
855.524	15131
855.658	15142
855.792	15058
855.926	15077
856.06	14994
856.194	15100
856.327	14960
856.461	14899
856.595	14944
856.729	14998
856.862	15138
856.996	15119
857.13	15188
857.263	15142
857.397	15165
857.53	15081
857.664	15058
857.797	15154
857.931	15093
858.064	14960
858.197	15207
858.331	15028
858.464	15051
858.597	14902
858.731	14998
858.864	14982
858.997	15009
859.13	15020
859.263	15020
859.396	14986
859.529	14982
859.662	14910
859.795	14925
859.928	15058
860.061	15135
860.194	15237
860.327	15043
860.46	14979
860.592	15142
860.725	15142
860.858	15169
860.99	15020
861.123	14948
861.256	14994
861.388	14948
861.521	15618
861.653	14785
861.786	14849
861.918	14883
862.05	14929
862.183	14933
862.315	14918
862.447	15028
862.58	14891
862.712	14701
862.844	14697
862.976	14838
863.108	14777
863.24	15165
863.372	14689
863.504	14781
863.636	14739
863.768	14842
863.9	14750
864.032	14731
864.164	14693
864.296	14758
864.428	14857
864.559	14998
864.691	14807
864.823	14910
864.954	14921
865.086	14785
865.217	14769
865.349	14727
865.48	14720
865.612	14686
865.743	14823
865.875	14769
866.006	14796
866.137	14781
866.269	14773
866.4	14743
866.531	14686
866.662	14648
866.793	14678
866.924	14708
867.055	14743
867.186	14693
867.317	14682
867.448	14606
867.579	14621
867.71	14610
867.841	14705
867.972	14762
868.103	14788
868.233	14750
868.364	14708
868.495	14815
868.625	14925
868.756	15081
868.886	14960
869.017	15108
869.147	15116
869.278	15112
869.408	14952
869.539	15032
869.669	15005
869.799	15070
869.929	15108
870.06	15074
870.19	15321
870.32	15211
870.45	15279
870.58	15370
870.71	15458
870.84	15466
870.97	15336
871.1	15332
871.23	15622
871.36	15622
871.489	15462
871.619	15610
871.749	15507
871.879	15603
872.008	15789
872.138	15732
872.267	15553
872.397	15462
872.526	15412
872.656	15458
872.785	15389
872.915	15576
873.044	15694
873.173	15561
873.303	15603
873.432	15785
873.561	15694
873.69	15641
873.819	15595
873.948	15781
874.077	15690
874.206	15606
874.335	15595
874.464	15762
874.593	15926
874.722	15945
874.851	15945
874.979	16067
875.108	15953
875.237	15861
875.365	15930
875.494	15922
875.623	15941
875.751	15926
875.88	15922
876.008	16074
876.136	16268
876.265	16436
876.393	16455
876.521	16504
876.65	16538
876.778	16489
876.906	16299
877.034	16276
877.162	16318
877.29	16299
877.418	16295
877.546	16367
877.674	16344
877.802	16348
877.93	16322
878.058	16440
878.185	16352
878.313	16306
878.441	16451
878.568	16272
878.696	16375
878.824	16512
878.951	16580
879.079	16641
879.206	16816
879.333	16816
879.461	16702
879.588	16771
879.715	16828
879.842	16889
879.97	16721
880.097	16481
880.224	16356
880.351	16375
880.478	16360
880.605	16230
880.732	16280
880.859	16550
880.986	16371
881.112	16257
881.239	16253
881.366	16078
881.493	16010
881.619	15930
881.746	16017
881.872	15884
881.999	15968
882.125	15873
882.252	16002
882.378	15953
882.505	16051
882.631	15987
882.757	15793
882.883	15816
883.01	15743
883.136	15766
883.262	15553
883.388	15751
883.514	15861
883.64	15770
883.766	15747
883.892	15614
884.018	15660
884.143	15679
884.269	15732
884.395	15408
884.52	15511
884.646	15526
884.772	15458
884.897	15321
885.023	15431
885.148	15606
885.274	15629
885.399	15545
885.524	15374
885.65	15553
885.775	15435
885.9	15348
886.025	15519
886.15	15408
886.275	15359
886.4	15249
886.525	15389
886.65	15351
886.775	15393
886.9	15549
887.025	15599
887.149	15378
887.274	15355
887.399	15146
887.523	15226
887.648	15230
887.773	15039
887.897	15279
888.021	15329
888.146	15169
888.27	15252
888.395	15386
888.519	15310
888.643	15260
888.767	15355
888.891	15184
889.015	15123
889.139	15070
889.263	15093
889.387	15237
889.511	15287
889.635	15249
889.759	14963
889.883	15085
890.006	15039
890.13	15089
890.254	15093
890.377	15093
890.501	14777
890.624	14811
890.748	14941
890.871	14861
890.995	14697
891.118	14712
891.241	14750
891.364	14826
891.488	14891
891.611	14720
891.734	14678
891.857	14758
891.98	14731
892.103	14826
892.226	14762
892.349	14796
892.471	14674
892.594	14724
892.717	14735
892.839	14746
892.962	14708
893.085	14678
893.207	14686
893.33	14518
893.452	14625
893.575	14716
893.697	14788
893.819	14868
893.941	14960
894.064	14918
894.186	14705
894.308	14667
894.43	14811
894.552	14876
894.674	14823
894.796	14716
894.918	14769
895.04	14872
895.161	14914
895.283	14899
895.405	14701
895.526	14845
895.648	14830
895.769	14952
895.891	14883
896.012	14876
896.134	14902
896.255	14883
896.376	14754
896.498	14857
896.619	14963
896.74	14895
896.861	14990
896.982	15192
897.103	15416
897.224	15188
897.345	15131
897.466	15058
897.587	15127
897.708	15233
897.828	15184
897.949	15051
898.07	15062
898.19	15116
898.311	15306
898.431	15100
898.552	15211
898.672	15283
898.792	15291
898.913	15252
899.033	15070
899.153	15131
899.273	15024
899.393	15055
899.513	15051
899.633	15116
899.753	15077
899.873	15051
899.993	15093
900.113	15127
900.232	15051
900.352	15039
900.472	15005
900.591	14914
900.711	15024
900.83	14868
900.95	15089
901.069	15077
901.189	14823
901.308	14602
901.427	14514
901.546	14602
901.665	14583
901.784	14735
901.904	14545
902.023	14385
902.141	14252
902.26	14115
902.379	14214
902.498	14062
902.617	14126
902.735	14115
902.854	14221
902.973	14001
903.091	13898
903.21	13894
903.328	13917
903.446	13700
903.565	13738
903.683	13765
903.801	13605
903.919	13742
904.038	13636
904.156	13495
904.274	13620
904.392	13499
904.51	13502
904.627	13468
904.745	13525
904.863	13548
904.981	13278
905.098	13255
905.216	13152
905.334	13251
905.451	13240
905.569	13187
905.686	13236
905.803	13149
905.921	13019
906.038	13065
906.155	13061
906.272	12863
906.389	12920
906.506	12749
906.623	12863
906.74	12741
906.857	12646
906.974	12646
907.091	12882
907.208	12875
907.324	12829
907.441	12700
907.557	12483
907.674	12486
907.79	12456
907.907	12452
908.023	12494
908.139	12563
908.256	12456
908.372	12426
908.488	12448
908.604	12342
908.72	12296
908.836	12213
908.952	12251
909.068	12273
909.184	12403
909.3	12273
909.415	12334
909.531	12258
909.647	11992
909.762	12030
909.878	11954
909.993	12038
910.108	12019
910.224	11920
910.339	11977
910.454	11904
910.57	11889
910.685	11813
910.8	12019
910.915	12007
911.03	11954
911.145	11737
911.259	11661
911.374	11710
911.489	11573
911.604	11486
911.718	11478
911.833	11444
911.947	11383
912.062	11296
912.176	11459
912.291	11482
912.405	11349
912.519	11642
912.633	11581
912.748	11554
912.862	11463
912.976	11246
913.09	11242
913.204	11136
913.318	11239
913.431	11368
913.545	11448
913.659	11486
913.772	11280
913.886	11223
914	11128
914.113	11322
914.226	11334
914.34	11269
914.453	11174
914.566	11239
914.68	11201
914.793	11140
914.906	10934
915.019	10961
915.132	10911
915.245	10908
915.358	11037
915.47	11029
915.583	10927
915.696	10987
915.809	11083
915.921	11064
916.034	10957
916.146	10908
916.259	10869
916.371	11033
916.483	11056
916.595	10835
916.708	10923
916.82	10885
916.932	10942
917.044	10812
917.156	10889
917.268	10729
917.38	10755
917.491	10748
917.603	10774
917.715	10820
917.826	10847
917.938	10672
918.049	10698
918.161	10797
918.272	10869
918.384	10892
918.495	10866
918.606	10691
918.717	10561
918.828	10687
918.939	10660
919.05	10493
919.161	10672
919.272	10451
919.383	10535
919.494	10729
919.604	10915
919.715	10645
919.826	10580
919.936	10599
920.047	10771
920.157	10717
920.267	10919
920.378	10721
920.488	10725
920.598	10892
920.708	11136
920.818	10866
920.928	10923
921.038	10987
921.148	11064
921.258	10702
921.368	10664
921.477	10535
921.587	10497
921.697	10432
921.806	10542
921.916	10363
922.025	10257
922.134	10185
922.244	10185
922.353	10329
922.462	10101
922.571	10150
922.68	9949
922.789	9800
922.898	9884
923.007	9911
923.116	9907
923.224	9926
923.333	9953
923.442	9713
923.55	9789
923.659	9854
923.767	9865
923.876	9736
923.984	9838
924.092	9762
924.201	9846
924.309	9766
924.417	9800
924.525	9682
924.633	9759
924.741	10637
924.849	9534
924.956	9698
925.064	9477
925.172	9405
925.279	9538
925.387	9439
925.494	9519
925.602	9663
925.709	9572
925.816	9443
925.924	9530
926.031	9637
926.138	9526
926.245	9549
926.352	9447
926.459	9557
926.566	9538
926.673	9466
926.779	9424
926.886	9329
926.993	9329
927.099	9218
927.206	9195
927.312	9169
927.419	9230
927.525	9192
927.631	9253
927.737	9142
927.843	9028
927.95	9032
928.056	9188
928.162	9036
928.267	9184
928.373	9766
928.479	9214
928.585	9001
928.69	9119
928.796	9195
928.901	9051
929.007	8868
929.112	9097
929.218	8967
929.323	8933
929.428	8990
929.533	9017
929.638	8849
929.743	8899
929.848	8952
929.953	8948
930.058	8830
930.163	8659
930.267	8746
930.372	8868
930.477	8689
930.581	8914
930.685	8720
930.79	8625
930.894	8693
930.998	8644
931.103	8773
931.207	8408
931.311	8324
931.415	8275
931.519	8161
931.623	8149
