Data from test_V78500241_1216.txt Node
Date: Fri Mar 25 14:42:10 CST 2022
User: usil
Spectrometer: V785-0024
Trigger mode: 0
Integration Time (sec): 4.000000E-1
Scans to average: 1
Nonlinearity correction enabled: false
Boxcar width: 0
Storing dark spectrum: false
XAxis mode: Wavelengths
Number of Pixels in Spectrum: 1024
>>>>>Begin Spectral Data<<<<<
801.071	22318
801.214	22276
801.356	22032
801.499	21983
801.641	21800
801.783	21789
801.926	21899
802.068	21781
802.211	21679
802.353	21599
802.496	21412
802.638	21249
802.78	21135
802.923	21214
803.065	21154
803.208	21081
803.35	21176
803.492	21127
803.635	21214
803.777	21009
803.919	21195
804.061	21447
804.204	21188
804.346	21180
804.488	21119
804.63	21089
804.773	20941
804.915	20948
805.057	21066
805.199	21001
805.341	21089
805.483	21131
805.626	21081
805.768	20944
805.91	21039
806.052	20986
806.194	20952
806.336	21085
806.478	21093
806.62	21001
806.762	21055
806.904	21142
807.046	21458
807.188	21340
807.33	21329
807.472	21454
807.614	21279
807.756	21287
807.898	21260
808.04	21058
808.182	21112
808.324	21150
808.465	21211
808.607	21454
808.749	21545
808.891	21679
809.033	21755
809.174	21511
809.316	21389
809.458	21500
809.6	21481
809.741	21500
809.883	21454
810.025	21511
810.166	21526
810.308	21709
810.45	21538
810.591	21485
810.733	21351
810.875	21195
811.016	21222
811.158	21077
811.299	21256
811.441	21321
811.582	21329
811.724	21173
811.865	21135
812.007	21279
812.148	21226
812.29	21222
812.431	21408
812.573	21530
812.714	21618
812.855	21739
812.997	21751
813.138	21873
813.279	21774
813.421	21728
813.562	21526
813.703	21450
813.845	21348
813.986	21028
814.127	20960
814.268	20815
814.41	20788
814.551	20853
814.692	20762
814.833	20621
814.974	20621
815.115	20785
815.256	20587
815.397	20549
815.539	20571
815.68	20526
815.821	20465
815.962	20575
816.103	20423
816.244	20328
816.385	20244
816.526	20317
816.666	20043
816.807	19959
816.948	19967
817.089	20012
817.23	20020
817.371	20062
817.512	19852
817.653	19890
817.793	19841
817.934	19928
818.075	19932
818.216	19906
818.356	19860
818.497	19727
818.638	19491
818.778	19639
818.919	19658
819.06	19685
819.2	19761
819.341	19776
819.481	19791
819.622	19951
819.762	20202
819.903	19944
820.043	19989
820.184	19978
820.324	19894
820.465	19852
820.605	19833
820.746	19925
820.886	19818
821.026	19746
821.167	19871
821.307	19997
821.447	19883
821.588	19753
821.728	19647
821.868	19343
822.008	19244
822.149	19381
822.289	19270
822.429	19027
822.569	18958
822.709	18958
822.849	18909
822.99	18776
823.13	18760
823.27	18715
823.41	18677
823.55	18494
823.69	18612
823.83	18585
823.97	18589
824.11	18483
824.25	18239
824.389	18327
824.529	18407
824.669	18319
824.809	18426
824.949	18380
825.089	18426
825.228	18467
825.368	18292
825.508	18091
825.648	18159
825.787	18201
825.927	18144
826.067	18155
826.206	18072
826.346	18205
826.485	18114
826.625	18140
826.765	18304
826.904	18285
827.044	17920
827.183	17969
827.323	17828
827.462	17935
827.601	17794
827.741	17809
827.88	17923
828.02	17695
828.159	17828
828.298	17863
828.437	17870
828.577	17756
828.716	17912
828.855	17737
828.994	17581
829.134	17733
829.273	17676
829.412	17577
829.551	17623
829.69	17581
829.829	17615
829.968	17657
830.107	17668
830.246	17699
830.385	17528
830.524	17524
830.663	17368
830.802	17284
830.941	17364
831.08	17212
831.219	17334
831.357	17337
831.496	17402
831.635	17277
831.774	17197
831.913	17162
832.051	16919
832.19	17025
832.329	17151
832.467	16915
832.606	16850
832.744	16995
832.883	16923
833.022	16919
833.16	16949
833.299	17025
833.437	16896
833.576	16896
833.714	16965
833.852	17037
833.991	17083
834.129	17204
834.267	17003
834.406	17113
834.544	17060
834.682	17071
834.821	16984
834.959	17071
835.097	17022
835.235	17170
835.373	17121
835.511	16885
835.65	16915
835.788	16881
835.926	16869
836.064	16656
836.202	16679
836.34	16873
836.478	16987
836.615	16919
836.753	16892
836.891	17029
837.029	16995
837.167	16934
837.305	16706
837.443	16847
837.58	16637
837.718	16930
837.856	16801
837.993	16824
838.131	16858
838.269	16607
838.406	16744
838.544	16542
838.681	16508
838.819	16561
838.956	16394
839.094	16272
839.231	16299
839.369	16478
839.506	16725
839.643	16554
839.781	16276
839.918	16284
840.055	16386
840.193	16322
840.33	16287
840.467	16234
840.604	16409
840.742	16630
840.879	16219
841.016	16150
841.153	16253
841.29	16371
841.427	16344
841.564	16344
841.701	16360
841.838	16215
841.975	16139
842.112	16280
842.249	16143
842.385	16040
842.522	16200
842.659	16097
842.796	15987
842.933	16139
843.069	16044
843.206	15994
843.343	16158
843.479	16158
843.616	16131
843.752	15956
843.889	15888
844.025	16013
844.162	15880
844.298	15964
844.435	15854
844.571	15774
844.708	15873
844.844	16040
844.98	16032
845.117	16139
845.253	15778
845.389	15713
845.525	15800
845.661	15907
845.798	15724
845.934	15846
846.07	15724
846.206	15835
846.342	15945
846.478	15838
846.614	15526
846.75	15374
846.886	15473
847.022	15580
847.158	15435
847.294	15481
847.429	15553
847.565	15431
847.701	15739
847.837	15138
847.972	15104
848.108	15279
848.244	15302
848.379	15093
848.515	14963
848.65	15039
848.786	15062
848.921	14921
849.057	15100
849.192	15104
849.328	15165
849.463	15135
849.598	15051
849.734	14982
849.869	14883
850.004	14826
850.14	14902
850.275	14876
850.41	14864
850.545	14823
850.68	14743
850.815	14762
850.95	14689
851.085	15009
851.22	14876
851.355	14842
851.49	14682
851.625	14769
851.76	14777
851.895	14754
852.03	14720
852.165	14750
852.299	14838
852.434	14937
852.569	14868
852.703	14743
852.838	14880
852.973	14914
853.107	14998
853.242	14686
853.376	14739
853.511	14598
853.645	14579
853.78	14716
853.914	14731
854.048	14640
854.183	14708
854.317	14678
854.451	14872
854.585	14659
854.72	14598
854.854	14754
854.988	14602
855.122	14621
855.256	14511
855.39	14731
855.524	14823
855.658	14686
855.792	14670
855.926	14678
856.06	14754
856.194	14796
856.327	14674
856.461	14610
856.595	14583
856.729	14625
856.862	14731
856.996	14610
857.13	14792
857.263	14781
857.397	14819
857.53	14739
857.664	14678
857.797	14777
857.931	14914
858.064	14838
858.197	14826
858.331	14670
858.464	14708
858.597	14610
858.731	14712
858.864	14693
858.997	14701
859.13	14621
859.263	14781
859.396	14743
859.529	14598
859.662	14659
859.795	14469
859.928	14712
860.061	14842
860.194	14853
860.327	14762
860.46	14606
860.592	14705
860.725	14777
860.858	14819
860.99	14655
861.123	14674
861.256	14648
861.388	14792
861.521	15435
861.653	14568
861.786	14552
861.918	14495
862.05	14541
862.183	14712
862.315	14712
862.447	14689
862.58	14625
862.712	14511
862.844	14343
862.976	14488
863.108	14499
863.24	14941
863.372	14484
863.504	14446
863.636	14442
863.768	14457
863.9	14457
864.032	14396
864.164	14454
864.296	14400
864.428	14579
864.559	14632
864.691	14522
864.823	14552
864.954	14469
865.086	14499
865.217	14415
865.349	14412
865.48	14400
865.612	14480
865.743	14617
865.875	14476
866.006	14461
866.137	14495
866.269	14347
866.4	14431
866.531	14415
866.662	14298
866.793	14408
866.924	14381
867.055	14415
867.186	14434
867.317	14362
867.448	14324
867.579	14423
867.71	14389
867.841	14415
867.972	14393
868.103	14400
868.233	14431
868.364	14396
868.495	14438
868.625	14644
868.756	14705
868.886	14598
869.017	14705
869.147	14845
869.278	14750
869.408	14716
869.539	14701
869.669	14811
869.799	14804
869.929	14880
870.06	14788
870.19	15032
870.32	14986
870.45	14971
870.58	15108
870.71	15207
870.84	15207
870.97	15184
871.1	15074
871.23	15237
871.36	15279
871.489	15138
871.619	15199
871.749	15222
871.879	15317
872.008	15393
872.138	15249
872.267	15237
872.397	15112
872.526	15039
872.656	15039
872.785	15142
872.915	15397
873.044	15393
873.173	15275
873.303	15313
873.432	15412
873.561	15378
873.69	15435
873.819	15408
873.948	15473
874.077	15298
874.206	15275
874.335	15199
874.464	15424
874.593	15686
874.722	15599
874.851	15690
874.979	15671
875.108	15686
875.237	15606
875.365	15584
875.494	15667
875.623	15732
875.751	15637
875.88	15675
876.008	15789
876.136	15827
876.265	16013
876.393	16090
876.521	16135
876.65	16128
876.778	16109
876.906	15964
877.034	15937
877.162	15949
877.29	15991
877.418	15930
877.546	16040
877.674	16051
877.802	16067
877.93	16147
878.058	16017
878.185	15960
878.313	16078
878.441	16040
878.568	15861
878.696	16032
878.824	16059
878.951	16055
879.079	16276
879.206	16466
879.333	16268
879.461	16135
879.588	16173
879.715	16280
879.842	16436
879.97	16097
880.097	15907
880.224	15979
880.351	15911
880.478	15949
880.605	15972
880.732	15941
880.859	16109
880.986	15934
881.112	15937
881.239	15778
881.366	15698
881.493	15625
881.619	15606
881.746	15564
881.872	15652
881.999	15542
882.125	15545
882.252	15584
882.378	15603
882.505	15686
882.631	15500
882.757	15416
882.883	15405
883.01	15435
883.136	15367
883.262	15146
883.388	15222
883.514	15363
883.64	15401
883.766	15287
883.892	15195
884.018	15154
884.143	15348
884.269	15412
884.395	15089
884.52	15039
884.646	15138
884.772	15097
884.897	14986
885.023	15119
885.148	15203
885.274	15222
885.399	15192
885.524	15070
885.65	15024
885.775	15135
885.9	15009
886.025	15188
886.15	15116
886.275	14994
886.4	14914
886.525	14994
886.65	14876
886.775	15062
886.9	15077
887.025	15176
887.149	15100
887.274	14834
887.399	14811
887.523	14861
887.648	14853
887.773	14819
887.897	15009
888.021	14872
888.146	14819
888.27	14906
888.395	14971
888.519	14925
888.643	14952
888.767	14956
888.891	14819
889.015	14735
889.139	14750
889.263	14823
889.387	14834
889.511	14868
889.635	15017
889.759	14705
889.883	14750
890.006	14807
890.13	14792
890.254	14693
890.377	14735
890.501	14552
890.624	14511
890.748	14613
890.871	14522
890.995	14358
891.118	14324
891.241	14427
891.364	14457
891.488	14610
891.611	14431
891.734	14370
891.857	14499
891.98	14503
892.103	14457
892.226	14545
892.349	14446
892.471	14419
892.594	14465
892.717	14575
892.839	14434
892.962	14358
893.085	14473
893.207	14522
893.33	14389
893.452	14278
893.575	14575
893.697	14385
893.819	14632
893.941	14678
894.064	14568
894.186	14431
894.308	14389
894.43	14530
894.552	14659
894.674	14610
894.796	14377
894.918	14503
895.04	14400
895.161	14629
895.283	14476
895.405	14541
895.526	14579
895.648	14511
895.769	14629
895.891	14621
896.012	14632
896.134	14655
896.255	14636
896.376	14492
896.498	14659
896.619	14750
896.74	14655
896.861	14564
896.982	14861
897.103	15020
897.224	14918
897.345	14769
897.466	14777
897.587	14845
897.708	14963
897.828	14960
897.949	14872
898.07	14712
898.19	14811
898.311	15074
898.431	14849
898.552	14887
898.672	14948
898.792	15020
898.913	14925
899.033	14861
899.153	14815
899.273	14811
899.393	14735
899.513	14762
899.633	14800
899.753	14891
899.873	14754
899.993	14758
900.113	14792
900.232	14754
900.352	14796
900.472	14785
900.591	14648
900.711	14640
900.83	14682
900.95	14701
901.069	14845
901.189	14632
901.308	14366
901.427	14225
901.546	14290
901.665	14290
901.784	14290
901.904	14161
902.023	14130
902.141	14027
902.26	13814
902.379	13982
902.498	13830
902.617	13868
902.735	13845
902.854	13860
902.973	13761
903.091	13666
903.21	13594
903.328	13594
903.446	13586
903.565	13419
903.683	13548
903.801	13339
903.919	13537
904.038	13400
904.156	13221
904.274	13400
904.392	13259
904.51	13285
904.627	13225
904.745	13324
904.863	13301
904.981	13107
905.098	12973
905.216	12939
905.334	12863
905.451	12905
905.569	12890
905.686	12966
905.803	12890
905.921	12779
906.038	12852
906.155	12738
906.272	12711
906.389	12711
906.506	12563
906.623	12627
906.74	12483
906.857	12429
906.974	12475
907.091	12639
907.208	12722
907.324	12665
907.441	12414
907.557	12380
907.674	12258
907.79	12197
907.907	12273
908.023	12296
908.139	12330
908.256	12220
908.372	12163
908.488	12114
908.604	12121
908.72	11988
908.836	12022
908.952	11954
909.068	12095
909.184	12045
909.3	12091
909.415	12106
909.531	12045
909.647	11874
909.762	11847
909.878	11786
909.993	11726
910.108	11843
910.224	11714
910.339	11707
910.454	11790
910.57	11627
910.685	11665
910.8	11836
910.915	11790
911.03	11699
911.145	11532
911.259	11398
911.374	11448
911.489	11436
911.604	11364
911.718	11261
911.833	11239
911.947	11067
912.062	11098
912.176	11227
912.291	11204
912.405	11220
912.519	11528
912.633	11433
912.748	11345
912.862	11250
912.976	11098
913.09	10995
913.204	11041
913.318	11105
913.431	11178
913.545	11166
913.659	11239
913.772	11102
913.886	11075
914	10995
914.113	11071
914.226	11117
914.34	10976
914.453	10835
914.566	11064
914.68	10930
914.793	10915
914.906	10828
915.019	10691
915.132	10653
915.245	10767
915.358	10748
915.47	10793
915.583	10805
915.696	10759
915.809	10812
915.921	10908
916.034	10714
916.146	10714
916.259	10626
916.371	10786
916.483	10748
916.595	10668
916.708	10725
916.82	10736
916.932	10645
917.044	10618
917.156	10653
917.268	10459
917.38	10542
917.491	10558
917.603	10573
917.715	10603
917.826	10668
917.938	10577
918.049	10436
918.161	10519
918.272	10725
918.384	10660
918.495	10596
918.606	10485
918.717	10356
918.828	10390
918.939	10466
919.05	10318
919.161	10421
919.272	10219
919.383	10272
919.494	10443
919.604	10660
919.715	10481
919.826	10428
919.936	10432
920.047	10550
920.157	10447
920.267	10603
920.378	10500
920.488	10508
920.598	10618
920.708	10820
920.818	10687
920.928	10687
921.038	10733
921.148	10828
921.258	10538
921.368	10436
921.477	10295
921.587	10295
921.697	10116
921.806	10337
921.916	10158
922.025	10055
922.134	9953
922.244	9941
922.353	10067
922.462	9934
922.571	9808
922.68	9637
922.789	9610
922.898	9682
923.007	9709
923.116	9663
923.224	9724
923.333	9644
923.442	9568
923.55	9504
923.659	9542
923.767	9698
923.876	9458
923.984	9652
924.092	9405
924.201	9492
924.309	9564
924.417	9542
924.525	9462
924.633	9393
924.741	10291
924.849	9348
924.956	9454
925.064	9294
925.172	9226
925.279	9382
925.387	9279
925.494	9332
925.602	9439
925.709	9408
925.816	9195
925.924	9348
926.031	9397
926.138	9386
926.245	9367
926.352	9237
926.459	9401
926.566	9424
926.673	9233
926.779	9161
926.886	9207
926.993	9036
927.099	9051
927.206	8899
927.312	8864
927.419	9077
927.525	8994
927.631	9077
927.737	8960
927.843	8872
927.95	8800
928.056	8849
928.162	8925
928.267	8895
928.373	9557
928.479	8956
928.585	8766
928.69	8883
928.796	8914
928.901	8880
929.007	8689
929.112	8819
929.218	8849
929.323	8739
929.428	8727
929.533	8807
929.638	8621
929.743	8731
929.848	8750
929.953	8613
930.058	8678
930.163	8503
930.267	8476
930.372	8663
930.477	8473
930.581	8724
930.685	8621
930.79	8438
930.894	8522
930.998	8469
931.103	8587
931.207	8237
931.311	8172
931.415	8126
931.519	7913
931.623	7909
