Data from test_V78500241_877.txt Node
Date: Fri Mar 25 14:39:49 CST 2022
User: usil
Spectrometer: V785-0024
Trigger mode: 0
Integration Time (sec): 4.000000E-1
Scans to average: 1
Nonlinearity correction enabled: false
Boxcar width: 0
Storing dark spectrum: false
XAxis mode: Wavelengths
Number of Pixels in Spectrum: 1024
>>>>>Begin Spectral Data<<<<<
801.071	25651
801.214	25343
801.356	25331
801.499	25133
801.641	24913
801.783	25015
801.926	24905
802.068	24837
802.211	24707
802.353	24639
802.496	24521
802.638	24410
802.78	24353
802.923	24220
803.065	24323
803.208	24182
803.35	24235
803.492	24330
803.635	24395
803.777	24456
803.919	24391
804.061	24642
804.204	24505
804.346	24361
804.488	24285
804.63	24281
804.773	24121
804.915	24380
805.057	24486
805.199	24319
805.341	24471
805.483	24418
805.626	24483
805.768	24452
805.91	24490
806.052	24608
806.194	24631
806.336	24840
806.478	24646
806.62	24707
806.762	24837
806.904	25270
807.046	25457
807.188	25525
807.33	25753
807.472	25864
807.614	26069
807.756	26442
807.898	26746
808.04	27252
808.182	27899
808.324	28881
808.465	29958
808.607	31171
808.749	32100
808.891	32693
809.033	32784
809.174	31925
809.316	30935
809.458	29802
809.6	28774
809.741	27800
809.883	27176
810.025	26880
810.166	26564
810.308	26065
810.45	26046
810.591	25651
810.733	25422
810.875	25190
811.016	25141
811.158	25057
811.299	25050
811.441	24920
811.582	24943
811.724	24798
811.865	24719
812.007	24688
812.148	24749
812.29	24582
812.431	24772
812.573	24985
812.714	25084
812.855	25137
812.997	25171
813.138	25293
813.279	25107
813.421	25031
813.562	25012
813.703	24852
813.845	24707
813.986	24429
814.127	24308
814.268	24159
814.41	24060
814.551	24068
814.692	24129
814.833	23977
814.974	23961
815.115	23961
815.256	23863
815.397	23821
815.539	23805
815.68	23756
815.821	23619
815.962	23703
816.103	23646
816.244	23535
816.385	23433
816.526	23402
816.666	23242
816.807	22911
816.948	23147
817.089	23178
817.23	23132
817.371	22987
817.512	22995
817.653	23003
817.793	23094
817.934	23117
818.075	23113
818.216	23094
818.356	23018
818.497	22900
818.638	22740
818.778	22675
818.919	22740
819.06	22771
819.2	22824
819.341	22911
819.481	22919
819.622	23022
819.762	23094
819.903	23170
820.043	23136
820.184	22957
820.324	22904
820.465	22930
820.605	23029
820.746	22873
820.886	22812
821.026	22923
821.167	22953
821.307	22927
821.447	22752
821.588	22649
821.728	22691
821.868	22436
822.008	22379
822.149	22188
822.289	22238
822.429	22070
822.569	21903
822.709	21907
822.849	21660
822.99	21701
823.13	21641
823.27	21682
823.41	21545
823.55	21473
823.69	21439
823.83	21564
823.97	21485
824.11	21428
824.25	21336
824.389	21256
824.529	21378
824.669	21310
824.809	21332
824.949	21344
825.089	21291
825.228	21370
825.368	21169
825.508	21203
825.648	21180
825.787	21165
825.927	21222
826.067	20975
826.206	21036
826.346	21108
826.485	21089
826.625	20956
826.765	21176
826.904	21112
827.044	20845
827.183	20781
827.323	20708
827.462	20754
827.601	20727
827.741	20758
827.88	20777
828.02	20663
828.159	20720
828.298	20560
828.437	20724
828.577	20708
828.716	20842
828.855	20705
828.994	20530
829.134	20438
829.273	20492
829.412	20457
829.551	20374
829.69	20324
829.829	20476
829.968	20461
830.107	20526
830.246	20317
830.385	20332
830.524	20339
830.663	20214
830.802	20115
830.941	19967
831.08	20065
831.219	19955
831.357	20100
831.496	20248
831.635	20031
831.774	19947
831.913	19868
832.051	19807
832.19	19898
832.329	19890
832.467	19784
832.606	19677
832.744	19624
832.883	19727
833.022	19715
833.16	19765
833.299	19936
833.437	19875
833.576	20092
833.714	19989
833.852	20050
833.991	20164
834.129	20164
834.267	20145
834.406	20111
834.544	20092
834.682	20062
834.821	20001
834.959	20088
835.097	20005
835.235	19917
835.373	19814
835.511	19738
835.65	19647
835.788	19563
835.926	19491
836.064	19441
836.202	19495
836.34	19624
836.478	19658
836.615	19457
836.753	19548
836.891	19586
837.029	19586
837.167	19449
837.305	19422
837.443	19396
837.58	19430
837.718	19502
837.856	19403
837.993	19308
838.131	19434
838.269	19259
838.406	19354
838.544	19221
838.681	18947
838.819	18985
838.956	18817
839.094	18856
839.231	18844
839.369	19050
839.506	19312
839.643	19225
839.781	18859
839.918	18787
840.055	18890
840.193	18844
840.33	18776
840.467	18734
840.604	18791
840.742	19019
840.879	18730
841.016	18814
841.153	18604
841.29	18901
841.427	18772
841.564	18848
841.701	18722
841.838	18696
841.975	18631
842.112	18665
842.249	18540
842.385	18490
842.522	18795
842.659	18521
842.796	18490
842.933	18467
843.069	18498
843.206	18563
843.343	18620
843.479	18574
843.616	18635
843.752	18445
843.889	18517
844.025	18479
844.162	18410
844.298	18669
844.435	18437
844.571	18555
844.708	18757
844.844	18848
844.98	19000
845.117	19232
845.253	19343
845.389	19894
845.525	21085
845.661	22847
845.798	24985
845.934	26994
846.07	27751
846.206	27542
846.342	26240
846.478	23707
846.614	21580
846.75	20145
846.886	19270
847.022	18954
847.158	18475
847.294	18350
847.429	18216
847.565	18068
847.701	18247
847.837	17726
847.972	17623
848.108	17813
848.244	17771
848.379	17581
848.515	17501
848.65	17395
848.786	17440
848.921	17512
849.057	17554
849.192	17551
849.328	17448
849.463	17436
849.598	17440
849.734	17391
849.869	17242
850.004	17273
850.14	17220
850.275	17189
850.41	16980
850.545	17086
850.68	17086
850.815	17197
850.95	17105
851.085	17292
851.22	17315
851.355	17143
851.49	17166
851.625	17246
851.76	17181
851.895	17041
852.03	17056
852.165	17170
852.299	17216
852.434	17246
852.569	17258
852.703	17132
852.838	17334
852.973	17379
853.107	17273
853.242	17143
853.376	17052
853.511	17037
853.645	17018
853.78	17235
853.914	17090
854.048	17075
854.183	17045
854.317	17151
854.451	17383
854.585	17178
854.72	17083
854.854	17140
854.988	17064
855.122	17052
855.256	16999
855.39	16991
855.524	17155
855.658	17064
855.792	17033
855.926	17014
856.06	17109
856.194	17041
856.327	17143
856.461	16889
856.595	16972
856.729	17048
856.862	17067
856.996	17033
857.13	17117
857.263	17143
857.397	17010
857.53	16904
857.664	17117
857.797	17060
857.931	17109
858.064	16984
858.197	17124
858.331	16953
858.464	16790
858.597	16778
858.731	16908
858.864	16850
858.997	16896
859.13	16942
859.263	17029
859.396	17113
859.529	16869
859.662	16786
859.795	16972
859.928	16938
860.061	17010
860.194	17060
860.327	17014
860.46	16824
860.592	17048
860.725	17143
860.858	17060
860.99	16873
861.123	16809
861.256	16904
861.388	16904
861.521	17486
861.653	16793
861.786	16679
861.918	16744
862.05	16767
862.183	16904
862.315	16957
862.447	16995
862.58	16957
862.712	16660
862.844	16611
862.976	16706
863.108	16725
863.24	17086
863.372	16523
863.504	16694
863.636	16607
863.768	16706
863.9	16675
864.032	16527
864.164	16687
864.296	16565
864.428	16744
864.559	16733
864.691	16759
864.823	16675
864.954	16542
865.086	16542
865.217	16561
865.349	16542
865.48	16618
865.612	16592
865.743	16717
865.875	16596
866.006	16611
866.137	16698
866.269	16546
866.4	16508
866.531	16618
866.662	16523
866.793	16538
866.924	16531
867.055	16603
867.186	16455
867.317	16474
867.448	16603
867.579	16489
867.71	16428
867.841	16417
867.972	16523
868.103	16500
868.233	16626
868.364	16607
868.495	16596
868.625	16752
868.756	16927
868.886	16691
869.017	16759
869.147	16972
869.278	16934
869.408	16675
869.539	16797
869.669	17037
869.799	16862
869.929	16961
870.06	16892
870.19	17060
870.32	17098
870.45	17212
870.58	17189
870.71	17330
870.84	17307
870.97	17239
871.1	17292
871.23	17452
871.36	17311
871.489	17368
871.619	17330
871.749	17402
871.879	17493
872.008	17589
872.138	17414
872.267	17444
872.397	17220
872.526	17220
872.656	17326
872.785	17334
872.915	17516
873.044	17501
873.173	17558
873.303	17573
873.432	17524
873.561	17570
873.69	17577
873.819	17524
873.948	17611
874.077	17653
874.206	17566
874.335	17611
874.464	17668
874.593	17904
874.722	17851
874.851	17901
874.979	17889
875.108	17893
875.237	17908
875.365	17904
875.494	17912
875.623	17939
875.751	18034
875.88	17969
876.008	18148
876.136	18277
876.265	18597
876.393	18601
876.521	18509
876.65	18559
876.778	18502
876.906	18536
877.034	18429
877.162	18460
877.29	18544
877.418	18677
877.546	18642
877.674	18665
877.802	18726
877.93	18798
878.058	18715
878.185	18821
878.313	18943
878.441	19148
878.568	19088
878.696	19384
878.824	19594
878.951	20111
879.079	20640
879.206	21450
879.333	22086
879.461	22573
879.588	23025
879.715	23105
879.842	22930
879.97	22090
880.097	21192
880.224	20590
880.351	20157
880.478	19917
880.605	19738
880.732	19495
880.859	19723
880.986	19434
881.112	19483
881.239	19278
881.366	19019
881.493	19042
881.619	19031
881.746	19004
881.872	19065
881.999	18970
882.125	18977
882.252	19088
882.378	19175
882.505	19282
882.631	19046
882.757	18894
882.883	19038
883.01	18973
883.136	18928
883.262	18730
883.388	18787
883.514	18840
883.64	18882
883.766	18848
883.892	18700
884.018	18772
884.143	18924
884.269	18863
884.395	18734
884.52	18532
884.646	18677
884.772	18532
884.897	18391
885.023	18540
885.148	18585
885.274	18650
885.399	18593
885.524	18494
885.65	18437
885.775	18346
885.9	18384
886.025	18574
886.15	18296
886.275	18213
886.4	18007
886.525	18125
886.65	18015
886.775	18121
886.9	18163
887.025	18201
887.149	18068
887.274	17790
887.399	17699
887.523	17684
887.648	17452
887.773	17665
887.897	17657
888.021	17661
888.146	17410
888.27	17589
888.395	17627
888.519	17676
888.643	17554
888.767	17547
888.891	17315
889.015	17303
889.139	17349
889.263	17197
889.387	17250
889.511	17417
889.635	17417
889.759	17181
889.883	17200
890.006	17227
890.13	17318
890.254	17083
890.377	17174
890.501	16934
890.624	16900
890.748	17113
890.871	16915
890.995	16759
891.118	16729
891.241	16740
891.364	16767
891.488	16805
891.611	16774
891.734	16755
891.857	16706
891.98	16702
892.103	16698
892.226	16854
892.349	16717
892.471	16493
892.594	16710
892.717	16531
892.839	16630
892.962	16637
893.085	16634
893.207	16634
893.33	16459
893.452	16504
893.575	16634
893.697	16466
893.819	16615
893.941	16793
894.064	16748
894.186	16466
894.308	16565
894.43	16584
894.552	16755
894.674	16573
894.796	16554
894.918	16493
895.04	16500
895.161	16584
895.283	16558
895.405	16428
895.526	16519
895.648	16531
895.769	16485
895.891	16516
896.012	16577
896.134	16713
896.255	16603
896.376	16550
896.498	16497
896.619	16634
896.74	16538
896.861	16660
896.982	16793
897.103	17010
897.224	16858
897.345	16786
897.466	16793
897.587	16820
897.708	16923
897.828	16809
897.949	16782
898.07	16653
898.19	16828
898.311	16908
898.431	16835
898.552	16816
898.672	16987
898.792	17048
898.913	16881
899.033	16790
899.153	16767
899.273	16668
899.393	16687
899.513	16771
899.633	16767
899.753	16717
899.873	16660
899.993	16755
900.113	16641
900.232	16725
900.352	16702
900.472	16607
900.591	16519
900.711	16497
900.83	16466
900.95	16630
901.069	16679
901.189	16436
901.308	16230
901.427	16181
901.546	16154
901.665	16181
901.784	16147
901.904	16017
902.023	15994
902.141	15713
902.26	15778
902.379	15755
902.498	15694
902.617	15686
902.735	15732
902.854	15641
902.973	15534
903.091	15279
903.21	15332
903.328	15325
903.446	15161
903.565	15165
903.683	15043
903.801	15039
903.919	15062
904.038	15070
904.156	14899
904.274	15017
904.392	14944
904.51	14941
904.627	14960
904.745	14952
904.863	15043
904.981	14739
905.098	14686
905.216	14476
905.334	14659
905.451	14571
905.569	14526
905.686	14552
905.803	14556
905.921	14366
906.038	14488
906.155	14381
906.272	14328
906.389	14252
906.506	14088
906.623	14221
906.74	14039
906.857	13947
906.974	14092
907.091	14145
907.208	14263
907.324	14096
907.441	13993
907.557	13871
907.674	13788
907.79	13734
907.907	13784
908.023	13803
908.139	13871
908.256	13738
908.372	13795
908.488	13685
908.604	13571
908.72	13578
908.836	13556
908.952	13597
909.068	13643
909.184	13651
909.3	13632
909.415	13613
909.531	13651
909.647	13320
909.762	13346
909.878	13266
909.993	13304
910.108	13301
910.224	13213
910.339	13346
910.454	13152
910.57	13103
910.685	13046
910.8	13407
910.915	13316
911.03	13187
911.145	12924
911.259	12901
911.374	13031
911.489	12905
911.604	12757
911.718	12677
911.833	12741
911.947	12589
912.062	12540
912.176	12681
912.291	12741
912.405	12711
912.519	12977
912.633	12871
912.748	12757
912.862	12707
912.976	12597
913.09	12372
913.204	12540
913.318	12502
913.431	12658
913.545	12620
913.659	12665
913.772	12582
913.886	12414
914	12441
914.113	12540
914.226	12612
914.34	12555
914.453	12330
914.566	12471
914.68	12365
914.793	12292
914.906	12175
915.019	12110
915.132	12003
915.245	12144
915.358	12148
915.47	12079
915.583	12140
915.696	12148
915.809	12342
915.921	12300
916.034	12079
916.146	11992
916.259	12057
916.371	12159
916.483	12133
916.595	12076
916.708	12026
916.82	12136
916.932	12026
917.044	12019
917.156	12007
917.268	11843
917.38	11973
917.491	11901
917.603	11813
917.715	11980
917.826	11969
917.938	11942
918.049	11745
918.161	11916
918.272	11931
918.384	11939
918.495	11904
918.606	11707
918.717	11558
918.828	11779
918.939	11733
919.05	11623
919.161	11623
919.272	11512
919.383	11509
919.494	11794
919.604	11923
919.715	11684
919.826	11638
919.936	11699
920.047	11771
920.157	11691
920.267	11824
920.378	11672
920.488	11718
920.598	11885
920.708	12026
920.818	11870
920.928	11817
921.038	12019
921.148	11961
921.258	11661
921.368	11627
921.477	11497
921.587	11539
921.697	11372
921.806	11501
921.916	11452
922.025	11273
922.134	11216
922.244	11140
922.353	11197
922.462	11064
922.571	10972
922.68	10858
922.789	10831
922.898	10858
923.007	10786
923.116	10873
923.224	10839
923.333	10767
923.442	10687
923.55	10656
923.659	10653
923.767	10710
923.876	10717
923.984	10733
924.092	10622
924.201	10675
924.309	10710
924.417	10672
924.525	10687
924.633	10618
924.741	11452
924.849	10474
924.956	10577
925.064	10436
925.172	10348
925.279	10325
925.387	10390
925.494	10542
925.602	10603
925.709	10440
925.816	10405
925.924	10451
926.031	10481
926.138	10436
926.245	10432
926.352	10352
926.459	10489
926.566	10531
926.673	10284
926.779	10173
926.886	10265
926.993	10135
927.099	10154
927.206	10090
927.312	10051
927.419	10162
927.525	10093
927.631	10090
927.737	10025
927.843	9956
927.95	9892
928.056	9983
928.162	9991
928.267	10051
928.373	10535
928.479	10040
928.585	9850
928.69	9926
928.796	9911
928.901	9865
929.007	9728
929.112	9865
929.218	9800
929.323	9686
929.428	9778
929.533	9922
929.638	9766
929.743	9762
929.848	9850
929.953	9751
930.058	9663
930.163	9488
930.267	9557
930.372	9720
930.477	9568
930.581	9705
930.685	9568
930.79	9428
930.894	9485
930.998	9424
931.103	9458
931.207	9154
931.311	9138
931.415	9070
931.519	8845
931.623	8826
