Data from test_V78500241_3181.txt Node
Date: Fri Mar 25 14:55:51 CST 2022
User: usil
Spectrometer: V785-0024
Trigger mode: 0
Integration Time (sec): 4.000000E-1
Scans to average: 1
Nonlinearity correction enabled: false
Boxcar width: 0
Storing dark spectrum: false
XAxis mode: Wavelengths
Number of Pixels in Spectrum: 1024
>>>>>Begin Spectral Data<<<<<
801.071	22082
801.214	22051
801.356	21701
801.499	21633
801.641	21412
801.783	21424
801.926	21576
802.068	21405
802.211	21306
802.353	21184
802.496	21055
802.638	20921
802.78	20941
802.923	20735
803.065	20800
803.208	20651
803.35	20785
803.492	20849
803.635	20815
803.777	20921
803.919	20849
804.061	21089
804.204	20815
804.346	20727
804.488	20503
804.63	20587
804.773	20621
804.915	20674
805.057	20731
805.199	20549
805.341	20674
805.483	20762
805.626	20686
805.768	20545
805.91	20750
806.052	20617
806.194	20632
806.336	20765
806.478	20602
806.62	20518
806.762	20674
806.904	20842
807.046	21077
807.188	21013
807.33	20998
807.472	21074
807.614	20739
807.756	20933
807.898	20758
808.04	20575
808.182	20720
808.324	20769
808.465	20845
808.607	20937
808.749	20994
808.891	21009
809.033	21100
809.174	21039
809.316	21032
809.458	20971
809.6	20887
809.741	21024
809.883	21184
810.025	21146
810.166	21214
810.308	21173
810.45	21066
810.591	20998
810.733	20925
810.875	20754
811.016	20609
811.158	20762
811.299	20807
811.441	20899
811.582	20883
811.724	20746
811.865	20788
812.007	20705
812.148	20648
812.29	20712
812.431	20994
812.573	21070
812.714	21119
812.855	21321
812.997	21389
813.138	21580
813.279	21428
813.421	21283
813.562	21252
813.703	21047
813.845	20857
813.986	20609
814.127	20511
814.268	20377
814.41	20286
814.551	20263
814.692	20381
814.833	20161
814.974	20332
815.115	20267
815.256	20134
815.397	20130
815.539	20214
815.68	20058
815.821	19989
815.962	20172
816.103	19940
816.244	19875
816.385	19727
816.526	19761
816.666	19677
816.807	19457
816.948	19575
817.089	19609
817.23	19487
817.371	19575
817.512	19445
817.653	19415
817.793	19388
817.934	19464
818.075	19491
818.216	19392
818.356	19396
818.497	19274
818.638	19000
818.778	19046
818.919	19133
819.06	19270
819.2	19221
819.341	19358
819.481	19339
819.622	19502
819.762	19643
819.903	19582
820.043	19438
820.184	19308
820.324	19419
820.465	19381
820.605	19453
820.746	19381
820.886	19198
821.026	19426
821.167	19384
821.307	19502
821.447	19441
821.588	19247
821.728	19122
821.868	19061
822.008	18738
822.149	18837
822.289	18726
822.429	18574
822.569	18570
822.709	18448
822.849	18273
822.99	18369
823.13	18308
823.27	18243
823.41	18167
823.55	18155
823.69	18106
823.83	18152
823.97	18011
824.11	17870
824.25	17950
824.389	17988
824.529	17977
824.669	17870
824.809	17980
824.949	18019
825.089	17977
825.228	17901
825.368	17741
825.508	17794
825.648	17680
825.787	17710
825.927	17691
826.067	17619
826.206	17589
826.346	17668
826.485	17646
826.625	17600
826.765	17661
826.904	17619
827.044	17471
827.183	17433
827.323	17353
827.462	17493
827.601	17421
827.741	17387
827.88	17376
828.02	17197
828.159	17193
828.298	17356
828.437	17402
828.577	17315
828.716	17493
828.855	17326
828.994	17090
829.134	17181
829.273	17159
829.412	17048
829.551	17155
829.69	17056
829.829	17208
829.968	17231
830.107	17121
830.246	17128
830.385	16991
830.524	17029
830.663	16934
830.802	16908
830.941	16752
831.08	16630
831.219	16793
831.357	16755
831.496	16953
831.635	16672
831.774	16691
831.913	16626
832.051	16569
832.19	16523
832.329	16630
832.467	16447
832.606	16390
832.744	16443
832.883	16409
833.022	16447
833.16	16409
833.299	16421
833.437	16455
833.576	16428
833.714	16402
833.852	16481
833.991	16519
834.129	16679
834.267	16470
834.406	16443
834.544	16645
834.682	16466
834.821	16424
834.959	16660
835.097	16459
835.235	16596
835.373	16455
835.511	16554
835.65	16299
835.788	16443
835.926	16196
836.064	16261
836.202	16207
836.34	16390
836.478	16360
836.615	16440
836.753	16337
836.891	16436
837.029	16474
837.167	16428
837.305	16295
837.443	16295
837.58	16185
837.718	16314
837.856	16207
837.993	16215
838.131	16162
838.269	16086
838.406	16139
838.544	16074
838.681	16071
838.819	15949
838.956	15770
839.094	15873
839.231	15884
839.369	15968
839.506	16284
839.643	15983
839.781	15880
839.918	15842
840.055	15797
840.193	15804
840.33	15778
840.467	15842
840.604	15732
840.742	16040
840.879	15728
841.016	15732
841.153	15667
841.29	15880
841.427	15785
841.564	15892
841.701	15785
841.838	15800
841.975	15637
842.112	15728
842.249	15561
842.385	15580
842.522	15671
842.659	15580
842.796	15507
842.933	15572
843.069	15526
843.206	15469
843.343	15648
843.479	15584
843.616	15656
843.752	15405
843.889	15412
844.025	15466
844.162	15252
844.298	15466
844.435	15351
844.571	15329
844.708	15386
844.844	15481
844.98	15549
845.117	15530
845.253	15302
845.389	15230
845.525	15237
845.661	15222
845.798	15207
845.934	15207
846.07	15112
846.206	15047
846.342	15279
846.478	15176
846.614	14952
846.75	14861
846.886	14960
847.022	15013
847.158	14868
847.294	14933
847.429	14967
847.565	14937
847.701	15100
847.837	14511
847.972	14693
848.108	14716
848.244	14701
848.379	14606
848.515	14514
848.65	14575
848.786	14541
848.921	14568
849.057	14674
849.192	14621
849.328	14507
849.463	14613
849.598	14545
849.734	14469
849.869	14370
850.004	14396
850.14	14320
850.275	14351
850.41	14214
850.545	14240
850.68	14259
850.815	14233
850.95	14294
851.085	14545
851.22	14351
851.355	14347
851.49	14343
851.625	14187
851.76	14252
851.895	14180
852.03	14123
852.165	14320
852.299	14328
852.434	14484
852.569	14339
852.703	14423
852.838	14423
852.973	14526
853.107	14522
853.242	14355
853.376	14271
853.511	14043
853.645	14115
853.78	14267
853.914	14069
854.048	14103
854.183	14149
854.317	14202
854.451	14423
854.585	14191
854.72	14180
854.854	14286
854.988	14153
855.122	14134
855.256	14054
855.39	14244
855.524	14320
855.658	14290
855.792	14161
855.926	14214
856.06	14275
856.194	14339
856.327	14248
856.461	14107
856.595	14115
856.729	14210
856.862	14214
856.996	14271
857.13	14317
857.263	14278
857.397	14256
857.53	14119
857.664	14336
857.797	14317
857.931	14320
858.064	14183
858.197	14218
858.331	14214
858.464	14111
858.597	14130
858.731	14180
858.864	14180
858.997	14252
859.13	14244
859.263	14313
859.396	14298
859.529	14259
859.662	14195
859.795	14164
859.928	14206
860.061	14317
860.194	14358
860.327	14157
860.46	14153
860.592	14271
860.725	14332
860.858	14423
860.99	14237
861.123	14206
861.256	14225
861.388	14168
861.521	14952
861.653	14039
861.786	14103
861.918	14081
862.05	14043
862.183	14111
862.315	14229
862.447	14248
862.58	14225
862.712	13993
862.844	13909
862.976	13951
863.108	14031
863.24	14351
863.372	13849
863.504	14020
863.636	13978
863.768	14024
863.9	14084
864.032	14008
864.164	13993
864.296	13986
864.428	14092
864.559	14069
864.691	14035
864.823	14027
864.954	14039
865.086	14126
865.217	13997
865.349	13906
865.48	13970
865.612	13959
865.743	14119
865.875	13993
866.006	13959
866.137	14001
866.269	13947
866.4	13989
866.531	14012
866.662	13879
866.793	13871
866.924	13898
867.055	14005
867.186	13978
867.317	13883
867.448	13913
867.579	14005
867.71	13890
867.841	13909
867.972	13974
868.103	13997
868.233	13909
868.364	13986
868.495	13959
868.625	14077
868.756	14351
868.886	14199
869.017	14157
869.147	14271
869.278	14339
869.408	14214
869.539	14225
869.669	14336
869.799	14210
869.929	14290
870.06	14339
870.19	14552
870.32	14423
870.45	14617
870.58	14678
870.71	14640
870.84	14720
870.97	14629
871.1	14594
871.23	14792
871.36	14785
871.489	14739
871.619	14788
871.749	14868
871.879	14876
872.008	14963
872.138	14845
872.267	14758
872.397	14663
872.526	14644
872.656	14545
872.785	14712
872.915	14853
873.044	14910
873.173	14842
873.303	14807
873.432	14887
873.561	14967
873.69	14792
873.819	14872
873.948	14868
874.077	14861
874.206	14853
874.335	14785
874.464	15036
874.593	15039
874.722	15077
874.851	15222
874.979	15222
875.108	15283
875.237	15150
875.365	15165
875.494	15154
875.623	15317
875.751	15184
875.88	15165
876.008	15321
876.136	15336
876.265	15542
876.393	15770
876.521	15770
876.65	15603
876.778	15618
876.906	15496
877.034	15530
877.162	15534
877.29	15500
877.418	15580
877.546	15507
877.674	15549
877.802	15564
877.93	15690
878.058	15545
878.185	15450
878.313	15557
878.441	15603
878.568	15412
878.696	15431
878.824	15553
878.951	15709
879.079	15838
879.206	15991
879.333	15759
879.461	15690
879.588	15660
879.715	15755
879.842	15873
879.97	15713
880.097	15557
880.224	15428
880.351	15500
880.478	15420
880.605	15393
880.732	15416
880.859	15584
880.986	15485
881.112	15450
881.239	15268
881.366	15279
881.493	15097
881.619	15165
881.746	15135
881.872	15199
881.999	15169
882.125	15100
882.252	15100
882.378	15119
882.505	15230
882.631	15089
882.757	14914
882.883	14982
883.01	14971
883.136	14876
883.262	14830
883.388	14777
883.514	14963
883.64	14944
883.766	14826
883.892	14659
884.018	14746
884.143	14899
884.269	14948
884.395	14686
884.52	14701
884.646	14727
884.772	14583
884.897	14461
885.023	14598
885.148	14663
885.274	14807
885.399	14693
885.524	14712
885.65	14659
885.775	14644
885.9	14613
886.025	14731
886.15	14735
886.275	14579
886.4	14492
886.525	14518
886.65	14545
886.775	14488
886.9	14682
887.025	14842
887.149	14640
887.274	14446
887.399	14408
887.523	14393
887.648	14374
887.773	14343
887.897	14530
888.021	14488
888.146	14461
888.27	14488
888.395	14587
888.519	14522
888.643	14473
888.767	14526
888.891	14419
889.015	14237
889.139	14267
889.263	14358
889.387	14442
889.511	14590
889.635	14446
889.759	14271
889.883	14275
890.006	14427
890.13	14400
890.254	14229
890.377	14374
890.501	14187
890.624	14100
890.748	14161
890.871	14081
890.995	13955
891.118	13959
891.241	14054
891.364	14119
891.488	14153
891.611	13989
891.734	14054
891.857	14046
891.98	14035
892.103	14221
892.226	14073
892.349	13944
892.471	13936
892.594	13970
892.717	14027
892.839	14027
892.962	14054
893.085	13997
893.207	13963
893.33	13879
893.452	13967
893.575	14103
893.697	14008
893.819	14180
893.941	14263
894.064	14180
894.186	14001
894.308	14005
894.43	14176
894.552	14259
894.674	14107
894.796	13967
894.918	14134
895.04	14001
895.161	14161
895.283	14229
895.405	14012
895.526	14126
895.648	14123
895.769	14214
895.891	14134
896.012	14180
896.134	14309
896.255	14077
896.376	14195
896.498	14157
896.619	14294
896.74	14244
896.861	14309
896.982	14575
897.103	14769
897.224	14473
897.345	14355
897.466	14446
897.587	14461
897.708	14575
897.828	14438
897.949	14431
898.07	14294
898.19	14412
898.311	14625
898.431	14575
898.552	14568
898.672	14598
898.792	14708
898.913	14617
899.033	14450
899.153	14309
899.273	14298
899.393	14317
899.513	14431
899.633	14556
899.753	14328
899.873	14374
899.993	14423
900.113	14419
900.232	14450
900.352	14396
900.472	14415
900.591	14168
900.711	14320
900.83	14282
900.95	14278
901.069	14366
901.189	14142
901.308	13989
901.427	13932
901.546	14005
901.665	13951
901.784	14005
901.904	13727
902.023	13689
902.141	13548
902.26	13472
902.379	13624
902.498	13449
902.617	13544
902.735	13502
902.854	13537
902.973	13464
903.091	13179
903.21	13236
903.328	13266
903.446	13156
903.565	13095
903.683	13118
903.801	12935
903.919	13050
904.038	13141
904.156	12913
904.274	13019
904.392	12943
904.51	12859
904.627	12852
904.745	12890
904.863	13012
904.981	12745
905.098	12665
905.216	12517
905.334	12623
905.451	12555
905.569	12544
905.686	12639
905.803	12532
905.921	12502
906.038	12540
906.155	12429
906.272	12361
906.389	12376
906.506	12205
906.623	12228
906.74	12155
906.857	12091
906.974	12155
907.091	12292
907.208	12273
907.324	12251
907.441	12140
907.557	11923
907.674	11980
907.79	11813
907.907	11859
908.023	11946
908.139	11984
908.256	11851
908.372	11847
908.488	11866
908.604	11741
908.72	11745
908.836	11688
908.952	11611
909.068	11767
909.184	11786
909.3	11695
909.415	11779
909.531	11630
909.647	11440
909.762	11497
909.878	11402
909.993	11417
910.108	11433
910.224	11459
910.339	11478
910.454	11398
910.57	11360
910.685	11242
910.8	11573
910.915	11512
911.03	11337
911.145	11170
911.259	11136
911.374	11174
911.489	11014
911.604	11064
911.718	10942
911.833	11083
911.947	10824
912.062	10790
912.176	10919
912.291	10919
912.405	10885
912.519	11075
912.633	11117
912.748	11006
912.862	10934
912.976	10778
913.09	10656
913.204	10748
913.318	10847
913.431	10930
913.545	10873
913.659	10896
913.772	10740
913.886	10744
914	10641
914.113	10850
914.226	10839
914.34	10790
914.453	10596
914.566	10782
914.68	10592
914.793	10569
914.906	10443
915.019	10424
915.132	10333
915.245	10424
915.358	10352
915.47	10440
915.583	10485
915.696	10508
915.809	10592
915.921	10607
916.034	10436
916.146	10371
916.259	10322
916.371	10405
916.483	10440
916.595	10394
916.708	10405
916.82	10402
916.932	10303
917.044	10356
917.156	10253
917.268	10265
917.38	10230
917.491	10238
917.603	10253
917.715	10329
917.826	10363
917.938	10265
918.049	10188
918.161	10318
918.272	10424
918.384	10436
918.495	10329
918.606	10166
918.717	10116
918.828	10200
918.939	10177
919.05	10059
919.161	10067
919.272	9835
919.383	9998
919.494	10265
919.604	10356
919.715	10158
919.826	10082
919.936	10147
920.047	10211
920.157	10162
920.267	10386
920.378	10196
920.488	10101
920.598	10329
920.708	10523
920.818	10375
920.928	10325
921.038	10535
921.148	10436
921.258	10128
921.368	10059
921.477	10063
921.587	9998
921.697	9865
921.806	10044
921.916	9888
922.025	9751
922.134	9755
922.244	9675
922.353	9800
922.462	9618
922.571	9587
922.68	9450
922.789	9336
922.898	9443
923.007	9340
923.116	9439
923.224	9447
923.333	9466
923.442	9260
923.55	9264
923.659	9340
923.767	9439
923.876	9214
923.984	9275
924.092	9287
924.201	9359
924.309	9256
924.417	9249
924.525	9207
924.633	9294
924.741	10105
924.849	8998
924.956	9211
925.064	9074
925.172	9024
925.279	9032
925.387	9108
925.494	9062
925.602	9169
925.709	9138
925.816	8948
925.924	9100
926.031	9154
926.138	9058
926.245	9146
926.352	8998
926.459	9199
926.566	9180
926.673	8982
926.779	9009
926.886	8967
926.993	8819
927.099	8785
927.206	8754
927.312	8792
927.419	8876
927.525	8781
927.631	8876
927.737	8716
927.843	8689
927.95	8583
928.056	8651
928.162	8651
928.267	8735
928.373	9180
928.479	8849
928.585	8530
928.69	8636
928.796	8766
928.901	8648
929.007	8465
929.112	8617
929.218	8549
929.323	8495
929.428	8484
929.533	8640
929.638	8499
929.743	8469
929.848	8533
929.953	8495
930.058	8396
930.163	8271
930.267	8259
930.372	8423
930.477	8221
930.581	8507
930.685	8339
930.79	8191
930.894	8225
930.998	8168
931.103	8317
931.207	8058
931.311	7993
931.415	7959
931.519	7746
931.623	7776
