Data from test_V78500241_1437.txt Node
Date: Fri Mar 25 14:43:43 CST 2022
User: usil
Spectrometer: V785-0024
Trigger mode: 0
Integration Time (sec): 4.000000E-1
Scans to average: 1
Nonlinearity correction enabled: false
Boxcar width: 0
Storing dark spectrum: false
XAxis mode: Wavelengths
Number of Pixels in Spectrum: 1024
>>>>>Begin Spectral Data<<<<<
801.071	22398
801.214	22325
801.356	22124
801.499	22051
801.641	21736
801.783	21679
801.926	21835
802.068	21686
802.211	21614
802.353	21614
802.496	21359
802.638	21260
802.78	21146
802.923	21188
803.065	21089
803.208	20948
803.35	21123
803.492	21264
803.635	21230
803.777	21066
803.919	21180
804.061	21507
804.204	21108
804.346	21116
804.488	20906
804.63	21104
804.773	21017
804.915	21085
805.057	21173
805.199	20979
805.341	21108
805.483	21283
805.626	21188
805.768	20963
805.91	21066
806.052	21154
806.194	21020
806.336	21207
806.478	21116
806.62	20971
806.762	21116
806.904	21154
807.046	21454
807.188	21458
807.33	21302
807.472	21439
807.614	21367
807.756	21336
807.898	21302
808.04	21154
808.182	21294
808.324	21283
808.465	21435
808.607	21542
808.749	21713
808.891	21759
809.033	21736
809.174	21705
809.316	21564
809.458	21622
809.6	21648
809.741	21618
809.883	21583
810.025	21739
810.166	21667
810.308	21652
810.45	21686
810.591	21511
810.733	21488
810.875	21329
811.016	21116
811.158	21241
811.299	21294
811.441	21397
811.582	21291
811.724	21211
811.865	21192
812.007	21310
812.148	21165
812.29	21241
812.431	21408
812.573	21553
812.714	21530
812.855	21701
812.997	21804
813.138	22025
813.279	21797
813.421	21644
813.562	21603
813.703	21412
813.845	21408
813.986	21214
814.127	20948
814.268	20861
814.41	20933
814.551	20754
814.692	20895
814.833	20735
814.974	20861
815.115	20800
815.256	20636
815.397	20606
815.539	20743
815.68	20602
815.821	20396
815.962	20549
816.103	20431
816.244	20259
816.385	20111
816.526	20130
816.666	20103
816.807	19936
816.948	20088
817.089	20005
817.23	19917
817.371	19967
817.512	19986
817.653	19936
817.793	19986
817.934	19906
818.075	19902
818.216	19970
818.356	19849
818.497	19887
818.638	19487
818.778	19655
818.919	19632
819.06	19643
819.2	19685
819.341	19616
819.481	19761
819.622	19936
819.762	20065
819.903	20126
820.043	19875
820.184	19913
820.324	19822
820.465	19894
820.605	19902
820.746	19864
820.886	19788
821.026	19811
821.167	19704
821.307	19986
821.447	19784
821.588	19666
821.728	19563
821.868	19430
822.008	19407
822.149	19278
822.289	19244
822.429	19042
822.569	18970
822.709	18894
822.849	18825
822.99	18688
823.13	18726
823.27	18821
823.41	18513
823.55	18578
823.69	18616
823.83	18593
823.97	18559
824.11	18422
824.25	18319
824.389	18350
824.529	18327
824.669	18429
824.809	18521
824.949	18380
825.089	18426
825.228	18319
825.368	18194
825.508	18125
825.648	18159
825.787	18197
825.927	18235
826.067	18129
826.206	18144
826.346	18247
826.485	18220
826.625	18064
826.765	18235
826.904	18159
827.044	17973
827.183	17942
827.323	17809
827.462	17847
827.601	17840
827.741	17794
827.88	17901
828.02	17630
828.159	17752
828.298	17813
828.437	17916
828.577	17828
828.716	18064
828.855	17813
828.994	17611
829.134	17566
829.273	17752
829.412	17581
829.551	17512
829.69	17551
829.829	17638
829.968	17638
830.107	17570
830.246	17646
830.385	17425
830.524	17402
830.663	17398
830.802	17261
830.941	17181
831.08	17220
831.219	17254
831.357	17326
831.496	17406
831.635	17155
831.774	17159
831.913	17018
832.051	17128
832.19	17037
832.329	17037
832.467	16927
832.606	16736
832.744	16850
832.883	16915
833.022	16934
833.16	16953
833.299	16896
833.437	16957
833.576	17052
833.714	16904
833.852	17033
833.991	17022
834.129	17086
834.267	17003
834.406	16976
834.544	17048
834.682	16976
834.821	16923
834.959	17166
835.097	16862
835.235	16980
835.373	16938
835.511	16980
835.65	16812
835.788	16847
835.926	16668
836.064	16565
836.202	16778
836.34	16889
836.478	16904
836.615	16866
836.753	16934
836.891	16911
837.029	16923
837.167	16828
837.305	16904
837.443	16809
837.58	16698
837.718	16740
837.856	16706
837.993	16694
838.131	16778
838.269	16607
838.406	16664
838.544	16527
838.681	16363
838.819	16325
838.956	16242
839.094	16272
839.231	16268
839.369	16394
839.506	16630
839.643	16584
839.781	16291
839.918	16249
840.055	16249
840.193	16162
840.33	16139
840.467	16303
840.604	16299
840.742	16565
840.879	16067
841.016	16158
841.153	16082
841.29	16398
841.427	16265
841.564	16196
841.701	16303
841.838	16253
841.975	16128
842.112	16112
842.249	16036
842.385	15956
842.522	16215
842.659	15998
842.796	15968
842.933	16188
843.069	15915
843.206	16006
843.343	16101
843.479	16067
843.616	15930
843.752	15884
843.889	15907
844.025	15991
844.162	15819
844.298	15979
844.435	15831
844.571	15755
844.708	15819
844.844	16021
844.98	15998
845.117	15983
845.253	15842
845.389	15698
845.525	15846
845.661	15892
845.798	15808
845.934	15945
846.07	15869
846.206	15857
846.342	16074
846.478	15793
846.614	15538
846.75	15450
846.886	15420
847.022	15439
847.158	15321
847.294	15485
847.429	15401
847.565	15367
847.701	15576
847.837	15154
847.972	14979
848.108	15180
848.244	15237
848.379	15024
848.515	14895
848.65	15043
848.786	15058
848.921	14971
849.057	15020
849.192	15009
849.328	14979
849.463	14986
849.598	14914
849.734	14937
849.869	14842
850.004	14887
850.14	14800
850.275	14716
850.41	14663
850.545	14697
850.68	14754
850.815	14773
850.95	14781
851.085	14910
851.22	14861
851.355	14697
851.49	14712
851.625	14636
851.76	14735
851.895	14644
852.03	14682
852.165	14769
852.299	14807
852.434	14754
852.569	14796
852.703	14743
852.838	14788
852.973	14941
853.107	14895
853.242	14682
853.376	14720
853.511	14533
853.645	14602
853.78	14697
853.914	14632
854.048	14507
854.183	14632
854.317	14651
854.451	14792
854.585	14590
854.72	14495
854.854	14705
854.988	14549
855.122	14568
855.256	14419
855.39	14606
855.524	14705
855.658	14712
855.792	14693
855.926	14701
856.06	14629
856.194	14659
856.327	14632
856.461	14541
856.595	14556
856.729	14686
856.862	14716
856.996	14617
857.13	14632
857.263	14762
857.397	14712
857.53	14640
857.664	14682
857.797	14621
857.931	14659
858.064	14625
858.197	14765
858.331	14602
858.464	14590
858.597	14507
858.731	14571
858.864	14511
858.997	14621
859.13	14533
859.263	14621
859.396	14655
859.529	14480
859.662	14613
859.795	14530
859.928	14560
860.061	14708
860.194	14842
860.327	14511
860.46	14590
860.592	14674
860.725	14765
860.858	14758
860.99	14667
861.123	14518
861.256	14511
861.388	14579
861.521	15393
861.653	14503
861.786	14568
861.918	14503
862.05	14408
862.183	14492
862.315	14640
862.447	14625
862.58	14575
862.712	14298
862.844	14343
862.976	14450
863.108	14583
863.24	14701
863.372	14343
863.504	14317
863.636	14317
863.768	14400
863.9	14278
864.032	14347
864.164	14400
864.296	14305
864.428	14465
864.559	14530
864.691	14488
864.823	14328
864.954	14454
865.086	14389
865.217	14385
865.349	14396
865.48	14381
865.612	14431
865.743	14571
865.875	14381
866.006	14282
866.137	14412
866.269	14320
866.4	14332
866.531	14412
866.662	14271
866.793	14457
866.924	14347
867.055	14355
867.186	14419
867.317	14294
867.448	14263
867.579	14275
867.71	14286
867.841	14210
867.972	14393
868.103	14282
868.233	14366
868.364	14355
868.495	14336
868.625	14556
868.756	14678
868.886	14469
869.017	14530
869.147	14670
869.278	14781
869.408	14617
869.539	14613
869.669	14613
869.799	14648
869.929	14773
870.06	14731
870.19	14960
870.32	14944
870.45	15017
870.58	14994
870.71	15119
870.84	15127
870.97	14979
871.1	15009
871.23	15192
871.36	15146
871.489	15093
871.619	15192
871.749	15161
871.879	15222
872.008	15237
872.138	15218
872.267	15161
872.397	15039
872.526	15104
872.656	14960
872.785	15097
872.915	15218
873.044	15230
873.173	15294
873.303	15287
873.432	15325
873.561	15302
873.69	15252
873.819	15237
873.948	15283
874.077	15237
874.206	15192
874.335	15173
874.464	15454
874.593	15591
874.722	15511
874.851	15553
874.979	15526
875.108	15591
875.237	15485
875.365	15481
875.494	15557
875.623	15557
875.751	15500
875.88	15599
876.008	15732
876.136	15800
876.265	15991
876.393	16063
876.521	16010
876.65	16128
876.778	15972
876.906	15823
877.034	15907
877.162	15937
877.29	15895
877.418	15941
877.546	15953
877.674	15998
877.802	16055
877.93	15964
878.058	15991
878.185	15907
878.313	15949
878.441	16017
878.568	15861
878.696	15941
878.824	15987
878.951	16116
879.079	16185
879.206	16322
879.333	16314
879.461	16147
879.588	16291
879.715	16352
879.842	16314
879.97	16211
880.097	15869
880.224	15972
880.351	15857
880.478	15941
880.605	15755
880.732	15873
880.859	16162
880.986	15930
881.112	16006
881.239	15895
881.366	15564
881.493	15500
881.619	15428
881.746	15545
881.872	15469
881.999	15389
882.125	15477
882.252	15477
882.378	15534
882.505	15641
882.631	15469
882.757	15389
882.883	15507
883.01	15256
883.136	15275
883.262	15233
883.388	15154
883.514	15386
883.64	15439
883.766	15268
883.892	15222
884.018	15207
884.143	15310
884.269	15363
884.395	15222
884.52	15032
884.646	15051
884.772	14902
884.897	14929
885.023	15055
885.148	15123
885.274	15100
885.399	15127
885.524	15074
885.65	15047
885.775	15039
885.9	14929
886.025	15138
886.15	15085
886.275	14990
886.4	14861
886.525	14952
886.65	14998
886.775	14975
886.9	15116
887.025	15169
887.149	15081
887.274	14914
887.399	14777
887.523	14880
887.648	14807
887.773	14727
887.897	14952
888.021	14838
888.146	14849
888.27	14960
888.395	14887
888.519	14910
888.643	15009
888.767	14895
888.891	14777
889.015	14659
889.139	14659
889.263	14651
889.387	14724
889.511	14796
889.635	14834
889.759	14663
889.883	14629
890.006	14720
890.13	14773
890.254	14629
890.377	14693
890.501	14419
890.624	14480
890.748	14583
890.871	14374
890.995	14370
891.118	14332
891.241	14358
891.364	14374
891.488	14423
891.611	14400
891.734	14484
891.857	14518
891.98	14374
892.103	14358
892.226	14469
892.349	14393
892.471	14351
892.594	14317
892.717	14393
892.839	14396
892.962	14324
893.085	14522
893.207	14454
893.33	14263
893.452	14278
893.575	14278
893.697	14358
893.819	14522
893.941	14473
894.064	14396
894.186	14427
894.308	14347
894.43	14518
894.552	14511
894.674	14465
894.796	14393
894.918	14446
895.04	14385
895.161	14533
895.283	14431
895.405	14415
895.526	14473
895.648	14533
895.769	14450
895.891	14556
896.012	14629
896.134	14598
896.255	14545
896.376	14434
896.498	14518
896.619	14735
896.74	14533
896.861	14621
896.982	14754
897.103	15024
897.224	14823
897.345	14773
897.466	14739
897.587	14777
897.708	14895
897.828	14842
897.949	14765
898.07	14587
898.19	14762
898.311	14906
898.431	14887
898.552	14807
898.672	15024
898.792	14941
898.913	14952
899.033	14838
899.153	14667
899.273	14663
899.393	14686
899.513	14750
899.633	14746
899.753	14792
899.873	14815
899.993	14826
900.113	14773
900.232	14697
900.352	14727
900.472	14670
900.591	14629
900.711	14533
900.83	14549
900.95	14686
901.069	14705
901.189	14530
901.308	14252
901.427	14206
901.546	14214
901.665	14259
901.784	14317
901.904	14119
902.023	14069
902.141	13936
902.26	13852
902.379	13887
902.498	13822
902.617	13811
902.735	13822
902.854	13849
902.973	13696
903.091	13597
903.21	13609
903.328	13548
903.446	13464
903.565	13358
903.683	13324
903.801	13327
903.919	13403
904.038	13365
904.156	13236
904.274	13244
904.392	13190
904.51	13187
904.627	13194
904.745	13362
904.863	13194
904.981	13038
905.098	12867
905.216	12863
905.334	12878
905.451	12920
905.569	12814
905.686	12943
905.803	12890
905.921	12623
906.038	12772
906.155	12741
906.272	12696
906.389	12559
906.506	12544
906.623	12509
906.74	12502
906.857	12403
906.974	12384
907.091	12563
907.208	12623
907.324	12585
907.441	12372
907.557	12232
907.674	12178
907.79	12155
907.907	12201
908.023	12224
908.139	12197
908.256	12175
908.372	12091
908.488	12228
908.604	11996
908.72	11992
908.836	11980
908.952	11950
909.068	11939
909.184	12095
909.3	12003
909.415	12049
909.531	11950
909.647	11707
909.762	11764
909.878	11710
909.993	11748
910.108	11813
910.224	11767
910.339	11764
910.454	11680
910.57	11623
910.685	11589
910.8	11889
910.915	11733
911.03	11638
911.145	11501
911.259	11512
911.374	11501
911.489	11467
911.604	11379
911.718	11181
911.833	11261
911.947	11140
912.062	11086
912.176	11181
912.291	11246
912.405	11181
912.519	11402
912.633	11372
912.748	11353
912.862	11212
912.976	11102
913.09	10968
913.204	11098
913.318	11105
913.431	11193
913.545	11242
913.659	11296
913.772	11136
913.886	10999
914	11014
914.113	11109
914.226	11124
914.34	11037
914.453	10927
914.566	11128
914.68	10927
914.793	10881
914.906	10820
915.019	10702
915.132	10664
915.245	10710
915.358	10752
915.47	10694
915.583	10752
915.696	10740
915.809	10850
915.921	10908
916.034	10725
916.146	10752
916.259	10694
916.371	10831
916.483	10782
916.595	10630
916.708	10645
916.82	10656
916.932	10675
917.044	10637
917.156	10672
917.268	10523
917.38	10558
917.491	10500
917.603	10607
917.715	10641
917.826	10596
917.938	10603
918.049	10462
918.161	10516
918.272	10714
918.384	10759
918.495	10550
918.606	10405
918.717	10382
918.828	10432
918.939	10413
919.05	10379
919.161	10386
919.272	10154
919.383	10207
919.494	10538
919.604	10641
919.715	10398
919.826	10348
919.936	10390
920.047	10538
920.157	10436
920.267	10645
920.378	10466
920.488	10409
920.598	10630
920.708	10812
920.818	10637
920.928	10580
921.038	10790
921.148	10729
921.258	10527
921.368	10318
921.477	10261
921.587	10272
921.697	10112
921.806	10337
921.916	10192
922.025	10051
922.134	9979
922.244	9945
922.353	10010
922.462	9926
922.571	9876
922.68	9663
922.789	9603
922.898	9675
923.007	9595
923.116	9717
923.224	9675
923.333	9667
923.442	9618
923.55	9580
923.659	9606
923.767	9648
923.876	9435
923.984	9568
924.092	9469
924.201	9523
924.309	9610
924.417	9625
924.525	9428
924.633	9492
924.741	10424
924.849	9386
924.956	9408
925.064	9279
925.172	9230
925.279	9348
925.387	9370
925.494	9405
925.602	9420
925.709	9431
925.816	9268
925.924	9298
926.031	9382
926.138	9382
926.245	9367
926.352	9256
926.459	9317
926.566	9340
926.673	9214
926.779	9256
926.886	9169
926.993	9020
927.099	9013
927.206	9055
927.312	8975
927.419	9017
927.525	8971
927.631	9112
927.737	8971
927.843	8887
927.95	8785
928.056	8883
928.162	8941
928.267	8998
928.373	9553
928.479	9005
928.585	8781
928.69	8891
928.796	8971
928.901	8735
929.007	8762
929.112	8781
929.218	8773
929.323	8766
929.428	8769
929.533	8811
929.638	8651
929.743	8720
929.848	8743
929.953	8781
930.058	8621
930.163	8522
930.267	8552
930.372	8655
930.477	8473
930.581	8731
930.685	8552
930.79	8434
930.894	8457
930.998	8454
931.103	8629
931.207	8210
931.311	8172
931.415	8111
931.519	7879
931.623	7986
