Data from test_V78500241_2351.txt Node
Date: Fri Mar 25 14:50:04 CST 2022
User: usil
Spectrometer: V785-0024
Trigger mode: 0
Integration Time (sec): 4.000000E-1
Scans to average: 1
Nonlinearity correction enabled: false
Boxcar width: 0
Storing dark spectrum: false
XAxis mode: Wavelengths
Number of Pixels in Spectrum: 1024
>>>>>Begin Spectral Data<<<<<
801.071	22234
801.214	22074
801.356	21747
801.499	21686
801.641	21492
801.783	21412
801.926	21599
802.068	21435
802.211	21355
802.353	21310
802.496	21032
802.638	21001
802.78	20990
802.923	20887
803.065	20842
803.208	20826
803.35	20861
803.492	20956
803.635	20921
803.777	20823
803.919	20868
804.061	21161
804.204	20925
804.346	20834
804.488	20758
804.63	20819
804.773	20644
804.915	20663
805.057	20807
805.199	20750
805.341	20804
805.483	20769
805.626	20868
805.768	20811
805.91	20785
806.052	20739
806.194	20902
806.336	20937
806.478	20705
806.62	20682
806.762	20815
806.904	20853
807.046	21146
807.188	21100
807.33	21024
807.472	21070
807.614	20982
807.756	21009
807.898	20902
808.04	20800
808.182	20743
808.324	20918
808.465	20956
808.607	21077
808.749	21332
808.891	21230
809.033	21397
809.174	21108
809.316	21017
809.458	21066
809.6	21104
809.741	21230
809.883	21112
810.025	21386
810.166	21230
810.308	21367
810.45	21195
810.591	21176
810.733	21112
810.875	20960
811.016	20864
811.158	20857
811.299	20971
811.441	21066
811.582	20971
811.724	20956
811.865	20899
812.007	20948
812.148	20899
812.29	20975
812.431	21138
812.573	21336
812.714	21386
812.855	21504
812.997	21488
813.138	21610
813.279	21458
813.421	21401
813.562	21382
813.703	21245
813.845	21108
813.986	20727
814.127	20697
814.268	20454
814.41	20545
814.551	20488
814.692	20522
814.833	20374
814.974	20450
815.115	20454
815.256	20324
815.397	20320
815.539	20275
815.68	20298
815.821	20180
815.962	20142
816.103	20149
816.244	20058
816.385	19906
816.526	20016
816.666	19750
816.807	19685
816.948	19658
817.089	19696
817.23	19738
817.371	19590
817.512	19632
817.653	19571
817.793	19552
817.934	19434
818.075	19571
818.216	19666
818.356	19476
818.497	19468
818.638	19346
818.778	19308
818.919	19331
819.06	19198
819.2	19426
819.341	19449
819.481	19411
819.622	19582
819.762	19651
819.903	19772
820.043	19647
820.184	19533
820.324	19586
820.465	19712
820.605	19544
820.746	19628
820.886	19502
821.026	19499
821.167	19449
821.307	19563
821.447	19601
821.588	19350
821.728	19285
821.868	19183
822.008	19019
822.149	18962
822.289	19015
822.429	18791
822.569	18608
822.709	18665
822.849	18471
822.99	18372
823.13	18429
823.27	18452
823.41	18323
823.55	18178
823.69	18346
823.83	18353
823.97	18167
824.11	18076
824.25	18026
824.389	18022
824.529	18152
824.669	18034
824.809	18064
824.949	18178
825.089	17961
825.228	18114
825.368	17866
825.508	17767
825.648	17813
825.787	17942
825.927	17885
826.067	17859
826.206	17741
826.346	17885
826.485	17828
826.625	17790
826.765	17863
826.904	17828
827.044	17585
827.183	17528
827.323	17512
827.462	17554
827.601	17459
827.741	17528
827.88	17589
828.02	17414
828.159	17532
828.298	17566
828.437	17551
828.577	17497
828.716	17642
828.855	17482
828.994	17307
829.134	17330
829.273	17265
829.412	17231
829.551	17147
829.69	17151
829.829	17212
829.968	17364
830.107	17284
830.246	17246
830.385	17311
830.524	17185
830.663	17014
830.802	17098
830.941	16771
831.08	16908
831.219	17003
831.357	16873
831.496	17174
831.635	16919
831.774	16812
831.913	16786
832.051	16683
832.19	16653
832.329	16668
832.467	16637
832.606	16561
832.744	16596
832.883	16577
833.022	16561
833.16	16573
833.299	16599
833.437	16618
833.576	16615
833.714	16683
833.852	16584
833.991	16752
834.129	16740
834.267	16664
834.406	16603
834.544	16577
834.682	16656
834.821	16561
834.959	16736
835.097	16618
835.235	16664
835.373	16664
835.511	16637
835.65	16535
835.788	16550
835.926	16314
836.064	16367
836.202	16405
836.34	16573
836.478	16615
836.615	16569
836.753	16580
836.891	16656
837.029	16584
837.167	16531
837.305	16455
837.443	16360
837.58	16405
837.718	16451
837.856	16371
837.993	16413
838.131	16382
838.269	16325
838.406	16360
838.544	16204
838.681	16139
838.819	16055
838.956	15972
839.094	15907
839.231	16002
839.369	16200
839.506	16386
839.643	16147
839.781	15953
839.918	15945
840.055	15930
840.193	15907
840.33	15915
840.467	15983
840.604	15876
840.742	16226
840.879	15766
841.016	15766
841.153	15899
841.29	16063
841.427	15964
841.564	16036
841.701	15953
841.838	15903
841.975	15857
842.112	15793
842.249	15728
842.385	15606
842.522	15861
842.659	15698
842.796	15660
842.933	15705
843.069	15599
843.206	15614
843.343	15842
843.479	15751
843.616	15778
843.752	15462
843.889	15549
844.025	15656
844.162	15450
844.298	15561
844.435	15485
844.571	15431
844.708	15622
844.844	15610
844.98	15644
845.117	15568
845.253	15420
845.389	15359
845.525	15420
845.661	15431
845.798	15291
845.934	15378
846.07	15154
846.206	15291
846.342	15443
846.478	15264
846.614	15062
846.75	15100
846.886	15074
847.022	15203
847.158	15020
847.294	15157
847.429	15150
847.565	15047
847.701	15272
847.837	14872
847.972	14682
848.108	14823
848.244	14933
848.379	14701
848.515	14693
848.65	14674
848.786	14514
848.921	14765
849.057	14937
849.192	14743
849.328	14785
849.463	14629
849.598	14697
849.734	14598
849.869	14560
850.004	14434
850.14	14461
850.275	14396
850.41	14396
850.545	14393
850.68	14347
850.815	14328
850.95	14438
851.085	14674
851.22	14503
851.355	14495
851.49	14347
851.625	14465
851.76	14358
851.895	14317
852.03	14225
852.165	14370
852.299	14396
852.434	14579
852.569	14438
852.703	14431
852.838	14503
852.973	14583
853.107	14522
853.242	14396
853.376	14240
853.511	14195
853.645	14244
853.78	14423
853.914	14355
854.048	14225
854.183	14263
854.317	14256
854.451	14446
854.585	14275
854.72	14374
854.854	14370
854.988	14263
855.122	14244
855.256	14164
855.39	14328
855.524	14202
855.658	14454
855.792	14313
855.926	14339
856.06	14438
856.194	14408
856.327	14275
856.461	14149
856.595	14286
856.729	14278
856.862	14385
856.996	14362
857.13	14362
857.263	14492
857.397	14450
857.53	14298
857.664	14423
857.797	14336
857.931	14480
858.064	14317
858.197	14450
858.331	14339
858.464	14271
858.597	14119
858.731	14244
858.864	14294
858.997	14309
859.13	14389
859.263	14396
859.396	14336
859.529	14309
859.662	14309
859.795	14271
859.928	14389
860.061	14507
860.194	14415
860.327	14366
860.46	14240
860.592	14374
860.725	14431
860.858	14446
860.99	14347
861.123	14275
861.256	14225
861.388	14343
861.521	14830
861.653	14248
861.786	14065
861.918	14172
862.05	14267
862.183	14298
862.315	14229
862.447	14381
862.58	14309
862.712	14126
862.844	14020
862.976	14153
863.108	14103
863.24	14419
863.372	14031
863.504	14084
863.636	14161
863.768	14176
863.9	14077
864.032	14035
864.164	14001
864.296	14111
864.428	14187
864.559	14164
864.691	14126
864.823	14259
864.954	14142
865.086	14195
865.217	14103
865.349	13997
865.48	14008
865.612	14058
865.743	14202
865.875	14062
866.006	13947
866.137	14100
866.269	14035
866.4	14123
866.531	14024
866.662	13989
866.793	14046
866.924	14035
867.055	14126
867.186	14062
867.317	14039
867.448	14031
867.579	13871
867.71	13925
867.841	13959
867.972	14077
868.103	14039
868.233	14046
868.364	14115
868.495	14157
868.625	14248
868.756	14282
868.886	14187
869.017	14313
869.147	14233
869.278	14396
869.408	14362
869.539	14305
869.669	14427
869.799	14408
869.929	14351
870.06	14442
870.19	14663
870.32	14712
870.45	14602
870.58	14758
870.71	14697
870.84	14750
870.97	14705
871.1	14636
871.23	14906
871.36	14895
871.489	14804
871.619	14804
871.749	14868
871.879	14887
872.008	15017
872.138	14925
872.267	14960
872.397	14807
872.526	14689
872.656	14727
872.785	14807
872.915	14906
873.044	14975
873.173	14963
873.303	14975
873.432	15047
873.561	15039
873.69	15024
873.819	15020
873.948	15157
874.077	14842
874.206	14899
874.335	14963
874.464	15123
874.593	15222
874.722	15176
874.851	15321
874.979	15233
875.108	15287
875.237	15233
875.365	15169
875.494	15207
875.623	15294
875.751	15161
875.88	15306
876.008	15351
876.136	15504
876.265	15618
876.393	15789
876.521	15827
876.65	15819
876.778	15652
876.906	15720
877.034	15743
877.162	15743
877.29	15637
877.418	15705
877.546	15660
877.674	15728
877.802	15698
877.93	15698
878.058	15576
878.185	15542
878.313	15679
878.441	15622
878.568	15542
878.696	15564
878.824	15698
878.951	15656
879.079	15876
879.206	15953
879.333	15770
879.461	15781
879.588	15827
879.715	15861
879.842	15922
879.97	15808
880.097	15447
880.224	15538
880.351	15614
880.478	15595
880.605	15530
880.732	15584
880.859	15736
880.986	15618
881.112	15538
881.239	15466
881.366	15275
881.493	15180
881.619	15135
881.746	15222
881.872	15184
881.999	15169
882.125	15161
882.252	15161
882.378	15264
882.505	15386
882.631	15211
882.757	15009
882.883	15055
883.01	14937
883.136	15020
883.262	14918
883.388	14811
883.514	15039
883.64	15058
883.766	14952
883.892	14845
884.018	14826
884.143	15024
884.269	15074
884.395	14727
884.52	14781
884.646	14716
884.772	14644
884.897	14606
885.023	14815
885.148	14891
885.274	14796
885.399	14792
885.524	14667
885.65	14655
885.775	14693
885.9	14663
886.025	14868
886.15	14781
886.275	14613
886.4	14610
886.525	14651
886.65	14693
886.775	14625
886.9	14811
887.025	14883
887.149	14625
887.274	14514
887.399	14495
887.523	14545
887.648	14419
887.773	14480
887.897	14537
888.021	14568
888.146	14507
888.27	14590
888.395	14727
888.519	14507
888.643	14655
888.767	14629
888.891	14492
889.015	14305
889.139	14438
889.263	14385
889.387	14514
889.511	14549
889.635	14514
889.759	14377
889.883	14339
890.006	14457
890.13	14484
890.254	14282
890.377	14366
890.501	14191
890.624	14214
890.748	14214
890.871	14130
890.995	14149
891.118	14035
891.241	14191
891.364	14100
891.488	14256
891.611	14069
891.734	14077
891.857	14195
891.98	14145
892.103	14206
892.226	14092
892.349	14020
892.471	13978
892.594	14012
892.717	14081
892.839	14077
892.962	14100
893.085	14168
893.207	14123
893.33	13944
893.452	14084
893.575	14054
893.697	14111
893.819	14218
893.941	14305
894.064	14248
894.186	14081
894.308	14081
894.43	14275
894.552	14339
894.674	14412
894.796	14046
894.918	14180
895.04	14062
895.161	14130
895.283	14149
895.405	14149
895.526	14199
895.648	14202
895.769	14191
895.891	14240
896.012	14298
896.134	14355
896.255	14199
896.376	14275
896.498	14317
896.619	14324
896.74	14286
896.861	14294
896.982	14610
897.103	14678
897.224	14522
897.345	14552
897.466	14404
897.587	14526
897.708	14644
897.828	14507
897.949	14530
898.07	14431
898.19	14492
898.311	14594
898.431	14552
898.552	14651
898.672	14598
898.792	14682
898.913	14625
899.033	14590
899.153	14636
899.273	14358
899.393	14465
899.513	14454
899.633	14434
899.753	14571
899.873	14446
899.993	14492
900.113	14446
900.232	14495
900.352	14469
900.472	14400
900.591	14313
900.711	14454
900.83	14320
900.95	14522
901.069	14495
901.189	14294
901.308	14054
901.427	13967
901.546	14103
901.665	14058
901.784	14050
901.904	13959
902.023	13723
902.141	13624
902.26	13643
902.379	13601
902.498	13628
902.617	13499
902.735	13639
902.854	13567
902.973	13476
903.091	13403
903.21	13327
903.328	13301
903.446	13247
903.565	13209
903.683	13183
903.801	13050
903.919	13099
904.038	13213
904.156	12970
904.274	13061
904.392	12981
904.51	12970
904.627	12973
904.745	12954
904.863	13042
904.981	12821
905.098	12646
905.216	12696
905.334	12783
905.451	12730
905.569	12669
905.686	12749
905.803	12650
905.921	12486
906.038	12578
906.155	12486
906.272	12361
906.389	12502
906.506	12247
906.623	12209
906.74	12315
906.857	12186
906.974	12243
907.091	12365
907.208	12410
907.324	12296
907.441	12209
907.557	12068
907.674	12041
907.79	11988
907.907	12011
908.023	11996
908.139	12053
908.256	11954
908.372	11878
908.488	11847
908.604	11870
908.72	11832
908.836	11901
908.952	11813
909.068	11764
909.184	11920
909.3	11718
909.415	11840
909.531	11805
909.647	11573
909.762	11501
909.878	11463
909.993	11676
910.108	11554
910.224	11512
910.339	11528
910.454	11505
910.57	11406
910.685	11360
910.8	11668
910.915	11680
911.03	11379
911.145	11265
911.259	11254
911.374	11307
911.489	11204
911.604	11147
911.718	10999
911.833	11033
911.947	10854
912.062	10843
912.176	11041
912.291	11029
912.405	11033
912.519	11140
912.633	11223
912.748	11067
912.862	10987
912.976	10896
913.09	10797
913.204	10828
913.318	10949
913.431	10930
913.545	11010
913.659	11003
913.772	10839
913.886	10763
914	10691
914.113	10866
914.226	10915
914.34	10919
914.453	10714
914.566	10809
914.68	10668
914.793	10634
914.906	10538
915.019	10542
915.132	10485
915.245	10478
915.358	10504
915.47	10481
915.583	10588
915.696	10565
915.809	10675
915.921	10634
916.034	10584
916.146	10360
916.259	10428
916.371	10565
916.483	10508
916.595	10466
916.708	10481
916.82	10451
916.932	10409
917.044	10462
917.156	10481
917.268	10299
917.38	10455
917.491	10272
917.603	10322
917.715	10394
917.826	10440
917.938	10379
918.049	10230
918.161	10325
918.272	10569
918.384	10538
918.495	10405
918.606	10200
918.717	10147
918.828	10253
918.939	10246
919.05	10211
919.161	10188
919.272	9991
919.383	10112
919.494	10215
919.604	10440
919.715	10257
919.826	10158
919.936	10196
920.047	10306
920.157	10344
920.267	10459
920.378	10329
920.488	10204
920.598	10375
920.708	10535
920.818	10489
920.928	10432
921.038	10611
921.148	10584
921.258	10257
921.368	10249
921.477	10135
921.587	10158
921.697	10025
921.806	10154
921.916	9960
922.025	9823
922.134	9800
922.244	9743
922.353	9876
922.462	9694
922.571	9686
922.68	9507
922.789	9420
922.898	9485
923.007	9530
923.116	9591
923.224	9557
923.333	9511
923.442	9408
923.55	9405
923.659	9397
923.767	9492
923.876	9313
923.984	9431
924.092	9325
924.201	9329
924.309	9329
924.417	9443
924.525	9321
924.633	9397
924.741	10128
924.849	9119
924.956	9313
925.064	9131
925.172	9047
925.279	9089
925.387	9157
925.494	9150
925.602	9241
925.709	9233
925.816	9036
925.924	9180
926.031	9260
926.138	9169
926.245	9207
926.352	9097
926.459	9218
926.566	9226
926.673	9070
926.779	9020
926.886	9028
926.993	8872
927.099	8830
927.206	8883
927.312	8811
927.419	8929
927.525	8880
927.631	8914
927.737	8785
927.843	8708
927.95	8659
928.056	8708
928.162	8773
928.267	8830
928.373	9382
928.479	8826
928.585	8655
928.69	8762
928.796	8807
928.901	8708
929.007	8579
929.112	8682
929.218	8731
929.323	8625
929.428	8621
929.533	8682
929.638	8541
929.743	8526
929.848	8659
929.953	8541
930.058	8507
930.163	8381
930.267	8351
930.372	8499
930.477	8298
930.581	8625
930.685	8484
930.79	8328
930.894	8301
930.998	8263
931.103	8434
931.207	8103
931.311	8115
931.415	7959
931.519	7788
931.623	7803
