Data from test_V78500241_3079.txt Node
Date: Fri Mar 25 14:55:09 CST 2022
User: usil
Spectrometer: V785-0024
Trigger mode: 0
Integration Time (sec): 4.000000E-1
Scans to average: 1
Nonlinearity correction enabled: false
Boxcar width: 0
Storing dark spectrum: false
XAxis mode: Wavelengths
Number of Pixels in Spectrum: 1024
>>>>>Begin Spectral Data<<<<<
801.071	22090
801.214	22048
801.356	21701
801.499	21732
801.641	21656
801.783	21477
801.926	21542
802.068	21306
802.211	21393
802.353	21363
802.496	21077
802.638	21093
802.78	20952
802.923	20876
803.065	20708
803.208	20640
803.35	20834
803.492	20842
803.635	21051
803.777	20845
803.919	20834
804.061	21131
804.204	20868
804.346	20788
804.488	20693
804.63	20811
804.773	20636
804.915	20800
805.057	20800
805.199	20587
805.341	20792
805.483	20883
805.626	20826
805.768	20552
805.91	20807
806.052	20906
806.194	20564
806.336	20735
806.478	20689
806.62	20682
806.762	20682
806.904	21001
807.046	20986
807.188	20979
807.33	21009
807.472	21058
807.614	21039
807.756	20906
807.898	20811
808.04	20769
808.182	20826
808.324	20724
808.465	20777
808.607	20952
808.749	21112
808.891	21268
809.033	21104
809.174	21165
809.316	21055
809.458	21058
809.6	21005
809.741	21131
809.883	21028
810.025	21294
810.166	21275
810.308	21241
810.45	21218
810.591	21032
810.733	21100
810.875	20937
811.016	20762
811.158	20773
811.299	20849
811.441	21051
811.582	20944
811.724	20880
811.865	20697
812.007	20762
812.148	20804
812.29	20925
812.431	20967
812.573	21135
812.714	21245
812.855	21321
812.997	21405
813.138	21591
813.279	21450
813.421	21420
813.562	21279
813.703	21051
813.845	21013
813.986	20682
814.127	20446
814.268	20503
814.41	20488
814.551	20476
814.692	20446
814.833	20313
814.974	20362
815.115	20358
815.256	20256
815.397	20195
815.539	20275
815.68	20130
815.821	20058
815.962	20122
816.103	19989
816.244	19997
816.385	19803
816.526	19860
816.666	19620
816.807	19514
816.948	19628
817.089	19677
817.23	19605
817.371	19506
817.512	19468
817.653	19457
817.793	19422
817.934	19491
818.075	19582
818.216	19582
818.356	19449
818.497	19373
818.638	19118
818.778	19232
818.919	19236
819.06	19213
819.2	19335
819.341	19358
819.481	19324
819.622	19457
819.762	19712
819.903	19662
820.043	19597
820.184	19422
820.324	19373
820.465	19571
820.605	19567
820.746	19468
820.886	19301
821.026	19533
821.167	19411
821.307	19472
821.447	19377
821.588	19316
821.728	19152
821.868	19084
822.008	19015
822.149	18947
822.289	18848
822.429	18688
822.569	18551
822.709	18646
822.849	18315
822.99	18342
823.13	18429
823.27	18338
823.41	18239
823.55	18121
823.69	18239
823.83	18266
823.97	18186
824.11	18034
824.25	17889
824.389	17992
824.529	18057
824.669	18011
824.809	18171
824.949	17988
825.089	18121
825.228	17988
825.368	17752
825.508	17741
825.648	17794
825.787	17843
825.927	17809
826.067	17817
826.206	17687
826.346	17821
826.485	17786
826.625	17699
826.765	17863
826.904	17661
827.044	17600
827.183	17570
827.323	17372
827.462	17448
827.601	17463
827.741	17402
827.88	17478
828.02	17292
828.159	17391
828.298	17448
828.437	17463
828.577	17463
828.716	17608
828.855	17463
828.994	17242
829.134	17193
829.273	17212
829.412	17086
829.551	17128
829.69	17128
829.829	17197
829.968	17296
830.107	17250
830.246	17113
830.385	17189
830.524	17052
830.663	17037
830.802	16828
830.941	16706
831.08	16793
831.219	16847
831.357	16850
831.496	16957
831.635	16828
831.774	16622
831.913	16577
832.051	16573
832.19	16611
832.329	16561
832.467	16478
832.606	16447
832.744	16485
832.883	16470
833.022	16497
833.16	16497
833.299	16466
833.437	16519
833.576	16577
833.714	16519
833.852	16531
833.991	16687
834.129	16577
834.267	16607
834.406	16500
834.544	16508
834.682	16573
834.821	16481
834.959	16847
835.097	16500
835.235	16599
835.373	16542
835.511	16588
835.65	16459
835.788	16405
835.926	16341
836.064	16242
836.202	16238
836.34	16432
836.478	16554
836.615	16314
836.753	16436
836.891	16546
837.029	16337
837.167	16428
837.305	16204
837.443	16242
837.58	16382
837.718	16455
837.856	16379
837.993	16246
838.131	16318
838.269	16135
838.406	16173
838.544	16128
838.681	15937
838.819	15987
838.956	15838
839.094	15778
839.231	15895
839.369	15869
839.506	16242
839.643	16040
839.781	15857
839.918	15793
840.055	15903
840.193	15785
840.33	15747
840.467	15873
840.604	15865
840.742	16040
840.879	15690
841.016	15675
841.153	15762
841.29	15915
841.427	15823
841.564	15884
841.701	15846
841.838	15781
841.975	15698
842.112	15789
842.249	15614
842.385	15599
842.522	15751
842.659	15557
842.796	15610
842.933	15591
843.069	15625
843.206	15576
843.343	15656
843.479	15538
843.616	15580
843.752	15393
843.889	15492
844.025	15587
844.162	15386
844.298	15576
844.435	15408
844.571	15348
844.708	15504
844.844	15557
844.98	15564
845.117	15458
845.253	15325
845.389	15252
845.525	15325
845.661	15351
845.798	15203
845.934	15180
846.07	15169
846.206	15230
846.342	15317
846.478	15207
846.614	14994
846.75	14906
846.886	14941
847.022	15142
847.158	15005
847.294	15032
847.429	15066
847.565	14910
847.701	15249
847.837	14773
847.972	14701
848.108	14800
848.244	14754
848.379	14571
848.515	14575
848.65	14590
848.786	14507
848.921	14564
849.057	14629
849.192	14659
849.328	14640
849.463	14644
849.598	14533
849.734	14495
849.869	14419
850.004	14278
850.14	14419
850.275	14362
850.41	14282
850.545	14263
850.68	14233
850.815	14332
850.95	14347
851.085	14541
851.22	14434
851.355	14351
851.49	14240
851.625	14244
851.76	14355
851.895	14263
852.03	14145
852.165	14328
852.299	14343
852.434	14374
852.569	14366
852.703	14294
852.838	14511
852.973	14419
853.107	14476
853.242	14282
853.376	14202
853.511	14092
853.645	14176
853.78	14278
853.914	14298
854.048	14096
854.183	14145
854.317	14187
854.451	14362
854.585	14180
854.72	14142
854.854	14271
854.988	14054
855.122	14126
855.256	14077
855.39	14145
855.524	14202
855.658	14237
855.792	14138
855.926	14248
856.06	14328
856.194	14351
856.327	14126
856.461	14145
856.595	14012
856.729	14313
856.862	14320
856.996	14161
857.13	14275
857.263	14404
857.397	14263
857.53	14271
857.664	14294
857.797	14263
857.931	14328
858.064	14294
858.197	14324
858.331	14172
858.464	14138
858.597	14126
858.731	14218
858.864	14180
858.997	14092
859.13	14183
859.263	14168
859.396	14278
859.529	14180
859.662	14084
859.795	14195
859.928	14225
860.061	14358
860.194	14317
860.327	14221
860.46	14107
860.592	14374
860.725	14305
860.858	14324
860.99	14206
861.123	14134
861.256	14084
861.388	14172
861.521	14853
861.653	14073
861.786	14069
861.918	14103
862.05	14107
862.183	14142
862.315	14206
862.447	14221
862.58	14176
862.712	13936
862.844	13909
862.976	13944
863.108	14103
863.24	14419
863.372	13940
863.504	13940
863.636	13894
863.768	13928
863.9	14024
864.032	13879
864.164	13925
864.296	14100
864.428	14111
864.559	14115
864.691	14054
864.823	13982
864.954	14115
865.086	14187
865.217	13879
865.349	13875
865.48	13963
865.612	13925
865.743	14081
865.875	13947
866.006	13986
866.137	14001
866.269	13928
866.4	13959
866.531	13917
866.662	13967
866.793	13917
866.924	13864
867.055	13860
867.186	14039
867.317	13875
867.448	13871
867.579	13955
867.71	13833
867.841	13967
867.972	14039
868.103	13959
868.233	14001
868.364	14016
868.495	14005
868.625	14130
868.756	14294
868.886	14168
869.017	14180
869.147	14339
869.278	14298
869.408	14237
869.539	14256
869.669	14343
869.799	14259
869.929	14377
870.06	14381
870.19	14480
870.32	14537
870.45	14484
870.58	14590
870.71	14617
870.84	14758
870.97	14621
871.1	14613
871.23	14800
871.36	14834
871.489	14762
871.619	14708
871.749	14838
871.879	14777
872.008	14979
872.138	14891
872.267	14750
872.397	14708
872.526	14655
872.656	14686
872.785	14712
872.915	14868
873.044	14921
873.173	14826
873.303	14883
873.432	14921
873.561	14921
873.69	14914
873.819	14792
873.948	15043
874.077	14925
874.206	14796
874.335	14838
874.464	15001
874.593	15176
874.722	15051
874.851	15097
874.979	15188
875.108	15241
875.237	15154
875.365	14982
875.494	15157
875.623	15180
875.751	15112
875.88	15123
876.008	15355
876.136	15401
876.265	15511
876.393	15690
876.521	15671
876.65	15762
876.778	15511
876.906	15523
877.034	15576
877.162	15545
877.29	15534
877.418	15580
877.546	15610
877.674	15599
877.802	15466
877.93	15618
878.058	15580
878.185	15515
878.313	15564
878.441	15564
878.568	15507
878.696	15469
878.824	15622
878.951	15675
879.079	15720
879.206	15937
879.333	15823
879.461	15637
879.588	15652
879.715	15781
879.842	15915
879.97	15542
880.097	15431
880.224	15386
880.351	15557
880.478	15492
880.605	15401
880.732	15431
880.859	15652
880.986	15416
881.112	15439
881.239	15454
881.366	15062
881.493	15100
881.619	15142
881.746	15146
881.872	15070
881.999	15104
882.125	14998
882.252	15097
882.378	15131
882.505	15195
882.631	15093
882.757	14899
882.883	15020
883.01	14861
883.136	14811
883.262	14773
883.388	14804
883.514	14967
883.64	14914
883.766	14857
883.892	14617
884.018	14727
884.143	14929
884.269	14944
884.395	14712
884.52	14651
884.646	14621
884.772	14533
884.897	14469
885.023	14682
885.148	14697
885.274	14708
885.399	14785
885.524	14632
885.65	14689
885.775	14594
885.9	14549
886.025	14705
886.15	14651
886.275	14629
886.4	14446
886.525	14533
886.65	14476
886.775	14594
886.9	14834
887.025	14933
887.149	14602
887.274	14457
887.399	14423
887.523	14461
887.648	14389
887.773	14317
887.897	14476
888.021	14560
888.146	14396
888.27	14511
888.395	14514
888.519	14526
888.643	14503
888.767	14522
888.891	14377
889.015	14290
889.139	14320
889.263	14328
889.387	14438
889.511	14522
889.635	14427
889.759	14267
889.883	14313
890.006	14320
890.13	14408
890.254	14134
890.377	14317
890.501	14123
890.624	14126
890.748	14168
890.871	14039
890.995	13951
891.118	13864
891.241	14058
891.364	14024
891.488	14054
891.611	13959
891.734	14107
891.857	14062
891.98	14005
892.103	14107
892.226	14012
892.349	13978
892.471	13913
892.594	13989
892.717	13970
892.839	13944
892.962	14035
893.085	14027
893.207	14039
893.33	13978
893.452	13871
893.575	14092
893.697	14039
893.819	14240
893.941	14267
894.064	14168
894.186	13898
894.308	14039
894.43	14123
894.552	14214
894.674	14161
894.796	13906
894.918	14119
895.04	14031
895.161	14100
895.283	14130
895.405	14123
895.526	14183
895.648	14130
895.769	14123
895.891	14081
896.012	14180
896.134	14240
896.255	14214
896.376	14138
896.498	14142
896.619	14275
896.74	14145
896.861	14332
896.982	14545
897.103	14621
897.224	14552
897.345	14438
897.466	14465
897.587	14484
897.708	14590
897.828	14602
897.949	14476
898.07	14339
898.19	14404
898.311	14621
898.431	14457
898.552	14526
898.672	14621
898.792	14678
898.913	14583
899.033	14590
899.153	14434
899.273	14336
899.393	14450
899.513	14461
899.633	14324
899.753	14328
899.873	14381
899.993	14457
900.113	14476
900.232	14412
900.352	14415
900.472	14313
900.591	14263
900.711	14187
900.83	14183
900.95	14267
901.069	14415
901.189	14229
901.308	14020
901.427	13917
901.546	13921
901.665	13928
901.784	13947
901.904	13791
902.023	13833
902.141	13556
902.26	13616
902.379	13540
902.498	13495
902.617	13441
902.735	13613
902.854	13445
902.973	13434
903.091	13244
903.21	13217
903.328	13263
903.446	13209
903.565	13160
903.683	13137
903.801	13034
903.919	13099
904.038	13057
904.156	12943
904.274	12943
904.392	12875
904.51	12787
904.627	12863
904.745	12901
904.863	12947
904.981	12749
905.098	12631
905.216	12658
905.334	12688
905.451	12585
905.569	12604
905.686	12646
905.803	12597
905.921	12437
906.038	12498
906.155	12437
906.272	12292
906.389	12296
906.506	12190
906.623	12224
906.74	12144
906.857	12038
906.974	12136
907.091	12194
907.208	12369
907.324	12114
907.441	12110
907.557	11965
907.674	12015
907.79	11828
907.907	11874
908.023	11961
908.139	11851
908.256	11851
908.372	11790
908.488	11805
908.604	11703
908.72	11756
908.836	11672
908.952	11661
909.068	11665
909.184	11771
909.3	11703
909.415	11779
909.531	11695
909.647	11486
909.762	11417
909.878	11463
909.993	11497
910.108	11471
910.224	11364
910.339	11478
910.454	11402
910.57	11292
910.685	11250
910.8	11551
910.915	11493
911.03	11360
911.145	11197
911.259	11075
911.374	11189
911.489	11014
911.604	11071
911.718	10919
911.833	10946
911.947	10850
912.062	10797
912.176	10927
912.291	10976
912.405	10900
912.519	11132
912.633	11071
912.748	10934
912.862	10908
912.976	10786
913.09	10706
913.204	10771
913.318	10835
913.431	10892
913.545	10896
913.659	10999
913.772	10850
913.886	10721
914	10565
914.113	10771
914.226	10790
914.34	10767
914.453	10561
914.566	10752
914.68	10694
914.793	10599
914.906	10459
915.019	10379
915.132	10284
915.245	10382
915.358	10360
915.47	10440
915.583	10451
915.696	10459
915.809	10618
915.921	10531
916.034	10421
916.146	10402
916.259	10333
916.371	10462
916.483	10432
916.595	10268
916.708	10337
916.82	10443
916.932	10394
917.044	10371
917.156	10360
917.268	10234
917.38	10272
917.491	10299
917.603	10261
917.715	10409
917.826	10402
917.938	10276
918.049	10120
918.161	10261
918.272	10390
918.384	10394
918.495	10276
918.606	10139
918.717	10097
918.828	10185
918.939	10185
919.05	10090
919.161	10109
919.272	9907
919.383	9998
919.494	10207
919.604	10367
919.715	10185
919.826	10086
919.936	10074
920.047	10185
920.157	10147
920.267	10333
920.378	10131
920.488	10135
920.598	10291
920.708	10481
920.818	10318
920.928	10390
921.038	10512
921.148	10470
921.258	10177
921.368	10090
921.477	9994
921.587	9945
921.697	9949
921.806	10032
921.916	9915
922.025	9816
922.134	9755
922.244	9606
922.353	9698
922.462	9584
922.571	9557
922.68	9416
922.789	9393
922.898	9466
923.007	9389
923.116	9466
923.224	9401
923.333	9405
923.442	9272
923.55	9260
923.659	9382
923.767	9233
923.876	9226
923.984	9389
924.092	9275
924.201	9245
924.309	9329
924.417	9302
924.525	9245
924.633	9275
924.741	10143
924.849	9032
924.956	9222
925.064	9077
925.172	9024
925.279	9116
925.387	9089
925.494	9093
925.602	9203
925.709	9116
925.816	8960
925.924	9017
926.031	9104
926.138	9070
926.245	9074
926.352	9058
926.459	9180
926.566	9131
926.673	9039
926.779	8883
926.886	8914
926.993	8849
927.099	8815
927.206	8777
927.312	8701
927.419	8880
927.525	8735
927.631	8929
927.737	8743
927.843	8708
927.95	8575
928.056	8667
928.162	8708
928.267	8750
928.373	9340
928.479	8826
928.585	8507
928.69	8682
928.796	8712
928.901	8579
929.007	8511
929.112	8663
929.218	8549
929.323	8541
929.428	8511
929.533	8655
929.638	8476
929.743	8450
929.848	8507
929.953	8552
930.058	8423
930.163	8256
930.267	8275
930.372	8434
930.477	8206
930.581	8495
930.685	8324
930.79	8157
930.894	8252
930.998	8256
931.103	8286
931.207	8012
931.311	7944
931.415	7906
931.519	7784
931.623	7715
