Data from test_V78500241_2228.txt Node
Date: Fri Mar 25 14:49:13 CST 2022
User: usil
Spectrometer: V785-0024
Trigger mode: 0
Integration Time (sec): 4.000000E-1
Scans to average: 1
Nonlinearity correction enabled: false
Boxcar width: 0
Storing dark spectrum: false
XAxis mode: Wavelengths
Number of Pixels in Spectrum: 1024
>>>>>Begin Spectral Data<<<<<
801.071	22116
801.214	22017
801.356	21789
801.499	21648
801.641	21564
801.783	21625
801.926	21561
802.068	21553
802.211	21401
802.353	21291
802.496	21157
802.638	21039
802.78	21093
802.923	20906
803.065	20815
803.208	20883
803.35	20861
803.492	20956
803.635	21043
803.777	20849
803.919	20868
804.061	21344
804.204	20921
804.346	20887
804.488	20655
804.63	20727
804.773	20792
804.915	20853
805.057	20941
805.199	20716
805.341	20788
805.483	20857
805.626	20956
805.768	20739
805.91	20796
806.052	20731
806.194	20705
806.336	20979
806.478	20830
806.62	20697
806.762	20857
806.904	21070
807.046	21245
807.188	21180
807.33	21119
807.472	21138
807.614	20921
807.756	20990
807.898	20872
808.04	20826
808.182	20902
808.324	20937
808.465	20861
808.607	21119
808.749	21173
808.891	21310
809.033	21340
809.174	21275
809.316	21123
809.458	21195
809.6	21207
809.741	21192
809.883	21275
810.025	21370
810.166	21348
810.308	21302
810.45	21302
810.591	21249
810.733	20986
810.875	20994
811.016	20834
811.158	20735
811.299	20960
811.441	21089
811.582	21100
811.724	20902
811.865	20800
812.007	20910
812.148	20963
812.29	21020
812.431	21146
812.573	21264
812.714	21302
812.855	21462
812.997	21553
813.138	21637
813.279	21583
813.421	21450
813.562	21386
813.703	21104
813.845	21108
813.986	20758
814.127	20762
814.268	20606
814.41	20408
814.551	20492
814.692	20602
814.833	20530
814.974	20469
815.115	20465
815.256	20431
815.397	20309
815.539	20206
815.68	20206
815.821	20096
815.962	20271
816.103	20168
816.244	19940
816.385	20039
816.526	19936
816.666	19818
816.807	19662
816.948	19719
817.089	19753
817.23	19769
817.371	19651
817.512	19609
817.653	19704
817.793	19662
817.934	19620
818.075	19670
818.216	19632
818.356	19643
818.497	19430
818.638	19190
818.778	19137
818.919	19308
819.06	19304
819.2	19369
819.341	19499
819.481	19540
819.622	19647
819.762	19788
819.903	19750
820.043	19738
820.184	19647
820.324	19658
820.465	19677
820.605	19613
820.746	19670
820.886	19464
821.026	19441
821.167	19506
821.307	19537
821.447	19590
821.588	19518
821.728	19209
821.868	19183
822.008	18977
822.149	19004
822.289	19072
822.429	18745
822.569	18677
822.709	18654
822.849	18490
822.99	18631
823.13	18528
823.27	18391
823.41	18300
823.55	18281
823.69	18285
823.83	18380
823.97	18273
824.11	18019
824.25	18003
824.389	18140
824.529	18144
824.669	18121
824.809	18155
824.949	18136
825.089	18114
825.228	18068
825.368	17950
825.508	17847
825.648	17942
825.787	17950
825.927	17836
826.067	17786
826.206	17783
826.346	17847
826.485	17741
826.625	17889
826.765	17939
826.904	17882
827.044	17684
827.183	17733
827.323	17577
827.462	17573
827.601	17615
827.741	17611
827.88	17528
828.02	17353
828.159	17478
828.298	17547
828.437	17684
828.577	17474
828.716	17661
828.855	17512
828.994	17337
829.134	17258
829.273	17368
829.412	17242
829.551	17227
829.69	17265
829.829	17239
829.968	17360
830.107	17311
830.246	17258
830.385	17189
830.524	17041
830.663	17094
830.802	16984
830.941	16919
831.08	16835
831.219	16972
831.357	16949
831.496	17220
831.635	16991
831.774	16805
831.913	16828
832.051	16710
832.19	16691
832.329	16664
832.467	16599
832.606	16569
832.744	16569
832.883	16558
833.022	16565
833.16	16546
833.299	16645
833.437	16603
833.576	16660
833.714	16580
833.852	16618
833.991	16569
834.129	16767
834.267	16710
834.406	16535
834.544	16641
834.682	16668
834.821	16516
834.959	16744
835.097	16664
835.235	16691
835.373	16607
835.511	16691
835.65	16535
835.788	16611
835.926	16478
836.064	16318
836.202	16371
836.34	16523
836.478	16565
836.615	16447
836.753	16508
836.891	16618
837.029	16512
837.167	16516
837.305	16424
837.443	16413
837.58	16348
837.718	16542
837.856	16390
837.993	16409
838.131	16424
838.269	16413
838.406	16398
838.544	16226
838.681	16078
838.819	16067
838.956	15968
839.094	15960
839.231	15953
839.369	16166
839.506	16318
839.643	16226
839.781	16010
839.918	15865
840.055	16021
840.193	15987
840.33	15907
840.467	15903
840.604	15918
840.742	16143
840.879	15873
841.016	15861
841.153	15800
841.29	15972
841.427	15949
841.564	15979
841.701	16006
841.838	15899
841.975	15880
842.112	15842
842.249	15778
842.385	15644
842.522	15903
842.659	15720
842.796	15751
842.933	15709
843.069	15709
843.206	15770
843.343	15717
843.479	15743
843.616	15789
843.752	15515
843.889	15576
844.025	15629
844.162	15530
844.298	15542
844.435	15568
844.571	15443
844.708	15481
844.844	15618
844.98	15629
845.117	15591
845.253	15488
845.389	15389
845.525	15450
845.661	15370
845.798	15268
845.934	15283
846.07	15317
846.206	15287
846.342	15370
846.478	15294
846.614	15116
846.75	14963
846.886	14994
847.022	15241
847.158	15070
847.294	14998
847.429	15077
847.565	14994
847.701	15287
847.837	14811
847.972	14724
848.108	14910
848.244	14842
848.379	14693
848.515	14667
848.65	14590
848.786	14606
848.921	14636
849.057	14746
849.192	14781
849.328	14701
849.463	14716
849.598	14670
849.734	14602
849.869	14522
850.004	14377
850.14	14499
850.275	14541
850.41	14343
850.545	14423
850.68	14419
850.815	14530
850.95	14446
851.085	14670
851.22	14469
851.355	14366
851.49	14419
851.625	14393
851.76	14415
851.895	14366
852.03	14339
852.165	14393
852.299	14450
852.434	14537
852.569	14450
852.703	14484
852.838	14476
852.973	14564
853.107	14492
853.242	14396
853.376	14282
853.511	14149
853.645	14275
853.78	14423
853.914	14225
854.048	14328
854.183	14290
854.317	14366
854.451	14499
854.585	14290
854.72	14225
854.854	14408
854.988	14168
855.122	14313
855.256	14187
855.39	14206
855.524	14400
855.658	14336
855.792	14290
855.926	14259
856.06	14393
856.194	14343
856.327	14172
856.461	14183
856.595	14282
856.729	14214
856.862	14313
856.996	14328
857.13	14336
857.263	14442
857.397	14400
857.53	14313
857.664	14343
857.797	14347
857.931	14396
858.064	14358
858.197	14271
858.331	14320
858.464	14225
858.597	14233
858.731	14343
858.864	14320
858.997	14309
859.13	14305
859.263	14305
859.396	14385
859.529	14298
859.662	14298
859.795	14214
859.928	14355
860.061	14575
860.194	14507
860.327	14393
860.46	14286
860.592	14408
860.725	14461
860.858	14396
860.99	14252
861.123	14176
861.256	14320
861.388	14339
861.521	14849
861.653	14195
861.786	14149
861.918	14126
862.05	14210
862.183	14248
862.315	14336
862.447	14290
862.58	14210
862.712	13936
862.844	14024
862.976	14088
863.108	14130
863.24	14461
863.372	14027
863.504	14024
863.636	13989
863.768	14172
863.9	14016
864.032	13989
864.164	14050
864.296	14157
864.428	14309
864.559	14206
864.691	14115
864.823	14164
864.954	14077
865.086	14161
865.217	14062
865.349	14005
865.48	14073
865.612	14107
865.743	14168
865.875	14035
866.006	14012
866.137	14054
866.269	13997
866.4	14123
866.531	13959
866.662	13970
866.793	13982
866.924	14054
867.055	14008
867.186	14024
867.317	13986
867.448	14027
867.579	13967
867.71	13883
867.841	14039
867.972	14043
868.103	14111
868.233	14062
868.364	13970
868.495	14161
868.625	14263
868.756	14480
868.886	14210
869.017	14248
869.147	14438
869.278	14423
869.408	14396
869.539	14282
869.669	14282
869.799	14240
869.929	14431
870.06	14465
870.19	14564
870.32	14587
870.45	14689
870.58	14727
870.71	14796
870.84	14845
870.97	14743
871.1	14762
871.23	14849
871.36	14880
871.489	14758
871.619	14838
871.749	14830
871.879	14880
872.008	15009
872.138	14918
872.267	14887
872.397	14769
872.526	14754
872.656	14701
872.785	14689
872.915	14918
873.044	14975
873.173	14906
873.303	14967
873.432	14956
873.561	14956
873.69	14948
873.819	15013
873.948	15001
874.077	15017
874.206	14975
874.335	14975
874.464	15146
874.593	15230
874.722	15211
874.851	15268
874.979	15252
875.108	15351
875.237	15135
875.365	15207
875.494	15199
875.623	15332
875.751	15214
875.88	15344
876.008	15424
876.136	15477
876.265	15660
876.393	15800
876.521	15827
876.65	15751
876.778	15762
876.906	15629
877.034	15663
877.162	15679
877.29	15667
877.418	15747
877.546	15606
877.674	15705
877.802	15694
877.93	15682
878.058	15675
878.185	15644
878.313	15584
878.441	15648
878.568	15667
878.696	15549
878.824	15755
878.951	15819
879.079	15861
879.206	16006
879.333	15838
879.461	15629
879.588	15808
879.715	15880
879.842	15949
879.97	15713
880.097	15519
880.224	15492
880.351	15553
880.478	15561
880.605	15462
880.732	15526
880.859	15728
880.986	15526
881.112	15587
881.239	15439
881.366	15252
881.493	15348
881.619	15165
881.746	15142
881.872	15176
881.999	15184
882.125	15157
882.252	15214
882.378	15237
882.505	15332
882.631	15108
882.757	14963
882.883	15009
883.01	15108
883.136	14933
883.262	14804
883.388	14811
883.514	15047
883.64	15020
883.766	14899
883.892	14807
884.018	14849
884.143	14872
884.269	15089
884.395	14724
884.52	14617
884.646	14731
884.772	14705
884.897	14545
885.023	14670
885.148	14838
885.274	14857
885.399	14811
885.524	14754
885.65	14826
885.775	14758
885.9	14670
886.025	14826
886.15	14724
886.275	14701
886.4	14678
886.525	14724
886.65	14651
886.775	14697
886.9	14842
887.025	14842
887.149	14746
887.274	14495
887.399	14511
887.523	14606
887.648	14408
887.773	14442
887.897	14663
888.021	14564
888.146	14526
888.27	14716
888.395	14731
888.519	14602
888.643	14560
888.767	14587
888.891	14492
889.015	14343
889.139	14461
889.263	14343
889.387	14377
889.511	14648
889.635	14564
889.759	14366
889.883	14343
890.006	14465
890.13	14579
890.254	14244
890.377	14396
890.501	14282
890.624	14161
890.748	14221
890.871	14126
890.995	14008
891.118	13997
891.241	14084
891.364	14103
891.488	14172
891.611	14180
891.734	14157
891.857	14126
891.98	14111
892.103	14176
892.226	14168
892.349	14142
892.471	13947
892.594	14020
892.717	14100
892.839	14115
892.962	14039
893.085	14077
893.207	14107
893.33	14024
893.452	13978
893.575	14191
893.697	14050
893.819	14206
893.941	14290
894.064	14282
894.186	14031
894.308	14058
894.43	14218
894.552	14282
894.674	14210
894.796	14096
894.918	14183
895.04	14149
895.161	14263
895.283	14275
895.405	14161
895.526	14221
895.648	14199
895.769	14332
895.891	14305
896.012	14244
896.134	14339
896.255	14324
896.376	14229
896.498	14267
896.619	14244
896.74	14305
896.861	14275
896.982	14644
897.103	14720
897.224	14629
897.345	14594
897.466	14408
897.587	14541
897.708	14545
897.828	14583
897.949	14541
898.07	14309
898.19	14427
898.311	14712
898.431	14651
898.552	14629
898.672	14727
898.792	14724
898.913	14564
899.033	14659
899.153	14484
899.273	14431
899.393	14396
899.513	14484
899.633	14423
899.753	14457
899.873	14438
899.993	14564
900.113	14499
900.232	14579
900.352	14552
900.472	14442
900.591	14309
900.711	14370
900.83	14427
900.95	14484
901.069	14385
901.189	14259
901.308	14138
901.427	14035
901.546	13955
901.665	14031
901.784	14050
901.904	13909
902.023	13791
902.141	13609
902.26	13491
902.379	13662
902.498	13651
902.617	13616
902.735	13613
902.854	13605
902.973	13578
903.091	13308
903.21	13316
903.328	13274
903.446	13217
903.565	13133
903.683	13179
903.801	13057
903.919	13103
904.038	13240
904.156	12985
904.274	13084
904.392	12939
904.51	12897
904.627	12973
904.745	13084
904.863	13061
904.981	12772
905.098	12662
905.216	12620
905.334	12692
905.451	12677
905.569	12585
905.686	12696
905.803	12665
905.921	12544
906.038	12578
906.155	12460
906.272	12445
906.389	12395
906.506	12319
906.623	12289
906.74	12277
906.857	12171
906.974	12152
907.091	12330
907.208	12369
907.324	12254
907.441	12235
907.557	11992
907.674	12110
907.79	11817
907.907	11988
908.023	11961
908.139	11996
908.256	11935
908.372	11870
908.488	11851
908.604	11767
908.72	11752
908.836	11726
908.952	11779
909.068	11771
909.184	11863
909.3	11752
909.415	11920
909.531	11783
909.647	11585
909.762	11532
909.878	11528
909.993	11554
910.108	11493
910.224	11573
910.339	11577
910.454	11429
910.57	11353
910.685	11311
910.8	11680
910.915	11509
911.03	11334
911.145	11277
911.259	11143
911.374	11239
911.489	11117
911.604	11018
911.718	10972
911.833	11064
911.947	10904
912.062	10839
912.176	10965
912.291	10984
912.405	10965
912.519	11143
912.633	11181
912.748	11090
912.862	10972
912.976	10915
913.09	10752
913.204	10797
913.318	10828
913.431	10942
913.545	10930
913.659	10919
913.772	10953
913.886	10793
914	10733
914.113	10805
914.226	10938
914.34	10774
914.453	10706
914.566	10809
914.68	10706
914.793	10702
914.906	10481
915.019	10481
915.132	10379
915.245	10508
915.358	10516
915.47	10500
915.583	10493
915.696	10599
915.809	10611
915.921	10687
916.034	10481
916.146	10474
916.259	10356
916.371	10478
916.483	10504
916.595	10428
916.708	10451
916.82	10443
916.932	10405
917.044	10409
917.156	10375
917.268	10348
917.38	10344
917.491	10344
917.603	10314
917.715	10424
917.826	10459
917.938	10299
918.049	10234
918.161	10348
918.272	10424
918.384	10428
918.495	10344
918.606	10181
918.717	10158
918.828	10158
918.939	10234
919.05	10093
919.161	10154
919.272	9983
919.383	10135
919.494	10207
919.604	10481
919.715	10204
919.826	10105
919.936	10154
920.047	10295
920.157	10207
920.267	10413
920.378	10230
920.488	10280
920.598	10417
920.708	10535
920.818	10500
920.928	10375
921.038	10500
921.148	10550
921.258	10314
921.368	10211
921.477	10044
921.587	9991
921.697	10013
921.806	10002
921.916	10021
922.025	9808
922.134	9770
922.244	9705
922.353	9743
922.462	9637
922.571	9629
922.68	9492
922.789	9485
922.898	9526
923.007	9416
923.116	9584
923.224	9435
923.333	9420
923.442	9359
923.55	9344
923.659	9389
923.767	9405
923.876	9260
923.984	9397
924.092	9336
924.201	9397
924.309	9355
924.417	9367
924.525	9363
924.633	9294
924.741	10154
924.849	9066
924.956	9237
925.064	9135
925.172	9036
925.279	9104
925.387	9108
925.494	9195
925.602	9253
925.709	9207
925.816	9077
925.924	9188
926.031	9176
926.138	9207
926.245	9119
926.352	9055
926.459	9211
926.566	9195
926.673	9104
926.779	8990
926.886	8975
926.993	8883
927.099	8876
927.206	8826
927.312	8785
927.419	8823
927.525	8864
927.631	8853
927.737	8861
927.843	8727
927.95	8659
928.056	8678
928.162	8667
928.267	8845
928.373	9348
928.479	8842
928.585	8579
928.69	8762
928.796	8781
928.901	8632
929.007	8480
929.112	8670
929.218	8575
929.323	8587
929.428	8552
929.533	8708
929.638	8526
929.743	8552
929.848	8632
929.953	8492
930.058	8457
930.163	8282
930.267	8374
930.372	8480
930.477	8343
930.581	8503
930.685	8396
930.79	8259
930.894	8339
930.998	8225
931.103	8343
931.207	8065
931.311	7986
931.415	7955
931.519	7757
931.623	7750
